    1.500   44.7499
    1.515   45.4660
    1.530   44.0442
    1.545   43.6124
    1.560   42.8647
    1.575   41.3060
    1.590   41.0321
    1.605   40.6003
    1.620   39.6630
    1.635   39.8947
    1.650   39.6735
    1.665   37.9147
    1.680   38.3149
    1.695   37.8831
    1.710   36.8720
    1.725   36.0927
    1.740   35.5872
    1.755   34.9342
    1.770   34.6604
    1.785   34.7762
    1.800   34.1443
    1.815   33.8915
    1.830   34.6393
    1.845   33.2491
    1.860   33.1964
    1.875   32.8699
    1.890   32.4381
    1.905   32.1432
    1.920   32.3117
    1.935   31.9958
    1.950   31.3744
    1.965   30.8057
    1.980   30.9321
    1.995   30.9637
    2.010   30.3633
    2.025   30.2686
    2.040   30.5108
    2.055   29.6682
    2.070   29.1101
    2.085   29.2891
    2.100   29.6156
    2.115   28.9626
    2.130   29.1417
    2.145   28.8362
    2.160   28.1622
    2.175   27.9305
    2.190   28.4255
    2.205   28.5308
    2.220   28.7309
    2.235   28.1727
    2.250   27.6777
    2.265   26.5508
    2.280   27.0669
    2.295   27.2143
    2.310   26.6456
    2.325   27.0037
    2.340   27.6145
    2.355   27.2565
    2.370   28.1938
    2.385   28.6045
    2.400   27.0563
    2.415   27.2670
    2.430   26.3718
    2.445   27.4355
    2.460   26.9616
    2.475   26.9721
    2.490   26.5929
    2.505   27.0669
    2.520   27.4460
    2.535   27.0458
    2.550   26.6140
    2.565   27.1406
    2.580   28.7204
    2.595   27.9410
    2.610   27.8252
    2.625   27.7514
    2.640   27.3407
    2.655   28.8994
    2.670   28.7309
    2.685   28.0147
    2.700   28.6361
    2.715   28.5413
    2.730   29.1206
    2.745   29.0995
    2.760   29.9947
    2.775   29.0047
    2.790   29.7841
    2.805   30.6898
    2.820   30.5108
    2.835   31.2586
    2.850   31.7746
    2.865   31.9431
    2.880   31.9326
    2.895   31.7220
    2.910   33.0490
    2.925   33.8178
    2.940   33.4387
    2.955   34.3023
    2.970   33.9863
    2.985   34.7973
    3.000   35.5556
    3.015   36.5034
    3.030   37.4092
    3.045   37.1037
    3.060   37.5671
    3.075   38.3149
    3.090   39.0205
    3.105   39.8526
    3.120   40.6003
    3.135   41.8431
    3.150   42.8015
    3.165   43.3807
    3.180   45.5608
    3.195   46.3612
    3.210   47.5619
    3.225   48.5519
    3.240   48.1727
    3.255   51.8483
    3.270   53.3965
    3.285   54.1548
    3.300   56.3349
    3.315   58.2201
    3.330   60.6530
    3.345   62.2222
    3.360   64.1812
    3.375   66.9300
    3.390   69.5524
    3.405   72.7120
    3.420   75.7030
    3.435   77.6409
    3.450   79.1890
    3.465   81.6430
    3.480   81.4745
    3.495   80.6319
    3.510   78.4202
    3.525   75.0290
    3.540   70.1738
    3.555   65.6135
    3.570   61.0111
    3.585   56.8931
    3.600   53.1543
    3.615   51.2902
    3.630   48.8046
    3.645   47.0037
    3.660   46.4771
    3.675   45.0974
    3.690   44.5076
    3.705   44.3918
    3.720   44.3602
    3.735   44.8868
    3.750   44.4550
    3.765   44.8552
    3.780   45.2133
    3.795   45.8452
    3.810   44.8552
    3.825   44.3813
    3.840   45.7083
    3.855   44.9710
    3.870   46.1717
    3.885   45.1711
    3.900   45.5082
    3.915   44.2338
    3.930   44.4760
    3.945   43.0016
    3.960   41.3902
    3.975   38.7256
    3.990   37.5040
    4.005   35.7978
    4.020   33.7862
    4.035   31.7746
    4.050   30.8373
    4.065   28.9205
    4.080   26.9089
    4.095   25.5398
    4.110   24.4128
    4.125   23.4018
    4.140   22.4329
    4.155   22.0748
    4.170   20.6635
    4.185   20.0421
    4.200   19.3576
    4.215   18.3676
    4.230   17.9358
    4.245   16.6930
    4.260   16.5666
    4.275   16.8615
    4.290   16.5561
    4.305   15.9347
    4.320   15.3028
    4.335   15.6609
    4.350   14.0706
    4.365   14.6498
    4.380   14.7341
    4.395   13.8073
    4.410   13.9863
    4.425   13.8494
    4.440   13.5861
    4.455   13.5861
    4.470   13.0595
    4.485   13.1648
    4.500   13.2385
    4.515   13.3017
    4.530   12.9858
    4.545   12.9647
    4.560   12.7225
    4.575   12.4381
    4.590   12.2591
    4.605   12.2591
    4.620   12.2064
    4.635   12.8805
    4.650   13.1859
    4.665   11.8694
    4.680   11.5008
    4.695   11.7641
    4.710   11.4271
    4.725   11.5429
    4.740   11.6798
    4.755   11.7430
    4.770   11.3217
    4.785   11.7536
    4.800   11.3112
    4.815   11.1638
    4.830   10.9321
    4.845   11.0374
    4.860   11.6798
    4.875   11.2270
    4.890   10.8794
    4.905   11.2691
    4.920   10.7425
    4.935   11.1848
    4.950   11.6904
    4.965   11.0374
    4.980   10.7425
    4.995   10.9215
    5.010   10.5108
    5.025   10.3423
    5.040   10.6688
    5.055   11.0058
    5.070   10.8583
    5.085   10.3423
    5.100   10.5319
    5.115    9.9842
    5.130   10.3844
    5.145   10.4160
    5.160   10.0474
    5.175    9.8684
    5.190   10.1527
    5.205   10.9953
    5.220   10.5845
    5.235   10.7741
    5.250   10.2896
    5.265   10.6688
    5.280   10.7636
    5.295   10.2791
    5.310   10.0263
    5.325   10.5845
    5.340    9.9105
    5.355    9.5208
    5.370    9.6998
    5.385    9.6472
    5.400    9.8894
    5.415   10.5424
    5.430   10.0369
    5.445    9.8473
    5.460   10.0474
    5.475    9.4787
    5.490    9.3628
    5.505    9.4892
    5.520    9.6051
    5.535   10.0053
    5.550    9.8157
    5.565    9.6577
    5.580    9.4892
    5.595    9.6051
    5.610    9.3207
    5.625    9.6788
    5.640    9.5313
    5.655    9.5103
    5.670    9.2680
    5.685    9.6998
    5.700    9.4997
    5.715    9.5208
    5.730   10.1738
    5.745    9.2259
    5.760    9.5945
    5.775    9.5524
    5.790    9.0995
    5.805    9.3944
    5.820    9.2259
    5.835    9.2575
    5.850    9.8473
    5.865    9.5629
    5.880    9.1206
    5.895    9.3207
    5.910    9.4365
    5.925    9.1943
    5.940    9.1838
    5.955    8.9942
    5.970    9.2259
    5.985    8.6467
    6.000    9.3523
    6.015    9.2575
    6.030    9.0890
    6.045    8.9521
    6.060    9.2786
    6.075    9.7209
    6.090    9.0890
    6.105    8.9626
    6.120    9.2259
    6.135    9.6577
    6.150    9.3628
    6.165    9.4155
    6.180    8.9942
    6.195    9.1522
    6.210    9.1101
    6.225    9.8157
    6.240    9.3523
    6.255    9.5629
    6.270    9.3312
    6.285    9.6682
    6.300    9.6788
    6.315    9.2891
    6.330    9.5524
    6.345    9.4787
    6.360    9.6998
    6.375    9.8157
    6.390    9.8157
    6.405   10.2370
    6.420    9.9210
    6.435   10.0263
    6.450   10.0053
    6.465    9.9210
    6.480   10.3423
    6.495   10.3318
    6.510    9.9210
    6.525   10.4055
    6.540   10.1843
    6.555   10.2264
    6.570   10.5529
    6.585   10.6582
    6.600   10.1316
    6.615   10.7004
    6.630   11.5534
    6.645   11.4903
    6.660   11.2480
    6.675   11.2586
    6.690   11.6798
    6.705   11.7957
    6.720   12.3644
    6.735   12.3433
    6.750   12.4381
    6.765   12.9121
    6.780   13.5650
    6.795   13.7546
    6.810   14.0495
    6.825   14.4076
    6.840   14.5024
    6.855   15.3133
    6.870   15.3555
    6.885   15.8294
    6.900   16.7562
    6.915   16.9036
    6.930   17.4408
    6.945   18.3992
    6.960   19.1469
    6.975   18.5571
    6.990   18.7151
    7.005   18.3044
    7.020   19.1153
    7.035   17.3776
    7.050   16.3665
    7.065   15.5240
    7.080   15.3449
    7.095   14.8183
    7.110   13.8283
    7.125   12.7751
    7.140   12.6066
    7.155   12.1538
    7.170   11.9747
    7.185   11.8167
    7.200   11.4271
    7.215   11.4903
    7.230   11.8483
    7.245   11.3639
    7.260   11.5745
    7.275   10.9531
    7.290   10.4581
    7.305   10.8583
    7.320   11.1532
    7.335   10.5424
    7.350   10.7530
    7.365   10.8899
    7.380   11.0690
    7.395   10.7109
    7.410   10.8899
    7.425   11.0374
    7.440   10.7741
    7.455   11.1638
    7.470   10.8268
    7.485   11.2586
    7.500   11.5534
    7.515   11.3639
    7.530   11.5219
    7.545   11.7746
    7.560   11.9326
    7.575   11.4587
    7.590   11.6693
    7.605   11.9642
    7.620   12.3117
    7.635   12.9121
    7.650   13.3228
    7.665   13.3755
    7.680   13.1648
    7.695   13.8389
    7.710   13.8705
    7.725   13.9968
    7.740   14.0600
    7.755   14.9236
    7.770   14.9552
    7.785   14.9763
    7.800   15.3449
    7.815   16.0190
    7.830   16.6930
    7.845   16.1243
    7.860   16.0295
    7.875   16.2296
    7.890   16.3770
    7.905   15.5872
    7.920   15.8399
    7.935   16.5456
    7.950   15.7346
    7.965   15.3976
    7.980   15.2607
    7.995   15.1448
    8.010   15.1975
    8.025   14.3549
    8.040   13.8599
    8.055   13.9337
    8.070   13.6809
    8.085   13.7019
    8.100   12.8594
    8.115   12.9647
    8.130   13.1122
    8.145   12.3117
    8.160   12.3012
    8.175   12.2064
    8.190   12.0906
    8.205   11.1743
    8.220   11.2164
    8.235   10.7952
    8.250   10.5213
    8.265   10.4371
    8.280   10.6582
    8.295    9.9737
    8.310   10.2475
    8.325   10.1316
    8.340    9.7736
    8.355   10.2475
    8.370   10.1316
    8.385    9.8368
    8.400    9.8578
    8.415    9.8052
    8.430    9.3734
    8.445    9.6788
    8.460    9.2575
    8.475    9.3102
    8.490    9.4576
    8.505    9.1522
    8.520    8.8678
    8.535    9.0363
    8.550    9.5103
    8.565    9.8368
    8.580    9.3523
    8.595    9.4681
    8.610    9.4892
    8.625    9.0995
    8.640    9.5419
    8.655    9.1522
    8.670    9.2259
    8.685    9.3839
    8.700    9.1732
    8.715    8.7204
    8.730    8.7730
    8.745    9.2364
    8.760    9.0679
    8.775    8.7204
    8.790    8.9731
    8.805    8.9837
    8.820    8.9626
    8.835    9.1943
    8.850    9.0363
    8.865    9.1311
    8.880    8.8362
    8.895    8.6256
    8.910    8.8994
    8.925    8.7941
    8.940    9.0785
    8.955    9.0679
    8.970    8.1727
    8.985    8.6045
    9.000    8.6677
    9.015    8.6467
    9.030    9.0785
    9.045    8.6888
    9.060    8.2780
    9.075    8.6783
    9.090    8.7204
    9.105    9.2680
    9.120    9.0153
    9.135    9.0785
    9.150    8.7625
    9.165    8.5308
    9.180    8.6045
    9.195    8.6045
    9.210    8.9626
    9.225    8.8152
    9.240    8.6888
    9.255    8.8152
    9.270    8.5097
    9.285    8.4992
    9.300    8.3096
    9.315    8.7625
    9.330    8.8994
    9.345    8.8994
    9.360    8.6467
    9.375    8.6361
    9.390    9.0258
    9.405    8.6677
    9.420    9.0258
    9.435    8.9837
    9.450    9.0574
    9.465    8.7625
    9.480    9.0047
    9.495    9.0469
    9.510    8.9521
    9.525    8.9942
    9.540    8.8994
    9.555    8.8573
    9.570    9.0785
    9.585    8.9521
    9.600    8.5308
    9.615    8.6045
    9.630    8.5308
    9.645    8.6467
    9.660    9.0153
    9.675    8.5835
    9.690    8.6045
    9.705    8.7414
    9.720    8.7836
    9.735    8.9942
    9.750    8.8889
    9.765    8.8573
    9.780    8.7520
    9.795    9.1838
    9.810    8.7730
    9.825    9.2996
    9.840    8.9415
    9.855    9.4260
    9.870    9.3734
    9.885    9.0995
    9.900    9.2048
    9.915    9.1838
    9.930    9.2364
    9.945    9.3523
    9.960    9.0890
    9.975    8.6572
    9.990    8.8362
   10.005    9.0047
   10.020    8.7309
   10.035    9.2996
   10.050    9.1206
   10.065    9.2048
   10.080    9.0785
   10.095    8.9415
   10.110    8.6361
   10.125    9.0047
   10.140    9.1522
   10.155    9.1101
   10.170    9.4050
   10.185    9.0890
   10.200    9.1943
   10.215    9.5208
   10.230    9.3207
   10.245    9.4681
   10.260    9.1522
   10.275    9.7104
   10.290    9.8368
   10.305    9.6367
   10.320    9.6367
   10.335    9.3523
   10.350    9.4576
   10.365    9.9210
   10.380   10.1527
   10.395   10.0474
   10.410    9.5735
   10.425    9.7525
   10.440    9.7630
   10.455   10.2370
   10.470   10.2370
   10.485    9.9315
   10.500    9.5840
   10.515    9.8368
   10.530    9.9526
   10.545    9.8052
   10.560    9.3944
   10.575    9.4050
   10.590    9.6367
   10.605    9.5945
   10.620    9.8578
   10.635    9.5524
   10.650    9.6788
   10.665    9.4892
   10.680    9.0469
   10.695    9.2575
   10.710    9.2575
   10.725    9.2891
   10.740    9.2996
   10.755    9.1627
   10.770    8.9942
   10.785    9.2154
   10.800    8.6361
   10.815    9.0469
   10.830    9.1522
   10.845    8.8994
   10.860    9.4576
   10.875    9.2154
   10.890    8.6888
   10.905    8.4571
   10.920    8.7730
   10.935    9.0258
   10.950    8.6467
   10.965    8.9415
   10.980    9.2154
   10.995    8.8152
   11.010    8.8046
   11.025    8.9521
   11.040    9.1522
   11.055    8.6361
   11.070    8.9942
   11.085    9.1732
   11.100    8.8362
   11.115    8.7836
   11.130    8.2675
   11.145    8.2886
   11.160    8.6677
   11.175    8.8152
   11.190    9.0258
   11.205    9.1838
   11.220    8.9942
   11.235    8.6993
   11.250    8.5729
   11.265    8.7098
   11.280    8.9942
   11.295    8.6888
   11.310    8.4781
   11.325    8.6467
   11.340    8.5308
   11.355    8.4781
   11.370    8.5097
   11.385    8.8994
   11.400    8.8362
   11.415    9.0047
   11.430    8.5940
   11.445    9.0258
   11.460    8.4255
   11.475    8.5308
   11.490    8.8362
   11.505    9.0574
   11.520    8.9942
   11.535    8.6888
   11.550    8.7204
   11.565    8.7098
   11.580    8.7309
   11.595    8.8994
   11.610    8.5729
   11.625    8.8994
   11.640    8.8573
   11.655    8.6151
   11.670    8.9205
   11.685    8.9731
   11.700    9.1838
   11.715    8.8257
   11.730    8.5624
   11.745    8.7414
   11.760    8.7309
   11.775    9.0363
   11.790    9.3102
   11.805    9.0785
   11.820    9.3207
   11.835    9.0469
   11.850    9.2259
   11.865    9.3628
   11.880    9.0469
   11.895    8.7098
   11.910    8.9205
   11.925    9.0469
   11.940    8.9415
   11.955    8.6783
   11.970    8.8152
   11.985    8.9521
   12.000    8.6993
   12.015    8.9731
   12.030    8.9837
   12.045    9.0679
   12.060    8.7625
   12.075    8.8046
   12.090    8.9521
   12.105    8.8468
   12.120    8.4992
   12.135    8.9942
   12.150    8.8784
   12.165    8.6256
   12.180    8.8678
   12.195    8.8046
   12.210    8.8362
   12.225    9.0469
   12.240    8.8362
   12.255    8.9310
   12.270    9.4471
   12.285    8.8257
   12.300    8.5097
   12.315    8.6151
   12.330    8.6045
   12.345    8.6151
   12.360    8.6572
   12.375    8.6256
   12.390    8.9415
   12.405    8.6888
   12.420    8.1201
   12.435    8.2991
   12.450    9.1311
   12.465    8.4887
   12.480    8.4571
   12.495    8.6572
   12.510    8.4676
   12.525    7.7936
   12.540    8.4571
   12.555    8.1833
   12.570    8.6677
   12.585    8.4466
   12.600    8.0253
   12.615    8.5835
   12.630    7.9621
   12.645    8.1201
   12.660    8.2043
   12.675    8.4571
   12.690    8.4676
   12.705    8.2886
   12.720    8.2886
   12.735    7.8146
   12.750    8.0990
   12.765    8.2464
   12.780    8.1201
   12.795    8.0463
   12.810    8.0779
   12.825    8.1095
   12.840    8.2780
   12.855    8.6888
   12.870    8.8046
   12.885    8.6045
   12.900    8.5097
   12.915    7.8146
   12.930    8.3518
   12.945    8.3096
   12.960    8.2043
   12.975    8.2149
   12.990    8.3307
   13.005    8.4360
   13.020    8.2991
   13.035    8.1306
   13.050    8.0779
   13.065    8.6045
   13.080    8.6361
   13.095    8.5519
   13.110    8.3728
   13.125    8.1517
   13.140    8.1201
   13.155    8.3096
   13.170    8.0253
   13.185    8.2149
   13.200    8.7414
   13.215    8.0569
   13.230    8.0990
   13.245    8.2359
   13.260    8.2464
   13.275    8.3939
   13.290    8.1833
   13.305    8.4887
   13.320    8.4781
   13.335    8.2675
   13.350    8.2149
   13.365    8.7309
   13.380    8.3939
   13.395    8.4992
   13.410    8.0674
   13.425    7.8462
   13.440    8.2359
   13.455    8.3096
   13.470    8.1306
   13.485    7.9516
   13.500    8.6256
   13.515    8.2675
   13.530    8.4676
   13.545    8.2359
   13.560    8.0253
   13.575    8.1306
   13.590    8.2043
   13.605    8.0990
   13.620    8.3623
   13.635    8.4044
   13.650    7.9094
   13.665    7.7409
   13.680    7.8989
   13.695    7.8357
   13.710    7.6461
   13.725    8.3834
   13.740    8.3623
   13.755    7.9094
   13.770    7.8989
   13.785    8.4887
   13.800    7.9410
   13.815    7.8989
   13.830    7.7620
   13.845    7.9094
   13.860    7.8462
   13.875    8.0042
   13.890    8.2886
   13.905    8.2886
   13.920    8.2570
   13.935    8.3623
   13.950    8.1938
   13.965    7.8673
   13.980    7.8884
   13.995    8.1201
   14.010    7.8462
   14.025    8.3307
   14.040    7.8989
   14.055    8.1517
   14.070    8.1727
   14.085    8.2149
   14.100    8.3412
   14.115    7.9937
   14.130    7.9200
   14.145    8.1201
   14.160    8.3939
   14.175    7.9410
   14.190    8.1306
   14.205    7.7936
   14.220    8.0358
   14.235    8.1833
   14.250    8.2359
   14.265    8.0885
   14.280    7.8252
   14.295    8.0042
   14.310    7.7936
   14.325    7.9621
   14.340    7.8357
   14.355    7.9831
   14.370    8.4887
   14.385    8.1201
   14.400    8.0463
   14.415    7.8568
   14.430    7.9726
   14.445    8.0885
   14.460    7.8989
   14.475    7.5619
   14.490    7.7093
   14.505    8.0779
   14.520    7.9726
   14.535    7.7830
   14.550    8.0779
   14.565    8.0674
   14.580    7.5829
   14.595    7.7409
   14.610    7.7199
   14.625    7.9937
   14.640    8.2043
   14.655    8.3307
   14.670    8.2359
   14.685    8.1622
   14.700    8.2254
   14.715    8.0569
   14.730    7.6567
   14.745    7.8673
   14.760    7.9726
   14.775    8.2149
   14.790    8.1517
   14.805    7.8989
   14.820    7.5408
   14.835    8.2570
   14.850    7.7725
   14.865    7.9937
   14.880    7.7620
   14.895    8.0779
   14.910    8.1622
   14.925    8.6361
   14.940    8.5097
   14.955    8.1201
   14.970    7.7936
   14.985    7.8462
   15.000    7.8357
   15.015    7.7620
   15.030    8.1833
   15.045    8.2570
   15.060    7.7199
   15.075    7.9094
   15.090    7.9094
   15.105    7.6988
   15.120    7.8989
   15.135    7.9094
   15.150    7.7514
   15.165    7.8252
   15.180    8.2991
   15.195    7.8989
   15.210    7.8252
   15.225    8.1306
   15.240    7.7514
   15.255    7.9410
   15.270    8.1306
   15.285    7.9516
   15.300    8.1095
   15.315    8.2464
   15.330    8.4255
   15.345    7.8146
   15.360    7.7620
   15.375    7.9621
   15.390    7.7093
   15.405    7.8568
   15.420    7.9831
   15.435    8.1095
   15.450    7.8673
   15.465    7.9831
   15.480    8.1201
   15.495    7.9200
   15.510    7.6461
   15.525    7.8041
   15.540    8.0674
   15.555    8.4571
   15.570    8.0042
   15.585    7.8989
   15.600    8.0885
   15.615    7.9516
   15.630    7.9937
   15.645    8.1938
   15.660    7.8146
   15.675    8.6361
   15.690    8.5203
   15.705    8.5519
   15.720    8.1622
   15.735    8.0569
   15.750    8.1727
   15.765    7.9831
   15.780    8.1938
   15.795    8.3623
   15.810    8.0147
   15.825    8.0569
   15.840    7.7514
   15.855    8.4466
   15.870    8.5729
   15.885    8.3202
   15.900    8.3518
   15.915    8.5940
   15.930    8.1095
   15.945    8.3939
   15.960    7.9937
   15.975    8.2149
   15.990    7.8778
   16.005    8.1833
   16.020    7.7936
   16.035    8.4255
   16.050    8.1095
   16.065    8.1306
   16.080    7.8989
   16.095    7.7620
   16.110    7.7199
   16.125    7.6777
   16.140    8.2254
   16.155    7.7093
   16.170    7.6672
   16.185    7.7093
   16.200    8.2043
   16.215    8.2254
   16.230    8.1201
   16.245    7.7093
   16.260    7.8884
   16.275    8.0569
   16.290    7.8989
   16.305    8.0147
   16.320    8.1306
   16.335    7.8778
   16.350    7.6040
   16.365    7.8568
   16.380    8.0779
   16.395    8.1201
   16.410    7.9726
   16.425    7.7409
   16.440    7.9200
   16.455    8.0990
   16.470    7.7725
   16.485    7.9621
   16.500    7.8778
   16.515    7.8989
   16.530    7.6672
   16.545    7.9937
   16.560    7.7409
   16.575    7.9200
   16.590    8.3518
   16.605    8.0779
   16.620    8.1727
   16.635    7.9726
   16.650    7.8673
   16.665    7.5724
   16.680    7.8568
   16.695    8.3834
   16.710    8.0990
   16.725    7.8252
   16.740    7.7199
   16.755    7.7199
   16.770    7.8462
   16.785    7.9937
   16.800    8.4676
   16.815    8.1833
   16.830    8.1727
   16.845    8.1201
   16.860    7.8989
   16.875    8.3939
   16.890    8.0253
   16.905    7.8146
   16.920    7.6356
   16.935    8.1201
   16.950    8.0779
   16.965    8.2043
   16.980    7.7093
   16.995    8.2780
   17.010    8.4255
   17.025    8.1306
   17.040    7.9831
   17.055    7.8041
   17.070    7.7514
   17.085    7.6777
   17.100    8.0147
   17.115    7.9831
   17.130    7.7409
   17.145    7.8568
   17.160    8.1727
   17.175    7.5619
   17.190    7.4566
   17.205    7.5935
   17.220    8.2886
   17.235    8.0569
   17.250    8.2570
   17.265    8.2043
   17.280    8.1201
   17.295    7.8884
   17.310    8.5413
   17.325    8.3623
   17.340    7.9094
   17.355    7.1406
   17.370    7.8778
   17.385    7.9094
   17.400    8.6467
   17.415    8.2780
   17.430    8.6045
   17.445    8.4150
   17.460    8.0358
   17.475    7.9200
   17.490    8.1938
   17.505    8.2991
   17.520    8.1727
   17.535    7.9937
   17.550    8.1622
   17.565    8.4255
   17.580    8.6151
   17.595    7.9410
   17.610    8.0253
   17.625    7.6461
   17.640    8.3096
   17.655    8.0674
   17.670    8.0569
   17.685    7.8357
   17.700    8.0779
   17.715    7.9516
   17.730    8.2886
   17.745    8.3623
   17.760    8.3412
   17.775    8.2043
   17.790    8.5097
   17.805    8.0885
   17.820    8.1938
   17.835    8.5940
   17.850    8.3202
   17.865    8.1095
   17.880    7.8778
   17.895    8.0990
   17.910    8.4255
   17.925    7.8357
   17.940    7.9305
   17.955    7.5408
   17.970    8.1201
   17.985    8.5729
   18.000    8.2570
   18.015    8.3307
   18.030    8.2149
   18.045    7.8884
   18.060    7.8568
   18.075    8.0779
   18.090    8.2675
   18.105    8.2675
   18.120    7.9410
   18.135    7.9621
   18.150    8.3202
   18.165    8.0042
   18.180    8.2043
   18.195    8.1306
   18.210    7.9305
   18.225    7.7830
   18.240    7.5935
   18.255    8.1411
   18.270    8.3518
   18.285    7.8778
   18.300    7.4355
   18.315    7.8884
   18.330    8.0779
   18.345    8.3834
   18.360    8.1411
   18.375    8.2149
   18.390    7.6672
   18.405    8.0147
   18.420    8.2570
   18.435    8.1938
   18.450    8.1411
   18.465    7.8778
   18.480    8.3939
   18.495    8.1306
   18.510    9.0469
   18.525    8.3728
   18.540    8.1727
   18.555    8.1411
   18.570    8.2991
   18.585    8.5729
   18.600    8.3728
   18.615    8.4360
   18.630    8.6361
   18.645    8.6677
   18.660    8.1201
   18.675    7.9937
   18.690    8.3412
   18.705    8.6467
   18.720    8.1938
   18.735    8.1833
   18.750    8.2043
   18.765    8.2675
   18.780    8.5308
   18.795    8.1938
   18.810    8.0569
   18.825    8.0463
   18.840    8.3623
   18.855    8.1938
   18.870    8.1411
   18.885    8.3096
   18.900    8.5308
   18.915    8.6256
   18.930    8.5729
   18.945    8.4781
   18.960    8.2886
   18.975    8.5835
   18.990    8.3307
   19.005    8.0463
   19.020    7.9305
   19.035    8.0885
   19.050    8.0358
   19.065    8.7625
   19.080    8.5203
   19.095    8.2464
   19.110    8.0463
   19.125    8.0569
   19.140    8.4992
   19.155    8.2991
   19.170    8.5835
   19.185    8.4150
   19.200    8.8046
   19.215    8.8468
   19.230    8.1938
   19.245    8.1938
   19.260    8.2570
   19.275    8.2570
   19.290    8.1095
   19.305    8.0990
   19.320    8.5413
   19.335    8.3623
   19.350    8.4466
   19.365    8.2675
   19.380    8.8784
   19.395    9.1206
   19.410    8.7730
   19.425    8.1517
   19.440    8.5413
   19.455    8.2149
   19.470    8.0990
   19.485    8.5835
   19.500    8.7941
   19.515    9.1627
   19.530    8.7204
   19.545    8.5940
   19.560    8.6045
   19.575    8.4992
   19.590    8.4466
   19.605    8.2675
   19.620    8.3623
   19.635    8.3834
   19.650    8.4571
   19.665    8.1201
   19.680    8.6151
   19.695    8.2991
   19.710    8.5519
   19.725    8.7309
   19.740    8.5519
   19.755    8.5308
   19.770    8.7730
   19.785    8.9521
   19.800    8.9310
   19.815    8.6045
   19.830    8.5203
   19.845    8.5940
   19.860    8.6256
   19.875    9.0890
   19.890    8.6993
   19.905    8.7520
   19.920    8.4150
   19.935    8.7309
   19.950    8.7730
   19.965    8.3096
   19.980    8.7625
   19.995    8.9626
   20.010    9.0047
   20.025    8.6467
   20.040    8.6256
   20.055    8.9310
   20.070    8.7309
   20.085    8.8678
   20.100    8.6151
   20.115    9.0469
   20.130    9.0995
   20.145    9.2786
   20.160    8.4466
   20.175    8.9205
   20.190    8.7625
   20.205    9.1627
   20.220    8.6993
   20.235    8.9626
   20.250    8.4360
   20.265    8.4887
   20.280    8.7414
   20.295    9.0258
   20.310    9.2364
   20.325    8.9205
   20.340    8.6467
   20.355    8.7520
   20.370    8.6045
   20.385    8.8994
   20.400    8.8784
   20.415    8.8678
   20.430    8.7625
   20.445    8.9626
   20.460    9.0153
   20.475    8.7520
   20.490    8.3728
   20.505    8.7836
   20.520    8.4992
   20.535    8.5097
   20.550    8.8257
   20.565    8.4676
   20.580    8.6677
   20.595    8.6783
   20.610    9.2154
   20.625    8.7098
   20.640    8.4044
   20.655    8.7098
   20.670    8.5624
   20.685    8.6993
   20.700    9.1206
   20.715    8.7836
   20.730    8.8573
   20.745    8.8573
   20.760    8.5203
   20.775    8.7836
   20.790    8.5308
   20.805    8.8257
   20.820    8.7730
   20.835    8.8573
   20.850    8.8046
   20.865    8.5097
   20.880    9.0995
   20.895    8.7204
   20.910    8.8362
   20.925    8.5308
   20.940    8.7836
   20.955    8.6361
   20.970    8.6572
   20.985    9.3944
   21.000    8.8573
   21.015    8.7520
   21.030    8.6256
   21.045    8.9310
   21.060    8.7836
   21.075    8.6045
   21.090    9.0679
   21.105    8.7730
   21.120    9.2364
   21.135    9.0679
   21.150    9.4155
   21.165    9.0679
   21.180    9.1838
   21.195    8.7941
   21.210    9.0363
   21.225    8.7520
   21.240    9.4471
   21.255    8.9415
   21.270    8.6783
   21.285    8.3834
   21.300    8.4044
   21.315    9.1522
   21.330    8.8362
   21.345    8.9521
   21.360    8.6783
   21.375    9.4050
   21.390    8.7836
   21.405    9.1838
   21.420    9.0258
   21.435    9.0785
   21.450    8.6888
   21.465    9.0890
   21.480    9.0890
   21.495    9.1101
   21.510    9.1206
   21.525    9.0469
   21.540    8.8046
   21.555    8.9731
   21.570    9.0469
   21.585    9.0258
   21.600    8.5729
   21.615    8.7520
   21.630    8.4887
   21.645    8.9942
   21.660    8.5308
   21.675    8.8152
   21.690    8.8046
   21.705    8.6361
   21.720    8.9521
   21.735    9.0995
   21.750    9.1311
   21.765    9.3523
   21.780    8.7941
   21.795    8.5413
   21.810    8.8994
   21.825    8.6677
   21.840    9.2996
   21.855    9.1522
   21.870    8.6151
   21.885    8.9521
   21.900    8.6467
   21.915    8.9415
   21.930    9.2575
   21.945    9.5629
   21.960    8.8362
   21.975    9.1311
   21.990    9.2048
   22.005    8.7625
   22.020    9.1417
   22.035    8.9942
   22.050    9.0258
   22.065    9.0469
   22.080    9.1943
   22.095    9.1522
   22.110    9.1101
   22.125    9.0679
   22.140    9.1522
   22.155    8.8152
   22.170    9.1417
   22.185    9.7104
   22.200    9.2364
   22.215    8.8573
   22.230    8.8784
   22.245    9.2680
   22.260    9.2364
   22.275    8.9626
   22.290    8.6993
   22.305    8.7836
   22.320    8.6993
   22.335    8.8994
   22.350    8.8994
   22.365    9.0679
   22.380    9.1206
   22.395    9.2786
   22.410    9.2680
   22.425    8.8257
   22.440    8.8046
   22.455    9.4681
   22.470    9.4681
   22.485    9.0258
   22.500    8.9731
   22.515    9.1522
   22.530    9.2470
   22.545    9.2680
   22.560    9.1732
   22.575    9.6682
   22.590    9.1627
   22.605    9.0047
   22.620    9.1943
   22.635    8.9100
   22.650    9.2891
   22.665    9.4892
   22.680    9.4365
   22.695    9.4155
   22.710    9.6367
   22.725    9.1206
   22.740    9.4050
   22.755    9.4787
   22.770    9.2786
   22.785    9.2996
   22.800   10.0474
   22.815    9.4260
   22.830    8.8994
   22.845    9.0363
   22.860    9.3418
   22.875    9.6156
   22.890    9.4787
   22.905    8.7836
   22.920    9.0679
   22.935    9.2470
   22.950    9.5313
   22.965    8.9837
   22.980    9.0574
   22.995    8.7836
   23.010    8.9205
   23.025    8.6677
   23.040    8.7520
   23.055    8.9310
   23.070    8.9415
   23.085    9.1417
   23.100    9.0153
   23.115    8.7204
   23.130    8.7730
   23.145    8.6572
   23.160    9.1943
   23.175    9.0363
   23.190    8.7204
   23.205    8.7414
   23.220    8.9415
   23.235    9.0363
   23.250    8.9310
   23.265    8.8468
   23.280    8.2359
   23.295    8.3412
   23.310    8.5097
   23.325    8.7309
   23.340    8.7520
   23.355    8.5097
   23.370    8.7098
   23.385    9.3312
   23.400    8.6361
   23.415    8.8889
   23.430    8.9100
   23.445    9.2470
   23.460    9.0995
   23.475    9.1627
   23.490    8.4781
   23.505    8.5308
   23.520    8.6888
   23.535    8.4150
   23.550    8.7625
   23.565    8.7309
   23.580    9.0890
   23.595    8.8573
   23.610    8.8257
   23.625    8.7309
   23.640    8.7941
   23.655    9.0258
   23.670    8.6993
   23.685    8.3939
   23.700    8.4255
   23.715    8.4360
   23.730    8.5519
   23.745    8.1095
   23.760    8.7625
   23.775    8.4360
   23.790    8.6993
   23.805    8.9310
   23.820    8.9205
   23.835    8.2675
   23.850    8.4781
   23.865    8.3307
   23.880    8.7309
   23.895    8.6045
   23.910    8.2991
   23.925    8.4992
   23.940    8.4466
   23.955    8.1833
   23.970    8.8468
   23.985    8.3834
   24.000    8.5624
   24.015    8.6467
   24.030    8.5203
   24.045    8.0042
   24.060    8.1306
   24.075    8.4466
   24.090    8.2886
   24.105    8.3096
   24.120    8.3623
   24.135    8.5097
   24.150    8.9100
   24.165    8.4992
   24.180    8.2886
   24.195    8.3518
   24.210    8.5729
   24.225    8.2254
   24.240    8.1833
   24.255    8.3834
   24.270    8.3623
   24.285    8.9521
   24.300    8.7520
   24.315    8.5624
   24.330    8.5413
   24.345    8.4044
   24.360    8.8468
   24.375    8.6783
   24.390    8.6677
   24.405    8.2254
   24.420    8.3307
   24.435    8.5624
   24.450    8.5940
   24.465    8.7309
   24.480    8.7309
   24.495    8.5413
   24.510    8.5940
   24.525    8.4781
   24.540    8.7730
   24.555    8.6256
   24.570    8.4992
   24.585    8.6361
   24.600    8.8257
   24.615    8.8046
   24.630    8.5940
   24.645    8.6256
   24.660    8.5519
   24.675    9.0679
   24.690    8.9100
   24.705    8.4992
   24.720    8.5413
   24.735    8.4992
   24.750    8.2359
   24.765    8.2149
   24.780    8.8468
   24.795    8.8046
   24.810    8.8678
   24.825    8.4781
   24.840    8.8152
   24.855    8.7836
   24.870    8.7098
   24.885    8.4360
   24.900    8.5940
   24.915    8.2254
   24.930    8.2886
   24.945    8.3096
   24.960    8.2043
   24.975    8.8362
   24.990    8.2991
   25.005    8.2991
   25.020    8.7836
   25.035    8.2570
   25.050    8.5308
   25.065    8.5940
   25.080    8.9205
   25.095    8.0253
   25.110    8.3412
   25.125    8.4887
   25.140    8.6677
   25.155    8.0885
   25.170    8.5097
   25.185    8.4044
   25.200    8.1095
   25.215    8.5519
   25.230    8.7520
   25.245    8.3412
   25.260    8.3202
   25.275    7.7725
   25.290    8.0147
   25.305    7.9621
   25.320    8.4044
   25.335    8.2043
   25.350    7.7830
   25.365    8.2254
   25.380    8.4781
   25.395    8.6256
   25.410    8.3412
   25.425    8.0990
   25.440    8.2359
   25.455    8.5097
   25.470    7.7199
   25.485    8.2570
   25.500    8.3307
   25.515    8.2991
   25.530    7.8568
   25.545    8.1622
   25.560    8.3518
   25.575    7.9094
   25.590    8.0042
   25.605    8.0674
   25.620    7.8989
   25.635    8.5519
   25.650    7.9831
   25.665    7.6251
   25.680    7.8568
   25.695    7.6883
   25.710    7.7936
   25.725    8.0358
   25.740    8.1306
   25.755    8.1306
   25.770    7.9410
   25.785    7.9831
   25.800    8.2464
   25.815    7.8673
   25.830    8.0779
   25.845    8.1517
   25.860    8.2254
   25.875    8.0463
   25.890    7.7304
   25.905    7.7409
   25.920    8.2149
   25.935    8.0779
   25.950    7.8146
   25.965    7.5513
   25.980    7.5092
   25.995    8.2043
   26.010    7.7409
   26.025    8.0042
   26.040    7.8146
   26.055    7.6251
   26.070    7.9516
   26.085    7.9937
   26.100    7.6988
   26.115    8.0463
   26.130    7.9831
   26.145    8.2570
   26.160    7.9410
   26.175    8.0569
   26.190    7.7830
   26.205    7.9094
   26.220    7.9094
   26.235    7.9305
   26.250    8.2991
   26.265    7.7830
   26.280    7.5408
   26.295    7.9937
   26.310    7.7093
   26.325    8.4571
   26.340    8.0990
   26.355    8.4992
   26.370    8.0885
   26.385    8.0885
   26.400    7.7620
   26.415    7.9200
   26.430    8.2570
   26.445    8.4992
   26.460    7.5935
   26.475    7.9621
   26.490    7.8568
   26.505    8.2359
   26.520    8.0463
   26.535    8.2675
   26.550    7.6777
   26.565    7.5829
   26.580    8.0885
   26.595    7.9831
   26.610    7.6988
   26.625    7.8884
   26.640    7.8146
   26.655    7.5935
   26.670    8.0885
   26.685    7.8673
   26.700    7.5619
   26.715    7.5724
   26.730    7.8357
   26.745    7.4250
   26.760    7.8357
   26.775    7.9410
   26.790    7.6777
   26.805    7.9937
   26.820    7.3407
   26.835    7.4671
   26.850    7.7199
   26.865    8.3202
   26.880    7.8778
   26.895    7.9094
   26.910    8.2043
   26.925    7.5935
   26.940    7.8146
   26.955    7.5408
   26.970    7.5935
   26.985    8.0463
   27.000    7.8568
   27.015    8.3728
   27.030    7.9410
   27.045    7.6145
   27.060    8.0147
   27.075    7.9200
   27.090    7.9305
   27.105    7.8673
   27.120    7.5092
   27.135    7.4671
   27.150    7.7830
   27.165    7.3618
   27.180    7.5829
   27.195    7.4250
   27.210    7.8252
   27.225    7.7409
   27.240    7.4039
   27.255    7.6040
   27.270    7.5513
   27.285    8.1727
   27.300    7.9094
   27.315    7.4250
   27.330    7.8778
   27.345    8.1517
   27.360    7.5303
   27.375    7.6145
   27.390    7.6988
   27.405    8.1095
   27.420    8.1306
   27.435    8.1201
   27.450    7.3196
   27.465    7.2354
   27.480    7.4460
   27.495    7.5829
   27.510    7.6461
   27.525    7.6883
   27.540    7.8778
   27.555    7.3934
   27.570    7.4460
   27.585    7.7514
   27.600    7.6251
   27.615    7.7620
   27.630    7.8778
   27.645    7.8357
   27.660    7.7514
   27.675    7.1722
   27.690    7.3407
   27.705    7.5092
   27.720    7.6461
   27.735    7.4355
   27.750    7.4250
   27.765    7.6883
   27.780    7.8568
   27.795    7.4355
   27.810    7.7936
   27.825    7.2249
   27.840    7.8989
   27.855    7.8252
   27.870    7.9410
   27.885    7.9726
   27.900    7.8673
   27.915    7.6988
   27.930    8.1517
   27.945    8.4255
   27.960    7.7514
   27.975    7.5829
   27.990    7.7620
   28.005    8.0147
   28.020    7.5935
   28.035    7.5619
   28.050    7.6883
   28.065    7.7725
   28.080    7.5197
   28.095    7.7620
   28.110    7.6567
   28.125    7.5619
   28.140    7.7830
   28.155    7.7514
   28.170    7.3618
   28.185    7.6356
   28.200    7.6461
   28.215    7.5829
   28.230    7.4460
   28.245    7.6040
   28.260    7.6777
   28.275    7.7199
   28.290    7.5829
   28.305    7.9516
   28.320    7.3828
   28.335    7.5619
   28.350    7.7199
   28.365    7.6251
   28.380    7.7514
   28.395    7.6777
   28.410    7.5935
   28.425    7.7304
   28.440    7.8884
   28.455    7.2038
   28.470    7.2880
   28.485    7.6356
   28.500    7.5724
   28.515    7.8041
   28.530    7.7725
   28.545    7.2670
   28.560    7.0353
   28.575    6.9194
   28.590    7.4987
   28.605    7.5197
   28.620    7.6040
   28.635    7.5408
   28.650    7.5935
   28.665    7.3407
   28.680    7.7409
   28.695    7.6988
   28.710    7.4039
   28.725    7.4566
   28.740    7.5829
   28.755    7.4250
   28.770    7.2354
   28.785    7.1511
   28.800    7.3618
   28.815    7.5829
   28.830    7.4566
   28.845    7.6988
   28.860    7.7409
   28.875    7.5197
   28.890    7.1722
   28.905    7.2354
   28.920    7.4882
   28.935    7.2880
   28.950    7.3091
   28.965    7.8673
   28.980    7.3302
   28.995    7.4039
   29.010    7.6567
   29.025    7.5829
   29.040    7.2565
   29.055    6.9826
   29.070    7.0353
   29.085    7.2038
   29.100    7.4460
   29.115    7.2986
   29.130    7.5619
   29.145    7.4671
   29.160    6.9826
   29.175    7.1933
   29.190    7.0985
   29.205    7.3302
   29.220    7.3196
   29.235    7.3302
   29.250    7.2986
   29.265    7.4987
   29.280    7.3723
   29.295    7.4250
   29.310    7.2986
   29.325    7.1301
   29.340    7.0985
   29.355    7.1301
   29.370    6.9405
   29.385    7.1933
   29.400    7.2459
   29.415    7.3512
   29.430    7.2670
   29.445    7.0985
   29.460    7.2459
   29.475    7.3828
   29.490    7.0879
   29.505    7.4039
   29.520    7.3723
   29.535    7.1827
   29.550    7.0353
   29.565    7.4250
   29.580    7.2038
   29.595    7.2249
   29.610    7.2986
   29.625    7.2354
   29.640    7.3618
   29.655    7.1511
   29.670    7.3407
   29.685    7.6145
   29.700    7.2354
   29.715    7.1195
   29.730    7.6040
   29.745    7.2880
   29.760    7.3618
   29.775    7.5513
   29.790    7.2670
   29.805    7.0879
   29.820    7.2986
   29.835    7.3512
   29.850    7.3723
   29.865    7.1090
   29.880    7.1722
   29.895    6.9300
   29.910    7.0669
   29.925    7.0142
   29.940    7.1511
   29.955    6.9721
   29.970    7.1722
   29.985    6.6245
   30.000    6.9510
   30.015    7.2143
   30.030    7.0774
   30.045    7.1722
   30.060    7.2565
   30.075    7.2354
   30.090    6.9932
   30.105    6.8878
   30.120    6.9616
   30.135    7.1090
   30.150    6.8773
   30.165    7.0458
   30.180    6.7615
   30.195    7.0037
   30.210    7.2354
   30.225    6.8668
   30.240    7.0669
   30.255    7.3512
   30.270    7.0142
   30.285    6.7193
   30.300    6.8668
   30.315    6.9300
   30.330    6.7299
   30.345    7.3407
   30.360    7.2880
   30.375    6.9300
   30.390    7.0248
   30.405    7.1722
   30.420    6.5824
   30.435    6.6456
   30.450    6.6351
   30.465    7.0248
   30.480    7.0248
   30.495    6.7930
   30.510    6.8668
   30.525    7.0774
   30.540    6.6140
   30.555    6.8984
   30.570    7.0879
   30.585    6.7404
   30.600    7.0037
   30.615    7.0774
   30.630    7.2249
   30.645    6.9616
   30.660    6.8668
   30.675    6.5719
   30.690    6.8773
   30.705    7.1090
   30.720    6.9616
   30.735    6.5929
   30.750    7.0458
   30.765    7.0774
   30.780    6.8562
   30.795    7.0142
   30.810    7.1406
   30.825    7.1195
   30.840    6.7615
   30.855    7.0985
   30.870    7.0563
   30.885    7.2459
   30.900    7.0879
   30.915    7.2775
   30.930    7.1301
   30.945    7.2880
   30.960    7.3828
   30.975    6.9510
   30.990    6.9405
   31.005    6.7509
   31.020    6.7720
   31.035    6.7615
   31.050    6.8036
   31.065    6.8141
   31.080    7.0248
   31.095    7.0037
   31.110    7.0142
   31.125    7.0563
   31.140    6.7088
   31.155    7.0037
   31.170    7.1511
   31.185    7.0353
   31.200    7.0248
   31.215    6.7930
   31.230    6.8984
   31.245    6.6035
   31.260    7.0458
   31.275    7.2775
   31.290    6.8773
   31.305    6.8457
   31.320    6.9510
   31.335    6.4982
   31.350    6.9194
   31.365    6.6772
   31.380    7.0879
   31.395    6.9300
   31.410    6.8457
   31.425    6.5298
   31.440    6.6245
   31.455    6.7825
   31.470    6.1085
   31.485    6.4139
   31.500    6.6245
   31.515    6.5508
   31.530    6.8457
   31.545    6.8141
   31.560    6.7615
   31.575    6.9405
   31.590    6.7930
   31.605    7.0774
   31.620    7.1933
   31.635    6.9300
   31.650    7.3091
   31.665    6.9194
   31.680    6.9932
   31.695    7.1406
   31.710    6.8878
   31.725    6.6877
   31.740    7.2143
   31.755    7.3091
   31.770    6.4982
   31.785    6.7930
   31.800    6.9826
   31.815    7.3196
   31.830    7.1617
   31.845    7.2038
   31.860    6.9405
   31.875    6.8141
   31.890    7.0458
   31.905    6.8773
   31.920    6.8562
   31.935    6.6983
   31.950    6.7720
   31.965    7.0563
   31.980    6.9510
   31.995    6.7615
   32.010    6.9194
   32.025    7.4460
   32.040    6.8773
   32.055    6.4666
   32.070    6.3402
   32.085    6.7825
   32.100    6.8773
   32.115    6.9826
   32.130    7.0985
   32.145    6.7509
   32.160    6.9932
   32.175    6.6983
   32.190    6.5824
   32.205    6.9510
   32.220    6.9300
   32.235    6.8878
   32.250    6.8984
   32.265    6.7930
   32.280    6.6456
   32.295    6.6245
   32.310    6.7615
   32.325    7.2143
   32.340    7.1195
   32.355    6.6877
   32.370    7.1933
   32.385    7.0037
   32.400    6.8036
   32.415    6.9405
   32.430    7.4250
   32.445    7.0669
   32.460    6.8773
   32.475    6.7299
   32.490    6.9826
   32.505    6.6877
   32.520    6.4350
   32.535    6.2033
   32.550    6.6667
   32.565    6.6561
   32.580    6.3296
   32.595    6.7404
   32.610    6.3718
   32.625    6.7615
   32.640    6.8141
   32.655    6.5192
   32.670    6.7930
   32.685    6.8246
   32.700    6.3928
   32.715    6.5192
   32.730    6.5719
   32.745    6.2981
   32.760    6.5192
   32.775    6.5087
   32.790    6.2454
   32.805    6.7193
   32.820    6.6561
   32.835    6.4771
   32.850    6.4350
   32.865    6.3718
   32.880    6.4771
   32.895    6.6140
   32.910    6.9194
   32.925    6.4034
   32.940    6.8773
   32.955    6.7825
   32.970    6.8878
   32.985    6.2665
   33.000    6.2665
   33.015    6.3086
   33.030    6.5087
   33.045    6.4876
   33.060    6.4982
   33.075    6.5719
   33.090    6.4350
   33.105    6.7299
   33.120    6.8773
   33.135    6.2138
   33.150    6.4666
   33.165    6.7825
   33.180    6.4666
   33.195    6.6351
   33.210    6.3718
   33.225    6.6140
   33.240    6.3402
   33.255    6.8984
   33.270    6.8562
   33.285    6.6456
   33.300    6.7509
   33.315    6.6140
   33.330    6.6772
   33.345    6.5613
   33.360    6.7088
   33.375    6.6140
   33.390    6.6561
   33.405    6.3718
   33.420    6.5824
   33.435    6.5508
   33.450    6.7720
   33.465    6.6456
   33.480    6.5087
   33.495    6.8878
   33.510    6.8141
   33.525    6.6561
   33.540    6.5087
   33.555    6.6351
   33.570    6.2770
   33.585    6.0032
   33.600    6.3296
   33.615    6.4244
   33.630    6.2665
   33.645    7.0037
   33.660    6.4244
   33.675    6.5929
   33.690    6.0979
   33.705    6.2665
   33.720    6.6667
   33.735    6.8773
   33.750    6.1927
   33.765    6.1506
   33.780    6.4034
   33.795    6.3402
   33.810    6.5929
   33.825    6.7930
   33.840    6.7930
   33.855    6.4034
   33.870    6.4666
   33.885    6.6140
   33.900    6.3296
   33.915    6.3718
   33.930    6.4982
   33.945    6.1717
   33.960    6.2981
   33.975    6.4244
   33.990    6.4771
   34.005    6.8984
   34.020    6.4244
   34.035    6.5298
   34.050    6.5929
   34.065    6.6877
   34.080    6.2559
   34.095    6.5824
   34.110    6.2349
   34.125    6.4666
   34.140    6.2138
   34.155    6.3928
   34.170    6.5508
   34.185    6.8773
   34.200    6.1085
   34.215    6.6245
   34.230    6.2875
   34.245    6.5719
   34.260    6.3191
   34.275    6.2033
   34.290    6.5824
   34.305    6.2559
   34.320    6.4560
   34.335    6.4771
   34.350    6.5613
   34.365    6.3086
   34.380    6.2349
   34.395    6.3823
   34.410    6.4455
   34.425    6.4666
   34.440    6.6561
   34.455    6.6877
   34.470    6.3296
   34.485    6.3823
   34.500    6.1822
   34.515    6.2454
   34.530    6.2665
   34.545    6.5929
   34.560    6.7193
   34.575    6.2875
   34.590    6.4666
   34.605    6.5192
   34.620    6.6351
   34.635    6.9300
   34.650    6.6667
   34.665    6.3718
   34.680    6.1822
   34.695    6.0558
   34.710    6.2349
   34.725    6.4560
   34.740    6.5192
   34.755    6.4560
   34.770    6.1085
   34.785    6.2138
   34.800    6.3296
   34.815    6.2559
   34.830    6.2981
   34.845    6.1717
   34.860    6.0874
   34.875    6.1822
   34.890    6.3718
   34.905    6.1611
   34.920    6.0453
   34.935    5.9294
   34.950    6.1822
   34.965    6.2770
   34.980    6.4771
   34.995    6.2875
   35.010    6.5192
   35.025    6.1717
   35.040    6.1611
   35.055    6.1717
   35.070    6.1190
   35.085    6.4560
   35.100    6.0979
   35.115    6.3191
   35.130    6.3612
   35.145    5.9610
   35.160    6.0874
   35.175    6.2981
   35.190    6.1717
   35.205    6.2981
   35.220    6.3612
   35.235    6.4771
   35.250    6.5508
   35.265    6.2454
   35.280    5.8873
   35.295    6.5719
   35.310    6.0874
   35.325    5.9821
   35.340    5.9294
   35.355    5.9505
   35.370    6.4350
   35.385    6.1295
   35.400    6.1295
   35.415    6.0137
   35.430    6.3507
   35.445    6.3507
   35.460    6.4771
   35.475    6.6667
   35.490    6.1295
   35.505    6.1401
   35.520    6.4982
   35.535    6.4771
   35.550    6.4244
   35.565    6.6456
   35.580    6.1295
   35.595    6.1506
   35.610    6.1295
   35.625    6.2665
   35.640    6.1190
   35.655    6.2349
   35.670    6.2454
   35.685    6.4876
   35.700    6.2454
   35.715    6.0769
   35.730    6.0137
   35.745    6.1717
   35.760    5.9610
   35.775    6.1190
   35.790    6.1401
   35.805    6.1611
   35.820    6.2981
   35.835    6.2665
   35.850    6.2033
   35.865    6.2454
   35.880    6.1190
   35.895    5.7504
   35.910    6.0979
   35.925    6.1295
   35.940    5.8768
   35.955    6.1190
   35.970    6.4560
   35.985    5.9294
   36.000    5.7715
   36.015    5.8557
   36.030    6.2981
   36.045    6.1190
   36.060    6.0032
   36.075    6.3507
   36.090    6.1085
   36.105    6.2559
   36.120    6.2981
   36.135    6.1822
   36.150    5.8452
   36.165    6.0032
   36.180    6.2033
   36.195    6.3086
   36.210    6.2349
   36.225    6.1401
   36.240    6.2349
   36.255    5.9084
   36.270    6.2349
   36.285    6.0242
   36.300    5.7820
   36.315    6.0558
   36.330    6.1190
   36.345    6.2349
   36.360    6.5613
   36.375    5.8241
   36.390    6.2454
   36.405    6.0874
   36.420    5.7399
   36.435    6.0453
   36.450    5.9610
   36.465    6.1085
   36.480    5.9926
   36.495    6.2243
   36.510    6.5824
   36.525    6.1717
   36.540    6.2138
   36.555    5.7925
   36.570    6.0874
   36.585    6.2981
   36.600    6.2559
   36.615    6.2454
   36.630    5.9505
   36.645    6.1401
   36.660    6.3296
   36.675    5.8978
   36.690    6.5192
   36.705    6.7299
   36.720    6.1401
   36.735    6.2138
   36.750    6.0769
   36.765    5.8241
   36.780    6.1085
   36.795    6.1717
   36.810    6.2349
   36.825    6.1927
   36.840    5.8978
   36.855    5.9716
   36.870    6.3507
   36.885    5.8452
   36.900    5.8873
   36.915    5.9610
   36.930    6.0874
   36.945    6.3296
   36.960    6.0137
   36.975    5.9821
   36.990    5.6872
   37.005    5.7925
   37.020    5.7925
   37.035    5.7188
   37.050    5.8031
   37.065    6.1506
   37.080    6.1717
   37.095    6.0664
   37.110    5.9821
   37.125    6.2875
   37.140    6.3296
   37.155    5.9716
   37.170    6.2559
   37.185    6.1401
   37.200    5.9505
   37.215    5.8557
   37.230    5.9716
   37.245    5.7925
   37.260    5.6451
   37.275    6.0032
   37.290    5.7925
   37.305    5.8136
   37.320    6.1611
   37.335    6.3507
   37.350    6.0874
   37.365    6.1717
   37.380    6.0874
   37.395    6.1401
   37.410    5.8873
   37.425    6.1927
   37.440    6.3507
   37.455    5.8031
   37.470    5.7820
   37.485    5.6977
   37.500    5.9189
   37.515    5.6872
   37.530    6.1611
   37.545    6.2454
   37.560    6.1822
   37.575    6.1190
   37.590    6.2559
   37.605    6.1822
   37.620    6.1190
   37.635    5.9821
   37.650    5.7925
   37.665    5.8031
   37.680    5.8452
   37.695    5.9926
   37.710    5.8347
   37.725    5.6661
   37.740    6.1822
   37.755    6.0979
   37.770    6.0032
   37.785    6.2770
   37.800    6.1401
   37.815    6.0664
   37.830    6.0032
   37.845    5.9926
   37.860    6.1190
   37.875    6.0558
   37.890    5.9294
   37.905    6.1506
   37.920    6.0664
   37.935    6.1085
   37.950    6.0242
   37.965    5.9610
   37.980    5.3607
   37.995    6.1401
   38.010    5.9505
   38.025    5.6661
   38.040    5.6977
   38.055    5.6767
   38.070    6.0348
   38.085    5.9084
   38.100    5.9505
   38.115    6.0979
   38.130    5.7083
   38.145    6.0558
   38.160    6.0769
   38.175    5.9189
   38.190    5.9716
   38.205    5.8873
   38.220    6.3718
   38.235    6.2033
   38.250    5.7504
   38.265    5.9294
   38.280    5.8768
   38.295    5.4660
   38.310    5.8347
   38.325    6.2243
   38.340    5.7504
   38.355    5.7504
   38.370    5.9084
   38.385    5.8978
   38.400    5.8873
   38.415    6.0032
   38.430    6.1822
   38.445    6.1085
   38.460    6.0242
   38.475    5.7609
   38.490    5.8662
   38.505    6.1085
   38.520    5.8452
   38.535    5.6556
   38.550    5.6556
   38.565    5.8662
   38.580    5.7820
   38.595    5.8768
   38.610    6.0348
   38.625    5.5714
   38.640    5.6767
   38.655    5.8031
   38.670    5.5608
   38.685    5.8768
   38.700    5.9400
   38.715    6.2243
   38.730    6.0874
   38.745    5.8241
   38.760    5.8452
   38.775    5.9505
   38.790    5.9294
   38.805    6.0558
   38.820    6.1611
   38.835    6.0137
   38.850    5.7504
   38.865    5.8557
   38.880    5.9189
   38.895    6.2454
   38.910    6.1822
   38.925    6.2454
   38.940    6.0558
   38.955    5.8347
   38.970    6.0242
   38.985    6.2454
   39.000    6.0979
   39.015    6.0242
   39.030    5.6556
   39.045    5.4239
   39.060    5.9716
   39.075    6.2559
   39.090    6.0979
   39.105    5.8662
   39.120    5.7715
   39.135    5.8557
   39.150    5.8768
   39.165    5.9294
   39.180    5.9610
   39.195    6.0453
   39.210    6.0453
   39.225    6.2243
   39.240    6.0348
   39.255    5.8978
   39.270    5.9189
   39.285    6.1822
   39.300    5.9610
   39.315    5.7715
   39.330    6.1085
   39.345    5.7925
   39.360    5.8452
   39.375    6.3402
   39.390    5.6977
   39.405    5.9505
   39.420    5.7820
   39.435    5.6977
   39.450    5.9610
   39.465    5.8452
   39.480    6.1822
   39.495    6.3296
   39.510    6.0453
   39.525    5.4871
   39.540    6.0242
   39.555    5.8031
   39.570    6.0874
   39.585    6.1190
   39.600    6.0348
   39.615    5.8662
   39.630    5.9821
   39.645    5.8136
   39.660    6.0558
   39.675    5.8452
   39.690    6.1822
   39.705    5.7504
   39.720    6.2665
   39.735    5.6345
   39.750    5.6872
   39.765    5.7715
   39.780    5.8768
   39.795    5.6556
   39.810    6.1611
   39.825    5.7504
   39.840    5.5924
   39.855    5.6556
   39.870    5.9189
   39.885    6.3718
   39.900    6.1085
   39.915    5.7820
   39.930    5.8873
   39.945    5.9821
   39.960    6.0242
   39.975    5.9294
   39.990    5.5503
