    1.500   23.2543
    1.515   23.1385
    1.530   23.3702
    1.545   23.5176
    1.560   23.8231
    1.575   23.0121
    1.590   22.6435
    1.605   22.4750
    1.620   22.6962
    1.635   21.7062
    1.650   21.8115
    1.665   21.6956
    1.680   21.4850
    1.695   21.8957
    1.710   21.0953
    1.725   20.8952
    1.740   20.3265
    1.755   20.5371
    1.770   20.1474
    1.785   19.3470
    1.800   20.0105
    1.815   20.5266
    1.830   19.7999
    1.845   20.0316
    1.860   19.2628
    1.875   18.9573
    1.890   19.4102
    1.905   19.3576
    1.920   18.8099
    1.935   19.1259
    1.950   19.0205
    1.965   18.5571
    1.980   18.3254
    1.995   18.7256
    2.010   18.7362
    2.025   18.8836
    2.040   17.9252
    2.055   18.4729
    2.070   17.5882
    2.085   17.6093
    2.100   18.1885
    2.115   17.4934
    2.130   17.6409
    2.145   17.3565
    2.160   18.1253
    2.175   17.9252
    2.190   17.6409
    2.205   17.4829
    2.220   17.2301
    2.235   17.7883
    2.250   17.4302
    2.265   17.0616
    2.280   17.7462
    2.295   17.7988
    2.310   17.7041
    2.325   17.3881
    2.340   17.2722
    2.355   18.0621
    2.370   17.8199
    2.385   17.3565
    2.400   17.8410
    2.415   17.8831
    2.430   17.4829
    2.445   17.3670
    2.460   17.3354
    2.475   17.7672
    2.490   18.2517
    2.505   17.8410
    2.520   18.3254
    2.535   18.1148
    2.550   18.3992
    2.565   18.2938
    2.580   17.2722
    2.595   18.2412
    2.610   18.1464
    2.625   19.0205
    2.640   18.9889
    2.655   18.4518
    2.670   18.7888
    2.685   18.6098
    2.700   19.4102
    2.715   19.9157
    2.730   19.8631
    2.745   19.6735
    2.760   19.8315
    2.775   20.0527
    2.790   19.7472
    2.805   20.3581
    2.820   20.1053
    2.835   20.5687
    2.850   21.4323
    2.865   21.6008
    2.880   21.1796
    2.895   22.1906
    2.910   22.3697
    2.925   22.7383
    2.940   23.0858
    2.955   22.9489
    2.970   24.1706
    2.985   23.5387
    3.000   24.1496
    3.015   24.5076
    3.030   25.0553
    3.045   25.5082
    3.060   25.5924
    3.075   25.5082
    3.090   25.5292
    3.105   26.2243
    3.120   27.0774
    3.135   28.1306
    3.150   28.8994
    3.165   29.1943
    3.180   29.9631
    3.195   30.5108
    3.210   31.5850
    3.225   32.6277
    3.240   33.0911
    3.255   33.6493
    3.270   34.6393
    3.285   35.7557
    3.300   35.7451
    3.315   36.6298
    3.330   37.2828
    3.345   38.5466
    3.360   40.8215
    3.375   40.9057
    3.390   43.6230
    3.405   43.5703
    3.420   45.9716
    3.435   48.6572
    3.450   48.2886
    3.465   49.5735
    3.480   51.0900
    3.495   54.1443
    3.510   55.3871
    3.525   55.1448
    3.540   56.9668
    3.555   57.9884
    3.570   57.9674
    3.585   59.6840
    3.600   59.3470
    3.615   60.8426
    3.630   59.9789
    3.645   59.3365
    3.660   58.4729
    3.675   56.9563
    3.690   56.9142
    3.705   55.4713
    3.720   54.7973
    3.735   53.2175
    3.750   52.0063
    3.765   50.2370
    3.780   48.3834
    3.795   46.5614
    3.810   45.7083
    3.825   43.3491
    3.840   41.5482
    3.855   40.2422
    3.870   38.7151
    3.885   37.0721
    3.900   36.2296
    3.915   34.4076
    3.930   34.3549
    3.945   32.9015
    3.960   31.9642
    3.975   30.8899
    3.990   29.8789
    4.005   28.6045
    4.020   27.4250
    4.035   26.8668
    4.050   25.9716
    4.065   25.0764
    4.080   24.4234
    4.095   24.5814
    4.110   23.1596
    4.125   22.4434
    4.140   22.8541
    4.155   22.6224
    4.170   20.9900
    4.185   21.1585
    4.200   20.0105
    4.215   19.7578
    4.230   19.7472
    4.245   19.3576
    4.260   19.5261
    4.275   18.8942
    4.290   18.8415
    4.305   18.7256
    4.320   18.2833
    4.335   17.4829
    4.350   17.3144
    4.365   17.0090
    4.380   16.5034
    4.395   16.5140
    4.410   16.6403
    4.425   16.4192
    4.440   15.5977
    4.455   16.1032
    4.470   15.5661
    4.485   15.8926
    4.500   16.0716
    4.515   16.2085
    4.530   15.3449
    4.545   15.2291
    4.560   15.0395
    4.575   15.1764
    4.590   14.8815
    4.605   14.9447
    4.620   14.7551
    4.635   14.9026
    4.650   14.9026
    4.665   14.1548
    4.680   14.0179
    4.695   14.7762
    4.710   15.0395
    4.725   14.5024
    4.740   13.6598
    4.755   14.4181
    4.770   14.1338
    4.785   14.0916
    4.800   13.5440
    4.815   13.6388
    4.830   13.8494
    4.845   13.6282
    4.860   13.7862
    4.875   14.5866
    4.890   13.4071
    4.905   14.1864
    4.920   13.9547
    4.935   13.8389
    4.950   13.9652
    4.965   13.6177
    4.980   13.7230
    4.995   13.6388
    5.010   12.9437
    5.025   13.7441
    5.040   13.7230
    5.055   13.4387
    5.070   13.5650
    5.085   13.9442
    5.100   13.9337
    5.115   13.6914
    5.130   13.4597
    5.145   13.4492
    5.160   13.4808
    5.175   12.9858
    5.190   13.0174
    5.205   13.4071
    5.220   13.1648
    5.235   13.1543
    5.250   13.1859
    5.265   13.5440
    5.280   13.3333
    5.295   13.3228
    5.310   13.6177
    5.325   13.5650
    5.340   13.1122
    5.355   13.1859
    5.370   12.7014
    5.385   12.5540
    5.400   12.5118
    5.415   12.7646
    5.430   12.6488
    5.445   12.4276
    5.460   12.6172
    5.475   12.6382
    5.490   12.2486
    5.505   12.5961
    5.520   12.2064
    5.535   12.5329
    5.550   12.8067
    5.565   11.9537
    5.580   12.2064
    5.595   12.4065
    5.610   12.1959
    5.625   12.5750
    5.640   12.4908
    5.655   11.8589
    5.670   11.4797
    5.685   12.1222
    5.700   11.9431
    5.715   11.4481
    5.730   11.5219
    5.745   11.4692
    5.760   11.3428
    5.775   11.1111
    5.790   11.1954
    5.805   11.5850
    5.820   11.3955
    5.835   10.6793
    5.850   10.7214
    5.865   10.6793
    5.880   10.4687
    5.895   10.7214
    5.910   10.4687
    5.925   10.2580
    5.940   10.3423
    5.955    9.6472
    5.970   10.2159
    5.985   10.0579
    6.000    9.9526
    6.015   10.5003
    6.030    9.7630
    6.045    9.6682
    6.060    9.9210
    6.075    9.3312
    6.090    8.9942
    6.105    9.0995
    6.120    8.8994
    6.135    9.1206
    6.150    8.8678
    6.165    9.4155
    6.180    9.4997
    6.195    9.0574
    6.210    9.1206
    6.225    9.5419
    6.240    9.7209
    6.255    8.7730
    6.270    8.2570
    6.285    8.7204
    6.300    9.1522
    6.315    9.2048
    6.330    9.2680
    6.345    9.0047
    6.360    9.1101
    6.375    9.0153
    6.390    8.9415
    6.405    8.9837
    6.420    8.4255
    6.435    9.0890
    6.450    8.4255
    6.465    8.7309
    6.480    8.9521
    6.495    8.5835
    6.510    8.7941
    6.525    8.6045
    6.540    8.8152
    6.555    8.8362
    6.570    8.4150
    6.585    8.5940
    6.600    8.8362
    6.615    9.2048
    6.630    9.1732
    6.645    9.0785
    6.660    9.4892
    6.675    8.9310
    6.690    8.7836
    6.705    8.6045
    6.720    8.7098
    6.735    8.8046
    6.750    8.7730
    6.765    8.9521
    6.780    8.9731
    6.795    9.1943
    6.810    9.6682
    6.825    9.2891
    6.840    9.4260
    6.855    8.8784
    6.870    9.4576
    6.885    9.5419
    6.900    9.7209
    6.915    9.9842
    6.930    9.9737
    6.945   10.2264
    6.960   10.2580
    6.975   10.2475
    6.990    9.9210
    7.005   10.2686
    7.020   10.5845
    7.035   10.4897
    7.050   10.6266
    7.065   11.0585
    7.080   11.5219
    7.095   11.0479
    7.110   11.0795
    7.125   11.0269
    7.140   11.4481
    7.155   10.8478
    7.170   10.7636
    7.185   11.3217
    7.200   11.0585
    7.215   11.6272
    7.230   11.2375
    7.245   11.7114
    7.260   11.6904
    7.275   11.4376
    7.290   11.0163
    7.305   11.0585
    7.320   11.0479
    7.335   11.0163
    7.350   10.8583
    7.365   11.1216
    7.380   10.7425
    7.395   10.6582
    7.410   10.4265
    7.425   10.5951
    7.440   10.6793
    7.455   10.1422
    7.470   10.1843
    7.485    9.7736
    7.500    9.4471
    7.515    9.1522
    7.530    9.1732
    7.545    9.0574
    7.560    9.3628
    7.575    9.5208
    7.590    9.0995
    7.605    8.6783
    7.620    8.6256
    7.635    8.3412
    7.650    8.2254
    7.665    8.4255
    7.680    7.9305
    7.695    8.1201
    7.710    8.1095
    7.725    7.9305
    7.740    7.8462
    7.755    7.5724
    7.770    7.8041
    7.785    8.0569
    7.800    8.0358
    7.815    7.8146
    7.830    7.0985
    7.845    7.0879
    7.860    7.2986
    7.875    7.2143
    7.890    7.1933
    7.905    7.0037
    7.920    7.4987
    7.935    7.3512
    7.950    6.8246
    7.965    7.1301
    7.980    7.4144
    7.995    6.6772
    8.010    6.6245
    8.025    6.5719
    8.040    6.9405
    8.055    6.7720
    8.070    6.7825
    8.085    6.6561
    8.100    6.6772
    8.115    6.7299
    8.130    6.7404
    8.145    6.7299
    8.160    6.9932
    8.175    6.7615
    8.190    6.6351
    8.205    6.6983
    8.220    6.5929
    8.235    6.2981
    8.250    6.2875
    8.265    6.2981
    8.280    6.0664
    8.295    5.8873
    8.310    6.1295
    8.325    6.0769
    8.340    6.5929
    8.355    6.0032
    8.370    6.1295
    8.385    6.0558
    8.400    5.8768
    8.415    6.0453
    8.430    5.8031
    8.445    5.9610
    8.460    5.9716
    8.475    5.8768
    8.490    6.3402
    8.505    6.3086
    8.520    6.0453
    8.535    6.3296
    8.550    6.0032
    8.565    5.6451
    8.580    6.3612
    8.595    5.9294
    8.610    6.2349
    8.625    5.8136
    8.640    5.8452
    8.655    5.9400
    8.670    6.0664
    8.685    5.3397
    8.700    5.3923
    8.715    5.6345
    8.730    5.7925
    8.745    5.3397
    8.760    5.1817
    8.775    5.7188
    8.790    5.9821
    8.805    5.9189
    8.820    5.6767
    8.835    5.8031
    8.850    5.8978
    8.865    5.4555
    8.880    5.8347
    8.895    5.5608
    8.910    5.2975
    8.925    5.3923
    8.940    5.6451
    8.955    5.5082
    8.970    5.5292
    8.985    5.3081
    9.000    5.7293
    9.015    5.6767
    9.030    5.3712
    9.045    5.6029
    9.060    5.3186
    9.075    5.5082
    9.090    5.5082
    9.105    5.3291
    9.120    5.5608
    9.135    5.1080
    9.150    5.1290
    9.165    5.3818
    9.180    5.5398
    9.195    5.8978
    9.210    5.4450
    9.225    5.4555
    9.240    5.4134
    9.255    5.4344
    9.270    5.2343
    9.285    5.4134
    9.300    5.2765
    9.315    5.6345
    9.330    5.4555
    9.345    5.0974
    9.360    5.3291
    9.375    5.2027
    9.390    5.3818
    9.405    5.2765
    9.420    5.1711
    9.435    5.2975
    9.450    5.6135
    9.465    4.9605
    9.480    5.1185
    9.495    5.1501
    9.510    5.4344
    9.525    4.9289
    9.540    5.3291
    9.555    5.4344
    9.570    5.3923
    9.585    5.4976
    9.600    5.1185
    9.615    5.1922
    9.630    5.0026
    9.645    5.1185
    9.660    4.9710
    9.675    5.4134
    9.690    4.8552
    9.705    5.1501
    9.720    5.2238
    9.735    5.2554
    9.750    4.8973
    9.765    5.1185
    9.780    5.1185
    9.795    4.9500
    9.810    5.1185
    9.825    5.1711
    9.840    4.9078
    9.855    5.4450
    9.870    5.4450
    9.885    5.0764
    9.900    4.9816
    9.915    4.7709
    9.930    5.3923
    9.945    5.3923
    9.960    5.2449
    9.975    5.2449
    9.990    5.3502
   10.005    4.7709
   10.020    5.1606
   10.035    4.9184
   10.050    5.1606
   10.065    4.7604
   10.080    5.0237
   10.095    5.1395
   10.110    5.0448
   10.125    5.4344
   10.140    4.8236
   10.155    4.9394
   10.170    4.9184
   10.185    4.9605
   10.200    4.8131
   10.215    4.9394
   10.230    4.9184
   10.245    5.0764
   10.260    5.2975
   10.275    5.3712
   10.290    5.3186
   10.305    5.0342
   10.320    4.9710
   10.335    5.4766
   10.350    5.2343
   10.365    5.0974
   10.380    5.0764
   10.395    5.0132
   10.410    4.9078
   10.425    5.2870
   10.440    5.1922
   10.455    5.0342
   10.470    5.1395
   10.485    4.6972
   10.500    4.8236
   10.515    5.0869
   10.530    4.9605
   10.545    5.3397
   10.560    4.9710
   10.575    4.9605
   10.590    5.3397
   10.605    5.3186
   10.620    5.3081
   10.635    5.4871
   10.650    5.1080
   10.665    5.2554
   10.680    5.1711
   10.695    5.1501
   10.710    4.9816
   10.725    5.1185
   10.740    5.3397
   10.755    5.4450
   10.770    5.2133
   10.785    5.6345
   10.800    5.2870
   10.815    5.2027
   10.830    5.5082
   10.845    5.3712
   10.860    4.9921
   10.875    5.0026
   10.890    5.2027
   10.905    4.9078
   10.920    5.4450
   10.935    5.3397
   10.950    5.2659
   10.965    5.5082
   10.980    5.4660
   10.995    5.5714
   11.010    5.0132
   11.025    5.4344
   11.040    5.3291
   11.055    5.5924
   11.070    5.5398
   11.085    5.2133
   11.100    5.3081
   11.115    5.1817
   11.130    5.2765
   11.145    5.6451
   11.160    5.2027
   11.175    5.1711
   11.190    5.4134
   11.205    5.3081
   11.220    4.9394
   11.235    5.3712
   11.250    5.6135
   11.265    5.4344
   11.280    5.0342
   11.295    5.0658
   11.310    5.2449
   11.325    5.2554
   11.340    5.0764
   11.355    4.9921
   11.370    5.2238
   11.385    5.2449
   11.400    5.1711
   11.415    5.1395
   11.430    5.2765
   11.445    5.2870
   11.460    5.2133
   11.475    5.1817
   11.490    5.4239
   11.505    5.5082
   11.520    5.2343
   11.535    4.9394
   11.550    5.1185
   11.565    5.4344
   11.580    5.0974
   11.595    5.1395
   11.610    5.2554
   11.625    4.8868
   11.640    4.9710
   11.655    5.0974
   11.670    5.2765
   11.685    5.0658
   11.700    4.8236
   11.715    4.8973
   11.730    5.2554
   11.745    5.1290
   11.760    4.9921
   11.775    4.8236
   11.790    5.3818
   11.805    5.1185
   11.820    5.4344
   11.835    5.2449
   11.850    4.9816
   11.865    4.9921
   11.880    5.3186
   11.895    4.9289
   11.910    4.6867
   11.925    5.1185
   11.940    5.2343
   11.955    5.1080
   11.970    5.2554
   11.985    5.4555
   12.000    5.2343
   12.015    5.1080
   12.030    5.0658
   12.045    5.2975
   12.060    5.1290
   12.075    4.8657
   12.090    5.0764
   12.105    5.0237
   12.120    4.8341
   12.135    4.8763
   12.150    4.9921
   12.165    5.0026
   12.180    5.0974
   12.195    4.8341
   12.210    4.9921
   12.225    5.0869
   12.240    4.7920
   12.255    5.1185
   12.270    5.4239
   12.285    5.3502
   12.300    5.3923
   12.315    4.8763
   12.330    5.0869
   12.345    5.0237
   12.360    4.7815
   12.375    5.1711
   12.390    5.2659
   12.405    4.9078
   12.420    5.0553
   12.435    4.8236
   12.450    5.1395
   12.465    5.2659
   12.480    5.1711
   12.495    5.1817
   12.510    4.6972
   12.525    4.9078
   12.540    4.9394
   12.555    4.7815
   12.570    5.0342
   12.585    4.7499
   12.600    4.9921
   12.615    4.8236
   12.630    4.6235
   12.645    4.6340
   12.660    5.1395
   12.675    5.4344
   12.690    4.9184
   12.705    5.2975
   12.720    5.3186
   12.735    4.8973
   12.750    4.5392
   12.765    4.8657
   12.780    5.2238
   12.795    4.8868
   12.810    4.9921
   12.825    4.9394
   12.840    4.9289
   12.855    4.8025
   12.870    4.9921
   12.885    5.2133
   12.900    4.9710
   12.915    5.0448
   12.930    4.7920
   12.945    4.7709
   12.960    5.0342
   12.975    5.0342
   12.990    4.9184
   13.005    5.1185
   13.020    5.3081
   13.035    5.1501
   13.050    5.0448
   13.065    5.0132
   13.080    5.0764
   13.095    5.0869
   13.110    5.1395
   13.125    4.7393
   13.140    4.7604
   13.155    4.9500
   13.170    4.8025
   13.185    4.8025
   13.200    4.7183
   13.215    5.0448
   13.230    5.0553
   13.245    4.9394
   13.260    4.6445
   13.275    4.9184
   13.290    4.8236
   13.305    4.6340
   13.320    4.6761
   13.335    5.0553
   13.350    5.0974
   13.365    5.1606
   13.380    4.6656
   13.395    4.7920
   13.410    4.7183
   13.425    4.9605
   13.440    4.9184
   13.455    4.8657
   13.470    4.7815
   13.485    4.5392
   13.500    4.8236
   13.515    4.7499
   13.530    4.8341
   13.545    4.6551
   13.560    4.7183
   13.575    4.9921
   13.590    4.9078
   13.605    4.9500
   13.620    4.9394
   13.635    4.7499
   13.650    4.8447
   13.665    4.8657
   13.680    4.9921
   13.695    5.0448
   13.710    4.6761
   13.725    4.7077
   13.740    5.1606
   13.755    5.1080
   13.770    5.1080
   13.785    4.8131
   13.800    5.0132
   13.815    5.3081
   13.830    5.0026
   13.845    4.6972
   13.860    4.7815
   13.875    5.1290
   13.890    5.0658
   13.905    4.9184
   13.920    4.9816
   13.935    5.1501
   13.950    4.8025
   13.965    5.0448
   13.980    4.9605
   13.995    5.4239
   14.010    5.1922
   14.025    5.2027
   14.040    4.9605
   14.055    5.2765
   14.070    5.1290
   14.085    5.2238
   14.100    4.9184
   14.115    5.2027
   14.130    5.1080
   14.145    5.0342
   14.160    4.8973
   14.175    5.0974
   14.190    4.9921
   14.205    5.0237
   14.220    4.8236
   14.235    5.2449
   14.250    5.0764
   14.265    4.9816
   14.280    5.0132
   14.295    5.6135
   14.310    5.3186
   14.325    5.2554
   14.340    5.1501
   14.355    4.8447
   14.370    4.8341
   14.385    5.0658
   14.400    5.1817
   14.415    5.1080
   14.430    5.2449
   14.445    5.1922
   14.460    5.1501
   14.475    5.2765
   14.490    5.1817
   14.505    5.1711
   14.520    5.2343
   14.535    5.1606
   14.550    5.2133
   14.565    5.1606
   14.580    5.1080
   14.595    5.0026
   14.610    4.8763
   14.625    5.1395
   14.640    5.2765
   14.655    5.2343
   14.670    4.7604
   14.685    5.2343
   14.700    5.0237
   14.715    4.7815
   14.730    4.9816
   14.745    5.1080
   14.760    5.2554
   14.775    5.0553
   14.790    5.0764
   14.805    5.1817
   14.820    4.6656
   14.835    4.6761
   14.850    5.1290
   14.865    4.5603
   14.880    4.6024
   14.895    5.0237
   14.910    4.7604
   14.925    4.8657
   14.940    5.1080
   14.955    5.1290
   14.970    5.0448
   14.985    5.0342
   15.000    4.8973
   15.015    4.7920
   15.030    4.7604
   15.045    5.2238
   15.060    5.0237
   15.075    5.0764
   15.090    5.1080
   15.105    4.9078
   15.120    5.3081
   15.135    5.0764
   15.150    4.9921
   15.165    4.9289
   15.180    4.9289
   15.195    4.9816
   15.210    5.0658
   15.225    4.9710
   15.240    5.1817
   15.255    4.9921
   15.270    5.2027
   15.285    5.2554
   15.300    4.9710
   15.315    5.0342
   15.330    4.9921
   15.345    5.0448
   15.360    5.1711
   15.375    5.2343
   15.390    5.1185
   15.405    5.1606
   15.420    4.8763
   15.435    5.0448
   15.450    5.1185
   15.465    5.4344
   15.480    5.2449
   15.495    4.9184
   15.510    5.0132
   15.525    5.0026
   15.540    4.7077
   15.555    5.0237
   15.570    4.7077
   15.585    4.6972
   15.600    4.8657
   15.615    5.0553
   15.630    5.2133
   15.645    5.0342
   15.660    5.0342
   15.675    4.8447
   15.690    4.8868
   15.705    5.3607
   15.720    5.2870
   15.735    4.9816
   15.750    4.7499
   15.765    5.0026
   15.780    5.1922
   15.795    5.1817
   15.810    5.1606
   15.825    5.4976
   15.840    5.5292
   15.855    5.1817
   15.870    5.0553
   15.885    4.6656
   15.900    5.0132
   15.915    5.1606
   15.930    4.8025
   15.945    4.9921
   15.960    5.3818
   15.975    5.6240
   15.990    5.2133
   16.005    5.2975
   16.020    5.1606
   16.035    5.1711
   16.050    5.2238
   16.065    5.5292
   16.080    5.2133
   16.095    5.0658
   16.110    5.0026
   16.125    5.4134
   16.140    5.5292
   16.155    5.3081
   16.170    5.2870
   16.185    5.2554
   16.200    4.8973
   16.215    5.0026
   16.230    5.4660
   16.245    5.6451
   16.260    5.2133
   16.275    5.0132
   16.290    5.3923
   16.305    5.2870
   16.320    5.0448
   16.335    5.0237
   16.350    5.1817
   16.365    5.0026
   16.380    5.4028
   16.395    5.4976
   16.410    5.1711
   16.425    5.2449
   16.440    5.2133
   16.455    5.4766
   16.470    5.3818
   16.485    5.2554
   16.500    5.4660
   16.515    5.4450
   16.530    5.6767
   16.545    5.3397
   16.560    5.0237
   16.575    5.1606
   16.590    5.3081
   16.605    5.3712
   16.620    5.2343
   16.635    5.0553
   16.650    5.3502
   16.665    5.2133
   16.680    5.1501
   16.695    5.3186
   16.710    5.2554
   16.725    5.4344
   16.740    5.2238
   16.755    5.1395
   16.770    5.3291
   16.785    5.4871
   16.800    4.9921
   16.815    5.2133
   16.830    5.5608
   16.845    5.4766
   16.860    5.6135
   16.875    5.5292
   16.890    5.4239
   16.905    5.2449
   16.920    5.2554
   16.935    5.2027
   16.950    5.5714
   16.965    5.4450
   16.980    5.3923
   16.995    5.4555
   17.010    5.4871
   17.025    4.9184
   17.040    5.2870
   17.055    5.0974
   17.070    5.1501
   17.085    5.4976
   17.100    5.2238
   17.115    4.9289
   17.130    5.4976
   17.145    5.5924
   17.160    5.5503
   17.175    5.4450
   17.190    5.4766
   17.205    5.2133
   17.220    5.3923
   17.235    5.2133
   17.250    5.0869
   17.265    5.3186
   17.280    5.5924
   17.295    5.2343
   17.310    5.3291
   17.325    5.2765
   17.340    5.5292
   17.355    5.4871
   17.370    5.7083
   17.385    5.6451
   17.400    5.5503
   17.415    5.2238
   17.430    5.2870
   17.445    5.7188
   17.460    5.5292
   17.475    5.6240
   17.490    5.2975
   17.505    5.2027
   17.520    5.9821
   17.535    5.8347
   17.550    5.9716
   17.565    5.7293
   17.580    5.5608
   17.595    5.5082
   17.610    5.6135
   17.625    5.6977
   17.640    5.4871
   17.655    5.8662
   17.670    5.3186
   17.685    5.3186
   17.700    5.6556
   17.715    5.5503
   17.730    5.6977
   17.745    5.8452
   17.760    6.0137
   17.775    5.7820
   17.790    5.6872
   17.805    5.5503
   17.820    5.7609
   17.835    5.9400
   17.850    5.6872
   17.865    6.2665
   17.880    5.8452
   17.895    5.9189
   17.910    5.9716
   17.925    6.1401
   17.940    6.0137
   17.955    5.8978
   17.970    6.3296
   17.985    6.2770
   18.000    5.8136
   18.015    6.1401
   18.030    6.0769
   18.045    6.4350
   18.060    6.1401
   18.075    5.9189
   18.090    5.8768
   18.105    5.9189
   18.120    5.6661
   18.135    6.0348
   18.150    6.3823
   18.165    6.3191
   18.180    6.1085
   18.195    5.8978
   18.210    6.1401
   18.225    6.0979
   18.240    6.3507
   18.255    6.0032
   18.270    5.9294
   18.285    6.3402
   18.300    6.2349
   18.315    6.1401
   18.330    5.7820
   18.345    6.1295
   18.360    6.2033
   18.375    5.9505
   18.390    6.3823
   18.405    6.3718
   18.420    6.0137
   18.435    6.3086
   18.450    6.2138
   18.465    6.3191
   18.480    6.2665
   18.495    5.9400
   18.510    6.2138
   18.525    6.3612
   18.540    6.2665
   18.555    6.2033
   18.570    6.1927
   18.585    6.3718
   18.600    6.1506
   18.615    5.9821
   18.630    6.5403
   18.645    6.2981
   18.660    6.3296
   18.675    6.2981
   18.690    6.3402
   18.705    5.9926
   18.720    6.1927
   18.735    5.9189
   18.750    6.5929
   18.765    6.1190
   18.780    6.3612
   18.795    6.2559
   18.810    5.9189
   18.825    6.1611
   18.840    6.5192
   18.855    6.2875
   18.870    6.2138
   18.885    6.2243
   18.900    6.2033
   18.915    6.5613
   18.930    6.3507
   18.945    6.1401
   18.960    6.5929
   18.975    6.0558
   18.990    6.1295
   19.005    5.9926
   19.020    6.0348
   19.035    6.1717
   19.050    6.3718
   19.065    6.2665
   19.080    5.9610
   19.095    6.6140
   19.110    6.2454
   19.125    6.1822
   19.140    5.8978
   19.155    6.0137
   19.170    5.9400
   19.185    6.2138
   19.200    5.8347
   19.215    5.8768
   19.230    5.8452
   19.245    6.3612
   19.260    6.0769
   19.275    6.2243
   19.290    5.8452
   19.305    5.7083
   19.320    6.4244
   19.335    6.3718
   19.350    6.2454
   19.365    6.1506
   19.380    6.7930
   19.395    6.2875
   19.410    6.0979
   19.425    6.1611
   19.440    6.1927
   19.455    6.1295
   19.470    6.1822
   19.485    6.3718
   19.500    5.9926
   19.515    6.4560
   19.530    6.4876
   19.545    5.8452
   19.560    6.2138
   19.575    5.9926
   19.590    6.1927
   19.605    6.0032
   19.620    6.1190
   19.635    5.8978
   19.650    6.1401
   19.665    6.0769
   19.680    6.2243
   19.695    5.9189
   19.710    5.8978
   19.725    5.8452
   19.740    5.6977
   19.755    5.8557
   19.770    5.6872
   19.785    5.9084
   19.800    5.8136
   19.815    6.0242
   19.830    6.3402
   19.845    6.4350
   19.860    6.2559
   19.875    5.8347
   19.890    5.5082
   19.905    5.9716
   19.920    6.1717
   19.935    6.1295
   19.950    6.0558
   19.965    6.0032
   19.980    5.7293
   19.995    6.0137
   20.010    6.2981
   20.025    6.0769
   20.040    5.7609
   20.055    5.7188
   20.070    6.0032
   20.085    5.8978
   20.100    5.8347
   20.115    5.6767
   20.130    5.9084
   20.145    5.8136
   20.160    5.8768
   20.175    5.6977
   20.190    5.6872
   20.205    5.9189
   20.220    5.9400
   20.235    5.8241
   20.250    5.8241
   20.265    5.8662
   20.280    5.8768
   20.295    5.9084
   20.310    5.9084
   20.325    5.7188
   20.340    5.6240
   20.355    5.8662
   20.370    5.4976
   20.385    5.8768
   20.400    6.0769
   20.415    5.7820
   20.430    5.8241
   20.445    5.8347
   20.460    5.7715
   20.475    5.6029
   20.490    5.8873
   20.505    5.7293
   20.520    5.8768
   20.535    5.8873
   20.550    5.8031
   20.565    6.1401
   20.580    5.8662
   20.595    5.8136
   20.610    6.1927
   20.625    5.9084
   20.640    5.9505
   20.655    5.5187
   20.670    5.5398
   20.685    5.7820
   20.700    5.8978
   20.715    5.6977
   20.730    5.7715
   20.745    5.9189
   20.760    6.3823
   20.775    5.7820
   20.790    5.8662
   20.805    5.9189
   20.820    5.7925
   20.835    5.8978
   20.850    5.8241
   20.865    5.7609
   20.880    5.7399
   20.895    5.6135
   20.910    5.9505
   20.925    5.9084
   20.940    6.0874
   20.955    5.8557
   20.970    5.7609
   20.985    6.0664
   21.000    5.8768
   21.015    5.8347
   21.030    5.6556
   21.045    6.0032
   21.060    5.7293
   21.075    5.7504
   21.090    5.7504
   21.105    6.0137
   21.120    5.9610
   21.135    5.8768
   21.150    5.8873
   21.165    5.8768
   21.180    6.1190
   21.195    6.0348
   21.210    5.9821
   21.225    6.0242
   21.240    5.8873
   21.255    5.8347
   21.270    5.8136
   21.285    5.9716
   21.300    5.7715
   21.315    6.1611
   21.330    5.9505
   21.345    6.0242
   21.360    6.2770
   21.375    6.1401
   21.390    6.0558
   21.405    5.9505
   21.420    6.3612
   21.435    6.0453
   21.450    5.8241
   21.465    5.8873
   21.480    6.4034
   21.495    6.2665
   21.510    6.0032
   21.525    5.7504
   21.540    6.1927
   21.555    6.1190
   21.570    6.1611
   21.585    6.1190
   21.600    6.1717
   21.615    5.8557
   21.630    6.0769
   21.645    6.1611
   21.660    6.1717
   21.675    6.2454
   21.690    6.3296
   21.705    6.0874
   21.720    6.1717
   21.735    6.1295
   21.750    6.2243
   21.765    6.1506
   21.780    6.0348
   21.795    6.1190
   21.810    6.1611
   21.825    5.9505
   21.840    6.2559
   21.855    6.1085
   21.870    5.7820
   21.885    6.1190
   21.900    6.1506
   21.915    5.6977
   21.930    5.9400
   21.945    5.7925
   21.960    5.9294
   21.975    6.0769
   21.990    6.0032
   22.005    6.2559
   22.020    6.3823
   22.035    6.1085
   22.050    6.1085
   22.065    5.7504
   22.080    5.7188
   22.095    5.6029
   22.110    6.0348
   22.125    6.2559
   22.140    6.3086
   22.155    5.7715
   22.170    5.8557
   22.185    5.9084
   22.200    5.8347
   22.215    5.9189
   22.230    5.7399
   22.245    5.7504
   22.260    5.9821
   22.275    5.9505
   22.290    6.0664
   22.305    5.7820
   22.320    5.6240
   22.335    5.8136
   22.350    6.0242
   22.365    5.9400
   22.380    5.7083
   22.395    5.8768
   22.410    6.0874
   22.425    6.0558
   22.440    6.0874
   22.455    6.2138
   22.470    6.0137
   22.485    5.9294
   22.500    5.7609
   22.515    5.8873
   22.530    6.2665
   22.545    5.9716
   22.560    5.8452
   22.575    5.5503
   22.590    5.6977
   22.605    6.0032
   22.620    6.0453
   22.635    5.9505
   22.650    6.0242
   22.665    6.1190
   22.680    5.8031
   22.695    5.8768
   22.710    6.0664
   22.725    6.0874
   22.740    6.1190
   22.755    5.6556
   22.770    5.9716
   22.785    5.8031
   22.800    5.9821
   22.815    5.7083
   22.830    6.0032
   22.845    5.9505
   22.860    6.2770
   22.875    5.9189
   22.890    5.6872
   22.905    5.8662
   22.920    5.6451
   22.935    5.8557
   22.950    5.9400
   22.965    5.9821
   22.980    6.2349
   22.995    6.0558
   23.010    5.7609
   23.025    5.8347
   23.040    5.7925
   23.055    5.5503
   23.070    5.7504
   23.085    5.5924
   23.100    5.5503
   23.115    5.7399
   23.130    6.2454
   23.145    6.2454
   23.160    6.1295
   23.175    6.1822
   23.190    5.7293
   23.205    5.6767
   23.220    5.4871
   23.235    5.5082
   23.250    5.4766
   23.265    6.0558
   23.280    6.1506
   23.295    5.9084
   23.310    6.0664
   23.325    5.8662
   23.340    5.5292
   23.355    5.5503
   23.370    5.8347
   23.385    6.0137
   23.400    5.6977
   23.415    6.0874
   23.430    5.9400
   23.445    5.6556
   23.460    5.5082
   23.475    5.9821
   23.490    5.4344
   23.505    5.6345
   23.520    5.9294
   23.535    5.7504
   23.550    5.3818
   23.565    5.6977
   23.580    5.6977
   23.595    5.5398
   23.610    5.4766
   23.625    5.6767
   23.640    5.6240
   23.655    5.7715
   23.670    5.7925
   23.685    5.5714
   23.700    5.4450
   23.715    5.6345
   23.730    5.8136
   23.745    5.8978
   23.760    5.4766
   23.775    5.4871
   23.790    5.8978
   23.805    5.7925
   23.820    5.5292
   23.835    5.6451
   23.850    5.8031
   23.865    5.8031
   23.880    5.2133
   23.895    5.2659
   23.910    5.3291
   23.925    5.3607
   23.940    5.4976
   23.955    5.7083
   23.970    5.6135
   23.985    5.3081
   24.000    5.1711
   24.015    5.6345
   24.030    5.8978
   24.045    5.4766
   24.060    5.2027
   24.075    5.6872
   24.090    5.8031
   24.105    5.4028
   24.120    5.3923
   24.135    5.8557
   24.150    5.4555
   24.165    5.3397
   24.180    5.5187
   24.195    5.4450
   24.210    5.2343
   24.225    5.3291
   24.240    5.4239
   24.255    5.6345
   24.270    5.2133
   24.285    5.3081
   24.300    5.3186
   24.315    5.0869
   24.330    4.9710
   24.345    5.3923
   24.360    5.6135
   24.375    5.1080
   24.390    5.1922
   24.405    5.2343
   24.420    5.2449
   24.435    5.6240
   24.450    5.3502
   24.465    5.4134
   24.480    5.5503
   24.495    5.0026
   24.510    5.2133
   24.525    5.2238
   24.540    5.4976
   24.555    5.3818
   24.570    5.4028
   24.585    4.9394
   24.600    5.0132
   24.615    5.3081
   24.630    5.4450
   24.645    5.3291
   24.660    5.3712
   24.675    5.2133
   24.690    5.2449
   24.705    4.9710
   24.720    4.8763
   24.735    5.2870
   24.750    5.0553
   24.765    5.4976
   24.780    5.0132
   24.795    4.8868
   24.810    5.3397
   24.825    5.2765
   24.840    5.4871
   24.855    5.4976
   24.870    5.0974
   24.885    4.9289
   24.900    5.1501
   24.915    5.3923
   24.930    5.2027
   24.945    5.0658
   24.960    5.2133
   24.975    5.0026
   24.990    4.8973
   25.005    5.0658
   25.020    5.4871
   25.035    4.9921
   25.050    4.8973
   25.065    5.1185
   25.080    5.3397
   25.095    4.9816
   25.110    5.1711
   25.125    4.8868
   25.140    4.9500
   25.155    4.7709
   25.170    5.0237
   25.185    5.1080
   25.200    5.1185
   25.215    5.1395
   25.230    4.6656
   25.245    5.1501
   25.260    4.9816
   25.275    4.8868
   25.290    4.9816
   25.305    4.8236
   25.320    4.9500
   25.335    4.8236
   25.350    4.9816
   25.365    4.8236
   25.380    4.9078
   25.395    4.8973
   25.410    4.7920
   25.425    4.6340
   25.440    4.8552
   25.455    4.8025
   25.470    4.8131
   25.485    5.0658
   25.500    4.7709
   25.515    4.9078
   25.530    4.7183
   25.545    4.8131
   25.560    4.6445
   25.575    4.6340
   25.590    4.7604
   25.605    4.9710
   25.620    4.3813
   25.635    4.7920
   25.650    5.0342
   25.665    4.6445
   25.680    4.8236
   25.695    4.9605
   25.710    4.8763
   25.725    4.8973
   25.740    4.6656
   25.755    4.7499
   25.770    4.6761
   25.785    4.7709
   25.800    4.8236
   25.815    4.5392
   25.830    4.6867
   25.845    4.4023
   25.860    4.7183
   25.875    4.7288
   25.890    4.9500
   25.905    4.5814
   25.920    4.8236
   25.935    4.9710
   25.950    4.6551
   25.965    4.6656
   25.980    4.3707
   25.995    4.4655
   26.010    4.7288
   26.025    4.4128
   26.040    4.4128
   26.055    4.5182
   26.070    4.5392
   26.085    4.6235
   26.100    4.5603
   26.115    4.5919
   26.130    4.7393
   26.145    4.5392
   26.160    4.8131
   26.175    4.4866
   26.190    4.3813
   26.205    4.4655
   26.220    4.4550
   26.235    3.9705
   26.250    4.4971
   26.265    4.2443
   26.280    4.3602
   26.295    4.4128
   26.310    4.5814
   26.325    4.7077
   26.340    4.6551
   26.355    4.7604
   26.370    4.6445
   26.385    4.6130
   26.400    4.4655
   26.415    4.4128
   26.430    4.3707
   26.445    4.2127
   26.460    4.4866
   26.475    4.2654
   26.490    4.3602
   26.505    4.1706
   26.520    4.0126
   26.535    4.0969
   26.550    4.4655
   26.565    4.2970
   26.580    4.1601
   26.595    4.3707
   26.610    4.2759
   26.625    3.9073
   26.640    4.2338
   26.655    4.1180
   26.670    4.2549
   26.685    4.0969
   26.700    4.0442
   26.715    4.3813
   26.730    4.0653
   26.745    4.2759
   26.760    4.4128
   26.775    4.3602
   26.790    4.2654
   26.805    4.4760
   26.820    4.2865
   26.835    4.4655
   26.850    4.1390
   26.865    4.0021
   26.880    3.9494
   26.895    4.0758
   26.910    4.2970
   26.925    4.0126
   26.940    3.9073
   26.955    4.0758
   26.970    4.0758
   26.985    4.0442
   27.000    3.8652
   27.015    4.1496
   27.030    4.2549
   27.045    4.4444
   27.060    4.0442
   27.075    4.0337
   27.090    4.1074
   27.105    4.4339
   27.120    4.2759
   27.135    4.0232
   27.150    4.0442
   27.165    4.0337
   27.180    4.1601
   27.195    3.9916
   27.210    4.2443
   27.225    3.9916
   27.240    4.4234
   27.255    4.4760
   27.270    4.0126
   27.285    4.1706
   27.300    4.3602
   27.315    4.0864
   27.330    4.0337
   27.345    4.0969
   27.360    3.8863
   27.375    3.9179
   27.390    4.1180
   27.405    4.1917
   27.420    4.1285
   27.435    4.0548
   27.450    4.0653
   27.465    4.3391
   27.480    4.0126
   27.495    4.0548
   27.510    3.8863
   27.525    3.6546
   27.540    4.0442
   27.555    3.9389
   27.570    3.9810
   27.585    3.7599
   27.600    3.5598
   27.615    3.9073
   27.630    4.0337
   27.645    3.8125
   27.660    3.8547
   27.675    4.1180
   27.690    3.8863
   27.705    3.7177
   27.720    3.8757
   27.735    4.1601
   27.750    4.1285
   27.765    3.8863
   27.780    3.9810
   27.795    3.7809
   27.810    3.7915
   27.825    3.7704
   27.840    3.8336
   27.855    3.9810
   27.870    3.9600
   27.885    3.7809
   27.900    3.8020
   27.915    4.0021
   27.930    3.9600
   27.945    3.6651
   27.960    3.8125
   27.975    3.8231
   27.990    4.1601
   28.005    3.7177
   28.020    3.8336
   28.035    3.7809
   28.050    3.7388
   28.065    4.0126
   28.080    4.1706
   28.095    3.8547
   28.110    3.6335
   28.125    3.4439
   28.140    3.7388
   28.155    3.9916
   28.170    3.7809
   28.185    3.5598
   28.200    3.4229
   28.215    3.9389
   28.230    3.8441
   28.245    3.9073
   28.260    3.6967
   28.275    3.7072
   28.290    3.7283
   28.305    3.4755
   28.320    3.6651
   28.335    3.6546
   28.350    3.5598
   28.365    3.6756
   28.380    3.6230
   28.395    3.4018
   28.410    3.7388
   28.425    3.8441
   28.440    3.6651
   28.455    3.6546
   28.470    3.7072
   28.485    3.4439
   28.500    3.3913
   28.515    3.5914
   28.530    3.5176
   28.545    3.5703
   28.560    3.8757
   28.575    3.7704
   28.590    3.9179
   28.605    3.8336
   28.620    3.7493
   28.635    3.8125
   28.650    3.7177
   28.665    3.6862
   28.680    3.5808
   28.695    3.6967
   28.710    3.6335
   28.725    3.5914
   28.740    3.4755
   28.755    3.6440
   28.770    3.8231
   28.785    3.5598
   28.800    3.7177
   28.815    3.7493
   28.830    3.7388
   28.845    3.5914
   28.860    3.5703
   28.875    3.7177
   28.890    3.8336
   28.905    3.7493
   28.920    3.5808
   28.935    3.7599
   28.950    3.8968
   28.965    3.5387
   28.980    3.4018
   28.995    3.5703
   29.010    3.9284
   29.025    3.6440
   29.040    3.3807
   29.055    3.5176
   29.070    3.4334
   29.085    3.3702
   29.100    3.3175
   29.115    3.5176
   29.130    3.5071
   29.145    3.4544
   29.160    3.5387
   29.175    3.6124
   29.190    3.2859
   29.205    3.5914
   29.220    3.4650
   29.235    3.5703
   29.250    3.6019
   29.265    3.3702
   29.280    3.6019
   29.295    3.6967
   29.310    3.4650
   29.325    3.4650
   29.340    3.3702
   29.355    3.4544
   29.370    3.3913
   29.385    3.2649
   29.400    3.2965
   29.415    3.5071
   29.430    3.2333
   29.445    3.3597
   29.460    3.3807
   29.475    3.5914
   29.490    3.3597
   29.505    3.4650
   29.520    3.4755
   29.535    3.4650
   29.550    3.6967
   29.565    3.6440
   29.580    3.4966
   29.595    3.3597
   29.610    3.5387
   29.625    3.3070
   29.640    3.3386
   29.655    3.4334
   29.670    3.6546
   29.685    3.6124
   29.700    3.3491
   29.715    3.3386
   29.730    3.4860
   29.745    3.4544
   29.760    3.5387
   29.775    3.4229
   29.790    3.2859
   29.805    3.4650
   29.820    3.2438
   29.835    3.5071
   29.850    3.4755
   29.865    3.3491
   29.880    3.4755
   29.895    3.2649
   29.910    3.0753
   29.925    2.9595
   29.940    3.3597
   29.955    3.4755
   29.970    3.2754
   29.985    3.3175
   30.000    3.4334
   30.015    3.4544
   30.030    3.3597
   30.045    3.4229
   30.060    3.1490
   30.075    3.4334
   30.090    3.3386
   30.105    3.6335
   30.120    3.2438
   30.135    3.5598
   30.150    3.5282
   30.165    3.5282
   30.180    3.2965
   30.195    2.9700
   30.210    3.4650
   30.225    3.5071
   30.240    3.1596
   30.255    2.9384
   30.270    3.2965
   30.285    3.4860
   30.300    3.4018
   30.315    3.3702
   30.330    3.6967
   30.345    3.5282
   30.360    3.2017
   30.375    3.4334
   30.390    3.3597
   30.405    3.2543
   30.420    3.0964
   30.435    3.3175
   30.450    3.3807
   30.465    3.1490
   30.480    3.2649
   30.495    3.2754
   30.510    3.0121
   30.525    3.0542
   30.540    3.2122
   30.555    3.0753
   30.570    3.1069
   30.585    3.1912
   30.600    3.2333
   30.615    3.0542
   30.630    3.1701
   30.645    3.2965
   30.660    3.1806
   30.675    3.1701
   30.690    3.1912
   30.705    3.1174
   30.720    2.9910
   30.735    3.2649
   30.750    3.1701
   30.765    3.2754
   30.780    2.9910
   30.795    3.3070
   30.810    3.3281
   30.825    2.9384
   30.840    3.0753
   30.855    3.0964
   30.870    3.1806
   30.885    3.2438
   30.900    3.0016
   30.915    3.0121
   30.930    3.0648
   30.945    3.0332
   30.960    3.0121
   30.975    3.2859
   30.990    3.4966
   31.005    3.2333
   31.020    3.0016
   31.035    3.0332
   31.050    3.1912
   31.065    3.0858
   31.080    3.1280
   31.095    2.7909
   31.110    3.0542
   31.125    2.8857
   31.140    3.0542
   31.155    3.1912
   31.170    3.0858
   31.185    2.5487
   31.200    3.1596
   31.215    3.2438
   31.230    3.0332
   31.245    3.2333
   31.260    3.1385
   31.275    3.3491
   31.290    2.9279
   31.305    3.0648
   31.320    2.8225
   31.335    3.0437
   31.350    3.0121
   31.365    3.1280
   31.380    2.9173
   31.395    2.9279
   31.410    2.8541
   31.425    3.0964
   31.440    3.1385
   31.455    3.4018
   31.470    2.8647
   31.485    2.8857
   31.500    3.0016
   31.515    2.9805
   31.530    2.9805
   31.545    2.9700
   31.560    2.8857
   31.575    2.9384
   31.590    3.2859
   31.605    3.2122
   31.620    3.1701
   31.635    3.4334
   31.650    3.1280
   31.665    3.0226
   31.680    2.9595
   31.695    2.8752
   31.710    2.8752
   31.725    2.9805
   31.740    3.2649
   31.755    3.3386
   31.770    3.1385
   31.785    2.8541
   31.800    2.8752
   31.815    3.1385
   31.830    2.9595
   31.845    3.1490
   31.860    3.0226
   31.875    3.1596
   31.890    2.8647
   31.905    2.7699
   31.920    2.6962
   31.935    2.8647
   31.950    2.7804
   31.965    2.9173
   31.980    2.8120
   31.995    2.6435
   32.010    2.9068
   32.025    2.9805
   32.040    3.1385
   32.055    2.9595
   32.070    2.9279
   32.085    3.0016
   32.100    2.8752
   32.115    2.7699
   32.130    2.8225
   32.145    2.7488
   32.160    2.8436
   32.175    2.9173
   32.190    2.9910
   32.205    2.7383
   32.220    2.6224
   32.235    2.8647
   32.250    2.7278
   32.265    2.7699
   32.280    2.6224
   32.295    2.7909
   32.310    2.9173
   32.325    2.6014
   32.340    2.8857
   32.355    2.8225
   32.370    2.7804
   32.385    2.9805
   32.400    2.8963
   32.415    2.9279
   32.430    2.6330
   32.445    2.4539
   32.460    2.3381
   32.475    2.8331
   32.490    2.6224
   32.505    2.7278
   32.520    2.8647
   32.535    2.7909
   32.550    2.6119
   32.565    2.7172
   32.580    2.8436
   32.595    2.9384
   32.610    3.1069
   32.625    2.7383
   32.640    2.8752
   32.655    2.7383
   32.670    2.6646
   32.685    3.0016
   32.700    2.5487
   32.715    2.5487
   32.730    2.6119
   32.745    2.7804
   32.760    2.6962
   32.775    2.6435
   32.790    2.9595
   32.805    2.8541
   32.820    2.6540
   32.835    2.6435
   32.850    2.8436
   32.865    2.4118
   32.880    2.5487
   32.895    2.5908
   32.910    2.5698
   32.925    2.6646
   32.940    2.7278
   32.955    2.5382
   32.970    2.9068
   32.985    2.6119
   33.000    2.6751
   33.015    2.6962
   33.030    2.6119
   33.045    2.7593
   33.060    2.6856
   33.075    2.7278
   33.090    2.6646
   33.105    2.7909
   33.120    2.3486
   33.135    2.3065
   33.150    2.4118
   33.165    2.5066
   33.180    2.5592
   33.195    2.6119
   33.210    2.6119
   33.225    2.5592
   33.240    2.7488
   33.255    2.6962
   33.270    2.8015
   33.285    2.4645
   33.300    2.4329
   33.315    2.6014
   33.330    2.4013
   33.345    2.6962
   33.360    2.5382
   33.375    2.5487
   33.390    2.6962
   33.405    2.5803
   33.420    2.7067
   33.435    2.7593
   33.450    2.6119
   33.465    2.4013
   33.480    2.5171
   33.495    2.6224
   33.510    2.6435
   33.525    2.6435
   33.540    2.6962
   33.555    2.6014
   33.570    2.3381
   33.585    2.4645
   33.600    2.3065
   33.615    2.6014
   33.630    2.3907
   33.645    2.3802
   33.660    2.6014
   33.675    2.6435
   33.690    2.5487
   33.705    2.4434
   33.720    2.4539
   33.735    2.5171
   33.750    2.4539
   33.765    2.4961
   33.780    2.5487
   33.795    2.6014
   33.810    2.2959
   33.825    2.4855
   33.840    2.4750
   33.855    2.6119
   33.870    2.6435
   33.885    2.6856
   33.900    2.4855
   33.915    2.5276
   33.930    2.3802
   33.945    2.6014
   33.960    2.4961
   33.975    2.6014
   33.990    2.4645
   34.005    2.3486
   34.020    2.4539
   34.035    2.3591
   34.050    2.2117
   34.065    2.4961
   34.080    2.3486
   34.095    2.3065
   34.110    2.4750
   34.125    2.1169
   34.140    2.5066
   34.155    2.4434
   34.170    2.3486
   34.185    2.4223
   34.200    2.3170
   34.215    2.3802
   34.230    2.4434
   34.245    2.5803
   34.260    2.3170
   34.275    2.2854
   34.290    2.5171
   34.305    2.7067
   34.320    2.6330
   34.335    2.4223
   34.350    2.3591
   34.365    2.3381
   34.380    2.1906
   34.395    2.1380
   34.410    2.1380
   34.425    2.2749
   34.440    2.2749
   34.455    2.6540
   34.470    2.2328
   34.485    2.2959
   34.500    2.4013
   34.515    2.4645
   34.530    2.5171
   34.545    2.3697
   34.560    2.1169
   34.575    2.4434
   34.590    2.1485
   34.605    1.9905
   34.620    2.1485
   34.635    2.2749
   34.650    2.2433
   34.665    2.2959
   34.680    2.3486
   34.695    2.4223
   34.710    2.2012
   34.725    2.1380
   34.740    2.2222
   34.755    2.2538
   34.770    2.1696
   34.785    2.2328
   34.800    2.4750
   34.815    2.2012
   34.830    2.1590
   34.845    2.1906
   34.860    2.4434
   34.875    2.5171
   34.890    2.4223
   34.905    2.2854
   34.920    2.2433
   34.935    2.3697
   34.950    2.3591
   34.965    2.1380
   34.980    2.1801
   34.995    2.2959
   35.010    2.3275
   35.025    2.2222
   35.040    2.1485
   35.055    2.2959
   35.070    2.2749
   35.085    2.1274
   35.100    2.3170
   35.115    2.0958
   35.130    2.2643
   35.145    2.2749
   35.160    2.1801
   35.175    2.0958
   35.190    2.2749
   35.205    2.1169
   35.220    2.1169
   35.235    2.4223
   35.250    2.4223
   35.265    2.2117
   35.280    2.0958
   35.295    2.0853
   35.310    2.3065
   35.325    2.1485
   35.340    2.4539
   35.355    2.2749
   35.370    2.4645
   35.385    2.2117
   35.400    2.3381
   35.415    2.1801
   35.430    2.1380
   35.445    2.2749
   35.460    2.3591
   35.475    2.2749
   35.490    2.1274
   35.505    1.9484
   35.520    2.0432
   35.535    2.4013
   35.550    2.3907
   35.565    2.2854
   35.580    2.1906
   35.595    2.2959
   35.610    2.1590
   35.625    2.0221
   35.640    2.0748
   35.655    2.1906
   35.670    2.2222
   35.685    2.0642
   35.700    2.0748
   35.715    2.1169
   35.730    2.1696
   35.745    1.8852
   35.760    2.0326
   35.775    2.0116
   35.790    1.9168
   35.805    2.2328
   35.820    1.9695
   35.835    2.1590
   35.850    2.1380
   35.865    2.0642
   35.880    2.1169
   35.895    2.0326
   35.910    2.1169
   35.925    2.1274
   35.940    2.2854
   35.955    2.2328
   35.970    2.1380
   35.985    1.9484
   36.000    1.9905
   36.015    1.9800
   36.030    1.9168
   36.045    2.0011
   36.060    2.1169
   36.075    1.9589
   36.090    1.9484
   36.105    1.8009
   36.120    2.0221
   36.135    2.4750
   36.150    2.1485
   36.165    1.9589
   36.180    2.3065
   36.195    1.9379
   36.210    1.9589
   36.225    2.2538
   36.240    2.3170
   36.255    2.0748
   36.270    2.1274
   36.285    2.1064
   36.300    2.0116
   36.315    2.1590
   36.330    2.0748
   36.345    2.1169
   36.360    2.1064
   36.375    2.0326
   36.390    2.1801
   36.405    2.0221
   36.420    1.9695
   36.435    1.9379
   36.450    1.9063
   36.465    2.0642
   36.480    2.1906
   36.495    2.0432
   36.510    2.2012
   36.525    2.0221
   36.540    1.8431
   36.555    1.9800
   36.570    2.0537
   36.585    2.0432
   36.600    2.0537
   36.615    2.1380
   36.630    1.9379
   36.645    1.9168
   36.660    2.0537
   36.675    2.2222
   36.690    2.0011
   36.705    2.0537
   36.720    2.0432
   36.735    1.9484
   36.750    2.0853
   36.765    1.9695
   36.780    2.0537
   36.795    2.0642
   36.810    2.0011
   36.825    2.0432
   36.840    1.9273
   36.855    2.0537
   36.870    2.1274
   36.885    1.9905
   36.900    2.2433
   36.915    1.9273
   36.930    2.0326
   36.945    2.1064
   36.960    1.7378
   36.975    1.9695
   36.990    2.0011
   37.005    2.0221
   37.020    1.9589
   37.035    1.9589
   37.050    1.8431
   37.065    1.8325
   37.080    2.1169
   37.095    2.0748
   37.110    1.9484
   37.125    1.9379
   37.140    1.9800
   37.155    2.0221
   37.170    2.1064
   37.185    2.0011
   37.200    1.8115
   37.215    2.0116
   37.230    2.1064
   37.245    1.9273
   37.260    1.8325
   37.275    1.8641
   37.290    1.9589
   37.305    1.9695
   37.320    2.0221
   37.335    1.9589
   37.350    2.0011
   37.365    2.1590
   37.380    1.9168
   37.395    1.9589
   37.410    1.8641
   37.425    2.0432
   37.440    2.0116
   37.455    2.0116
   37.470    2.0326
   37.485    1.9273
   37.500    1.9168
   37.515    1.9589
   37.530    1.7694
   37.545    1.6008
   37.560    1.9695
   37.575    1.9379
   37.590    1.7483
   37.605    1.9379
   37.620    1.9800
   37.635    1.6746
   37.650    1.7378
   37.665    1.8536
   37.680    1.9273
   37.695    1.8115
   37.710    2.1485
   37.725    2.0326
   37.740    1.9695
   37.755    1.9273
   37.770    2.0853
   37.785    1.9695
   37.800    1.8957
   37.815    1.9589
   37.830    1.8852
   37.845    1.8325
   37.860    1.9168
   37.875    1.6956
   37.890    1.8009
   37.905    1.9905
   37.920    1.9168
   37.935    1.8431
   37.950    1.9484
   37.965    1.8115
   37.980    1.7483
   37.995    1.7799
   38.010    1.8009
   38.025    1.8115
   38.040    1.8115
   38.055    1.8641
   38.070    1.9063
   38.085    1.8641
   38.100    1.8115
   38.115    1.7483
   38.130    1.8852
   38.145    1.7799
   38.160    1.7378
   38.175    1.8957
   38.190    2.0326
   38.205    1.8115
   38.220    1.9168
   38.235    1.9800
   38.250    1.9379
   38.265    1.9168
   38.280    1.9379
   38.295    1.6851
   38.310    2.0221
   38.325    2.0748
   38.340    1.8431
   38.355    2.0116
   38.370    1.8431
   38.385    1.8325
   38.400    1.8641
   38.415    1.9168
   38.430    1.8115
   38.445    1.7167
   38.460    1.7904
   38.475    1.9168
   38.490    1.7378
   38.505    1.9379
   38.520    1.8431
   38.535    1.8957
   38.550    1.8852
   38.565    1.6851
   38.580    1.6746
   38.595    1.7483
   38.610    1.9589
   38.625    1.9168
   38.640    1.8325
   38.655    1.8115
   38.670    1.9695
   38.685    1.8325
   38.700    1.8536
   38.715    1.9063
   38.730    1.9168
   38.745    1.7588
   38.760    1.6851
   38.775    1.7904
   38.790    1.8747
   38.805    1.6430
   38.820    1.9484
   38.835    1.9800
   38.850    1.8431
   38.865    1.8957
   38.880    1.7904
   38.895    1.9589
   38.910    1.8115
   38.925    1.9484
   38.940    1.9484
   38.955    1.8431
   38.970    1.8431
   38.985    1.7588
   39.000    1.8220
   39.015    1.9589
   39.030    2.0011
   39.045    2.1274
   39.060    1.9695
   39.075    1.7799
   39.090    1.7799
   39.105    1.7904
   39.120    1.8536
   39.135    1.8115
   39.150    1.8852
   39.165    1.7062
   39.180    1.9273
   39.195    1.7483
   39.210    1.9379
   39.225    1.8220
   39.240    1.8220
   39.255    1.7694
   39.270    1.8220
   39.285    1.9589
   39.300    2.1169
   39.315    1.7378
   39.330    1.8747
   39.345    2.1801
   39.360    1.8115
   39.375    1.7588
   39.390    1.7167
   39.405    1.6430
   39.420    1.7588
   39.435    1.7904
   39.450    1.8325
   39.465    1.6430
   39.480    1.5482
   39.495    1.6640
   39.510    1.9484
   39.525    1.9589
   39.540    1.9589
   39.555    1.6430
   39.570    1.6535
   39.585    1.7799
   39.600    1.7378
   39.615    1.9379
   39.630    1.8115
   39.645    1.8115
   39.660    1.7272
   39.675    1.5692
   39.690    1.7167
   39.705    1.8325
   39.720    1.7694
   39.735    1.8852
   39.750    1.6851
   39.765    1.6008
   39.780    1.8852
   39.795    1.8536
   39.810    1.5377
   39.825    1.5166
   39.840    1.9905
   39.855    2.0221
   39.870    1.7167
   39.885    1.6430
   39.900    1.6430
   39.915    1.6851
   39.930    1.8852
   39.945    1.7904
   39.960    1.9379
   39.975    1.9273
   39.990    1.8536
