    1.500   16.2717
    1.515   16.3068
    1.530   16.2366
    1.545   16.5350
    1.560   15.9031
    1.575   15.7802
    1.590   15.7276
    1.605   15.7978
    1.620   14.9377
    1.635   15.3590
    1.650   14.9552
    1.665   13.6037
    1.680   13.8318
    1.695   14.0074
    1.710   12.6207
    1.725   13.9196
    1.740   13.5159
    1.755   13.0771
    1.770   13.4808
    1.785   13.4281
    1.800   12.9542
    1.815   12.6733
    1.830   13.2350
    1.845   12.1819
    1.860   13.2526
    1.875   12.6558
    1.890   12.7084
    1.905   12.2345
    1.920   12.8313
    1.935   12.6909
    1.950   12.1994
    1.965   12.4276
    1.980   12.0941
    1.995   11.7430
    2.010   11.5675
    2.025   11.4797
    2.040   11.4622
    2.055   11.1111
    2.070   11.2691
    2.085   11.2691
    2.100   11.5148
    2.115   11.4095
    2.130   10.2335
    2.145   10.7600
    2.160   11.3042
    2.175   11.3920
    2.190   10.6196
    2.205   10.3212
    2.220   10.9356
    2.235   10.6196
    2.250   10.6547
    2.265   10.1281
    2.280   10.0930
    2.295   10.5319
    2.310   10.4968
    2.325   10.2335
    2.340   11.1287
    2.355   10.7600
    2.370   10.6021
    2.385    9.9175
    2.400    9.8473
    2.415    9.8999
    2.430    9.7244
    2.445    9.7771
    2.460    9.7420
    2.475    9.6542
    2.490    9.7771
    2.505    9.6893
    2.520    9.6015
    2.535    9.7244
    2.550    9.5489
    2.565    9.8473
    2.580    9.7595
    2.595    9.2680
    2.610    9.6015
    2.625    9.3909
    2.640    9.2329
    2.655    9.3734
    2.670    9.5138
    2.685    9.3031
    2.700    9.6015
    2.715    9.1101
    2.730    9.1101
    2.745    9.8122
    2.760    9.1803
    2.775    9.0750
    2.790    9.5489
    2.805    9.9175
    2.820    9.4260
    2.835    9.3558
    2.850    9.2856
    2.865    9.4787
    2.880    9.6191
    2.895    9.3031
    2.910    9.1978
    2.925    8.8994
    2.940    9.8824
    2.955   10.0579
    2.970    9.6191
    2.985    9.4962
    3.000    9.4085
    3.015    9.5840
    3.030    9.8999
    3.045    9.5313
    3.060   10.0228
    3.075    9.7771
    3.090    9.9877
    3.105   10.6372
    3.120   10.1457
    3.135   10.0228
    3.150   10.0755
    3.165   10.6196
    3.180   10.2510
    3.195   10.6547
    3.210   10.7776
    3.225   10.9356
    3.240   10.9356
    3.255   10.7776
    3.270   11.4797
    3.285   11.0760
    3.300   11.2866
    3.315   11.3217
    3.330   11.8132
    3.345   12.1994
    3.360   11.8483
    3.375   12.7260
    3.390   13.1473
    3.405   12.6733
    3.420   12.9717
    3.435   13.1122
    3.450   12.7260
    3.465   13.8318
    3.480   13.2701
    3.495   13.5685
    3.510   14.0249
    3.525   14.1478
    3.540   14.4462
    3.555   15.0606
    3.570   15.7978
    3.585   16.7457
    3.600   16.7983
    3.615   17.4653
    3.630   18.4132
    3.645   19.2031
    3.660   19.4664
    3.675   19.5542
    3.690   20.5722
    3.705   21.4148
    3.720   23.9249
    3.735   24.2759
    3.750   25.2589
    3.765   27.2951
    3.780   28.9275
    3.795   31.5078
    3.810   34.8780
    3.825   37.5461
    3.840   39.0556
    3.855   39.2663
    3.870   38.5291
    3.885   35.3870
    3.900   30.6302
    3.915   27.1722
    3.930   22.1345
    3.945   18.3079
    3.960   15.7802
    3.975   13.5861
    3.990   12.4627
    4.005   12.3223
    4.020   10.7776
    4.035   10.8127
    4.050   10.1808
    4.065    9.9526
    4.080    9.4787
    4.095    9.6015
    4.110    9.7771
    4.125    9.4962
    4.140    9.9877
    4.155    9.2329
    4.170    8.3904
    4.185    8.4957
    4.200    8.3904
    4.215    8.5484
    4.230    8.7239
    4.245    8.9170
    4.260    8.1271
    4.275    8.5308
    4.290    8.6186
    4.305    8.2675
    4.320    8.6537
    4.335    8.8643
    4.350    8.0569
    4.365    8.0920
    4.380    8.5835
    4.395    9.0574
    4.410    8.4957
    4.425    8.5133
    4.440    8.1446
    4.455    8.4255
    4.470    8.4606
    4.485    8.0393
    4.500    8.7941
    4.515    8.6888
    4.530    8.3377
    4.545    7.9516
    4.560    8.1271
    4.575    8.2149
    4.590    8.8468
    4.605    8.6010
    4.620    8.6361
    4.635    8.2324
    4.650    8.2851
    4.665    8.2851
    4.680    7.7234
    4.695    8.3553
    4.710    8.1271
    4.725    8.2675
    4.740    8.1446
    4.755    8.5133
    4.770    8.5659
    4.785    8.4079
    4.800    8.4430
    4.815    8.1622
    4.830    8.6186
    4.845    8.2675
    4.860    8.5659
    4.875    8.7941
    4.890    8.4430
    4.905    8.6712
    4.920    8.8643
    4.935    8.3202
    4.950    8.1095
    4.965    8.8292
    4.980    8.8819
    4.995    8.7941
    5.010    8.8468
    5.025    9.5313
    5.040    8.9345
    5.055    9.2856
    5.070    9.1452
    5.085    9.4962
    5.100    9.2680
    5.115    9.6542
    5.130    9.5664
    5.145    9.4611
    5.160    9.7244
    5.175   10.1632
    5.190   10.3212
    5.205    9.6191
    5.220    9.8122
    5.235   10.3739
    5.250   10.4090
    5.265   10.3739
    5.280   10.4441
    5.295   11.0585
    5.310   11.3393
    5.325   11.2340
    5.340   11.6377
    5.355   11.8834
    5.370   12.1643
    5.385   12.6031
    5.400   12.9191
    5.415   13.0068
    5.430   12.4803
    5.445   13.1122
    5.460   13.4983
    5.475   14.3760
    5.490   15.4467
    5.505   14.3233
    5.520   13.7967
    5.535   12.5154
    5.550   11.8659
    5.565   10.4616
    5.580   10.1808
    5.595    9.3207
    5.610    8.3026
    5.625    9.3207
    5.640    8.6712
    5.655    9.2680
    5.670    9.4260
    5.685    9.0574
    5.700    9.0047
    5.715    8.6888
    5.730    8.7941
    5.745    8.4606
    5.760    8.5484
    5.775    8.1622
    5.790    8.5484
    5.805    8.8468
    5.820    8.3377
    5.835    8.2675
    5.850    8.1622
    5.865    7.9516
    5.880    8.1095
    5.895    7.8462
    5.910    7.8111
    5.925    8.2675
    5.940    7.6532
    5.955    7.7936
    5.970    7.4250
    5.985    7.6005
    6.000    7.5829
    6.015    7.8638
    6.030    7.8813
    6.045    7.7234
    6.060    7.5127
    6.075    7.3547
    6.090    6.9686
    6.105    7.6883
    6.120    7.9164
    6.135    7.8462
    6.150    8.1446
    6.165    7.2670
    6.180    7.2143
    6.195    7.6883
    6.210    7.7585
    6.225    7.2670
    6.240    7.3196
    6.255    7.2494
    6.270    7.3372
    6.285    7.0739
    6.300    7.3899
    6.315    7.4952
    6.330    7.0739
    6.345    7.3547
    6.360    7.6356
    6.375    7.6883
    6.390    7.5829
    6.405    7.5829
    6.420    7.1617
    6.435    6.9861
    6.450    7.7409
    6.465    7.2494
    6.480    7.4074
    6.495    7.9867
    6.510    7.2494
    6.525    7.8638
    6.540    7.2143
    6.555    7.1968
    6.570    7.7409
    6.585    7.3723
    6.600    7.0739
    6.615    7.1266
    6.630    7.6180
    6.645    7.8111
    6.660    7.7409
    6.675    7.5127
    6.690    7.6356
    6.705    7.7936
    6.720    7.6180
    6.735    7.6707
    6.750    7.2319
    6.765    7.0915
    6.780    7.6180
    6.795    7.5303
    6.810    7.2670
    6.825    7.1441
    6.840    6.5824
    6.855    6.9335
    6.870    7.1968
    6.885    6.6351
    6.900    6.9686
    6.915    6.9686
    6.930    6.5122
    6.945    6.8808
    6.960    6.7404
    6.975    6.6351
    6.990    6.7053
    7.005    6.8282
    7.020    6.7930
    7.035    7.2494
    7.050    6.8106
    7.065    6.6000
    7.080    6.6702
    7.095    6.6526
    7.110    6.9686
    7.125    6.3016
    7.140    6.1787
    7.155    6.9686
    7.170    7.1441
    7.185    6.8984
    7.200    6.5473
    7.215    6.0558
    7.230    6.7404
    7.245    6.7930
    7.260    6.5122
    7.275    6.2138
    7.290    6.7579
    7.305    6.7930
    7.320    6.4069
    7.335    6.1962
    7.350    5.8452
    7.365    6.3542
    7.380    6.5122
    7.395    6.6351
    7.410    6.1611
    7.425    6.3542
    7.440    6.4420
    7.455    6.5824
    7.470    6.5298
    7.485    6.4771
    7.500    6.7053
    7.515    6.7053
    7.530    6.2665
    7.545    6.5122
    7.560    6.2840
    7.575    6.5122
    7.590    6.3542
    7.605    6.7930
    7.620    6.3016
    7.635    6.2665
    7.650    6.6877
    7.665    7.1090
    7.680    6.7755
    7.695    7.3196
    7.710    7.6883
    7.725    7.4074
    7.740    7.6707
    7.755    8.1446
    7.770    7.9516
    7.785    7.5829
    7.800    8.1797
    7.815    7.2845
    7.830    7.4074
    7.845    7.2143
    7.860    6.9159
    7.875    6.6526
    7.890    6.2313
    7.905    6.2840
    7.920    6.1436
    7.935    6.2840
    7.950    6.4420
    7.965    6.4244
    7.980    6.5649
    7.995    6.1436
    8.010    5.6170
    8.025    5.8803
    8.040    6.0734
    8.055    6.0207
    8.070    6.5473
    8.085    6.0558
    8.100    6.1962
    8.115    6.2665
    8.130    6.2313
    8.145    6.1436
    8.160    6.0558
    8.175    6.4069
    8.190    5.7574
    8.205    5.9505
    8.220    5.7750
    8.235    6.3893
    8.250    5.8101
    8.265    5.8803
    8.280    6.0909
    8.295    6.2138
    8.310    5.7399
    8.325    5.8978
    8.340    6.0207
    8.355    6.6702
    8.370    5.9505
    8.385    6.2138
    8.400    5.4766
    8.415    5.7399
    8.430    6.1962
    8.445    6.0909
    8.460    5.6521
    8.475    5.9154
    8.490    5.7223
    8.505    5.9329
    8.520    6.0734
    8.535    5.8803
    8.550    6.0207
    8.565    6.0207
    8.580    6.1611
    8.595    6.2313
    8.610    6.3542
    8.625    6.1085
    8.640    5.6170
    8.655    6.3191
    8.670    6.0558
    8.685    6.2313
    8.700    5.8803
    8.715    5.9681
    8.730    6.1962
    8.745    6.2489
    8.760    6.2138
    8.775    6.4069
    8.790    5.9505
    8.805    6.1260
    8.820    5.6170
    8.835    5.7223
    8.850    5.8452
    8.865    6.0032
    8.880    5.8276
    8.895    5.9154
    8.910    5.8276
    8.925    6.0734
    8.940    5.9681
    8.955    5.9856
    8.970    5.6697
    8.985    5.4941
    9.000    5.5117
    9.015    6.0383
    9.030    5.9856
    9.045    6.1260
    9.060    5.8452
    9.075    5.6872
    9.090    6.0032
    9.105    5.5643
    9.120    5.8627
    9.135    5.9154
    9.150    5.7399
    9.165    5.4941
    9.180    5.7574
    9.195    6.1611
    9.210    6.2313
    9.225    6.1260
    9.240    5.9856
    9.255    6.1436
    9.270    5.6345
    9.285    6.8282
    9.300    6.4069
    9.315    6.0909
    9.330    6.6175
    9.345    6.4420
    9.360    6.3367
    9.375    6.6351
    9.390    6.5649
    9.405    6.6702
    9.420    6.8457
    9.435    7.1266
    9.450    6.6351
    9.465    7.3723
    9.480    7.1441
    9.495    7.1266
    9.510    7.2670
    9.525    8.1446
    9.540    8.1973
    9.555    7.8462
    9.570    7.9164
    9.585    7.3372
    9.600    7.5829
    9.615    6.9510
    9.630    6.2665
    9.645    6.3718
    9.660    6.5122
    9.675    6.1436
    9.690    6.0383
    9.705    6.0383
    9.720    6.0909
    9.735    6.2665
    9.750    6.0734
    9.765    5.7750
    9.780    6.4420
    9.795    6.7404
    9.810    6.3367
    9.825    6.1611
    9.840    5.7574
    9.855    5.7048
    9.870    6.1436
    9.885    5.9329
    9.900    5.5994
    9.915    5.7750
    9.930    5.6872
    9.945    5.8627
    9.960    6.1260
    9.975    5.7750
    9.990    5.4590
   10.005    6.1085
   10.020    6.2313
   10.035    5.8452
   10.050    5.8276
   10.065    5.7399
   10.080    6.0032
   10.095    5.7925
   10.110    5.7048
   10.125    5.4941
   10.140    5.8627
   10.155    6.2489
   10.170    5.9154
   10.185    5.7399
   10.200    6.2489
   10.215    6.2313
   10.230    6.0383
   10.245    6.7053
   10.260    6.7755
   10.275    6.5824
   10.290    6.7755
   10.305    6.8633
   10.320    6.1260
   10.335    6.5473
   10.350    6.4771
   10.365    6.8106
   10.380    6.4244
   10.395    6.0207
   10.410    5.9505
   10.425    5.6170
   10.440    5.6697
   10.455    5.7048
   10.470    5.6697
   10.485    5.5819
   10.500    5.8452
   10.515    6.2489
   10.530    5.9154
   10.545    5.9154
   10.560    5.7925
   10.575    5.6345
   10.590    5.9681
   10.605    5.6872
   10.620    5.6697
   10.635    5.9681
   10.650    5.8803
   10.665    5.3888
   10.680    5.4941
   10.695    5.4590
   10.710    5.4064
   10.725    6.0207
   10.740    6.1787
   10.755    5.6345
   10.770    6.2313
   10.785    5.9154
   10.800    5.4941
   10.815    5.8276
   10.830    6.1436
   10.845    6.3893
   10.860    5.8803
   10.875    5.9856
   10.890    5.8452
   10.905    6.0909
   10.920    5.9681
   10.935    6.3893
   10.950    6.1787
   10.965    6.2313
   10.980    6.2840
   10.995    6.7755
   11.010    6.8282
   11.025    6.5649
   11.040    6.6175
   11.055    6.0909
   11.070    5.6697
   11.085    5.8978
   11.100    6.3893
   11.115    6.1787
   11.130    5.7574
   11.145    6.0207
   11.160    6.1260
   11.175    5.8978
   11.190    6.0032
   11.205    6.1611
   11.220    5.8978
   11.235    5.7925
   11.250    5.8276
   11.265    6.2665
   11.280    6.1085
   11.295    6.0032
   11.310    5.7750
   11.325    5.4766
   11.340    6.0032
   11.355    5.8978
   11.370    5.7574
   11.385    5.4064
   11.400    5.7399
   11.415    5.9856
   11.430    5.7048
   11.445    5.8803
   11.460    5.7048
   11.475    5.8101
   11.490    5.6697
   11.505    5.6872
   11.520    5.7574
   11.535    6.1085
   11.550    6.2840
   11.565    5.9856
   11.580    6.3542
   11.595    5.9154
   11.610    5.7925
   11.625    5.4941
   11.640    5.9154
   11.655    6.1436
   11.670    6.1260
   11.685    5.8803
   11.700    6.4595
   11.715    6.3542
   11.730    6.0734
   11.745    6.5298
   11.760    6.5473
   11.775    5.8452
   11.790    5.9329
   11.805    6.2138
   11.820    5.8101
   11.835    5.9856
   11.850    6.1085
   11.865    6.1611
   11.880    5.7750
   11.895    5.8101
   11.910    5.4415
   11.925    5.7750
   11.940    5.3888
   11.955    5.8276
   11.970    5.6872
   11.985    5.5292
   12.000    5.4766
   12.015    5.5819
   12.030    5.2133
   12.045    5.6170
   12.060    5.5819
   12.075    5.4064
   12.090    5.7399
   12.105    5.3361
   12.120    5.6521
   12.135    5.6872
   12.150    5.4590
   12.165    5.9505
   12.180    5.3010
   12.195    5.2659
   12.210    5.5468
   12.225    5.3010
   12.240    5.1782
   12.255    5.1957
   12.270    5.6697
   12.285    5.6170
   12.300    5.5468
   12.315    5.6872
   12.330    5.5468
   12.345    5.4590
   12.360    4.8622
   12.375    5.1255
   12.390    5.2659
   12.405    5.1782
   12.420    5.5292
   12.435    5.2133
   12.450    5.5117
   12.465    5.3186
   12.480    5.7399
   12.495    5.9329
   12.510    5.6170
   12.525    5.0553
   12.540    6.1260
   12.555    5.7750
   12.570    5.3010
   12.585    5.2835
   12.600    5.2484
   12.615    5.6697
   12.630    5.4590
   12.645    5.4766
   12.660    5.5819
   12.675    5.4415
   12.690    5.5643
   12.705    5.1431
   12.720    5.0553
   12.735    5.1782
   12.750    5.5117
   12.765    5.5117
   12.780    5.4590
   12.795    5.3010
   12.810    5.8276
   12.825    5.8452
   12.840    5.3537
   12.855    5.3186
   12.870    5.6170
   12.885    6.1611
   12.900    5.9154
   12.915    5.6872
   12.930    6.0383
   12.945    5.9505
   12.960    6.0734
   12.975    5.8101
   12.990    5.7223
   13.005    5.4766
   13.020    5.5643
   13.035    5.6697
   13.050    5.5117
   13.065    5.3361
   13.080    5.6345
   13.095    5.9505
   13.110    5.9681
   13.125    5.6345
   13.140    5.3537
   13.155    5.1957
   13.170    5.0553
   13.185    5.4415
   13.200    4.8798
   13.215    5.0553
   13.230    5.5994
   13.245    5.6170
   13.260    5.9505
   13.275    4.8271
   13.290    5.0553
   13.305    5.4239
   13.320    5.3186
   13.335    5.1957
   13.350    5.1255
   13.365    5.2133
   13.380    5.1782
   13.395    5.1431
   13.410    5.3186
   13.425    5.3361
   13.440    5.4766
   13.455    5.5468
   13.470    5.3186
   13.485    5.7574
   13.500    5.6521
   13.515    5.2835
   13.530    5.4239
   13.545    5.5994
   13.560    5.6697
   13.575    6.0207
   13.590    5.5292
   13.605    5.1606
   13.620    5.4415
   13.635    5.3010
   13.650    5.7925
   13.665    5.3361
   13.680    5.5819
   13.695    5.2835
   13.710    5.3712
   13.725    5.0553
   13.740    5.2484
   13.755    5.7399
   13.770    5.2308
   13.785    5.6872
   13.800    5.4064
   13.815    5.3361
   13.830    5.1606
   13.845    5.4941
   13.860    5.6521
   13.875    5.7574
   13.890    5.5643
   13.905    5.5643
   13.920    5.3010
   13.935    5.3361
   13.950    5.5994
   13.965    5.6521
   13.980    5.4766
   13.995    5.3010
   14.010    6.0207
   14.025    5.9154
   14.040    6.0558
   14.055    6.2138
   14.070    5.7399
   14.085    5.5117
   14.100    5.9154
   14.115    5.8276
   14.130    5.8803
   14.145    5.6872
   14.160    6.1611
   14.175    5.7925
   14.190    5.9856
   14.205    5.5994
   14.220    5.4064
   14.235    5.8978
   14.250    5.0553
   14.265    5.0728
   14.280    5.4590
   14.295    5.4239
   14.310    5.1957
   14.325    5.2133
   14.340    5.7750
   14.355    5.6345
   14.370    5.5117
   14.385    5.7048
   14.400    5.8803
   14.415    5.8101
   14.430    5.4941
   14.445    5.5994
   14.460    5.2484
   14.475    5.4766
   14.490    5.1606
   14.505    5.3712
   14.520    5.4766
   14.535    5.7399
   14.550    5.1255
   14.565    5.3186
   14.580    5.5292
   14.595    5.0904
   14.610    5.3010
   14.625    5.7574
   14.640    5.2835
   14.655    5.8101
   14.670    5.2835
   14.685    5.4590
   14.700    5.2835
   14.715    5.1255
   14.730    5.3712
   14.745    5.3010
   14.760    5.7399
   14.775    5.2308
   14.790    5.1957
   14.805    5.6872
   14.820    5.4941
   14.835    5.3712
   14.850    5.3361
   14.865    5.2484
   14.880    5.1957
   14.895    5.7750
   14.910    5.1255
   14.925    5.4941
   14.940    5.3186
   14.955    4.8095
   14.970    5.1431
   14.985    4.9675
   15.000    5.4590
   15.015    5.0553
   15.030    5.3361
   15.045    5.6872
   15.060    5.6170
   15.075    5.2659
   15.090    5.1957
   15.105    5.4064
   15.120    4.9500
   15.135    5.3186
   15.150    5.0904
   15.165    5.3537
   15.180    5.0553
   15.195    5.1606
   15.210    5.2835
   15.225    4.8973
   15.240    5.1080
   15.255    5.4064
   15.270    5.4064
   15.285    5.4590
   15.300    5.1957
   15.315    4.5814
   15.330    5.3712
   15.345    5.4064
   15.360    5.0202
   15.375    4.8798
   15.390    5.3186
   15.405    5.1957
   15.420    5.3537
   15.435    5.6345
   15.450    5.1255
   15.465    5.2484
   15.480    5.3010
   15.495    5.2308
   15.510    5.3186
   15.525    5.4590
   15.540    5.3361
   15.555    5.2484
   15.570    5.2659
   15.585    5.3186
   15.600    5.4064
   15.615    4.7569
   15.630    5.3888
   15.645    5.2835
   15.660    4.7042
   15.675    4.8798
   15.690    4.9500
   15.705    4.9149
   15.720    5.0728
   15.735    5.0553
   15.750    5.3361
   15.765    5.4064
   15.780    5.1255
   15.795    5.3361
   15.810    5.8627
   15.825    4.9675
   15.840    5.0202
   15.855    4.5638
   15.870    4.8095
   15.885    5.1431
   15.900    4.8447
   15.915    5.1606
   15.930    5.5292
   15.945    5.4941
   15.960    4.7569
   15.975    5.1080
   15.990    5.3888
   16.005    5.1255
   16.020    5.2659
   16.035    5.0377
   16.050    5.5117
   16.065    5.2659
   16.080    5.6170
   16.095    5.3888
   16.110    5.1782
   16.125    4.9675
   16.140    5.3010
   16.155    5.3712
   16.170    5.0202
   16.185    5.4064
   16.200    5.3010
   16.215    4.8973
   16.230    5.3537
   16.245    4.9500
   16.260    4.5989
   16.275    4.9324
   16.290    5.2835
   16.305    5.3010
   16.320    5.1957
   16.335    5.1782
   16.350    5.2133
   16.365    5.4766
   16.380    5.1080
   16.395    4.9149
   16.410    4.9324
   16.425    5.5117
   16.440    5.6345
   16.455    5.5994
   16.470    5.1606
   16.485    5.0904
   16.500    5.3361
   16.515    5.2835
   16.530    5.2308
   16.545    5.1080
   16.560    5.4064
   16.575    5.3010
   16.590    5.5819
   16.605    5.4766
   16.620    5.2484
   16.635    5.3537
   16.650    5.6697
   16.665    5.1431
   16.680    5.1606
   16.695    5.4415
   16.710    5.2133
   16.725    5.4766
   16.740    5.0202
   16.755    5.0553
   16.770    4.9675
   16.785    5.0553
   16.800    5.0553
   16.815    4.8095
   16.830    5.2308
   16.845    5.2835
   16.860    5.0904
   16.875    4.9851
   16.890    5.4590
   16.905    5.3888
   16.920    5.3537
   16.935    5.4766
   16.950    5.3361
   16.965    5.1255
   16.980    5.7574
   16.995    5.4941
   17.010    5.6872
   17.025    5.3712
   17.040    5.7048
   17.055    5.4766
   17.070    5.1782
   17.085    5.8101
   17.100    5.5117
   17.115    5.3186
   17.130    5.0202
   17.145    5.3537
   17.160    5.6697
   17.175    5.5643
   17.190    5.0377
   17.205    4.7042
   17.220    4.7744
   17.235    5.4766
   17.250    5.4239
   17.265    4.8973
   17.280    4.8447
   17.295    5.0377
   17.310    4.9500
   17.325    5.2484
   17.340    5.1431
   17.355    5.2835
   17.370    4.5814
   17.385    5.1431
   17.400    5.1431
   17.415    5.4590
   17.430    5.0904
   17.445    4.8622
   17.460    5.2308
   17.475    5.3186
   17.490    5.0728
   17.505    5.3010
   17.520    5.6697
   17.535    4.7042
   17.550    4.7393
   17.565    5.3010
   17.580    5.2133
   17.595    5.2484
   17.610    5.2308
   17.625    4.6340
   17.640    5.1606
   17.655    5.3888
   17.670    4.9675
   17.685    5.3537
   17.700    5.2133
   17.715    5.3888
   17.730    5.0904
   17.745    5.3186
   17.760    4.9851
   17.775    5.3712
   17.790    4.9675
   17.805    5.2133
   17.820    5.0553
   17.835    4.9851
   17.850    5.5643
   17.865    5.3010
   17.880    5.2484
   17.895    5.4064
   17.910    5.0377
   17.925    5.3010
   17.940    4.8447
   17.955    5.0728
   17.970    5.1431
   17.985    5.2133
   18.000    5.3186
   18.015    5.3010
   18.030    5.6170
   18.045    5.1957
   18.060    4.8973
   18.075    4.6867
   18.090    5.1255
   18.105    5.0377
   18.120    5.2133
   18.135    5.1431
   18.150    5.2308
   18.165    5.5819
   18.180    5.5468
   18.195    5.3888
   18.210    5.2133
   18.225    5.4590
   18.240    5.5292
   18.255    5.2835
   18.270    4.8973
   18.285    5.4766
   18.300    5.3712
   18.315    5.6170
   18.330    4.9149
   18.345    5.0026
   18.360    5.3537
   18.375    5.3186
   18.390    5.4239
   18.405    5.1080
   18.420    5.3010
   18.435    5.5117
   18.450    5.2835
   18.465    4.7218
   18.480    5.2659
   18.495    5.1957
   18.510    5.0377
   18.525    5.1606
   18.540    5.3537
   18.555    5.3888
   18.570    5.0553
   18.585    5.0904
   18.600    4.6691
   18.615    5.3712
   18.630    5.3712
   18.645    4.9851
   18.660    5.1431
   18.675    5.1957
   18.690    5.1255
   18.705    4.9324
   18.720    5.0553
   18.735    5.0728
   18.750    4.9675
   18.765    5.4415
   18.780    5.0202
   18.795    5.2133
   18.810    5.1782
   18.825    5.1080
   18.840    5.3361
   18.855    5.2835
   18.870    5.6521
   18.885    5.2835
   18.900    5.1606
   18.915    5.1431
   18.930    4.7218
   18.945    5.3186
   18.960    5.3186
   18.975    5.4590
   18.990    5.4766
   19.005    5.4239
   19.020    5.3186
   19.035    4.9851
   19.050    5.1606
   19.065    5.0728
   19.080    5.1080
   19.095    5.1606
   19.110    5.7223
   19.125    5.2133
   19.140    5.0728
   19.155    5.0553
   19.170    5.2659
   19.185    4.9149
   19.200    4.9851
   19.215    5.3361
   19.230    4.8447
   19.245    5.1606
   19.260    5.1782
   19.275    4.8973
   19.290    5.5292
   19.305    5.3186
   19.320    5.3712
   19.335    5.1606
   19.350    4.7218
   19.365    5.3537
   19.380    4.8447
   19.395    5.1782
   19.410    5.0377
   19.425    5.2835
   19.440    5.3537
   19.455    4.8622
   19.470    5.1782
   19.485    4.9149
   19.500    5.0202
   19.515    5.1255
   19.530    5.1080
   19.545    5.1255
   19.560    5.0553
   19.575    5.0904
   19.590    5.3010
   19.605    4.9149
   19.620    5.0377
   19.635    4.7920
   19.650    5.0553
   19.665    4.9675
   19.680    4.9500
   19.695    4.9149
   19.710    5.7574
   19.725    5.1080
   19.740    4.9675
   19.755    5.1606
   19.770    5.2308
   19.785    4.8973
   19.800    4.7042
   19.815    4.6516
   19.830    4.8271
   19.845    5.2133
   19.860    5.1080
   19.875    5.0728
   19.890    4.8622
   19.905    5.0553
   19.920    4.9500
   19.935    5.2835
   19.950    5.1255
   19.965    4.8271
   19.980    4.9324
   19.995    5.0377
   20.010    4.7042
   20.025    4.7393
   20.040    4.5638
   20.055    4.8973
   20.070    5.0026
   20.085    5.2659
   20.100    4.5287
   20.115    4.5989
   20.130    4.5989
   20.145    5.0553
   20.160    5.4415
   20.175    5.0202
   20.190    4.8798
   20.205    5.0026
   20.220    5.4941
   20.235    5.3537
   20.250    5.5468
   20.265    5.3888
   20.280    5.0377
   20.295    5.1957
   20.310    5.3888
   20.325    4.9500
   20.340    5.3712
   20.355    5.5292
   20.370    5.5292
   20.385    5.3186
   20.400    5.2133
   20.415    5.0202
   20.430    4.5989
   20.445    4.6165
   20.460    5.1431
   20.475    5.1957
   20.490    5.5994
   20.505    5.0026
   20.520    5.0553
   20.535    4.8973
   20.550    4.6340
   20.565    4.6867
   20.580    4.9851
   20.595    5.2308
   20.610    5.0202
   20.625    4.9324
   20.640    4.7393
   20.655    5.1431
   20.670    4.6165
   20.685    5.0202
   20.700    4.8095
   20.715    4.4585
   20.730    4.9500
   20.745    5.2835
   20.760    4.8798
   20.775    4.9675
   20.790    5.3186
   20.805    4.8798
   20.820    4.9149
   20.835    4.9851
   20.850    5.1431
   20.865    4.8447
   20.880    5.0202
   20.895    4.8271
   20.910    4.6691
   20.925    5.3186
   20.940    5.1606
   20.955    4.8973
   20.970    5.0026
   20.985    4.9675
   21.000    5.0377
   21.015    5.0026
   21.030    5.0728
   21.045    5.3010
   21.060    5.0553
   21.075    5.4766
   21.090    5.2659
   21.105    5.0377
   21.120    4.8447
   21.135    5.7925
   21.150    5.0377
   21.165    5.3010
   21.180    5.2133
   21.195    5.2133
   21.210    5.3010
   21.225    4.8447
   21.240    5.0553
   21.255    4.7569
   21.270    4.7569
   21.285    4.8798
   21.300    5.1255
   21.315    5.1782
   21.330    4.9149
   21.345    5.1255
   21.360    5.1606
   21.375    4.9324
   21.390    4.9851
   21.405    5.1080
   21.420    4.7393
   21.435    5.1782
   21.450    5.3712
   21.465    4.9675
   21.480    4.7920
   21.495    4.9851
   21.510    4.8271
   21.525    4.9851
   21.540    4.6691
   21.555    4.9149
   21.570    5.3010
   21.585    4.7920
   21.600    4.8447
   21.615    5.0202
   21.630    4.9851
   21.645    5.0026
   21.660    4.8271
   21.675    4.8271
   21.690    4.8622
   21.705    5.0202
   21.720    4.8973
   21.735    5.3712
   21.750    4.9675
   21.765    5.2133
   21.780    5.0377
   21.795    5.1957
   21.810    4.9149
   21.825    4.9675
   21.840    4.8095
   21.855    4.6340
   21.870    5.4064
   21.885    5.1431
   21.900    4.7569
   21.915    5.3186
   21.930    5.5819
   21.945    5.0026
   21.960    5.0202
   21.975    4.9675
   21.990    5.1782
   22.005    4.9675
   22.020    5.2659
   22.035    5.0904
   22.050    4.7744
   22.065    4.5287
   22.080    5.0553
   22.095    5.0904
   22.110    4.6516
   22.125    4.6340
   22.140    4.4409
   22.155    4.6691
   22.170    5.0202
   22.185    4.8447
   22.200    4.9324
   22.215    4.9324
   22.230    4.7744
   22.245    5.1606
   22.260    4.5287
   22.275    4.8622
   22.290    5.2484
   22.305    5.1606
   22.320    4.8447
   22.335    4.7218
   22.350    4.6340
   22.365    4.6516
   22.380    4.7920
   22.395    4.7569
   22.410    4.9851
   22.425    5.1782
   22.440    5.1431
   22.455    5.4941
   22.470    5.1080
   22.485    5.1606
   22.500    4.9851
   22.515    4.8271
   22.530    4.9500
   22.545    5.0553
   22.560    4.6516
   22.575    5.1957
   22.590    5.2659
   22.605    5.0202
   22.620    5.4064
   22.635    4.9851
   22.650    5.1431
   22.665    4.9675
   22.680    4.5989
   22.695    5.0377
   22.710    5.1606
   22.725    4.7569
   22.740    4.4409
   22.755    5.0202
   22.770    5.1957
   22.785    5.0026
   22.800    5.1606
   22.815    5.4239
   22.830    5.0904
   22.845    4.8095
   22.860    5.4415
   22.875    4.8271
   22.890    4.7569
   22.905    5.0026
   22.920    4.7744
   22.935    5.2659
   22.950    5.3537
   22.965    5.1957
   22.980    5.0553
   22.995    5.2133
   23.010    4.8447
   23.025    4.8798
   23.040    5.1606
   23.055    4.6516
   23.070    4.9851
   23.085    4.8798
   23.100    4.7744
   23.115    5.0202
   23.130    5.0728
   23.145    4.8622
   23.160    4.6340
   23.175    4.7920
   23.190    5.7048
   23.205    5.1957
   23.220    4.7744
   23.235    4.8973
   23.250    4.9500
   23.265    5.0728
   23.280    4.3356
   23.295    4.8622
   23.310    4.7218
   23.325    4.8447
   23.340    4.9324
   23.355    5.0904
   23.370    4.4760
   23.385    5.0026
   23.400    5.0904
   23.415    4.5814
   23.430    4.5989
   23.445    4.7042
   23.460    4.8095
   23.475    4.7920
   23.490    4.7218
   23.505    5.0026
   23.520    4.9500
   23.535    4.6340
   23.550    4.7920
   23.565    4.6516
   23.580    4.9324
   23.595    4.6165
   23.610    4.8271
   23.625    5.0202
   23.640    4.8095
   23.655    4.6691
   23.670    4.3532
   23.685    4.7393
   23.700    4.6516
   23.715    4.3005
   23.730    4.1601
   23.745    4.8622
   23.760    4.7393
   23.775    4.6867
   23.790    4.2303
   23.805    4.8622
   23.820    4.5814
   23.835    4.7920
   23.850    4.6165
   23.865    4.2127
   23.880    4.3181
   23.895    4.4936
   23.910    4.8798
   23.925    4.8095
   23.940    4.5463
   23.955    4.3356
   23.970    4.6165
   23.985    5.1431
   24.000    5.0026
   24.015    4.3005
   24.030    4.1776
   24.045    4.4058
   24.060    4.6165
   24.075    4.8973
   24.090    4.9851
   24.105    4.5638
   24.120    4.4058
   24.135    4.8798
   24.150    3.9846
   24.165    4.1601
   24.180    4.8271
   24.195    4.7920
   24.210    4.6691
   24.225    4.7218
   24.240    4.7218
   24.255    4.5287
   24.270    4.2478
   24.285    4.6340
   24.300    4.6867
   24.315    4.4234
   24.330    4.4936
   24.345    4.4234
   24.360    4.9500
   24.375    4.7218
   24.390    4.6867
   24.405    4.3181
   24.420    4.1250
   24.435    4.1776
   24.450    4.3005
   24.465    4.7393
   24.480    5.1606
   24.495    4.6516
   24.510    3.7213
   24.525    4.1425
   24.540    4.3356
   24.555    4.7569
   24.570    4.5989
   24.585    4.0899
   24.600    4.3707
   24.615    4.3707
   24.630    4.5111
   24.645    4.4409
   24.660    4.6340
   24.675    4.8271
   24.690    4.7393
   24.705    4.5989
   24.720    4.6165
   24.735    4.7393
   24.750    4.7218
   24.765    4.3005
   24.780    4.2654
   24.795    4.6165
   24.810    4.1250
   24.825    4.3532
   24.840    4.5463
   24.855    4.9149
   24.870    3.8968
   24.885    4.2127
   24.900    4.6165
   24.915    4.5463
   24.930    4.5638
   24.945    4.6165
   24.960    4.3883
   24.975    4.3532
   24.990    4.4760
   25.005    4.5989
   25.020    4.7218
   25.035    4.8095
   25.050    4.7393
   25.065    4.4058
   25.080    4.6516
   25.095    4.3532
   25.110    4.6867
   25.125    4.6691
   25.140    4.6165
   25.155    4.5814
   25.170    4.7393
   25.185    4.5111
   25.200    4.5463
   25.215    4.3707
   25.230    4.3532
   25.245    4.1601
   25.260    4.2654
   25.275    4.4936
   25.290    4.3883
   25.305    4.5463
   25.320    4.8271
   25.335    4.4234
   25.350    4.3356
   25.365    4.4409
   25.380    4.2478
   25.395    4.0197
   25.410    4.4058
   25.425    4.3707
   25.440    4.4058
   25.455    4.4585
   25.470    4.0899
   25.485    4.4936
   25.500    4.3532
   25.515    4.5111
   25.530    4.3707
   25.545    3.9846
   25.560    4.5287
   25.575    4.3707
   25.590    4.7744
   25.605    4.2127
   25.620    4.6867
   25.635    4.3532
   25.650    4.8622
   25.665    4.2303
   25.680    4.2478
   25.695    4.6867
   25.710    4.0197
   25.725    4.1776
   25.740    4.0372
   25.755    4.4234
   25.770    4.5287
   25.785    4.6691
   25.800    4.4409
   25.815    5.0202
   25.830    4.7744
   25.845    4.2830
   25.860    4.2478
   25.875    4.3005
   25.890    4.5638
   25.905    4.5638
   25.920    4.8447
   25.935    4.6340
   25.950    4.1425
   25.965    4.1952
   25.980    4.1601
   25.995    4.0197
   26.010    4.5638
   26.025    4.6340
   26.040    4.4936
   26.055    4.4585
   26.070    4.5814
   26.085    4.4936
   26.100    4.3532
   26.115    4.1074
   26.130    4.0723
   26.145    4.4409
   26.160    4.2478
   26.175    4.9851
   26.190    4.4058
   26.205    4.4058
   26.220    4.0899
   26.235    4.0723
   26.250    3.8968
   26.265    4.2127
   26.280    3.7213
   26.295    4.1425
   26.310    4.2127
   26.325    4.3883
   26.340    4.4058
   26.355    4.4058
   26.370    4.2127
   26.385    3.8090
   26.400    3.8792
   26.415    3.9494
   26.430    4.0197
   26.445    3.9846
   26.460    4.3005
   26.475    4.5287
   26.490    4.6340
   26.505    4.5287
   26.520    4.1425
   26.535    4.1601
   26.550    4.2303
   26.565    4.1952
   26.580    4.0548
   26.595    4.3883
   26.610    4.4760
   26.625    4.3181
   26.640    4.7744
   26.655    4.2127
   26.670    4.5638
   26.685    4.2303
   26.700    4.0372
   26.715    4.1776
   26.730    4.2303
   26.745    4.1074
   26.760    4.1074
   26.775    4.0723
   26.790    3.7739
   26.805    4.3005
   26.820    4.5814
   26.835    4.5814
   26.850    4.1601
   26.865    4.5638
   26.880    4.2830
   26.895    4.2830
   26.910    4.0197
   26.925    4.1952
   26.940    4.5111
   26.955    4.5814
   26.970    4.4058
   26.985    4.0899
   27.000    4.2830
   27.015    3.8090
   27.030    3.9494
   27.045    4.0899
   27.060    3.9494
   27.075    3.8441
   27.090    4.0723
   27.105    4.5111
   27.120    4.0723
   27.135    4.0899
   27.150    4.4058
   27.165    4.5287
   27.180    4.1425
   27.195    4.3532
   27.210    4.4585
   27.225    4.0548
   27.240    4.2830
   27.255    4.0021
   27.270    4.0899
   27.285    4.0723
   27.300    4.1425
   27.315    3.7388
   27.330    4.0548
   27.345    4.0021
   27.360    4.0899
   27.375    4.0021
   27.390    4.4585
   27.405    4.3005
   27.420    4.0723
   27.435    4.1250
   27.450    4.1601
   27.465    4.2654
   27.480    4.0372
   27.495    3.8617
   27.510    3.9143
   27.525    4.2478
   27.540    4.4760
   27.555    4.1074
   27.570    4.2654
   27.585    3.9494
   27.600    4.2478
   27.615    3.9670
   27.630    4.0021
   27.645    4.2127
   27.660    3.9846
   27.675    4.4585
   27.690    4.6867
   27.705    4.0899
   27.720    4.2830
   27.735    4.1250
   27.750    3.8792
   27.765    4.0899
   27.780    3.7739
   27.795    3.9319
   27.810    4.1952
   27.825    3.8617
   27.840    3.9319
   27.855    3.8266
   27.870    4.1776
   27.885    4.3356
   27.900    4.1250
   27.915    3.9143
   27.930    3.8968
   27.945    3.8441
   27.960    3.4229
   27.975    3.8617
   27.990    4.1776
   28.005    4.4936
   28.020    4.3356
   28.035    3.7213
   28.050    4.0548
   28.065    4.3883
   28.080    4.2478
   28.095    4.3005
   28.110    4.1776
   28.125    4.2830
   28.140    4.2303
   28.155    3.8968
   28.170    3.9670
   28.185    3.9670
   28.200    4.2127
   28.215    4.0899
   28.230    3.8441
   28.245    4.1425
   28.260    3.9319
   28.275    4.2303
   28.290    4.1776
   28.305    3.8792
   28.320    4.4760
   28.335    4.2478
   28.350    3.6159
   28.365    3.4229
   28.380    3.9670
   28.395    3.7739
   28.410    4.0372
   28.425    3.8266
   28.440    3.7388
   28.455    3.8266
   28.470    4.1250
   28.485    4.4936
   28.500    3.9494
   28.515    3.8617
   28.530    4.1250
   28.545    3.9143
   28.560    3.4931
   28.575    3.6159
   28.590    4.1776
   28.605    4.1250
   28.620    4.3181
   28.635    4.1776
   28.650    4.0723
   28.665    4.0548
   28.680    4.0197
   28.695    4.0372
   28.710    4.6165
   28.725    4.1074
   28.740    4.0372
   28.755    3.8792
   28.770    4.3707
   28.785    4.3181
   28.800    4.2478
   28.815    3.9846
   28.830    4.3005
   28.845    4.2478
   28.860    4.2127
   28.875    4.1250
   28.890    3.9670
   28.905    4.3356
   28.920    4.3356
   28.935    3.9846
   28.950    3.7213
   28.965    4.1425
   28.980    4.1250
   28.995    3.8792
   29.010    3.7213
   29.025    3.8266
   29.040    4.3005
   29.055    4.2478
   29.070    4.1425
   29.085    4.1601
   29.100    4.4409
   29.115    4.0372
   29.130    3.3175
   29.145    3.6686
   29.160    3.5808
   29.175    3.7213
   29.190    3.5984
   29.205    3.6510
   29.220    3.9143
   29.235    3.7388
   29.250    4.1074
   29.265    4.2830
   29.280    3.8617
   29.295    4.0021
   29.310    3.9494
   29.325    3.7037
   29.340    4.0021
   29.355    4.1425
   29.370    3.7564
   29.385    3.8792
   29.400    4.0548
   29.415    3.7388
   29.430    3.8617
   29.445    3.9670
   29.460    3.8266
   29.475    3.5984
   29.490    4.1074
   29.505    4.1250
   29.520    3.5984
   29.535    3.7037
   29.550    3.4931
   29.565    3.8090
   29.580    3.8090
   29.595    3.9143
   29.610    3.9319
   29.625    3.8441
   29.640    3.8968
   29.655    3.9494
   29.670    3.5633
   29.685    3.7564
   29.700    3.8441
   29.715    4.0021
   29.730    4.0021
   29.745    3.6686
   29.760    3.8441
   29.775    3.8090
   29.790    3.8617
   29.805    3.7739
   29.820    3.6159
   29.835    3.8617
   29.850    3.5457
   29.865    3.5984
   29.880    3.8968
   29.895    3.8266
   29.910    3.5984
   29.925    3.9494
   29.940    3.8441
   29.955    3.7564
   29.970    3.6686
   29.985    3.5633
   30.000    3.5457
   30.015    3.7037
   30.030    3.4229
   30.045    3.6159
   30.060    3.7213
   30.075    3.6510
   30.090    3.5457
   30.105    3.8090
   30.120    4.0197
   30.135    3.7915
   30.150    3.5457
   30.165    3.7388
   30.180    3.7037
   30.195    3.4229
   30.210    3.5808
   30.225    3.9494
   30.240    3.8090
   30.255    3.7564
   30.270    3.7739
   30.285    3.3702
   30.300    3.2649
   30.315    3.7739
   30.330    3.5633
   30.345    3.5457
   30.360    4.0372
   30.375    4.1074
   30.390    3.8617
   30.405    3.5808
   30.420    3.3526
   30.435    3.7739
   30.450    3.7213
   30.465    3.7915
   30.480    3.6159
   30.495    3.5457
   30.510    3.7915
   30.525    3.3702
   30.540    3.2824
   30.555    3.9319
   30.570    3.4931
   30.585    3.6510
   30.600    3.6862
   30.615    4.0548
   30.630    3.7037
   30.645    3.6159
   30.660    3.4580
   30.675    3.5984
   30.690    3.9670
   30.705    4.1952
   30.720    3.6862
   30.735    3.2473
   30.750    3.5984
   30.765    3.5106
   30.780    3.4580
   30.795    3.5808
   30.810    3.6159
   30.825    3.8968
   30.840    3.8266
   30.855    3.6862
   30.870    3.6862
   30.885    3.7564
   30.900    3.5457
   30.915    3.0893
   30.930    3.7388
   30.945    3.9143
   30.960    3.6159
   30.975    3.2473
   30.990    3.2649
   31.005    3.3702
   31.020    3.8090
   31.035    3.6686
   31.050    3.5457
   31.065    3.9846
   31.080    3.5106
   31.095    3.6510
   31.110    3.4931
   31.125    3.5808
   31.140    3.6159
   31.155    3.5808
   31.170    3.3351
   31.185    3.2473
   31.200    3.3175
   31.215    3.7739
   31.230    4.0021
   31.245    3.4053
   31.260    3.4755
   31.275    3.8792
   31.290    3.5633
   31.305    4.0197
   31.320    3.5633
   31.335    3.5106
   31.350    3.4229
   31.365    3.6862
   31.380    3.6510
   31.395    3.8441
   31.410    3.4229
   31.425    3.3877
   31.440    3.3877
   31.455    3.7388
   31.470    3.4053
   31.485    3.8266
   31.500    3.6335
   31.515    3.7388
   31.530    3.3702
   31.545    3.4931
   31.560    3.8266
   31.575    3.5633
   31.590    3.6335
   31.605    3.4931
   31.620    3.8441
   31.635    3.5808
   31.650    3.4053
   31.665    3.4229
   31.680    3.5633
   31.695    3.8441
   31.710    3.6159
   31.725    3.4931
   31.740    3.5106
   31.755    3.4931
   31.770    3.3702
   31.785    3.1947
   31.800    3.1771
   31.815    3.4229
   31.830    3.9319
   31.845    3.5106
   31.860    3.4404
   31.875    3.7037
   31.890    3.6159
   31.905    3.6862
   31.920    3.7037
   31.935    3.1069
   31.950    3.2649
   31.965    3.9319
   31.980    3.5457
   31.995    3.4053
   32.010    3.4580
   32.025    3.3702
   32.040    3.9670
   32.055    3.6335
   32.070    3.4404
   32.085    3.9319
   32.100    3.4229
   32.115    3.4580
   32.130    3.4404
   32.145    3.4755
   32.160    3.4931
   32.175    3.3526
   32.190    3.4931
   32.205    3.2824
   32.220    3.4580
   32.235    3.5282
   32.250    3.3526
   32.265    3.5984
   32.280    3.4580
   32.295    3.5282
   32.310    3.5282
   32.325    3.5984
   32.340    3.2473
   32.355    3.2473
   32.370    3.6159
   32.385    3.3000
   32.400    3.6862
   32.415    3.5106
   32.430    3.3702
   32.445    3.6510
   32.460    3.4931
   32.475    3.3351
   32.490    3.2122
   32.505    3.4229
   32.520    3.5457
   32.535    3.7388
   32.550    3.5457
   32.565    3.3351
   32.580    3.4580
   32.595    3.6862
   32.610    3.4053
   32.625    3.5984
   32.640    3.3000
   32.655    3.2824
   32.670    3.3000
   32.685    3.3702
   32.700    3.4931
   32.715    3.4755
   32.730    3.3000
   32.745    3.3351
   32.760    3.2298
   32.775    3.4053
   32.790    3.2649
   32.805    3.2649
   32.820    3.3175
   32.835    3.4931
   32.850    3.6335
   32.865    3.8617
   32.880    3.7739
   32.895    3.5106
   32.910    3.1069
   32.925    3.3175
   32.940    3.3877
   32.955    3.4229
   32.970    3.2122
   32.985    3.1947
   33.000    3.4931
   33.015    3.5984
   33.030    3.3877
   33.045    3.4053
   33.060    3.0367
   33.075    2.9840
   33.090    3.5457
   33.105    3.8968
   33.120    3.6510
   33.135    3.7388
   33.150    3.6686
   33.165    3.6159
   33.180    3.6510
   33.195    3.4931
   33.210    3.5457
   33.225    3.4404
   33.240    3.4580
   33.255    3.6510
   33.270    3.3351
   33.285    3.2473
   33.300    3.4931
   33.315    3.4931
   33.330    3.2649
   33.345    3.3175
   33.360    3.3702
   33.375    3.1245
   33.390    3.4404
   33.405    3.4755
   33.420    3.3702
   33.435    3.2824
   33.450    3.5457
   33.465    3.3702
   33.480    3.2649
   33.495    3.5106
   33.510    3.6510
   33.525    3.5106
   33.540    2.9138
   33.555    3.0191
   33.570    3.5282
   33.585    3.8266
   33.600    3.5633
   33.615    3.1420
   33.630    3.4404
   33.645    3.2649
   33.660    3.2824
   33.675    3.2473
   33.690    3.2649
   33.705    3.1245
   33.720    3.3000
   33.735    3.4580
   33.750    3.6686
   33.765    3.4404
   33.780    3.0893
   33.795    3.4755
   33.810    3.1245
   33.825    3.4053
   33.840    3.5457
   33.855    3.2649
   33.870    3.0718
   33.885    3.3175
   33.900    3.4229
   33.915    3.3877
   33.930    3.4404
   33.945    3.3351
   33.960    3.2122
   33.975    3.8617
   33.990    3.3000
   34.005    3.4404
   34.020    3.3175
   34.035    3.1596
   34.050    3.5633
   34.065    3.4931
   34.080    3.3526
   34.095    3.0542
   34.110    3.4931
   34.125    3.2298
   34.140    3.2824
   34.155    3.3351
   34.170    3.0542
   34.185    3.3175
   34.200    3.6510
   34.215    3.0718
   34.230    3.3351
   34.245    3.3175
   34.260    3.2824
   34.275    3.6862
   34.290    3.5808
   34.305    3.1771
   34.320    3.3877
   34.335    3.3000
   34.350    3.3000
   34.365    3.4053
   34.380    3.5106
   34.395    2.9314
   34.410    3.3000
   34.425    3.3702
   34.440    3.4931
   34.455    3.2824
   34.470    3.1420
   34.485    3.2649
   34.500    3.2824
   34.515    3.1420
   34.530    2.9314
   34.545    3.1947
   34.560    3.4404
   34.575    3.6159
   34.590    3.6335
   34.605    3.4755
   34.620    3.4931
   34.635    3.6510
   34.650    3.2122
   34.665    3.6335
   34.680    3.3877
   34.695    3.2649
   34.710    3.3351
   34.725    3.2824
   34.740    3.3000
   34.755    3.4053
   34.770    3.3526
   34.785    3.3000
   34.800    3.2473
   34.815    3.2824
   34.830    3.0542
   34.845    3.5106
   34.860    3.5633
   34.875    3.3526
   34.890    3.4580
   34.905    3.6335
   34.920    3.3000
   34.935    2.8787
   34.950    3.0718
   34.965    3.4053
   34.980    3.5457
   34.995    3.3000
   35.010    3.4755
   35.025    3.7915
   35.040    3.6510
   35.055    3.1947
   35.070    3.5457
   35.085    3.4580
   35.100    3.3702
   35.115    3.3877
   35.130    3.4229
   35.145    3.7213
   35.160    3.5106
   35.175    3.2824
   35.190    3.1947
   35.205    3.4404
   35.220    3.3526
   35.235    3.4404
   35.250    3.4931
   35.265    3.2122
   35.280    3.1947
   35.295    2.9840
   35.310    3.3000
   35.325    3.2122
   35.340    3.5984
   35.355    3.4580
   35.370    3.1245
   35.385    3.1596
   35.400    3.4755
   35.415    2.9489
   35.430    3.2122
   35.445    3.2298
   35.460    3.1947
   35.475    3.3000
   35.490    3.3877
   35.505    3.3526
   35.520    3.2298
   35.535    3.1771
   35.550    3.3000
   35.565    3.3702
   35.580    3.6510
   35.595    3.1771
   35.610    3.1947
   35.625    3.1245
   35.640    3.3000
   35.655    3.4931
   35.670    3.7037
   35.685    3.6686
   35.700    3.1771
   35.715    3.3351
   35.730    3.4229
   35.745    3.5457
   35.760    3.5457
   35.775    3.3351
   35.790    3.1069
   35.805    2.9665
   35.820    3.2473
   35.835    3.3702
   35.850    3.6510
   35.865    3.0718
   35.880    3.1069
   35.895    3.6335
   35.910    3.3526
   35.925    3.3351
   35.940    3.0367
   35.955    3.1420
   35.970    3.4755
   35.985    3.5808
   36.000    3.5808
   36.015    3.3702
   36.030    3.0718
   36.045    3.2473
   36.060    3.2824
   36.075    3.4931
   36.090    3.4755
   36.105    3.4931
   36.120    3.2824
   36.135    3.7213
   36.150    3.5282
   36.165    2.9840
   36.180    3.0016
   36.195    3.1596
   36.210    3.4580
   36.225    3.2298
   36.240    3.1245
   36.255    3.6159
   36.270    3.3351
   36.285    3.3351
   36.300    3.7739
   36.315    3.5984
   36.330    3.5808
   36.345    3.0893
   36.360    3.2649
   36.375    3.1069
   36.390    3.0191
   36.405    3.5282
   36.420    3.6335
   36.435    3.3175
   36.450    3.1596
   36.465    2.8963
   36.480    2.6330
   36.495    3.0542
   36.510    3.3877
   36.525    3.4755
   36.540    3.3877
   36.555    3.1596
   36.570    3.6159
   36.585    3.4229
   36.600    3.1947
   36.615    3.3702
   36.630    2.9314
   36.645    3.7213
   36.660    2.8260
   36.675    3.0367
   36.690    3.3526
   36.705    3.4404
   36.720    3.5282
   36.735    3.3877
   36.750    3.5808
   36.765    3.4053
   36.780    3.4404
   36.795    3.4931
   36.810    3.6862
   36.825    3.1069
   36.840    3.0542
   36.855    3.0191
   36.870    3.0367
   36.885    3.1771
   36.900    3.4229
   36.915    3.4580
   36.930    3.3175
   36.945    3.6335
   36.960    3.3702
   36.975    2.9665
   36.990    3.0542
   37.005    3.4580
   37.020    3.6510
   37.035    3.4229
   37.050    3.3175
   37.065    3.6862
   37.080    3.4229
   37.095    3.3000
   37.110    3.4755
   37.125    3.2298
   37.140    3.2298
   37.155    3.3526
   37.170    3.5984
   37.185    3.5106
   37.200    3.3351
   37.215    3.4404
   37.230    3.2824
   37.245    3.2122
   37.260    3.1771
   37.275    3.3175
   37.290    3.7388
   37.305    3.2298
   37.320    3.0016
   37.335    3.2649
   37.350    3.0542
   37.365    3.3526
   37.380    3.3175
   37.395    3.5808
   37.410    3.3351
   37.425    3.3526
   37.440    2.8963
   37.455    2.9840
   37.470    3.1771
   37.485    3.5282
   37.500    3.3702
   37.515    3.1596
   37.530    3.2649
   37.545    3.3000
   37.560    3.2824
   37.575    3.1947
   37.590    3.1245
   37.605    3.1771
   37.620    3.2649
   37.635    3.2473
   37.650    3.1947
   37.665    3.2473
   37.680    3.3351
   37.695    3.1596
   37.710    3.3000
   37.725    2.8787
   37.740    3.0718
   37.755    3.0718
   37.770    3.1245
   37.785    3.2298
   37.800    3.1420
   37.815    3.2824
   37.830    3.0016
   37.845    3.0191
   37.860    3.4931
   37.875    3.2649
   37.890    3.2122
   37.905    2.7909
   37.920    3.0191
   37.935    3.4931
   37.950    3.4580
   37.965    3.3877
   37.980    2.7734
   37.995    3.2824
   38.010    3.1771
   38.025    2.8612
   38.040    2.9314
   38.055    3.1245
   38.070    3.1245
   38.085    3.6335
   38.100    3.3351
   38.115    3.0191
   38.130    3.2824
   38.145    3.5282
   38.160    3.2473
   38.175    3.1596
   38.190    3.2473
   38.205    3.3000
   38.220    3.4580
   38.235    3.3351
   38.250    3.3000
   38.265    3.1069
   38.280    3.3877
   38.295    3.4053
   38.310    3.2824
   38.325    2.8787
   38.340    3.4053
   38.355    3.0893
   38.370    3.0367
   38.385    2.8085
   38.400    3.4229
   38.415    3.3000
   38.430    2.8787
   38.445    3.3877
   38.460    3.3702
   38.475    3.5106
   38.490    3.8792
   38.505    3.5106
   38.520    2.8612
   38.535    2.9314
   38.550    3.2473
   38.565    3.2122
   38.580    3.2824
   38.595    3.1771
   38.610    3.5282
   38.625    3.2649
   38.640    3.5457
   38.655    3.4404
   38.670    3.1420
   38.685    3.2122
   38.700    3.1596
   38.715    3.0367
   38.730    3.1245
   38.745    3.1420
   38.760    2.7734
   38.775    3.1245
   38.790    3.1069
   38.805    3.0016
   38.820    2.9138
   38.835    3.2649
   38.850    2.9840
   38.865    2.9840
   38.880    3.0367
   38.895    2.9840
   38.910    2.9665
   38.925    2.7207
   38.940    3.1420
   38.955    2.9489
   38.970    3.2298
   38.985    3.3526
   39.000    3.3702
   39.015    3.3000
   39.030    3.0016
   39.045    3.2298
   39.060    2.9314
   39.075    3.0367
   39.090    3.5984
   39.105    3.1771
   39.120    3.3877
   39.135    3.1245
   39.150    3.3175
   39.165    3.3000
   39.180    3.1245
   39.195    3.2298
   39.210    3.3000
   39.225    3.5106
   39.240    3.4580
   39.255    2.9665
   39.270    2.8612
   39.285    3.1245
   39.300    3.3351
   39.315    3.4404
   39.330    3.2473
   39.345    2.9314
   39.360    3.3351
   39.375    3.2298
   39.390    3.1771
   39.405    2.8612
   39.420    3.0893
   39.435    3.2649
   39.450    3.3351
   39.465    3.3877
   39.480    3.1069
   39.495    3.5106
   39.510    3.3526
   39.525    3.3351
   39.540    3.5282
   39.555    3.5282
   39.570    3.3175
   39.585    2.9840
   39.600    2.9840
   39.615    3.0893
   39.630    3.1596
   39.645    2.9314
   39.660    2.7032
   39.675    3.0191
   39.690    3.2122
   39.705    3.2649
   39.720    3.2824
   39.735    2.6681
   39.750    2.8085
   39.765    2.8085
   39.780    2.6681
   39.795    3.0718
   39.810    2.9489
   39.825    3.1947
   39.840    3.2298
   39.855    3.1596
   39.870    3.2298
   39.885    3.5633
   39.900    3.2649
   39.915    3.3702
   39.930    3.4580
   39.945    3.3000
   39.960    2.9665
   39.975    2.8963
   39.990    2.9138
   40.005    2.8963
   40.020    3.1245
   40.035    3.2824
   40.050    3.0367
   40.065    3.3000
   40.080    3.2473
   40.095    3.1069
   40.110    3.1069
   40.125    2.8963
   40.140    3.1947
   40.155    2.8963
   40.170    3.1596
   40.185    2.8436
   40.200    2.9665
   40.215    2.9489
   40.230    2.9840
   40.245    2.9840
   40.260    3.1420
   40.275    3.6335
   40.290    3.3877
   40.305    2.9489
   40.320    3.0191
   40.335    3.1245
   40.350    3.2298
   40.365    3.0367
   40.380    3.1771
   40.395    3.0016
   40.410    2.9489
   40.425    3.3702
   40.440    3.2649
   40.455    3.4053
   40.470    3.0718
   40.485    3.1245
   40.500    3.1947
   40.515    3.2298
   40.530    3.1420
   40.545    2.8787
   40.560    3.0016
   40.575    3.2649
   40.590    2.8787
   40.605    3.0718
   40.620    3.3000
   40.635    3.3702
   40.650    3.2298
   40.665    3.1771
   40.680    3.3000
   40.695    3.1069
   40.710    3.4931
   40.725    3.5984
   40.740    2.9489
   40.755    3.0893
   40.770    3.2473
   40.785    3.3351
   40.800    2.9489
   40.815    3.5457
   40.830    3.1771
   40.845    2.9840
   40.860    3.0893
   40.875    2.7909
   40.890    3.3000
   40.905    3.4404
   40.920    3.2122
   40.935    3.5106
   40.950    3.2649
   40.965    3.0893
   40.980    2.7734
   40.995    3.1947
   41.010    3.1420
   41.025    3.1069
   41.040    3.1947
   41.055    3.0367
   41.070    2.9489
   41.085    3.3000
   41.100    3.1245
   41.115    3.0893
   41.130    2.9138
   41.145    3.1245
   41.160    3.1771
   41.175    3.4053
   41.190    3.2649
   41.205    3.3351
   41.220    3.6159
   41.235    3.3351
   41.250    3.0893
   41.265    2.8612
   41.280    3.0718
   41.295    2.9840
   41.310    3.0893
   41.325    3.1069
   41.340    3.2298
   41.355    3.2298
   41.370    3.2298
   41.385    3.3000
   41.400    3.2298
   41.415    3.0893
   41.430    3.3175
   41.445    3.1420
   41.460    2.9314
   41.475    3.0542
   41.490    3.5457
   41.505    3.2298
   41.520    3.3702
   41.535    3.3526
   41.550    3.0191
   41.565    3.1596
   41.580    3.3000
   41.595    3.1596
   41.610    3.2122
   41.625    3.6159
   41.640    3.3175
   41.655    3.4931
   41.670    3.4404
   41.685    3.5106
   41.700    3.4404
   41.715    3.5282
   41.730    3.5457
   41.745    3.5633
   41.760    3.4931
   41.775    2.6505
   41.790    3.0542
   41.805    3.6335
   41.820    3.3526
   41.835    2.8612
   41.850    2.8085
   41.865    3.2473
   41.880    3.0367
   41.895    2.9665
   41.910    2.8260
   41.925    3.2122
   41.940    3.4229
   41.955    3.2122
   41.970    2.8085
   41.985    2.7558
   42.000    3.2298
   42.015    3.2824
   42.030    2.9489
   42.045    3.1069
   42.060    2.8963
   42.075    3.2298
   42.090    3.3000
   42.105    3.1420
   42.120    3.0016
   42.135    3.2298
   42.150    3.4580
   42.165    3.1069
   42.180    2.8787
   42.195    2.9665
   42.210    3.4053
   42.225    3.0367
   42.240    3.1947
   42.255    3.3000
   42.270    3.1069
   42.285    3.1420
   42.300    3.2473
   42.315    3.2649
   42.330    3.1947
   42.345    2.7558
   42.360    3.1245
   42.375    3.2824
   42.390    3.0191
   42.405    3.3702
   42.420    3.4053
   42.435    3.4229
   42.450    3.3000
   42.465    3.0542
   42.480    3.1596
   42.495    3.5282
   42.510    3.1596
   42.525    2.8260
   42.540    3.5106
   42.555    3.4053
   42.570    2.9840
   42.585    2.8260
   42.600    2.8963
   42.615    3.0016
   42.630    3.2649
   42.645    3.3000
   42.660    3.2122
   42.675    2.9840
   42.690    3.1245
   42.705    2.8612
   42.720    3.0367
   42.735    3.4053
   42.750    3.0191
   42.765    3.1069
   42.780    3.0542
   42.795    2.9489
   42.810    3.0367
   42.825    3.2298
   42.840    2.9840
   42.855    2.8963
   42.870    3.1245
   42.885    2.7734
   42.900    3.1596
   42.915    3.1947
   42.930    2.8436
   42.945    2.9138
   42.960    3.1947
   42.975    3.4931
   42.990    3.2649
   43.005    3.3351
   43.020    3.0367
   43.035    3.3526
   43.050    3.1420
   43.065    3.0016
   43.080    2.7558
   43.095    2.8963
   43.110    3.3702
   43.125    3.0718
   43.140    3.0191
   43.155    2.9489
   43.170    3.2473
   43.185    3.2298
   43.200    3.1245
   43.215    2.8436
   43.230    3.3526
   43.245    3.3175
   43.260    3.0191
   43.275    3.0191
   43.290    2.9138
   43.305    3.1947
   43.320    3.4053
   43.335    3.0367
   43.350    2.7909
   43.365    3.0191
   43.380    3.0542
   43.395    3.1069
   43.410    3.1245
   43.425    3.2649
   43.440    3.1245
   43.455    3.0542
   43.470    3.1069
   43.485    3.0893
   43.500    2.8963
   43.515    3.1947
   43.530    3.3175
   43.545    3.3175
   43.560    3.1069
   43.575    3.1420
   43.590    3.2473
   43.605    2.8787
   43.620    3.3351
   43.635    3.2824
   43.650    3.0893
   43.665    3.1771
   43.680    3.1069
   43.695    3.0367
   43.710    3.1245
   43.725    3.0367
   43.740    2.9489
   43.755    3.3000
   43.770    3.3175
   43.785    3.3175
   43.800    3.3351
   43.815    3.1947
   43.830    3.4053
   43.845    3.1245
   43.860    2.9314
   43.875    3.0191
   43.890    3.1947
   43.905    3.4229
   43.920    2.9489
   43.935    3.2649
   43.950    3.2824
   43.965    3.0191
   43.980    3.3877
   43.995    2.9138
   44.010    3.2122
   44.025    3.6686
   44.040    3.4931
   44.055    3.1420
   44.070    3.2298
   44.085    3.3351
   44.100    3.4053
   44.115    3.1420
   44.130    3.0367
   44.145    3.1420
   44.160    3.2824
   44.175    3.2649
   44.190    3.2298
   44.205    3.3702
   44.220    3.0893
   44.235    3.4404
   44.250    3.5457
   44.265    3.2824
   44.280    2.9138
   44.295    3.0893
   44.310    2.8612
   44.325    2.8085
   44.340    3.2649
   44.355    3.2824
   44.370    3.1596
   44.385    3.4053
   44.400    3.2298
   44.415    3.1245
   44.430    3.0367
   44.445    3.1069
   44.460    3.1771
   44.475    2.8963
   44.490    2.8612
   44.505    2.8787
   44.520    3.1420
   44.535    2.9840
   44.550    3.1069
   44.565    3.1420
   44.580    3.3000
   44.595    3.1245
   44.610    3.3175
   44.625    2.9840
   44.640    3.1420
   44.655    3.1596
   44.670    3.2824
   44.685    3.4053
   44.700    2.8436
   44.715    3.3526
   44.730    3.1420
   44.745    3.1771
   44.760    2.9665
   44.775    3.2298
   44.790    3.4404
   44.805    3.1596
   44.820    3.2649
   44.835    3.4053
   44.850    3.1069
   44.865    3.2473
   44.880    2.8963
   44.895    3.1596
   44.910    3.0191
   44.925    3.2473
   44.940    3.0367
   44.955    2.9840
   44.970    3.1947
   44.985    2.8787
   45.000    3.0367
   45.015    2.9665
   45.030    3.1420
   45.045    3.3526
   45.060    3.4053
   45.075    2.9138
   45.090    2.8612
   45.105    2.8787
   45.120    3.0191
   45.135    3.0367
   45.150    3.2824
   45.165    2.7734
   45.180    2.8963
   45.195    2.9665
   45.210    2.7909
   45.225    3.3175
   45.240    3.0367
   45.255    3.0191
   45.270    3.0718
   45.285    2.9138
   45.300    2.8260
   45.315    2.9314
   45.330    2.8963
   45.345    2.8436
   45.360    3.3351
   45.375    2.8787
   45.390    2.5979
   45.405    2.9314
   45.420    3.2824
   45.435    3.3000
   45.450    3.1771
   45.465    2.9840
   45.480    3.1245
   45.495    3.0367
   45.510    2.6681
   45.525    2.9489
   45.540    3.1947
   45.555    3.1420
   45.570    3.2298
   45.585    3.1245
   45.600    3.0016
   45.615    2.8787
   45.630    2.8787
   45.645    3.0893
   45.660    2.8787
   45.675    3.0016
   45.690    2.7383
   45.705    2.8085
   45.720    3.0367
   45.735    3.0191
   45.750    2.9138
   45.765    3.1069
   45.780    3.1069
   45.795    3.4580
   45.810    2.8260
   45.825    3.0016
   45.840    3.1947
   45.855    3.0016
   45.870    3.0367
   45.885    3.1771
   45.900    2.9314
   45.915    3.1420
   45.930    3.0367
   45.945    3.1771
   45.960    3.4404
   45.975    3.0016
   45.990    3.0718
   46.005    3.3877
   46.020    3.0718
   46.035    3.0191
   46.050    3.1596
   46.065    3.0718
   46.080    2.9138
   46.095    3.0191
   46.110    3.1420
   46.125    3.2473
   46.140    3.0367
   46.155    3.1771
   46.170    3.0893
   46.185    3.0718
   46.200    3.0542
   46.215    3.0542
   46.230    3.1245
   46.245    3.1420
   46.260    3.0191
   46.275    2.8612
   46.290    3.0718
   46.305    3.3175
   46.320    2.7734
   46.335    2.8612
   46.350    3.0367
   46.365    3.2824
   46.380    2.8612
   46.395    3.1771
   46.410    3.2473
   46.425    3.1596
   46.440    3.0367
   46.455    3.1069
   46.470    3.0718
   46.485    3.1069
   46.500    3.4053
   46.515    3.2649
   46.530    3.0718
   46.545    2.9665
   46.560    3.2298
   46.575    3.1245
   46.590    3.2649
   46.605    3.0367
   46.620    3.1420
   46.635    3.2122
   46.650    2.9840
   46.665    2.7734
   46.680    2.8963
   46.695    2.8085
   46.710    2.7734
   46.725    3.0367
   46.740    2.8787
   46.755    2.8436
   46.770    3.0718
   46.785    2.8436
   46.800    3.0367
   46.815    2.8260
   46.830    2.8787
   46.845    2.9314
   46.860    2.9665
   46.875    2.9314
   46.890    3.2473
   46.905    3.1245
   46.920    2.8963
   46.935    2.8787
   46.950    3.4053
   46.965    3.2473
   46.980    2.8963
   46.995    3.0191
   47.010    2.7032
   47.025    2.9314
   47.040    3.0893
   47.055    3.2122
   47.070    2.8436
   47.085    2.5276
   47.100    3.1771
   47.115    3.1069
   47.130    3.0542
   47.145    2.9138
   47.160    2.8260
   47.175    2.8260
   47.190    3.0542
   47.205    3.2298
   47.220    2.9840
   47.235    2.8963
   47.250    2.9138
   47.265    3.2473
   47.280    3.0367
   47.295    2.8612
   47.310    3.1069
   47.325    3.0893
   47.340    3.0191
   47.355    2.8963
   47.370    3.0542
   47.385    2.8260
   47.400    3.3526
   47.415    3.3000
   47.430    3.0367
   47.445    3.1069
   47.460    2.7734
   47.475    2.8963
   47.490    3.0542
   47.505    2.9489
   47.520    3.0016
   47.535    2.9665
   47.550    3.0542
   47.565    2.9840
   47.580    3.2298
   47.595    2.7207
   47.610    3.0542
   47.625    3.0191
   47.640    2.8963
   47.655    2.8612
   47.670    2.7207
   47.685    2.9665
   47.700    2.7734
   47.715    2.9489
   47.730    3.1771
   47.745    3.1947
   47.760    3.0367
   47.775    3.0542
   47.790    3.0718
   47.805    3.1069
   47.820    2.9314
   47.835    3.2649
   47.850    3.0542
   47.865    3.0367
   47.880    3.1771
   47.895    2.7909
   47.910    2.5803
   47.925    2.9489
   47.940    3.3877
   47.955    3.3175
   47.970    3.1596
   47.985    2.8436
   48.000    3.1947
   48.015    3.0016
   48.030    2.9665
   48.045    2.9138
   48.060    2.8963
   48.075    2.6856
   48.090    2.8612
   48.105    2.9665
   48.120    2.5979
   48.135    2.6330
   48.150    3.3175
   48.165    3.1420
   48.180    2.9840
   48.195    3.2122
   48.210    2.8963
   48.225    2.6330
   48.240    3.0191
   48.255    3.0893
   48.270    3.1947
   48.285    2.9840
   48.300    2.6856
   48.315    2.9840
   48.330    2.9840
   48.345    2.8612
   48.360    2.7734
   48.375    2.9489
   48.390    3.1596
   48.405    2.8260
   48.420    3.1245
   48.435    2.8085
   48.450    2.7558
   48.465    2.9840
   48.480    2.8963
   48.495    2.7909
   48.510    2.8612
   48.525    3.0367
   48.540    2.7734
   48.555    2.7032
   48.570    2.9489
   48.585    2.6856
   48.600    2.9840
   48.615    3.0893
   48.630    3.0542
   48.645    2.8436
   48.660    2.7909
   48.675    2.7032
   48.690    2.7207
   48.705    2.7734
   48.720    2.5628
   48.735    2.7909
   48.750    2.9665
   48.765    3.1420
   48.780    2.8436
   48.795    2.9840
   48.810    2.5979
   48.825    2.8436
   48.840    3.0367
   48.855    2.8260
   48.870    2.9314
   48.885    2.6856
   48.900    2.9138
   48.915    3.0016
   48.930    2.8963
   48.945    2.9665
   48.960    3.3000
   48.975    2.8787
   48.990    3.0016
   49.005    2.6856
   49.020    3.0542
   49.035    3.5808
   49.050    3.0893
   49.065    2.8085
   49.080    2.9138
   49.095    3.0367
   49.110    2.9840
   49.125    2.8085
   49.140    2.7383
   49.155    3.1771
   49.170    3.0542
   49.185    3.0718
   49.200    3.2824
   49.215    2.6856
   49.230    2.8436
   49.245    3.2298
   49.260    3.3526
   49.275    2.8787
   49.290    2.7734
   49.305    2.9314
   49.320    2.9665
   49.335    2.9665
   49.350    2.9138
   49.365    2.9138
   49.380    2.8612
   49.395    3.1596
   49.410    2.6856
   49.425    2.8085
   49.440    2.7909
   49.455    2.4925
   49.470    2.7909
   49.485    2.8436
   49.500    2.9138
   49.515    2.8260
   49.530    2.9314
   49.545    2.9138
   49.560    2.6681
   49.575    3.0191
   49.590    2.8436
   49.605    2.8436
   49.620    2.8260
   49.635    2.8963
   49.650    2.7383
   49.665    2.9665
   49.680    3.0016
   49.695    3.0016
   49.710    3.0542
   49.725    2.9314
   49.740    2.8260
   49.755    3.0542
   49.770    2.7909
   49.785    2.8963
   49.800    2.8787
   49.815    2.7207
   49.830    2.8612
   49.845    2.9314
   49.860    2.6856
   49.875    2.9314
   49.890    2.8085
   49.905    2.8436
   49.920    2.9314
   49.935    3.0367
   49.950    2.7032
   49.965    2.7734
   49.980    2.7032
