    1.500    3.1211
    1.515    3.2638
    1.530    2.9784
    1.545    2.8714
    1.560    2.8536
    1.575    2.7822
    1.590    2.8357
    1.605    2.7466
    1.620    2.7109
    1.635    2.7644
    1.650    2.8001
    1.665    2.4790
    1.680    2.5504
    1.695    2.6396
    1.710    2.5147
    1.725    2.4077
    1.740    2.5147
    1.755    2.3720
    1.770    2.4612
    1.785    2.3185
    1.800    2.3364
    1.815    2.2650
    1.830    2.1223
    1.845    2.5504
    1.860    2.4255
    1.875    2.4969
    1.890    2.3007
    1.905    1.9797
    1.920    2.3364
    1.935    2.4790
    1.950    1.9797
    1.965    2.3364
    1.980    1.9440
    1.995    2.0332
    2.010    2.4612
    2.025    2.3542
    2.040    2.1580
    2.055    1.9797
    2.070    2.0867
    2.085    2.4434
    2.100    2.0153
    2.115    2.1759
    2.130    2.0510
    2.145    2.1937
    2.160    1.8727
    2.175    1.9440
    2.190    2.0510
    2.205    2.0332
    2.220    1.8905
    2.235    2.2829
    2.250    2.1402
    2.265    2.0867
    2.280    2.1223
    2.295    1.8727
    2.310    1.9797
    2.325    2.1223
    2.340    1.7300
    2.355    1.7657
    2.370    1.8192
    2.385    1.8192
    2.400    1.6765
    2.415    1.4981
    2.430    1.7300
    2.445    1.7121
    2.460    1.6051
    2.475    1.5516
    2.490    1.6586
    2.505    1.7478
    2.520    1.7300
    2.535    1.5695
    2.550    1.6586
    2.565    1.7121
    2.580    1.5516
    2.595    1.8192
    2.610    1.7300
    2.625    1.7300
    2.640    1.6408
    2.655    1.6408
    2.670    1.9262
    2.685    1.9083
    2.700    1.7121
    2.715    1.5695
    2.730    1.3911
    2.745    1.5873
    2.760    1.7657
    2.775    1.6408
    2.790    1.4625
    2.805    1.5516
    2.820    1.5338
    2.835    1.5695
    2.850    1.8727
    2.865    1.7478
    2.880    1.6230
    2.895    1.5160
    2.910    1.6230
    2.925    1.5160
    2.940    1.5873
    2.955    1.8192
    2.970    1.9262
    2.985    1.4446
    3.000    1.4268
    3.015    1.5338
    3.030    1.5873
    3.045    1.4803
    3.060    1.4803
    3.075    1.7300
    3.090    1.6765
    3.105    1.8013
    3.120    1.4981
    3.135    1.6230
    3.150    1.4981
    3.165    1.6943
    3.180    1.8370
    3.195    1.3911
    3.210    1.5516
    3.225    1.3554
    3.240    1.4090
    3.255    1.3554
    3.270    1.6408
    3.285    1.6051
    3.300    1.3198
    3.315    1.3911
    3.330    1.5516
    3.345    1.4625
    3.360    1.6408
    3.375    1.5695
    3.390    1.6765
    3.405    1.6051
    3.420    1.2663
    3.435    1.3019
    3.450    1.5338
    3.465    1.4803
    3.480    1.3554
    3.495    1.3554
    3.510    1.7121
    3.525    1.8013
    3.540    1.7835
    3.555    1.3911
    3.570    1.5160
    3.585    1.6051
    3.600    1.6051
    3.615    1.4446
    3.630    1.8013
    3.645    1.6408
    3.660    1.4625
    3.675    1.3554
    3.690    1.4803
    3.705    1.4268
    3.720    1.6765
    3.735    1.5695
    3.750    1.7478
    3.765    1.5516
    3.780    1.5516
    3.795    1.8905
    3.810    1.5338
    3.825    1.6230
    3.840    1.7835
    3.855    1.6765
    3.870    1.2663
    3.885    1.3733
    3.900    1.5338
    3.915    1.8192
    3.930    1.7478
    3.945    1.7121
    3.960    1.5516
    3.975    1.4268
    3.990    1.4446
    4.005    1.3733
    4.020    1.6586
    4.035    1.6230
    4.050    1.7657
    4.065    1.4803
    4.080    1.4446
    4.095    1.6943
    4.110    1.6586
    4.125    1.4625
    4.140    1.4625
    4.155    1.4803
    4.170    1.3911
    4.185    1.7300
    4.200    1.5695
    4.215    1.6943
    4.230    1.4803
    4.245    1.3376
    4.260    1.5695
    4.275    1.5695
    4.290    1.3376
    4.305    1.7300
    4.320    1.7478
    4.335    1.6230
    4.350    1.4446
    4.365    1.4090
    4.380    1.3019
    4.395    1.4268
    4.410    1.4803
    4.425    1.5338
    4.440    1.6408
    4.455    1.3733
    4.470    1.5160
    4.485    1.4803
    4.500    1.3198
    4.515    1.3733
    4.530    1.3554
    4.545    1.7478
    4.560    1.5160
    4.575    1.4268
    4.590    1.4446
    4.605    1.3554
    4.620    1.6765
    4.635    1.4625
    4.650    1.4090
    4.665    1.3733
    4.680    1.3376
    4.695    1.3911
    4.710    1.2484
    4.725    1.6408
    4.740    1.5695
    4.755    1.6408
    4.770    1.6051
    4.785    1.6408
    4.800    1.4268
    4.815    1.4803
    4.830    1.5516
    4.845    1.5516
    4.860    1.4981
    4.875    1.4446
    4.890    1.6051
    4.905    1.4981
    4.920    1.5338
    4.935    1.4446
    4.950    1.4981
    4.965    1.4090
    4.980    1.6765
    4.995    1.5695
    5.010    1.6051
    5.025    1.5516
    5.040    1.3733
    5.055    1.7835
    5.070    1.6230
    5.085    1.7300
    5.100    1.6765
    5.115    1.5160
    5.130    1.3554
    5.145    1.2663
    5.160    1.4446
    5.175    1.6408
    5.190    1.7478
    5.205    1.3376
    5.220    1.4268
    5.235    1.5873
    5.250    1.3554
    5.265    1.4803
    5.280    1.4446
    5.295    1.3376
    5.310    1.3376
    5.325    1.6765
    5.340    1.6230
    5.355    1.3911
    5.370    1.6051
    5.385    1.5160
    5.400    1.4803
    5.415    1.5695
    5.430    1.4981
    5.445    1.3019
    5.460    1.5516
    5.475    1.6408
    5.490    1.6586
    5.505    1.6408
    5.520    1.6230
    5.535    1.4625
    5.550    1.6230
    5.565    1.5873
    5.580    1.7835
    5.595    1.4625
    5.610    1.4268
    5.625    1.3376
    5.640    1.6051
    5.655    1.4268
    5.670    1.4803
    5.685    1.5695
    5.700    1.4803
    5.715    1.5695
    5.730    1.4625
    5.745    1.4090
    5.760    1.5160
    5.775    1.7121
    5.790    1.6586
    5.805    1.7478
    5.820    1.7121
    5.835    1.7478
    5.850    1.8370
    5.865    1.4625
    5.880    1.5338
    5.895    1.8192
    5.910    1.6943
    5.925    1.7657
    5.940    1.6051
    5.955    1.4803
    5.970    1.6051
    5.985    1.5695
    6.000    1.6586
    6.015    1.8548
    6.030    1.6765
    6.045    1.8727
    6.060    1.7657
    6.075    1.7835
    6.090    1.8192
    6.105    1.8370
    6.120    1.9083
    6.135    1.7657
    6.150    1.9083
    6.165    1.8013
    6.180    1.9618
    6.195    2.1223
    6.210    1.9975
    6.225    1.8013
    6.240    1.8013
    6.255    1.8727
    6.270    2.0153
    6.285    1.9797
    6.300    1.8727
    6.315    1.9975
    6.330    1.9262
    6.345    2.2472
    6.360    1.9083
    6.375    2.2115
    6.390    1.9083
    6.405    1.9440
    6.420    1.9440
    6.435    1.8905
    6.450    2.1580
    6.465    2.0867
    6.480    2.1223
    6.495    1.9797
    6.510    2.2115
    6.525    1.9975
    6.540    1.8192
    6.555    1.9975
    6.570    2.0510
    6.585    1.9440
    6.600    2.1580
    6.615    1.8905
    6.630    2.0867
    6.645    2.0867
    6.660    2.3364
    6.675    2.1402
    6.690    1.9440
    6.705    1.9440
    6.720    1.8727
    6.735    1.9797
    6.750    1.8905
    6.765    1.9975
    6.780    1.8013
    6.795    1.9440
    6.810    1.8905
    6.825    1.8548
    6.840    1.8013
    6.855    1.6408
    6.870    1.8370
    6.885    1.6586
    6.900    1.8905
    6.915    2.1402
    6.930    1.6408
    6.945    1.6943
    6.960    1.8727
    6.975    1.6943
    6.990    1.6230
    7.005    1.6765
    7.020    1.8370
    7.035    1.7121
    7.050    1.6765
    7.065    1.5338
    7.080    1.8192
    7.095    1.4981
    7.110    1.6230
    7.125    1.6408
    7.140    1.4090
    7.155    1.3554
    7.170    1.4625
    7.185    1.4090
    7.200    1.4981
    7.215    1.4625
    7.230    1.5516
    7.245    1.7300
    7.260    1.4268
    7.275    1.3733
    7.290    1.6586
    7.305    1.6408
    7.320    1.4090
    7.335    1.3019
    7.350    1.2841
    7.365    1.6408
    7.380    1.5160
    7.395    1.3198
    7.410    0.9988
    7.425    1.3019
    7.440    1.4268
    7.455    1.2484
    7.470    1.5338
    7.485    1.5160
    7.500    1.3376
    7.515    1.3733
    7.530    1.3376
    7.545    1.6408
    7.560    1.7121
    7.575    1.5695
    7.590    1.3911
    7.605    1.3019
    7.620    1.3733
    7.635    1.6408
    7.650    1.3911
    7.665    1.4803
    7.680    1.4090
    7.695    1.4625
    7.710    1.4446
    7.725    1.4090
    7.740    1.4090
    7.755    1.3554
    7.770    1.4090
    7.785    1.4446
    7.800    1.3733
    7.815    1.4446
    7.830    1.4981
    7.845    1.6408
    7.860    1.6051
    7.875    1.3733
    7.890    1.2128
    7.905    1.4446
    7.920    1.2128
    7.935    1.1949
    7.950    1.3733
    7.965    1.2663
    7.980    1.1593
    7.995    1.1593
    8.010    1.2128
    8.025    1.3198
    8.040    1.2484
    8.055    1.3376
    8.070    1.1771
    8.085    1.4803
    8.100    1.5516
    8.115    1.4625
    8.130    1.5338
    8.145    1.3019
    8.160    1.4981
    8.175    1.5516
    8.190    1.2841
    8.205    1.0701
    8.220    1.1058
    8.235    1.0166
    8.250    1.1414
    8.265    1.3554
    8.280    1.2128
    8.295    1.1593
    8.310    1.2663
    8.325    1.3376
    8.340    1.2306
    8.355    1.1414
    8.370    1.1593
    8.385    1.0166
    8.400    1.0523
    8.415    1.0166
    8.430    1.0523
    8.445    1.3198
    8.460    1.2128
    8.475    1.1771
    8.490    1.1236
    8.505    1.0879
    8.520    1.1593
    8.535    1.0166
    8.550    1.2306
    8.565    1.1949
    8.580    1.2306
    8.595    1.4268
    8.610    1.2306
    8.625    1.2128
    8.640    1.2663
    8.655    0.9809
    8.670    1.0166
    8.685    1.2663
    8.700    1.1414
    8.715    1.0523
    8.730    1.1949
    8.745    1.1414
    8.760    0.9809
    8.775    1.1414
    8.790    1.0166
    8.805    0.9631
    8.820    1.0879
    8.835    1.3554
    8.850    0.9988
    8.865    1.1414
    8.880    1.0166
    8.895    1.1414
    8.910    1.1593
    8.925    0.9631
    8.940    0.9631
    8.955    1.0701
    8.970    1.3376
    8.985    1.1414
    9.000    1.1058
    9.015    0.8561
    9.030    0.9096
    9.045    1.1236
    9.060    1.0701
    9.075    0.8917
    9.090    0.9631
    9.105    0.9988
    9.120    0.9274
    9.135    0.9988
    9.150    0.9988
    9.165    0.9631
    9.180    1.0701
    9.195    1.0523
    9.210    1.0523
    9.225    0.9988
    9.240    0.9988
    9.255    1.0701
    9.270    1.0523
    9.285    1.1949
    9.300    1.0523
    9.315    1.0166
    9.330    1.1058
    9.345    1.0879
    9.360    0.8561
    9.375    0.8204
    9.390    0.8917
    9.405    0.8917
    9.420    0.8561
    9.435    0.6956
    9.450    0.8561
    9.465    1.1236
    9.480    0.9809
    9.495    0.9096
    9.510    0.9274
    9.525    0.8917
    9.540    0.8204
    9.555    1.0166
    9.570    1.0701
    9.585    1.1949
    9.600    1.1593
    9.615    1.0344
    9.630    1.1058
    9.645    0.9631
    9.660    0.8382
    9.675    0.7669
    9.690    1.0701
    9.705    0.9274
    9.720    1.2306
    9.735    1.0879
    9.750    0.7847
    9.765    0.9631
    9.780    0.9809
    9.795    0.8382
    9.810    0.7669
    9.825    0.7491
    9.840    0.8917
    9.855    1.0166
    9.870    1.0344
    9.885    0.8917
    9.900    0.7847
    9.915    0.9631
    9.930    0.9452
    9.945    0.7491
    9.960    0.8026
    9.975    1.0166
    9.990    0.8739
   10.005    0.8026
   10.020    0.6777
   10.035    0.8561
   10.050    0.9274
   10.065    0.7847
   10.080    0.9988
   10.095    1.0523
   10.110    1.0701
   10.125    0.9631
   10.140    0.9809
   10.155    0.8561
   10.170    1.0344
   10.185    0.9809
   10.200    0.8917
   10.215    0.9809
   10.230    0.8026
   10.245    0.6599
   10.260    0.8204
   10.275    0.9809
   10.290    0.7847
   10.305    0.8561
   10.320    0.7847
   10.335    0.8382
   10.350    1.0166
   10.365    0.9809
   10.380    0.8026
   10.395    0.7669
   10.410    0.8739
   10.425    0.6777
   10.440    0.7491
   10.455    1.0701
   10.470    0.9631
   10.485    0.9274
   10.500    0.8382
   10.515    0.9274
   10.530    0.9631
   10.545    0.8739
   10.560    1.0166
   10.575    0.8739
   10.590    0.8026
   10.605    0.6599
   10.620    0.8917
   10.635    0.8382
   10.650    0.9096
   10.665    0.7847
   10.680    1.0879
   10.695    0.7669
   10.710    0.7134
   10.725    1.0166
   10.740    0.8917
   10.755    0.8026
   10.770    0.8382
   10.785    1.1593
   10.800    0.9452
   10.815    0.8204
   10.830    0.7847
   10.845    0.8026
   10.860    0.9631
   10.875    0.7134
   10.890    0.8739
   10.905    0.8561
   10.920    1.0344
   10.935    0.9452
   10.950    0.9631
   10.965    0.9988
   10.980    0.8204
   10.995    0.7312
   11.010    0.7312
   11.025    0.9809
   11.040    0.8561
   11.055    0.8026
   11.070    0.7312
   11.085    0.6599
   11.100    0.7491
   11.115    0.8917
   11.130    0.8561
   11.145    0.7491
   11.160    0.8204
   11.175    0.8739
   11.190    0.7669
   11.205    0.9452
   11.220    1.0166
   11.235    0.8026
   11.250    0.7847
   11.265    0.8026
   11.280    0.9809
   11.295    0.9631
   11.310    0.8739
   11.325    0.8917
   11.340    0.8026
   11.355    0.7491
   11.370    0.8204
   11.385    0.6777
   11.400    0.8382
   11.415    0.9631
   11.430    0.8026
   11.445    0.9988
   11.460    0.7847
   11.475    0.8917
   11.490    0.8382
   11.505    0.9631
   11.520    0.9452
   11.535    0.8204
   11.550    0.8204
   11.565    0.7669
   11.580    0.7134
   11.595    0.6956
   11.610    0.7847
   11.625    0.6956
   11.640    0.7312
   11.655    0.7669
   11.670    0.7847
   11.685    0.8561
   11.700    0.7491
   11.715    0.8561
   11.730    0.9274
   11.745    0.7491
   11.760    0.9809
   11.775    0.8739
   11.790    0.8382
   11.805    0.8382
   11.820    0.7847
   11.835    1.0344
   11.850    0.8026
   11.865    0.7847
   11.880    0.9274
   11.895    0.9096
   11.910    0.9809
   11.925    0.9631
   11.940    0.8382
   11.955    0.8917
   11.970    0.9096
   11.985    0.8561
   12.000    1.0879
   12.015    1.0344
   12.030    0.8561
   12.045    0.9809
   12.060    0.8739
   12.075    0.8026
   12.090    0.6956
   12.105    0.8382
   12.120    0.8917
   12.135    0.7847
   12.150    0.9988
   12.165    1.1058
   12.180    0.9274
   12.195    0.8561
   12.210    0.6777
   12.225    0.8561
   12.240    0.6599
   12.255    0.8204
   12.270    0.8026
   12.285    0.8561
   12.300    0.8739
   12.315    0.8561
   12.330    0.9988
   12.345    0.9809
   12.360    0.8561
   12.375    0.8561
   12.390    0.7847
   12.405    0.8382
   12.420    0.7847
   12.435    0.8917
   12.450    0.8739
   12.465    0.7669
   12.480    0.9452
   12.495    0.8917
   12.510    0.8026
   12.525    0.8739
   12.540    0.7847
   12.555    0.6956
   12.570    0.6599
   12.585    0.7847
   12.600    0.9809
   12.615    0.8204
   12.630    0.7669
   12.645    0.8382
   12.660    0.8382
   12.675    0.8739
   12.690    0.9096
   12.705    0.8382
   12.720    0.9096
   12.735    0.7847
   12.750    0.9631
   12.765    0.6777
   12.780    0.8917
   12.795    0.9452
   12.810    0.9809
   12.825    0.8739
   12.840    1.0879
   12.855    0.7847
   12.870    0.8026
   12.885    0.9452
   12.900    0.7847
   12.915    1.1949
   12.930    0.9988
   12.945    0.8026
   12.960    0.8917
   12.975    0.8382
   12.990    0.9274
   13.005    0.9809
   13.020    0.9631
   13.035    0.8917
   13.050    0.9096
   13.065    0.8917
   13.080    0.8917
   13.095    0.8739
   13.110    0.7669
   13.125    0.8917
   13.140    0.9274
   13.155    0.7669
   13.170    0.6956
   13.185    0.8739
   13.200    1.0344
   13.215    0.8561
   13.230    0.7134
   13.245    1.0344
   13.260    0.9809
   13.275    0.9096
   13.290    1.0879
   13.305    1.1058
   13.320    0.8561
   13.335    0.8026
   13.350    0.8026
   13.365    0.9274
   13.380    0.9096
   13.395    0.9452
   13.410    1.0344
   13.425    0.8204
   13.440    0.8204
   13.455    0.9096
   13.470    0.9988
   13.485    0.8204
   13.500    0.8026
   13.515    0.8204
   13.530    0.9809
   13.545    1.0523
   13.560    1.0166
   13.575    0.9452
   13.590    0.8204
   13.605    0.8917
   13.620    0.8561
   13.635    0.9631
   13.650    0.8026
   13.665    0.9274
   13.680    0.8739
   13.695    0.7312
   13.710    1.0166
   13.725    0.9988
   13.740    0.9809
   13.755    0.7847
   13.770    0.7669
   13.785    0.8382
   13.800    0.5886
   13.815    0.9452
   13.830    1.0344
   13.845    0.9988
   13.860    0.9452
   13.875    1.1058
   13.890    0.9096
   13.905    0.7847
   13.920    0.8739
   13.935    0.9988
   13.950    0.8026
   13.965    0.8382
   13.980    0.9631
   13.995    1.0166
   14.010    0.9809
   14.025    0.7491
   14.040    0.7134
   14.055    0.6599
   14.070    0.8204
   14.085    0.8917
   14.100    0.8204
   14.115    0.7847
   14.130    0.8917
   14.145    0.8917
   14.160    0.9096
   14.175    0.8739
   14.190    0.8204
   14.205    0.8204
   14.220    0.7312
   14.235    0.8204
   14.250    0.9809
   14.265    0.7669
   14.280    1.1058
   14.295    0.8204
   14.310    1.0701
   14.325    0.9809
   14.340    1.0166
   14.355    0.9631
   14.370    0.7491
   14.385    0.9096
   14.400    1.0166
   14.415    0.8026
   14.430    0.8026
   14.445    0.8917
   14.460    0.7491
   14.475    0.7847
   14.490    0.8917
   14.505    0.8561
   14.520    0.7491
   14.535    0.8026
   14.550    0.7669
   14.565    0.8204
   14.580    0.7491
   14.595    0.9096
   14.610    0.8739
   14.625    0.7669
   14.640    0.7847
   14.655    0.9274
   14.670    0.8382
   14.685    0.7134
   14.700    0.7847
   14.715    0.9809
   14.730    0.8739
   14.745    0.7669
   14.760    0.7134
   14.775    0.8739
   14.790    0.9452
   14.805    0.9096
   14.820    0.6777
   14.835    0.8204
   14.850    0.8204
   14.865    0.9452
   14.880    0.7847
   14.895    0.8739
   14.910    0.9988
   14.925    0.7491
   14.940    0.6777
   14.955    0.5707
   14.970    0.8739
   14.985    0.8382
   15.000    0.9274
   15.015    0.7491
   15.030    0.8561
   15.045    0.8026
   15.060    0.8026
   15.075    0.9809
   15.090    1.0879
   15.105    0.9988
   15.120    0.9096
   15.135    0.9096
   15.150    0.8382
   15.165    0.9988
   15.180    0.9096
   15.195    0.9274
   15.210    0.8026
   15.225    0.9631
   15.240    0.8026
   15.255    0.8026
   15.270    0.6599
   15.285    0.7847
   15.300    0.7847
   15.315    0.9988
   15.330    0.8561
   15.345    0.8026
   15.360    0.8204
   15.375    0.8026
   15.390    0.7491
   15.405    0.7312
   15.420    0.8204
   15.435    0.7491
   15.450    0.9096
   15.465    0.9274
   15.480    0.8026
   15.495    0.8026
   15.510    0.8204
   15.525    0.8204
   15.540    0.9988
   15.555    0.6599
   15.570    0.8204
   15.585    0.9274
   15.600    0.6777
   15.615    0.7491
   15.630    0.8561
   15.645    0.9274
   15.660    0.9096
   15.675    0.8204
   15.690    0.8204
   15.705    0.9096
   15.720    0.8204
   15.735    0.7669
   15.750    1.0166
   15.765    0.8917
   15.780    0.8204
   15.795    0.7669
   15.810    0.7312
   15.825    0.8561
   15.840    0.6777
   15.855    0.7669
   15.870    0.7669
   15.885    0.6421
   15.900    0.7312
   15.915    0.9631
   15.930    0.7847
   15.945    0.8204
   15.960    0.9096
   15.975    0.9631
   15.990    0.5886
   16.005    0.6956
   16.020    0.8026
   16.035    0.8382
   16.050    0.8561
   16.065    0.9096
   16.080    0.8739
   16.095    1.0166
   16.110    0.8917
   16.125    0.8739
   16.140    0.7669
   16.155    0.7847
   16.170    0.8026
   16.185    0.8917
   16.200    0.7847
   16.215    0.8917
   16.230    0.9452
   16.245    0.7669
   16.260    0.8382
   16.275    0.7847
   16.290    0.8917
   16.305    0.9452
   16.320    0.8204
   16.335    0.6956
   16.350    0.9988
   16.365    0.7491
   16.380    0.8917
   16.395    0.7847
   16.410    0.7847
   16.425    0.8739
   16.440    0.8561
   16.455    1.0701
   16.470    0.7847
   16.485    0.7847
   16.500    0.8026
   16.515    0.8382
   16.530    0.7312
   16.545    0.8561
   16.560    0.9631
   16.575    0.8917
   16.590    0.9096
   16.605    0.8917
   16.620    0.9274
   16.635    0.9274
   16.650    0.9096
   16.665    0.6956
   16.680    0.7847
   16.695    1.0166
   16.710    0.8739
   16.725    1.0344
   16.740    0.9452
   16.755    0.8561
   16.770    0.8739
   16.785    0.7847
   16.800    0.6956
   16.815    0.8382
   16.830    0.9988
   16.845    0.9096
   16.860    0.6956
   16.875    1.0879
   16.890    0.8917
   16.905    1.1236
   16.920    1.2841
   16.935    1.0879
   16.950    0.7847
   16.965    0.7669
   16.980    0.8917
   16.995    0.7491
   17.010    0.6599
   17.025    0.7312
   17.040    1.0166
   17.055    0.7847
   17.070    1.2128
   17.085    0.8917
   17.100    0.9274
   17.115    0.7491
   17.130    0.8561
   17.145    0.9988
   17.160    0.8739
   17.175    1.0344
   17.190    0.9631
   17.205    0.8739
   17.220    0.9452
   17.235    0.7669
   17.250    0.6777
   17.265    0.8026
   17.280    0.8739
   17.295    0.9988
   17.310    0.9809
   17.325    0.8382
   17.340    0.9631
   17.355    0.9809
   17.370    0.9988
   17.385    0.7491
   17.400    0.8561
   17.415    0.8026
   17.430    0.8382
   17.445    0.7491
   17.460    0.6064
   17.475    0.8382
   17.490    0.8917
   17.505    0.6064
   17.520    0.8561
   17.535    0.7669
   17.550    0.6777
   17.565    0.8739
   17.580    1.0166
   17.595    0.6956
   17.610    0.5707
   17.625    0.8026
   17.640    0.9809
   17.655    0.7312
   17.670    0.9096
   17.685    0.6242
   17.700    0.8026
   17.715    0.8382
   17.730    0.8561
   17.745    0.8026
   17.760    0.8026
   17.775    0.6599
   17.790    0.8026
   17.805    0.8382
   17.820    0.9631
   17.835    0.7669
   17.850    0.9631
   17.865    0.9096
   17.880    0.7669
   17.895    0.8204
   17.910    0.7134
   17.925    0.9452
   17.940    0.9631
   17.955    0.8026
   17.970    0.8917
   17.985    0.9452
   18.000    0.7491
   18.015    0.8917
   18.030    0.9274
   18.045    0.9274
   18.060    0.9096
   18.075    0.8204
   18.090    0.8561
   18.105    0.8026
   18.120    0.8026
   18.135    0.6956
   18.150    0.7491
   18.165    0.7847
   18.180    0.7847
   18.195    0.8382
   18.210    0.8026
   18.225    0.8561
   18.240    0.7491
   18.255    0.7669
   18.270    0.7491
   18.285    0.6777
   18.300    0.7847
   18.315    0.7669
   18.330    0.5707
   18.345    0.7134
   18.360    0.8026
   18.375    0.7491
   18.390    0.8739
   18.405    0.8561
   18.420    0.7134
   18.435    0.8204
   18.450    0.6599
   18.465    0.8917
   18.480    0.8917
   18.495    0.7847
   18.510    0.9631
   18.525    0.8561
   18.540    0.7847
   18.555    0.7847
   18.570    0.5172
   18.585    0.7312
   18.600    0.9809
   18.615    0.8026
   18.630    0.8917
   18.645    0.7134
   18.660    0.8739
   18.675    0.7134
   18.690    0.7312
   18.705    0.8204
   18.720    0.8382
   18.735    0.7491
   18.750    0.6956
   18.765    0.7134
   18.780    0.6956
   18.795    0.7847
   18.810    0.6421
   18.825    0.7491
   18.840    0.8026
   18.855    0.6956
   18.870    0.7491
   18.885    0.8917
   18.900    0.8382
   18.915    0.9274
   18.930    0.8561
   18.945    0.6956
   18.960    0.7669
   18.975    0.8917
   18.990    0.8561
   19.005    0.8026
   19.020    0.8204
   19.035    0.7847
   19.050    0.6421
   19.065    0.7134
   19.080    0.4459
   19.095    0.5350
   19.110    0.5529
   19.125    0.4994
   19.140    0.8917
   19.155    0.8204
   19.170    0.8739
   19.185    0.8382
   19.200    0.7312
   19.215    0.6421
   19.230    0.6421
   19.245    0.7669
   19.260    0.6956
   19.275    0.8561
   19.290    0.8026
   19.305    0.8561
   19.320    0.7669
   19.335    1.0523
   19.350    0.7847
   19.365    0.8382
   19.380    0.8026
   19.395    0.8382
   19.410    0.8026
   19.425    0.7847
   19.440    0.7669
   19.455    0.7847
   19.470    0.6956
   19.485    0.7134
   19.500    0.6777
   19.515    0.6242
   19.530    0.6777
   19.545    0.8204
   19.560    0.8204
   19.575    0.6421
   19.590    0.7312
   19.605    0.8382
   19.620    0.8026
   19.635    0.7312
   19.650    0.6421
   19.665    0.6777
   19.680    0.8204
   19.695    0.7491
   19.710    0.6777
   19.725    0.7669
   19.740    0.7134
   19.755    0.6777
   19.770    0.7134
   19.785    0.7312
   19.800    0.9096
   19.815    0.8739
   19.830    0.8204
   19.845    0.7847
   19.860    0.8026
   19.875    0.7134
   19.890    0.8204
   19.905    0.8382
   19.920    0.8204
   19.935    0.9452
   19.950    0.7847
   19.965    0.9631
   19.980    0.8917
   19.995    0.7669
   20.010    0.6956
   20.025    0.6064
   20.040    0.7134
   20.055    0.6064
   20.070    0.6956
   20.085    0.7669
   20.100    0.7312
   20.115    0.6242
   20.130    0.7134
   20.145    0.8561
   20.160    0.8917
   20.175    0.7312
   20.190    0.5529
   20.205    0.7491
   20.220    0.7847
   20.235    0.9096
   20.250    0.6956
   20.265    0.7491
   20.280    0.8026
   20.295    0.7847
   20.310    0.7669
   20.325    0.6777
   20.340    0.9274
   20.355    0.8026
   20.370    0.8917
   20.385    0.7847
   20.400    0.6956
   20.415    0.6956
   20.430    0.6777
   20.445    0.7491
   20.460    0.8561
   20.475    0.5886
   20.490    0.7491
   20.505    0.8382
   20.520    0.5529
   20.535    0.8204
   20.550    0.8561
   20.565    0.6421
   20.580    0.6421
   20.595    0.9452
   20.610    0.9452
   20.625    0.7312
   20.640    0.8382
   20.655    0.7134
   20.670    0.7312
   20.685    0.8026
   20.700    0.7669
   20.715    0.7847
   20.730    0.8561
   20.745    0.8026
   20.760    0.7491
   20.775    0.6956
   20.790    0.7134
   20.805    0.8026
   20.820    0.8204
   20.835    0.8382
   20.850    0.7312
   20.865    0.8026
   20.880    0.7669
   20.895    0.7134
   20.910    0.8561
   20.925    0.6599
   20.940    0.7669
   20.955    0.7134
   20.970    0.7134
   20.985    0.6421
   21.000    0.6599
   21.015    0.6421
   21.030    0.8382
   21.045    0.7847
   21.060    0.9631
   21.075    0.7491
   21.090    0.7491
   21.105    0.6956
   21.120    0.8026
   21.135    0.8026
   21.150    0.7312
   21.165    0.6242
   21.180    0.6956
   21.195    0.6777
   21.210    0.7491
   21.225    0.8917
   21.240    0.6777
   21.255    0.7669
   21.270    0.7669
   21.285    0.5350
   21.300    0.6421
   21.315    0.6777
   21.330    0.6777
   21.345    0.6421
   21.360    0.6421
   21.375    0.8382
   21.390    0.8204
   21.405    0.6064
   21.420    0.5350
   21.435    0.7134
   21.450    0.9631
   21.465    0.6956
   21.480    0.6956
   21.495    0.8739
   21.510    0.8739
   21.525    0.6777
   21.540    0.8917
   21.555    0.5886
   21.570    0.8739
   21.585    0.8382
   21.600    0.6599
   21.615    0.7312
   21.630    0.6599
   21.645    0.5707
   21.660    0.7134
   21.675    0.6956
   21.690    0.6956
   21.705    0.9631
   21.720    0.9631
   21.735    0.7134
   21.750    0.7669
   21.765    0.8026
   21.780    0.8204
   21.795    0.6421
   21.810    0.6242
   21.825    0.6956
   21.840    0.7669
   21.855    0.7312
   21.870    0.7134
   21.885    0.7312
   21.900    0.7669
   21.915    0.8382
   21.930    0.7491
   21.945    0.8026
   21.960    0.9274
   21.975    0.7847
   21.990    0.8026
   22.005    0.8739
   22.020    0.8204
   22.035    0.7847
   22.050    0.6599
   22.065    0.6242
   22.080    0.8382
   22.095    0.8739
   22.110    0.8917
   22.125    0.7491
   22.140    0.7134
   22.155    0.7669
   22.170    0.7134
   22.185    0.7491
   22.200    0.9809
   22.215    0.7847
   22.230    0.6421
   22.245    0.7134
   22.260    0.7669
   22.275    0.7491
   22.290    0.8917
   22.305    0.7669
   22.320    0.7669
   22.335    0.9096
   22.350    0.7847
   22.365    0.6599
   22.380    0.6599
   22.395    0.8561
   22.410    0.8382
   22.425    0.8739
   22.440    0.8026
   22.455    0.6956
   22.470    0.5886
   22.485    0.6064
   22.500    0.7134
   22.515    0.7134
   22.530    0.7134
   22.545    0.8204
   22.560    0.7847
   22.575    0.8026
   22.590    0.8739
   22.605    0.6242
   22.620    0.6421
   22.635    0.6421
   22.650    0.8917
   22.665    0.7669
   22.680    0.8026
   22.695    0.6956
   22.710    0.6421
   22.725    0.6777
   22.740    0.7491
   22.755    0.7134
   22.770    0.8739
   22.785    0.8739
   22.800    0.8026
   22.815    0.7491
   22.830    0.5350
   22.845    0.6777
   22.860    0.8917
   22.875    0.9096
   22.890    0.7312
   22.905    0.6599
   22.920    0.7134
   22.935    0.6956
   22.950    0.8204
   22.965    0.7491
   22.980    0.8204
   22.995    0.6242
   23.010    0.6421
   23.025    0.8382
   23.040    0.5350
   23.055    0.7134
   23.070    0.8561
   23.085    0.7847
   23.100    0.7491
   23.115    0.5529
   23.130    0.6242
   23.145    0.5350
   23.160    0.5350
   23.175    0.7491
   23.190    0.6421
   23.205    0.6242
   23.220    0.7491
   23.235    0.8382
   23.250    0.7312
   23.265    0.6956
   23.280    0.6777
   23.295    0.5886
   23.310    0.4637
   23.325    0.6599
   23.340    0.6421
   23.355    0.6599
   23.370    0.6064
   23.385    0.6599
   23.400    0.6777
   23.415    0.9096
   23.430    0.6956
   23.445    0.7491
   23.460    0.7134
   23.475    0.8026
   23.490    0.7134
   23.505    0.4815
   23.520    0.6242
   23.535    0.6956
   23.550    0.7669
   23.565    0.6421
   23.580    0.6064
   23.595    0.8917
   23.610    0.6064
   23.625    0.7312
   23.640    0.7491
   23.655    0.6956
   23.670    0.7847
   23.685    0.8204
   23.700    0.7491
   23.715    0.5172
   23.730    0.4637
   23.745    0.6242
   23.760    0.7847
   23.775    0.6777
   23.790    0.5350
   23.805    0.6421
   23.820    0.5886
   23.835    0.6064
   23.850    0.6242
   23.865    0.7134
   23.880    0.5707
   23.895    0.5707
   23.910    0.4994
   23.925    0.6242
   23.940    0.7491
   23.955    0.7669
   23.970    0.7134
   23.985    0.6242
   24.000    0.5172
   24.015    0.7491
   24.030    0.7312
   24.045    0.6064
   24.060    0.4459
   24.075    0.6777
   24.090    0.6421
   24.105    0.6421
   24.120    0.4994
   24.135    0.7134
   24.150    0.7847
   24.165    0.7669
   24.180    0.7669
   24.195    0.7312
   24.210    0.7669
   24.225    0.6421
   24.240    0.7669
   24.255    0.7491
   24.270    0.6599
   24.285    0.6599
   24.300    0.6421
   24.315    0.6242
   24.330    0.6777
   24.345    0.8026
   24.360    0.6242
   24.375    0.6956
   24.390    0.7312
   24.405    0.4637
   24.420    0.6242
   24.435    0.4815
   24.450    0.7134
   24.465    0.8026
   24.480    0.5707
   24.495    0.4815
   24.510    0.6421
   24.525    0.6064
   24.540    0.7491
   24.555    0.7134
   24.570    0.5886
   24.585    0.6956
   24.600    0.6777
   24.615    0.4815
   24.630    0.6064
   24.645    0.7312
   24.660    0.6242
   24.675    0.6242
   24.690    0.7134
   24.705    0.4994
   24.720    0.6064
   24.735    0.6956
   24.750    0.7847
   24.765    0.7134
   24.780    0.6599
   24.795    0.5350
   24.810    0.5172
   24.825    0.6242
   24.840    0.5350
   24.855    0.5172
   24.870    0.6421
   24.885    0.6777
   24.900    0.5529
   24.915    0.4994
   24.930    0.6242
   24.945    0.5529
   24.960    0.5529
   24.975    0.6064
   24.990    0.6242
   25.005    0.5172
   25.020    0.5707
   25.035    0.6956
   25.050    0.6599
   25.065    0.4994
   25.080    0.5886
   25.095    0.4994
   25.110    0.6777
   25.125    0.6599
   25.140    0.6064
   25.155    0.5350
   25.170    0.5886
   25.185    0.4280
   25.200    0.5172
   25.215    0.4637
   25.230    0.5886
   25.245    0.7312
   25.260    0.6956
   25.275    0.6064
   25.290    0.5172
   25.305    0.4994
   25.320    0.7491
   25.335    0.6777
   25.350    0.5350
   25.365    0.5529
   25.380    0.6064
   25.395    0.6421
   25.410    0.7312
   25.425    0.6421
   25.440    0.6242
   25.455    0.5886
   25.470    0.5172
   25.485    0.6242
   25.500    0.6421
   25.515    0.4637
   25.530    0.5707
   25.545    0.4637
   25.560    0.5529
   25.575    0.6599
   25.590    0.6421
   25.605    0.7312
   25.620    0.6064
   25.635    0.5707
   25.650    0.4994
   25.665    0.5707
   25.680    0.6242
   25.695    0.6777
   25.710    0.6777
   25.725    0.8026
   25.740    0.4994
   25.755    0.5529
   25.770    0.5886
   25.785    0.5529
   25.800    0.5886
   25.815    0.6777
   25.830    0.6242
   25.845    0.7669
   25.860    0.7312
   25.875    0.5529
   25.890    0.6421
   25.905    0.6599
   25.920    0.5886
   25.935    0.4994
   25.950    0.6956
   25.965    0.6064
   25.980    0.6421
   25.995    0.5886
   26.010    0.6777
   26.025    0.4994
   26.040    0.4994
   26.055    0.5350
   26.070    0.7134
   26.085    0.6599
   26.100    0.6242
   26.115    0.6599
   26.130    0.6956
   26.145    0.6064
   26.160    0.5172
   26.175    0.5886
   26.190    0.6599
   26.205    0.7134
   26.220    0.7669
   26.235    0.6599
   26.250    0.4637
   26.265    0.5707
   26.280    0.5172
   26.295    0.7847
   26.310    0.6242
   26.325    0.6777
   26.340    0.6064
   26.355    0.6777
   26.370    0.5529
   26.385    0.5886
   26.400    0.4994
   26.415    0.4815
   26.430    0.5886
   26.445    0.6599
   26.460    0.6064
   26.475    0.4994
   26.490    0.8204
   26.505    0.5350
   26.520    0.5529
   26.535    0.4815
   26.550    0.6242
   26.565    0.5707
   26.580    0.5529
   26.595    0.6064
   26.610    0.4994
   26.625    0.6956
   26.640    0.6242
   26.655    0.6421
   26.670    0.6956
   26.685    0.6242
   26.700    0.6777
   26.715    0.4994
   26.730    0.6242
   26.745    0.5172
   26.760    0.5172
   26.775    0.5350
   26.790    0.5707
   26.805    0.5172
   26.820    0.6064
   26.835    0.5886
   26.850    0.6956
   26.865    0.6599
   26.880    0.5707
   26.895    0.5886
   26.910    0.4637
   26.925    0.4994
   26.940    0.5172
   26.955    0.5707
   26.970    0.5529
   26.985    0.6599
   27.000    0.5350
   27.015    0.5707
   27.030    0.5529
   27.045    0.5350
   27.060    0.5350
   27.075    0.6421
   27.090    0.7134
   27.105    0.4815
   27.120    0.4102
   27.135    0.5350
   27.150    0.6421
   27.165    0.6064
   27.180    0.4994
   27.195    0.6242
   27.210    0.5529
   27.225    0.6242
   27.240    0.6242
   27.255    0.6064
   27.270    0.6242
   27.285    0.4815
   27.300    0.5886
   27.315    0.3924
   27.330    0.4815
   27.345    0.5529
   27.360    0.4815
   27.375    0.5707
   27.390    0.7312
   27.405    0.5172
   27.420    0.4994
   27.435    0.5886
   27.450    0.5707
   27.465    0.5529
   27.480    0.6064
   27.495    0.5886
   27.510    0.6777
   27.525    0.6064
   27.540    0.5529
   27.555    0.5529
   27.570    0.5350
   27.585    0.4459
   27.600    0.4280
   27.615    0.5529
   27.630    0.4280
   27.645    0.4994
   27.660    0.6777
   27.675    0.6599
   27.690    0.5886
   27.705    0.5350
   27.720    0.4994
   27.735    0.3567
   27.750    0.5172
   27.765    0.4280
   27.780    0.5529
   27.795    0.6064
   27.810    0.3924
   27.825    0.4459
   27.840    0.7669
   27.855    0.6599
   27.870    0.5707
   27.885    0.5350
   27.900    0.5886
   27.915    0.6064
   27.930    0.6064
   27.945    0.6064
   27.960    0.3924
   27.975    0.4994
   27.990    0.4994
   28.005    0.5886
   28.020    0.5172
   28.035    0.5886
   28.050    0.5707
   28.065    0.6421
   28.080    0.5707
   28.095    0.5529
   28.110    0.4815
   28.125    0.6064
   28.140    0.5172
   28.155    0.4994
   28.170    0.5172
   28.185    0.5172
   28.200    0.4459
   28.215    0.6242
   28.230    0.4637
   28.245    0.4637
   28.260    0.6599
   28.275    0.5350
   28.290    0.6599
   28.305    0.5350
   28.320    0.4815
   28.335    0.4994
   28.350    0.5886
   28.365    0.5529
   28.380    0.4637
   28.395    0.6064
   28.410    0.6599
   28.425    0.6242
   28.440    0.4459
   28.455    0.5707
   28.470    0.5529
   28.485    0.5886
   28.500    0.5707
   28.515    0.4994
   28.530    0.4815
   28.545    0.6777
   28.560    0.4994
   28.575    0.6064
   28.590    0.5172
   28.605    0.6242
   28.620    0.5172
   28.635    0.5886
   28.650    0.4459
   28.665    0.5172
   28.680    0.5350
   28.695    0.6064
   28.710    0.5529
   28.725    0.5529
   28.740    0.5886
   28.755    0.3210
   28.770    0.4815
   28.785    0.4994
   28.800    0.6064
   28.815    0.3567
   28.830    0.3210
   28.845    0.4102
   28.860    0.5529
   28.875    0.3745
   28.890    0.4815
   28.905    0.3924
   28.920    0.4815
   28.935    0.5886
   28.950    0.4815
   28.965    0.4815
   28.980    0.4815
   28.995    0.6421
   29.010    0.5886
   29.025    0.4994
   29.040    0.5350
   29.055    0.6064
   29.070    0.5172
   29.085    0.5350
   29.100    0.5172
   29.115    0.5172
   29.130    0.3924
   29.145    0.3924
   29.160    0.4637
   29.175    0.5707
   29.190    0.6242
   29.205    0.6064
   29.220    0.3924
   29.235    0.4994
   29.250    0.4459
   29.265    0.4102
   29.280    0.4637
   29.295    0.6421
   29.310    0.5350
   29.325    0.4459
   29.340    0.5707
   29.355    0.3567
   29.370    0.4637
   29.385    0.4102
   29.400    0.4815
   29.415    0.6064
   29.430    0.5172
   29.445    0.4280
   29.460    0.4994
   29.475    0.4994
   29.490    0.4637
   29.505    0.6064
   29.520    0.4637
   29.535    0.3745
   29.550    0.4815
   29.565    0.5350
   29.580    0.4459
   29.595    0.4102
   29.610    0.4637
   29.625    0.4637
   29.640    0.4637
   29.655    0.4637
   29.670    0.3924
   29.685    0.4459
   29.700    0.5529
   29.715    0.4994
   29.730    0.5350
   29.745    0.3745
   29.760    0.4459
   29.775    0.4102
   29.790    0.4459
   29.805    0.5886
   29.820    0.6599
   29.835    0.5350
   29.850    0.4637
   29.865    0.4815
   29.880    0.4994
   29.895    0.5707
   29.910    0.4102
   29.925    0.4994
   29.940    0.4637
   29.955    0.5172
   29.970    0.6242
   29.985    0.4459
   30.000    0.6064
   30.015    0.4459
   30.030    0.3032
   30.045    0.4637
   30.060    0.6064
   30.075    0.4637
   30.090    0.4815
   30.105    0.3567
   30.120    0.6421
   30.135    0.5707
   30.150    0.4459
   30.165    0.3924
   30.180    0.4637
   30.195    0.5707
   30.210    0.4815
   30.225    0.4280
   30.240    0.4102
   30.255    0.3745
   30.270    0.4637
   30.285    0.5350
   30.300    0.5172
   30.315    0.4637
   30.330    0.4994
   30.345    0.4280
   30.360    0.4102
   30.375    0.5529
   30.390    0.4102
   30.405    0.3567
   30.420    0.4102
   30.435    0.3567
   30.450    0.4280
   30.465    0.4280
   30.480    0.4637
   30.495    0.3745
   30.510    0.5886
   30.525    0.4815
   30.540    0.4637
   30.555    0.5886
   30.570    0.5350
   30.585    0.4459
   30.600    0.4815
   30.615    0.3745
   30.630    0.3567
   30.645    0.4280
   30.660    0.3745
   30.675    0.5886
   30.690    0.4815
   30.705    0.5529
   30.720    0.4994
   30.735    0.3567
   30.750    0.4637
   30.765    0.4280
   30.780    0.3745
   30.795    0.3745
   30.810    0.4280
   30.825    0.4459
   30.840    0.3924
   30.855    0.4637
   30.870    0.4102
   30.885    0.5172
   30.900    0.4102
   30.915    0.5529
   30.930    0.4994
   30.945    0.4815
   30.960    0.5886
   30.975    0.5886
   30.990    0.4280
   31.005    0.4994
   31.020    0.4280
   31.035    0.5172
   31.050    0.6777
   31.065    0.4815
   31.080    0.3924
   31.095    0.4280
   31.110    0.4280
   31.125    0.4637
   31.140    0.4102
   31.155    0.3210
   31.170    0.3745
   31.185    0.4280
   31.200    0.5886
   31.215    0.5886
   31.230    0.4102
   31.245    0.4280
   31.260    0.3389
   31.275    0.3032
   31.290    0.3567
   31.305    0.4459
   31.320    0.3924
   31.335    0.4637
   31.350    0.4637
   31.365    0.4102
   31.380    0.4459
   31.395    0.4637
   31.410    0.5172
   31.425    0.4637
   31.440    0.4637
   31.455    0.6064
   31.470    0.5707
   31.485    0.4637
   31.500    0.4280
   31.515    0.4102
   31.530    0.5350
   31.545    0.4815
   31.560    0.5172
   31.575    0.4637
   31.590    0.4459
   31.605    0.4815
   31.620    0.4459
   31.635    0.4815
   31.650    0.3924
   31.665    0.4815
   31.680    0.3210
   31.695    0.5172
   31.710    0.3745
   31.725    0.4280
   31.740    0.4994
   31.755    0.6421
   31.770    0.3032
   31.785    0.2675
   31.800    0.3924
   31.815    0.4637
   31.830    0.3567
   31.845    0.3745
   31.860    0.3389
   31.875    0.4280
   31.890    0.4637
   31.905    0.5172
   31.920    0.3210
   31.935    0.3032
   31.950    0.4459
   31.965    0.4102
   31.980    0.3567
   31.995    0.4637
   32.010    0.4102
   32.025    0.4280
   32.040    0.5529
   32.055    0.4280
   32.070    0.3567
   32.085    0.3567
   32.100    0.3745
   32.115    0.4102
   32.130    0.3924
   32.145    0.4102
   32.160    0.3567
   32.175    0.3924
   32.190    0.4637
   32.205    0.4102
   32.220    0.3745
   32.235    0.5529
   32.250    0.5529
   32.265    0.4459
   32.280    0.4637
   32.295    0.3745
   32.310    0.4994
   32.325    0.4102
   32.340    0.3389
   32.355    0.4280
   32.370    0.3567
   32.385    0.3745
   32.400    0.2854
   32.415    0.2854
   32.430    0.4637
   32.445    0.4637
   32.460    0.5707
   32.475    0.4459
   32.490    0.5172
   32.505    0.4280
   32.520    0.3567
   32.535    0.3745
   32.550    0.3924
   32.565    0.4102
   32.580    0.4459
   32.595    0.2854
   32.610    0.4280
   32.625    0.3567
   32.640    0.3389
   32.655    0.3924
   32.670    0.3924
   32.685    0.4637
   32.700    0.3924
   32.715    0.3567
   32.730    0.3567
   32.745    0.3210
   32.760    0.4280
   32.775    0.4102
   32.790    0.3567
   32.805    0.2675
   32.820    0.3389
   32.835    0.3032
   32.850    0.3924
   32.865    0.3389
   32.880    0.3567
   32.895    0.3924
   32.910    0.6064
   32.925    0.3389
   32.940    0.3567
   32.955    0.4280
   32.970    0.3567
   32.985    0.3924
   33.000    0.4459
   33.015    0.3924
   33.030    0.4459
   33.045    0.3924
   33.060    0.3745
   33.075    0.3567
   33.090    0.3924
   33.105    0.3745
   33.120    0.3924
   33.135    0.3210
   33.150    0.2854
   33.165    0.3389
   33.180    0.2854
   33.195    0.3389
   33.210    0.3924
   33.225    0.3745
   33.240    0.4815
   33.255    0.3210
   33.270    0.5172
   33.285    0.3924
   33.300    0.2854
   33.315    0.3924
   33.330    0.4459
   33.345    0.4102
   33.360    0.3745
   33.375    0.3924
   33.390    0.4280
   33.405    0.3745
   33.420    0.3567
   33.435    0.3389
   33.450    0.3389
   33.465    0.3745
   33.480    0.3210
   33.495    0.3567
   33.510    0.3389
   33.525    0.3567
   33.540    0.3924
   33.555    0.4637
   33.570    0.2854
   33.585    0.3389
   33.600    0.4102
   33.615    0.3745
   33.630    0.4459
   33.645    0.4280
   33.660    0.3924
   33.675    0.3389
   33.690    0.4815
   33.705    0.5172
   33.720    0.3567
   33.735    0.5172
   33.750    0.3389
   33.765    0.3567
   33.780    0.4280
   33.795    0.5172
   33.810    0.4280
   33.825    0.2675
   33.840    0.3924
   33.855    0.2854
   33.870    0.3032
   33.885    0.5707
   33.900    0.3745
   33.915    0.3210
   33.930    0.5529
   33.945    0.5886
   33.960    0.4994
   33.975    0.3924
   33.990    0.2854
   34.005    0.2675
   34.020    0.2319
   34.035    0.3389
   34.050    0.3745
   34.065    0.4459
   34.080    0.3389
   34.095    0.3210
   34.110    0.4815
   34.125    0.4815
   34.140    0.3745
   34.155    0.4280
   34.170    0.4280
   34.185    0.3745
   34.200    0.4459
   34.215    0.3389
   34.230    0.4459
   34.245    0.3924
   34.260    0.4102
   34.275    0.3924
   34.290    0.3389
   34.305    0.4102
   34.320    0.5529
   34.335    0.3210
   34.350    0.3745
   34.365    0.3389
   34.380    0.2319
   34.395    0.3032
   34.410    0.4102
   34.425    0.3032
   34.440    0.3032
   34.455    0.3389
   34.470    0.3032
   34.485    0.3567
   34.500    0.3567
   34.515    0.3745
   34.530    0.3567
   34.545    0.3567
   34.560    0.4102
   34.575    0.3567
   34.590    0.4102
   34.605    0.3210
   34.620    0.4815
   34.635    0.3924
   34.650    0.3389
   34.665    0.3745
   34.680    0.3210
   34.695    0.3210
   34.710    0.4102
   34.725    0.3745
   34.740    0.2854
   34.755    0.4459
   34.770    0.3745
   34.785    0.3389
   34.800    0.3389
   34.815    0.3210
   34.830    0.3032
   34.845    0.4102
   34.860    0.3389
   34.875    0.3389
   34.890    0.2675
   34.905    0.2675
   34.920    0.3567
   34.935    0.3032
   34.950    0.4102
   34.965    0.3745
   34.980    0.3567
   34.995    0.3389
   35.010    0.3745
   35.025    0.3210
   35.040    0.4280
   35.055    0.3745
   35.070    0.3745
   35.085    0.3924
   35.100    0.2675
   35.115    0.2675
   35.130    0.2854
   35.145    0.3032
   35.160    0.3210
   35.175    0.3924
   35.190    0.3745
   35.205    0.3389
   35.220    0.2497
   35.235    0.2319
   35.250    0.3389
   35.265    0.3567
   35.280    0.3745
   35.295    0.3389
   35.310    0.2854
   35.325    0.2497
   35.340    0.3032
   35.355    0.2140
   35.370    0.3210
   35.385    0.1962
   35.400    0.2319
   35.415    0.2675
   35.430    0.2497
   35.445    0.3210
   35.460    0.4102
   35.475    0.3745
   35.490    0.3567
   35.505    0.3745
   35.520    0.3389
   35.535    0.2675
   35.550    0.3210
   35.565    0.3032
   35.580    0.3389
   35.595    0.2497
   35.610    0.2854
   35.625    0.2140
   35.640    0.2497
   35.655    0.2497
   35.670    0.1605
   35.685    0.3210
   35.700    0.3032
   35.715    0.3210
   35.730    0.4280
   35.745    0.2675
   35.760    0.3032
   35.775    0.2675
   35.790    0.2675
   35.805    0.2854
   35.820    0.4637
   35.835    0.3924
   35.850    0.3210
   35.865    0.2497
   35.880    0.4102
   35.895    0.2675
   35.910    0.3567
   35.925    0.3745
   35.940    0.3389
   35.955    0.3210
   35.970    0.3567
   35.985    0.4994
   36.000    0.4459
   36.015    0.2140
   36.030    0.2854
   36.045    0.3032
   36.060    0.2675
   36.075    0.3210
   36.090    0.3567
   36.105    0.2675
   36.120    0.3210
   36.135    0.2854
   36.150    0.4102
   36.165    0.3745
   36.180    0.3210
   36.195    0.2497
   36.210    0.3567
   36.225    0.3032
   36.240    0.2497
   36.255    0.3032
   36.270    0.2675
   36.285    0.2675
   36.300    0.2319
   36.315    0.3567
   36.330    0.4102
   36.345    0.3389
   36.360    0.2497
   36.375    0.3389
   36.390    0.2854
   36.405    0.1962
   36.420    0.2140
   36.435    0.3210
   36.450    0.3032
   36.465    0.3032
   36.480    0.3210
   36.495    0.3389
   36.510    0.2854
   36.525    0.2854
   36.540    0.3745
   36.555    0.2497
   36.570    0.3389
   36.585    0.3567
   36.600    0.2497
   36.615    0.2497
   36.630    0.2319
   36.645    0.3389
   36.660    0.3032
   36.675    0.2497
   36.690    0.2497
   36.705    0.3210
   36.720    0.2319
   36.735    0.2675
   36.750    0.1962
   36.765    0.2319
   36.780    0.2675
   36.795    0.3032
   36.810    0.3210
   36.825    0.3032
   36.840    0.2140
   36.855    0.3032
   36.870    0.2319
   36.885    0.2140
   36.900    0.3567
   36.915    0.2854
   36.930    0.2319
   36.945    0.2854
   36.960    0.2497
   36.975    0.4280
   36.990    0.2854
   37.005    0.2675
   37.020    0.2675
   37.035    0.1427
   37.050    0.2319
   37.065    0.2675
   37.080    0.2854
   37.095    0.3032
   37.110    0.2854
   37.125    0.2675
   37.140    0.3210
   37.155    0.2854
   37.170    0.2319
   37.185    0.3210
   37.200    0.3389
   37.215    0.2319
   37.230    0.2854
   37.245    0.2675
   37.260    0.3032
   37.275    0.2497
   37.290    0.2854
   37.305    0.2319
   37.320    0.2140
   37.335    0.2854
   37.350    0.2497
   37.365    0.3210
   37.380    0.2675
   37.395    0.2140
   37.410    0.2497
   37.425    0.2497
   37.440    0.2497
   37.455    0.1605
   37.470    0.2854
   37.485    0.2140
   37.500    0.3567
   37.515    0.3032
   37.530    0.3032
   37.545    0.3389
   37.560    0.2675
   37.575    0.3389
   37.590    0.4280
   37.605    0.2497
   37.620    0.3924
   37.635    0.3032
   37.650    0.1962
   37.665    0.1962
   37.680    0.2319
   37.695    0.2854
   37.710    0.2140
   37.725    0.3389
   37.740    0.2675
   37.755    0.2497
   37.770    0.3389
   37.785    0.2854
   37.800    0.2854
   37.815    0.1783
   37.830    0.2319
   37.845    0.2140
   37.860    0.1783
   37.875    0.2140
   37.890    0.2854
   37.905    0.3032
   37.920    0.2675
   37.935    0.2319
   37.950    0.2497
   37.965    0.2854
   37.980    0.2140
   37.995    0.2675
   38.010    0.2497
   38.025    0.3210
   38.040    0.4102
   38.055    0.3924
   38.070    0.1962
   38.085    0.1605
   38.100    0.1962
   38.115    0.1427
   38.130    0.2675
   38.145    0.1962
   38.160    0.2140
   38.175    0.2140
   38.190    0.3745
   38.205    0.2319
   38.220    0.2675
   38.235    0.2140
   38.250    0.3210
   38.265    0.2319
   38.280    0.3032
   38.295    0.2319
   38.310    0.2140
   38.325    0.2140
   38.340    0.2319
   38.355    0.2497
   38.370    0.2140
   38.385    0.2675
   38.400    0.1962
   38.415    0.2675
   38.430    0.3210
   38.445    0.2675
   38.460    0.2675
   38.475    0.2319
   38.490    0.1605
   38.505    0.2854
   38.520    0.2140
   38.535    0.3210
   38.550    0.2497
   38.565    0.2675
   38.580    0.2319
   38.595    0.2854
   38.610    0.2675
   38.625    0.1783
   38.640    0.3567
   38.655    0.2675
   38.670    0.2497
   38.685    0.2319
   38.700    0.2140
   38.715    0.2854
   38.730    0.2319
   38.745    0.2140
   38.760    0.4459
   38.775    0.2497
   38.790    0.2854
   38.805    0.2497
   38.820    0.2497
   38.835    0.3567
   38.850    0.3210
   38.865    0.3032
   38.880    0.2675
   38.895    0.2497
   38.910    0.1962
   38.925    0.2140
   38.940    0.1962
   38.955    0.1962
   38.970    0.2854
   38.985    0.1962
   39.000    0.2319
   39.015    0.1962
   39.030    0.1962
   39.045    0.1605
   39.060    0.1962
   39.075    0.2675
   39.090    0.3389
   39.105    0.2854
   39.120    0.2854
   39.135    0.3745
   39.150    0.2854
   39.165    0.3389
   39.180    0.1962
   39.195    0.2497
   39.210    0.2140
   39.225    0.2319
   39.240    0.3032
   39.255    0.1962
   39.270    0.3032
   39.285    0.1962
   39.300    0.2319
   39.315    0.2319
   39.330    0.2854
   39.345    0.2675
   39.360    0.3210
   39.375    0.2675
   39.390    0.1783
   39.405    0.2319
   39.420    0.2319
   39.435    0.3032
   39.450    0.3032
   39.465    0.1962
   39.480    0.2497
   39.495    0.2854
   39.510    0.2854
   39.525    0.1605
   39.540    0.2675
   39.555    0.2319
   39.570    0.1427
   39.585    0.2140
   39.600    0.2497
   39.615    0.1605
   39.630    0.1783
   39.645    0.2675
   39.660    0.2319
   39.675    0.2854
   39.690    0.2140
   39.705    0.1962
   39.720    0.2497
   39.735    0.2319
   39.750    0.2319
   39.765    0.2319
   39.780    0.2675
   39.795    0.1962
   39.810    0.2497
   39.825    0.1605
   39.840    0.2497
   39.855    0.2140
   39.870    0.1783
   39.885    0.2140
   39.900    0.2497
   39.915    0.2675
   39.930    0.1783
   39.945    0.2497
   39.960    0.2854
   39.975    0.2140
   39.990    0.2675
   40.005    0.2675
   40.020    0.2675
   40.035    0.3210
   40.050    0.3210
   40.065    0.2675
   40.080    0.2319
   40.095    0.1783
   40.110    0.1605
   40.125    0.1783
   40.140    0.2497
   40.155    0.2319
   40.170    0.1605
   40.185    0.1427
   40.200    0.1070
   40.215    0.1962
   40.230    0.1783
   40.245    0.1962
   40.260    0.2140
   40.275    0.1248
   40.290    0.1962
   40.305    0.2675
   40.320    0.2675
   40.335    0.2497
   40.350    0.2854
   40.365    0.2854
   40.380    0.2497
   40.395    0.3032
   40.410    0.3210
   40.425    0.2497
   40.440    0.3210
   40.455    0.1962
   40.470    0.2319
   40.485    0.2497
   40.500    0.2140
   40.515    0.1962
   40.530    0.1783
   40.545    0.1962
   40.560    0.1962
   40.575    0.2675
   40.590    0.2140
   40.605    0.2140
   40.620    0.2497
   40.635    0.1962
   40.650    0.2497
   40.665    0.2854
   40.680    0.1605
   40.695    0.1962
   40.710    0.1783
   40.725    0.2140
   40.740    0.2497
   40.755    0.1605
   40.770    0.2140
   40.785    0.1962
   40.800    0.2319
   40.815    0.2675
   40.830    0.3389
   40.845    0.2854
   40.860    0.2675
   40.875    0.2497
   40.890    0.1783
   40.905    0.1248
   40.920    0.2854
   40.935    0.1783
   40.950    0.2140
   40.965    0.2140
   40.980    0.2675
   40.995    0.2675
   41.010    0.2319
   41.025    0.3210
   41.040    0.2319
   41.055    0.1427
   41.070    0.1248
   41.085    0.1783
   41.100    0.3032
   41.115    0.1783
   41.130    0.2140
   41.145    0.1783
   41.160    0.1427
   41.175    0.2675
   41.190    0.2140
   41.205    0.1962
   41.220    0.1427
   41.235    0.2319
   41.250    0.2319
   41.265    0.2497
   41.280    0.1427
   41.295    0.3032
   41.310    0.2319
   41.325    0.1248
   41.340    0.1605
   41.355    0.1962
   41.370    0.2497
   41.385    0.2319
   41.400    0.1783
   41.415    0.2140
   41.430    0.1962
   41.445    0.2675
   41.460    0.1783
   41.475    0.2140
   41.490    0.2675
   41.505    0.1070
   41.520    0.1783
   41.535    0.2497
   41.550    0.3210
   41.565    0.2140
   41.580    0.1783
   41.595    0.2140
   41.610    0.2675
   41.625    0.2854
   41.640    0.1783
   41.655    0.1070
   41.670    0.2497
   41.685    0.3567
   41.700    0.1427
   41.715    0.1962
   41.730    0.1962
   41.745    0.1605
   41.760    0.1962
   41.775    0.1962
   41.790    0.2140
   41.805    0.2675
   41.820    0.1783
   41.835    0.2140
   41.850    0.2140
   41.865    0.2854
   41.880    0.2497
   41.895    0.1962
   41.910    0.2319
   41.925    0.3389
   41.940    0.3389
   41.955    0.2319
   41.970    0.1962
   41.985    0.3032
   42.000    0.2854
   42.015    0.1962
   42.030    0.1783
   42.045    0.2675
   42.060    0.3032
   42.075    0.1962
   42.090    0.1962
   42.105    0.2319
   42.120    0.2497
   42.135    0.2497
   42.150    0.2497
   42.165    0.3210
   42.180    0.1783
   42.195    0.2140
   42.210    0.1783
   42.225    0.1248
   42.240    0.1605
   42.255    0.2140
   42.270    0.2497
   42.285    0.1427
   42.300    0.2675
   42.315    0.2675
   42.330    0.1783
   42.345    0.1962
   42.360    0.1962
   42.375    0.2140
   42.390    0.2319
   42.405    0.2319
   42.420    0.3032
   42.435    0.1427
   42.450    0.1962
   42.465    0.2140
   42.480    0.2675
   42.495    0.1427
   42.510    0.1783
   42.525    0.1605
   42.540    0.2140
   42.555    0.2319
   42.570    0.2319
   42.585    0.3032
   42.600    0.2319
   42.615    0.1962
   42.630    0.3032
   42.645    0.3389
   42.660    0.2140
   42.675    0.2497
   42.690    0.2140
   42.705    0.2319
   42.720    0.2497
   42.735    0.2854
   42.750    0.2675
   42.765    0.1962
   42.780    0.2497
   42.795    0.1427
   42.810    0.1427
   42.825    0.2319
   42.840    0.1070
   42.855    0.2140
   42.870    0.3567
   42.885    0.3032
   42.900    0.1783
   42.915    0.2497
   42.930    0.2140
   42.945    0.2854
   42.960    0.3389
   42.975    0.2675
   42.990    0.1783
   43.005    0.1783
   43.020    0.1605
   43.035    0.2319
   43.050    0.1783
   43.065    0.3210
   43.080    0.1783
   43.095    0.2854
   43.110    0.2319
   43.125    0.1962
   43.140    0.2140
   43.155    0.2319
   43.170    0.1248
   43.185    0.2497
   43.200    0.2140
   43.215    0.1962
   43.230    0.1962
   43.245    0.1783
   43.260    0.1605
   43.275    0.1783
   43.290    0.2497
   43.305    0.1605
   43.320    0.1962
   43.335    0.1962
   43.350    0.2854
   43.365    0.2497
   43.380    0.2497
   43.395    0.1962
   43.410    0.1605
   43.425    0.2497
   43.440    0.1427
   43.455    0.2319
   43.470    0.1248
   43.485    0.2319
   43.500    0.1427
   43.515    0.1962
   43.530    0.1605
   43.545    0.1962
   43.560    0.2675
   43.575    0.1962
   43.590    0.2140
   43.605    0.1783
   43.620    0.1605
   43.635    0.2140
   43.650    0.1962
   43.665    0.1248
   43.680    0.1427
   43.695    0.2140
   43.710    0.2675
   43.725    0.2497
   43.740    0.1962
   43.755    0.1962
   43.770    0.2497
   43.785    0.2140
   43.800    0.2319
   43.815    0.1070
   43.830    0.1427
   43.845    0.1962
   43.860    0.2675
   43.875    0.3032
   43.890    0.2675
   43.905    0.1605
   43.920    0.2140
   43.935    0.2140
   43.950    0.2140
   43.965    0.1962
   43.980    0.2140
   43.995    0.1962
   44.010    0.1962
   44.025    0.1605
   44.040    0.2140
   44.055    0.2497
   44.070    0.1783
   44.085    0.1248
   44.100    0.2140
   44.115    0.2497
   44.130    0.3389
   44.145    0.1783
   44.160    0.1248
   44.175    0.1783
   44.190    0.2319
   44.205    0.2497
   44.220    0.2675
   44.235    0.1248
   44.250    0.2140
   44.265    0.2140
   44.280    0.1783
   44.295    0.2497
   44.310    0.2319
   44.325    0.1427
   44.340    0.2319
   44.355    0.2319
   44.370    0.2319
   44.385    0.2140
   44.400    0.1427
   44.415    0.1070
   44.430    0.2140
   44.445    0.1783
   44.460    0.2140
   44.475    0.1605
   44.490    0.2140
   44.505    0.2675
   44.520    0.2854
   44.535    0.2319
   44.550    0.1605
   44.565    0.1427
   44.580    0.2319
   44.595    0.2140
   44.610    0.1783
   44.625    0.1962
   44.640    0.1605
   44.655    0.2319
   44.670    0.1605
   44.685    0.1783
   44.700    0.1783
   44.715    0.1783
   44.730    0.1427
   44.745    0.1427
   44.760    0.1783
   44.775    0.2497
   44.790    0.2140
   44.805    0.1783
   44.820    0.1427
   44.835    0.1427
   44.850    0.1248
   44.865    0.0713
   44.880    0.0892
   44.895    0.1427
   44.910    0.1962
   44.925    0.2675
   44.940    0.2140
   44.955    0.1605
   44.970    0.1605
   44.985    0.2319
   45.000    0.2497
   45.015    0.3210
   45.030    0.2497
   45.045    0.1605
   45.060    0.1962
   45.075    0.1783
   45.090    0.1605
   45.105    0.1962
   45.120    0.3745
   45.135    0.1605
   45.150    0.1248
   45.165    0.1605
   45.180    0.2319
   45.195    0.2319
   45.210    0.1605
   45.225    0.1248
   45.240    0.2497
   45.255    0.1605
   45.270    0.1070
   45.285    0.2319
   45.300    0.1070
   45.315    0.2140
   45.330    0.2140
   45.345    0.1427
   45.360    0.1070
   45.375    0.2319
   45.390    0.2319
   45.405    0.2140
   45.420    0.1248
   45.435    0.1070
   45.450    0.2675
   45.465    0.1962
   45.480    0.2854
   45.495    0.2497
   45.510    0.2497
   45.525    0.2319
   45.540    0.2497
   45.555    0.1962
   45.570    0.1605
   45.585    0.1783
   45.600    0.1783
   45.615    0.1783
   45.630    0.1248
   45.645    0.1427
   45.660    0.1962
   45.675    0.2854
   45.690    0.2140
   45.705    0.1783
   45.720    0.1605
   45.735    0.1248
   45.750    0.1605
   45.765    0.1962
   45.780    0.1783
   45.795    0.1783
   45.810    0.1427
   45.825    0.1070
   45.840    0.1248
   45.855    0.1962
   45.870    0.1070
   45.885    0.1605
   45.900    0.2319
   45.915    0.1427
   45.930    0.1605
   45.945    0.0892
   45.960    0.1427
   45.975    0.2140
   45.990    0.1605
   46.005    0.1248
   46.020    0.2140
   46.035    0.0892
   46.050    0.1605
   46.065    0.1962
   46.080    0.2140
   46.095    0.2319
   46.110    0.2319
   46.125    0.2497
   46.140    0.2140
   46.155    0.3032
   46.170    0.1070
   46.185    0.1070
   46.200    0.2497
   46.215    0.1783
   46.230    0.1070
   46.245    0.1248
   46.260    0.1962
   46.275    0.1962
   46.290    0.2140
   46.305    0.1962
   46.320    0.1605
   46.335    0.1962
   46.350    0.1070
   46.365    0.1070
   46.380    0.1248
   46.395    0.1427
   46.410    0.1962
   46.425    0.1605
   46.440    0.0892
   46.455    0.1248
   46.470    0.1783
   46.485    0.1070
   46.500    0.1783
   46.515    0.1070
   46.530    0.1605
   46.545    0.2497
   46.560    0.1783
   46.575    0.2140
   46.590    0.1962
   46.605    0.2140
   46.620    0.1605
   46.635    0.1605
   46.650    0.2319
   46.665    0.1962
   46.680    0.1605
   46.695    0.1248
   46.710    0.2497
   46.725    0.2854
   46.740    0.2140
   46.755    0.1783
   46.770    0.1962
   46.785    0.1962
   46.800    0.2319
   46.815    0.1783
   46.830    0.1605
   46.845    0.1070
   46.860    0.1783
   46.875    0.1248
   46.890    0.1248
   46.905    0.1605
   46.920    0.2140
   46.935    0.1427
   46.950    0.2140
   46.965    0.1605
   46.980    0.1248
   46.995    0.1783
   47.010    0.2319
   47.025    0.1248
   47.040    0.2140
   47.055    0.1783
   47.070    0.1783
   47.085    0.1605
   47.100    0.1605
   47.115    0.2675
   47.130    0.1783
   47.145    0.1605
   47.160    0.1605
   47.175    0.1605
   47.190    0.2319
   47.205    0.1962
   47.220    0.1783
   47.235    0.1427
   47.250    0.1962
   47.265    0.2319
   47.280    0.1605
   47.295    0.1248
   47.310    0.1783
   47.325    0.1605
   47.340    0.1070
   47.355    0.1783
   47.370    0.1783
   47.385    0.1783
   47.400    0.1427
   47.415    0.1427
   47.430    0.1605
   47.445    0.1248
   47.460    0.1427
   47.475    0.0713
   47.490    0.1427
   47.505    0.1248
   47.520    0.1427
   47.535    0.1605
   47.550    0.2497
   47.565    0.1783
   47.580    0.1605
   47.595    0.1962
   47.610    0.1605
   47.625    0.1427
   47.640    0.1783
   47.655    0.2319
   47.670    0.2140
   47.685    0.2319
   47.700    0.1962
   47.715    0.1783
   47.730    0.1248
   47.745    0.1427
   47.760    0.1070
   47.775    0.1070
   47.790    0.1605
   47.805    0.1962
   47.820    0.1427
   47.835    0.0892
   47.850    0.1427
   47.865    0.2319
   47.880    0.2497
   47.895    0.1427
   47.910    0.1783
   47.925    0.1783
   47.940    0.1605
   47.955    0.1605
   47.970    0.1427
   47.985    0.1248
   48.000    0.0713
   48.015    0.2319
   48.030    0.2140
   48.045    0.2140
   48.060    0.1962
   48.075    0.1605
   48.090    0.1962
   48.105    0.2140
   48.120    0.2140
   48.135    0.1783
   48.150    0.1962
   48.165    0.2497
   48.180    0.2675
   48.195    0.0892
   48.210    0.0535
   48.225    0.1605
   48.240    0.1605
   48.255    0.1427
   48.270    0.1783
   48.285    0.1248
   48.300    0.1427
   48.315    0.0535
   48.330    0.1248
   48.345    0.1248
   48.360    0.1605
   48.375    0.1070
   48.390    0.1962
   48.405    0.2497
   48.420    0.0892
   48.435    0.1427
   48.450    0.1783
   48.465    0.1605
   48.480    0.1070
   48.495    0.1070
   48.510    0.2140
   48.525    0.2319
   48.540    0.2319
   48.555    0.0713
   48.570    0.1783
   48.585    0.1783
   48.600    0.1070
   48.615    0.1605
   48.630    0.2140
   48.645    0.1605
   48.660    0.2319
   48.675    0.1248
   48.690    0.1248
   48.705    0.1248
   48.720    0.1248
   48.735    0.1427
   48.750    0.1605
   48.765    0.1427
   48.780    0.1248
   48.795    0.1605
   48.810    0.2497
   48.825    0.1783
   48.840    0.0713
   48.855    0.1427
   48.870    0.1962
   48.885    0.1605
   48.900    0.1427
   48.915    0.1605
   48.930    0.1783
   48.945    0.1248
   48.960    0.1605
   48.975    0.1427
   48.990    0.1427
   49.005    0.0892
   49.020    0.0892
   49.035    0.2140
   49.050    0.1248
   49.065    0.2140
   49.080    0.0892
   49.095    0.1248
   49.110    0.1783
   49.125    0.1962
   49.140    0.1248
   49.155    0.1962
   49.170    0.1427
   49.185    0.2140
   49.200    0.1962
   49.215    0.1962
   49.230    0.1070
   49.245    0.1427
   49.260    0.2675
   49.275    0.1248
   49.290    0.1783
   49.305    0.1427
   49.320    0.1427
   49.335    0.1248
   49.350    0.1248
   49.365    0.0892
   49.380    0.1427
   49.395    0.1070
   49.410    0.1427
   49.425    0.2497
   49.440    0.2319
   49.455    0.1962
   49.470    0.2140
   49.485    0.1248
   49.500    0.1605
   49.515    0.1427
   49.530    0.1427
   49.545    0.1427
   49.560    0.0892
   49.575    0.1248
   49.590    0.1248
   49.605    0.1427
   49.620    0.0892
   49.635    0.1427
   49.650    0.1962
   49.665    0.0892
   49.680    0.2140
   49.695    0.1248
   49.710    0.1605
   49.725    0.1070
   49.740    0.1427
   49.755    0.2319
   49.770    0.1427
   49.785    0.1070
   49.800    0.1783
   49.815    0.2319
   49.830    0.1248
   49.845    0.1783
   49.860    0.1605
   49.875    0.1427
   49.890    0.1605
   49.905    0.1427
   49.920    0.1427
   49.935    0.1962
   49.950    0.2140
   49.965    0.1962
   49.980    0.1783
   49.995    0.2140
   50.010    0.1605
   50.025    0.1070
   50.040    0.1427
   50.055    0.1783
   50.070    0.1248
   50.085    0.0892
   50.100    0.0713
   50.115    0.1427
   50.130    0.1783
   50.145    0.1427
   50.160    0.1248
   50.175    0.1962
   50.190    0.1605
   50.205    0.1427
   50.220    0.1605
   50.235    0.1605
   50.250    0.1248
   50.265    0.1605
   50.280    0.1248
   50.295    0.1962
   50.310    0.1783
   50.325    0.1427
   50.340    0.1783
   50.355    0.1605
   50.370    0.1070
   50.385    0.1070
   50.400    0.0713
   50.415    0.1783
   50.430    0.1427
   50.445    0.1248
   50.460    0.1605
   50.475    0.2140
   50.490    0.1427
   50.505    0.1248
   50.520    0.1248
   50.535    0.2854
   50.550    0.1605
   50.565    0.1427
   50.580    0.1070
   50.595    0.1605
   50.610    0.1427
   50.625    0.2140
   50.640    0.1427
   50.655    0.1605
   50.670    0.1783
   50.685    0.1427
   50.700    0.2140
   50.715    0.2140
   50.730    0.1783
   50.745    0.2140
   50.760    0.1783
   50.775    0.2140
   50.790    0.1605
   50.805    0.1248
   50.820    0.1605
   50.835    0.1248
   50.850    0.1962
   50.865    0.1605
   50.880    0.1605
   50.895    0.1605
   50.910    0.1427
   50.925    0.1605
   50.940    0.1605
   50.955    0.2140
   50.970    0.1783
   50.985    0.1962
   51.000    0.1248
   51.015    0.1427
   51.030    0.1962
   51.045    0.1783
   51.060    0.2854
   51.075    0.1248
   51.090    0.1427
   51.105    0.1070
   51.120    0.1783
   51.135    0.1248
   51.150    0.1605
   51.165    0.1248
   51.180    0.1070
   51.195    0.1427
   51.210    0.2497
   51.225    0.1783
   51.240    0.1962
   51.255    0.0892
   51.270    0.1248
   51.285    0.1070
   51.300    0.1427
   51.315    0.1427
   51.330    0.0713
   51.345    0.1605
   51.360    0.1783
   51.375    0.1605
   51.390    0.2319
   51.405    0.1783
   51.420    0.1605
   51.435    0.3210
   51.450    0.2319
   51.465    0.1605
   51.480    0.1605
   51.495    0.1427
   51.510    0.1248
   51.525    0.1605
   51.540    0.1962
   51.555    0.1962
   51.570    0.1248
   51.585    0.1605
   51.600    0.2319
   51.615    0.0892
   51.630    0.0892
   51.645    0.1605
   51.660    0.1248
   51.675    0.1248
   51.690    0.1248
   51.705    0.1070
   51.720    0.1605
   51.735    0.1962
   51.750    0.1248
   51.765    0.1427
   51.780    0.2497
   51.795    0.1427
   51.810    0.1248
   51.825    0.1248
   51.840    0.0713
   51.855    0.1783
   51.870    0.1427
   51.885    0.1962
   51.900    0.1783
   51.915    0.2497
   51.930    0.2319
   51.945    0.1962
   51.960    0.1427
   51.975    0.1248
   51.990    0.1783
   52.005    0.1605
   52.020    0.1783
   52.035    0.1962
   52.050    0.2675
   52.065    0.2140
   52.080    0.1248
   52.095    0.1070
   52.110    0.1605
   52.125    0.2319
   52.140    0.1962
   52.155    0.1427
   52.170    0.1070
   52.185    0.1962
   52.200    0.1427
   52.215    0.2319
   52.230    0.1783
   52.245    0.1248
   52.260    0.1605
   52.275    0.2319
   52.290    0.2140
   52.305    0.1605
   52.320    0.1605
   52.335    0.2497
   52.350    0.1427
   52.365    0.1783
   52.380    0.1605
   52.395    0.1070
   52.410    0.1248
   52.425    0.1605
   52.440    0.2675
   52.455    0.1605
   52.470    0.2140
   52.485    0.1427
   52.500    0.1248
   52.515    0.1962
   52.530    0.1962
   52.545    0.1605
   52.560    0.1962
   52.575    0.2854
   52.590    0.1783
   52.605    0.1248
   52.620    0.0713
   52.635    0.1427
   52.650    0.1605
   52.665    0.0892
   52.680    0.0357
   52.695    0.1605
   52.710    0.1427
   52.725    0.1070
   52.740    0.1605
   52.755    0.1605
   52.770    0.1783
   52.785    0.1962
   52.800    0.1427
   52.815    0.1783
   52.830    0.1070
   52.845    0.0892
   52.860    0.1605
   52.875    0.1070
   52.890    0.1962
   52.905    0.1962
   52.920    0.1427
   52.935    0.1248
   52.950    0.1070
   52.965    0.1248
   52.980    0.1605
   52.995    0.1783
   53.010    0.1783
   53.025    0.1427
   53.040    0.2319
   53.055    0.1605
   53.070    0.0892
   53.085    0.1605
   53.100    0.1605
   53.115    0.1605
   53.130    0.1783
   53.145    0.0713
   53.160    0.0892
   53.175    0.1783
   53.190    0.1248
   53.205    0.1605
   53.220    0.2140
   53.235    0.1605
   53.250    0.1248
   53.265    0.1070
   53.280    0.1427
   53.295    0.1248
   53.310    0.1605
   53.325    0.1427
   53.340    0.1248
   53.355    0.2140
   53.370    0.1427
   53.385    0.0713
   53.400    0.1248
   53.415    0.1783
   53.430    0.2140
   53.445    0.1427
   53.460    0.1427
   53.475    0.1070
   53.490    0.1427
   53.505    0.0892
   53.520    0.0713
   53.535    0.1070
   53.550    0.1427
   53.565    0.0713
   53.580    0.1248
   53.595    0.1248
   53.610    0.1427
   53.625    0.1427
   53.640    0.1427
   53.655    0.0713
   53.670    0.1605
   53.685    0.1248
   53.700    0.1427
   53.715    0.1248
   53.730    0.1070
   53.745    0.1070
   53.760    0.1783
   53.775    0.1070
   53.790    0.0713
   53.805    0.1248
   53.820    0.0892
   53.835    0.0892
   53.850    0.1783
   53.865    0.1962
   53.880    0.1427
   53.895    0.1783
   53.910    0.1427
   53.925    0.1248
   53.940    0.1962
   53.955    0.1605
   53.970    0.1605
   53.985    0.0892
   54.000    0.2140
   54.015    0.2140
   54.030    0.1427
   54.045    0.1605
   54.060    0.1248
   54.075    0.1783
   54.090    0.1783
   54.105    0.1783
   54.120    0.1962
   54.135    0.1605
   54.150    0.1605
   54.165    0.1962
   54.180    0.2497
   54.195    0.1427
   54.210    0.1783
   54.225    0.1427
   54.240    0.1070
   54.255    0.0892
   54.270    0.1427
   54.285    0.1070
   54.300    0.1427
   54.315    0.1962
   54.330    0.1605
   54.345    0.1783
   54.360    0.0713
   54.375    0.1427
   54.390    0.1248
   54.405    0.1248
   54.420    0.1248
   54.435    0.1070
   54.450    0.0892
   54.465    0.1427
   54.480    0.1605
   54.495    0.0713
   54.510    0.1605
   54.525    0.1070
   54.540    0.0535
   54.555    0.0535
   54.570    0.1605
   54.585    0.1783
   54.600    0.1427
   54.615    0.1962
   54.630    0.1605
   54.645    0.0892
   54.660    0.1070
   54.675    0.1248
   54.690    0.1783
   54.705    0.1427
   54.720    0.1248
   54.735    0.1248
   54.750    0.0892
   54.765    0.0535
   54.780    0.1783
   54.795    0.1070
   54.810    0.1070
   54.825    0.1248
   54.840    0.1248
   54.855    0.1605
   54.870    0.1783
   54.885    0.1605
   54.900    0.1783
   54.915    0.2140
   54.930    0.1605
   54.945    0.1605
   54.960    0.1248
   54.975    0.1427
   54.990    0.0892
   55.005    0.1783
   55.020    0.1248
   55.035    0.1427
   55.050    0.1248
   55.065    0.1783
   55.080    0.0713
   55.095    0.1070
   55.110    0.0892
   55.125    0.0713
   55.140    0.1605
   55.155    0.1427
   55.170    0.1783
   55.185    0.1427
   55.200    0.0892
   55.215    0.0892
   55.230    0.0713
   55.245    0.1427
   55.260    0.1427
   55.275    0.1248
   55.290    0.1248
   55.305    0.0892
   55.320    0.1070
   55.335    0.1070
   55.350    0.1248
   55.365    0.1605
   55.380    0.0892
   55.395    0.0713
   55.410    0.1070
   55.425    0.1070
   55.440    0.1427
   55.455    0.1248
   55.470    0.1605
   55.485    0.0892
   55.500    0.1070
   55.515    0.1427
   55.530    0.1248
   55.545    0.1962
   55.560    0.1248
   55.575    0.1427
   55.590    0.0892
   55.605    0.1427
   55.620    0.1427
   55.635    0.1962
   55.650    0.2140
   55.665    0.1783
   55.680    0.0892
   55.695    0.0713
   55.710    0.1248
   55.725    0.0892
   55.740    0.0535
   55.755    0.1427
   55.770    0.1783
   55.785    0.1427
   55.800    0.1248
   55.815    0.0713
   55.830    0.1783
   55.845    0.1070
   55.860    0.1605
   55.875    0.1605
   55.890    0.1427
   55.905    0.1605
   55.920    0.1070
   55.935    0.2140
   55.950    0.1783
   55.965    0.1248
   55.980    0.0713
   55.995    0.1070
   56.010    0.1962
   56.025    0.1605
   56.040    0.1248
   56.055    0.1783
   56.070    0.1248
   56.085    0.1070
   56.100    0.0892
   56.115    0.1070
   56.130    0.1427
   56.145    0.0535
   56.160    0.1248
   56.175    0.0892
   56.190    0.1070
   56.205    0.1605
   56.220    0.0892
   56.235    0.1248
   56.250    0.1427
   56.265    0.0713
   56.280    0.0892
   56.295    0.1070
   56.310    0.1427
   56.325    0.1248
   56.340    0.0892
   56.355    0.1605
   56.370    0.0892
   56.385    0.1070
   56.400    0.1427
   56.415    0.1427
   56.430    0.0713
   56.445    0.0892
   56.460    0.1427
   56.475    0.1248
   56.490    0.1427
   56.505    0.1427
   56.520    0.1427
   56.535    0.0713
   56.550    0.1605
   56.565    0.1248
   56.580    0.0892
   56.595    0.1070
   56.610    0.1070
   56.625    0.1605
   56.640    0.1427
   56.655    0.1248
   56.670    0.1605
   56.685    0.1605
   56.700    0.1605
   56.715    0.1605
   56.730    0.1783
   56.745    0.2140
   56.760    0.1605
   56.775    0.0892
   56.790    0.1248
   56.805    0.0892
   56.820    0.1070
   56.835    0.1070
   56.850    0.0892
   56.865    0.0535
   56.880    0.0892
   56.895    0.0713
   56.910    0.1783
   56.925    0.0892
   56.940    0.0713
   56.955    0.0892
   56.970    0.1605
   56.985    0.1070
   57.000    0.1248
   57.015    0.0892
   57.030    0.1605
   57.045    0.1783
   57.060    0.1427
   57.075    0.0713
   57.090    0.1070
   57.105    0.0892
   57.120    0.1248
   57.135    0.0892
   57.150    0.0535
   57.165    0.0713
   57.180    0.0892
   57.195    0.1070
   57.210    0.0892
   57.225    0.0892
   57.240    0.1605
   57.255    0.1605
   57.270    0.1070
   57.285    0.1427
   57.300    0.0713
   57.315    0.1248
   57.330    0.0892
   57.345    0.1605
   57.360    0.1605
   57.375    0.1248
   57.390    0.1070
   57.405    0.0892
   57.420    0.0892
   57.435    0.0535
   57.450    0.0892
   57.465    0.0892
   57.480    0.1427
   57.495    0.1427
   57.510    0.1070
   57.525    0.1070
   57.540    0.1427
   57.555    0.1427
   57.570    0.1427
   57.585    0.1248
   57.600    0.1070
   57.615    0.1070
   57.630    0.1070
   57.645    0.0713
   57.660    0.0892
   57.675    0.1248
   57.690    0.1605
   57.705    0.1248
   57.720    0.1070
   57.735    0.0713
   57.750    0.0892
   57.765    0.1605
   57.780    0.0535
   57.795    0.0713
   57.810    0.1248
   57.825    0.1783
   57.840    0.1248
   57.855    0.0892
   57.870    0.1427
   57.885    0.1605
   57.900    0.0892
   57.915    0.1427
   57.930    0.0535
   57.945    0.0713
   57.960    0.1248
   57.975    0.1248
   57.990    0.1248
   58.005    0.1427
   58.020    0.1070
   58.035    0.0535
   58.050    0.1427
   58.065    0.1070
   58.080    0.1070
   58.095    0.1070
   58.110    0.1605
   58.125    0.1783
   58.140    0.0535
   58.155    0.1248
   58.170    0.1605
   58.185    0.0892
   58.200    0.0892
   58.215    0.1248
   58.230    0.1427
   58.245    0.1248
   58.260    0.0892
   58.275    0.1070
   58.290    0.1070
   58.305    0.1427
   58.320    0.1248
   58.335    0.1248
   58.350    0.1248
   58.365    0.1427
   58.380    0.0713
   58.395    0.0892
   58.410    0.0892
   58.425    0.1783
   58.440    0.1427
   58.455    0.1248
   58.470    0.0535
   58.485    0.1070
   58.500    0.1070
   58.515    0.1605
   58.530    0.0713
   58.545    0.0892
   58.560    0.1248
   58.575    0.1248
   58.590    0.1070
   58.605    0.0892
   58.620    0.0178
   58.635    0.1070
   58.650    0.0892
   58.665    0.0713
   58.680    0.0713
   58.695    0.0713
   58.710    0.0713
   58.725    0.1427
   58.740    0.1070
   58.755    0.0713
   58.770    0.0892
   58.785    0.1605
   58.800    0.0713
   58.815    0.1427
   58.830    0.0713
   58.845    0.0357
   58.860    0.1962
   58.875    0.1962
   58.890    0.1070
   58.905    0.0535
   58.920    0.0892
   58.935    0.1248
   58.950    0.0535
   58.965    0.0892
   58.980    0.0892
   58.995    0.0892
   59.010    0.1070
   59.025    0.1605
   59.040    0.1070
   59.055    0.1248
   59.070    0.0892
   59.085    0.1248
   59.100    0.0713
   59.115    0.1427
   59.130    0.1070
   59.145    0.1427
   59.160    0.0713
   59.175    0.0535
   59.190    0.0713
   59.205    0.1962
   59.220    0.1783
   59.235    0.1427
   59.250    0.1070
   59.265    0.1427
   59.280    0.1248
   59.295    0.1070
   59.310    0.0713
   59.325    0.0892
   59.340    0.1070
   59.355    0.0713
   59.370    0.0713
   59.385    0.1070
   59.400    0.0713
   59.415    0.0713
   59.430    0.1248
   59.445    0.0535
   59.460    0.0535
   59.475    0.1070
   59.490    0.0535
   59.505    0.0535
   59.520    0.1070
   59.535    0.1962
   59.550    0.1248
   59.565    0.0892
   59.580    0.0892
   59.595    0.1070
   59.610    0.1427
   59.625    0.1070
   59.640    0.0892
   59.655    0.0713
   59.670    0.0713
   59.685    0.1070
   59.700    0.0892
   59.715    0.0713
   59.730    0.1248
   59.745    0.0892
   59.760    0.0892
   59.775    0.0892
   59.790    0.1427
   59.805    0.1427
   59.820    0.1427
   59.835    0.1783
   59.850    0.0713
   59.865    0.0892
   59.880    0.1070
   59.895    0.0892
   59.910    0.1070
   59.925    0.0713
   59.940    0.1070
   59.955    0.0713
   59.970    0.0892
   59.985    0.1427
