    1.500   21.7483
    1.515   21.8536
    1.530   21.6535
    1.545   21.0216
    1.560   20.1369
    1.575   19.8420
    1.590   18.9258
    1.605   18.6309
    1.620   18.0516
    1.635   17.6093
    1.650   17.0195
    1.665   16.3770
    1.680   15.9768
    1.695   15.8820
    1.710   15.3133
    1.725   15.1132
    1.740   14.9236
    1.755   14.5656
    1.770   14.7867
    1.785   14.0390
    1.800   13.7230
    1.815   13.5124
    1.830   12.9226
    1.845   13.2596
    1.860   12.5961
    1.875   12.2591
    1.890   12.1011
    1.905   12.1854
    1.920   11.6272
    1.935   11.2691
    1.950   11.3428
    1.965   10.8689
    1.980   10.9426
    1.995   10.8162
    2.010   10.8899
    2.025   10.3633
    2.040   10.3423
    2.055   10.3739
    2.070    9.6156
    2.085    8.9310
    2.100    9.0153
    2.115    9.0995
    2.130    8.7625
    2.145    9.1627
    2.160    8.5940
    2.175    8.6993
    2.190    9.0574
    2.205    8.0990
    2.220    8.2780
    2.235    8.4887
    2.250    8.4781
    2.265    8.0569
    2.280    7.7620
    2.295    7.8568
    2.310    7.7093
    2.325    7.7936
    2.340    6.9826
    2.355    7.3407
    2.370    7.7304
    2.385    7.5197
    2.400    7.2249
    2.415    7.1195
    2.430    6.8773
    2.445    6.8352
    2.460    7.1617
    2.475    6.9194
    2.490    6.8773
    2.505    6.8352
    2.520    6.7720
    2.535    6.5508
    2.550    6.6245
    2.565    6.3612
    2.580    6.0769
    2.595    6.0242
    2.610    6.3718
    2.625    6.0242
    2.640    5.9084
    2.655    6.1927
    2.670    6.1085
    2.685    6.0664
    2.700    5.8662
    2.715    5.8557
    2.730    5.8978
    2.745    5.9505
    2.760    5.6767
    2.775    5.9716
    2.790    5.5924
    2.805    5.5503
    2.820    5.3291
    2.835    5.1817
    2.850    5.1711
    2.865    5.2554
    2.880    5.0764
    2.895    5.3607
    2.910    5.3712
    2.925    5.0553
    2.940    5.1080
    2.955    4.8131
    2.970    4.8341
    2.985    5.1817
    3.000    5.1606
    3.015    4.9816
    3.030    4.8447
    3.045    4.9710
    3.060    5.0342
    3.075    4.8552
    3.090    4.8973
    3.105    4.9184
    3.120    4.8025
    3.135    4.6130
    3.150    4.7288
    3.165    4.6445
    3.180    4.8025
    3.195    4.9605
    3.210    4.7709
    3.225    4.6972
    3.240    5.1606
    3.255    5.0658
    3.270    4.8868
    3.285    4.9289
    3.300    4.7709
    3.315    4.3075
    3.330    4.5814
    3.345    4.6972
    3.360    4.6656
    3.375    4.4866
    3.390    4.4550
    3.405    4.2338
    3.420    4.5076
    3.435    4.9605
    3.450    4.9184
    3.465    4.8236
    3.480    4.8236
    3.495    4.7393
    3.510    4.7604
    3.525    4.6867
    3.540    5.0764
    3.555    5.2870
    3.570    5.1080
    3.585    5.1711
    3.600    5.0764
    3.615    5.3186
    3.630    5.8452
    3.645    5.4450
    3.660    5.4239
    3.675    5.6135
    3.690    6.0979
    3.705    5.7925
    3.720    5.8031
    3.735    6.6877
    3.750    6.7193
    3.765    7.1617
    3.780    7.3723
    3.795    7.8252
    3.810    8.1411
    3.825    9.3523
    3.840   10.5003
    3.855   11.8694
    3.870   13.0174
    3.885   13.3017
    3.900   12.7120
    3.915   10.9847
    3.930    8.4571
    3.945    5.6872
    3.960    4.1601
    3.975    3.7809
    3.990    3.8968
    4.005    3.6335
    4.020    3.5598
    4.035    3.8020
    4.050    3.9916
    4.065    3.7493
    4.080    3.4544
    4.095    3.7915
    4.110    3.6651
    4.125    3.3281
    4.140    3.6230
    4.155    3.8863
    4.170    3.4334
    4.185    3.7177
    4.200    3.6651
    4.215    3.7915
    4.230    3.7915
    4.245    3.6862
    4.260    3.5071
    4.275    3.4650
    4.290    3.7177
    4.305    3.7704
    4.320    3.8441
    4.335    3.8125
    4.350    3.5808
    4.365    3.1174
    4.380    3.6124
    4.395    3.5808
    4.410    3.5492
    4.425    3.4018
    4.440    3.5808
    4.455    3.6862
    4.470    3.5492
    4.485    3.5808
    4.500    3.3070
    4.515    3.4650
    4.530    3.6230
    4.545    3.8652
    4.560    3.6756
    4.575    3.6019
    4.590    3.5071
    4.605    3.4544
    4.620    3.1701
    4.635    3.2649
    4.650    3.6440
    4.665    3.7704
    4.680    3.6440
    4.695    3.4860
    4.710    3.5914
    4.725    3.2965
    4.740    3.4229
    4.755    3.3281
    4.770    3.5492
    4.785    3.5703
    4.800    3.3702
    4.815    3.3281
    4.830    3.3386
    4.845    3.6440
    4.860    3.7809
    4.875    3.6967
    4.890    3.4439
    4.905    3.3070
    4.920    3.5176
    4.935    3.3702
    4.950    3.5387
    4.965    3.3913
    4.980    3.3597
    4.995    3.4439
    5.010    3.4334
    5.025    3.4439
    5.040    3.3281
    5.055    3.4650
    5.070    3.5914
    5.085    3.2859
    5.100    3.4334
    5.115    3.4544
    5.130    3.4860
    5.145    3.4334
    5.160    3.4966
    5.175    3.1596
    5.190    3.5914
    5.205    3.6546
    5.220    3.4966
    5.235    3.5387
    5.250    3.4018
    5.265    3.7704
    5.280    3.5387
    5.295    3.6546
    5.310    3.4755
    5.325    3.5703
    5.340    3.7283
    5.355    3.9810
    5.370    4.1390
    5.385    4.1601
    5.400    4.0653
    5.415    4.3707
    5.430    4.7815
    5.445    4.6867
    5.460    5.2870
    5.475    5.4660
    5.490    5.9505
    5.505    6.3402
    5.520    5.8136
    5.535    5.4555
    5.550    4.9605
    5.565    3.8968
    5.580    3.4123
    5.595    3.4123
    5.610    3.1385
    5.625    3.3702
    5.640    3.2965
    5.655    3.1806
    5.670    3.3281
    5.685    3.2859
    5.700    3.2122
    5.715    3.4544
    5.730    3.2017
    5.745    2.9700
    5.760    3.1806
    5.775    3.4544
    5.790    3.2649
    5.805    3.3491
    5.820    3.4229
    5.835    3.2333
    5.850    3.2438
    5.865    3.2017
    5.880    2.9910
    5.895    2.9595
    5.910    3.4439
    5.925    3.2754
    5.940    3.1385
    5.955    3.4229
    5.970    2.9173
    5.985    2.9805
    6.000    3.0648
    6.015    3.2965
    6.030    3.0121
    6.045    3.0753
    6.060    3.2543
    6.075    3.0332
    6.090    3.0964
    6.105    3.4439
    6.120    3.1806
    6.135    3.0542
    6.150    3.0016
    6.165    3.3702
    6.180    3.2122
    6.195    3.1806
    6.210    3.1806
    6.225    3.2017
    6.240    3.2122
    6.255    3.2649
    6.270    3.1912
    6.285    3.2859
    6.300    3.0437
    6.315    3.0648
    6.330    3.1174
    6.345    3.2543
    6.360    3.0648
    6.375    2.9910
    6.390    2.9595
    6.405    3.2122
    6.420    2.9805
    6.435    3.0648
    6.450    3.4018
    6.465    3.4439
    6.480    3.2649
    6.495    3.2543
    6.510    3.4650
    6.525    3.3913
    6.540    3.1385
    6.555    3.2122
    6.570    3.2017
    6.585    3.2649
    6.600    3.6230
    6.615    3.5492
    6.630    3.4966
    6.645    3.2859
    6.660    3.7283
    6.675    3.6862
    6.690    3.9600
    6.705    4.0232
    6.720    3.7072
    6.735    3.9916
    6.750    3.8441
    6.765    3.8968
    6.780    3.7388
    6.795    3.6862
    6.810    3.3807
    6.825    2.9805
    6.840    3.0437
    6.855    3.3281
    6.870    3.4544
    6.885    3.1069
    6.900    3.2333
    6.915    3.3281
    6.930    3.3597
    6.945    3.3281
    6.960    3.4229
    6.975    3.3070
    6.990    3.4860
    7.005    3.4439
    7.020    3.0121
    7.035    3.0964
    7.050    3.1174
    7.065    3.4439
    7.080    3.1490
    7.095    3.0332
    7.110    3.2227
    7.125    3.1596
    7.140    3.2227
    7.155    3.3281
    7.170    3.5071
    7.185    3.0753
    7.200    3.0016
    7.215    3.1280
    7.230    3.2965
    7.245    3.1490
    7.260    3.3913
    7.275    3.2965
    7.290    3.1280
    7.305    3.3386
    7.320    3.2649
    7.335    3.1596
    7.350    3.1912
    7.365    3.1912
    7.380    3.3807
    7.395    3.1069
    7.410    3.1174
    7.425    3.2859
    7.440    3.1912
    7.455    3.0858
    7.470    3.0648
    7.485    3.3070
    7.500    3.2333
    7.515    3.1280
    7.530    3.2122
    7.545    3.5914
    7.560    3.5387
    7.575    3.1490
    7.590    3.2859
    7.605    3.4018
    7.620    3.2859
    7.635    3.4229
    7.650    3.5598
    7.665    3.4334
    7.680    3.6862
    7.695    3.3386
    7.710    3.4544
    7.725    3.5387
    7.740    3.4123
    7.755    3.4123
    7.770    3.5071
    7.785    3.7599
    7.800    3.8757
    7.815    3.6967
    7.830    3.6546
    7.845    3.7072
    7.860    3.2227
    7.875    3.4018
    7.890    3.1280
    7.905    2.9595
    7.920    3.3491
    7.935    3.2017
    7.950    3.1912
    7.965    3.2754
    7.980    3.4544
    7.995    3.4966
    8.010    3.3702
    8.025    3.3386
    8.040    3.2754
    8.055    3.3491
    8.070    3.1701
    8.085    3.2965
    8.100    3.2649
    8.115    3.1174
    8.130    3.4334
    8.145    3.2754
    8.160    2.9173
    8.175    3.2649
    8.190    3.1490
    8.205    3.3702
    8.220    2.8647
    8.235    3.0016
    8.250    2.9910
    8.265    3.2333
    8.280    3.1490
    8.295    3.0332
    8.310    3.1912
    8.325    3.0226
    8.340    3.1806
    8.355    3.0332
    8.370    3.1701
    8.385    3.3913
    8.400    3.1596
    8.415    3.1806
    8.430    3.2543
    8.445    3.3491
    8.460    3.2227
    8.475    3.2017
    8.490    3.0648
    8.505    3.3491
    8.520    3.2965
    8.535    3.2017
    8.550    3.0858
    8.565    2.9068
    8.580    2.9595
    8.595    3.0858
    8.610    3.1069
    8.625    3.3175
    8.640    3.2227
    8.655    3.3491
    8.670    3.3597
    8.685    3.2965
    8.700    3.0964
    8.715    3.2122
    8.730    3.2333
    8.745    3.1912
    8.760    3.2754
    8.775    3.1596
    8.790    3.3702
    8.805    3.3702
    8.820    3.3491
    8.835    3.3281
    8.850    3.2122
    8.865    3.3491
    8.880    3.2649
    8.895    3.4018
    8.910    3.5492
    8.925    3.0858
    8.940    2.9910
    8.955    3.3702
    8.970    3.2438
    8.985    3.3491
    9.000    3.0542
    9.015    3.0753
    9.030    3.3386
    9.045    3.0753
    9.060    3.1912
    9.075    3.3386
    9.090    3.2859
    9.105    3.2965
    9.120    3.1701
    9.135    3.5071
    9.150    3.1490
    9.165    3.3491
    9.180    3.0753
    9.195    3.1280
    9.210    3.1069
    9.225    3.1806
    9.240    3.2649
    9.255    3.3070
    9.270    3.6756
    9.285    3.4018
    9.300    3.4334
    9.315    3.4439
    9.330    3.0226
    9.345    3.0542
    9.360    3.1912
    9.375    3.0016
    9.390    3.2438
    9.405    3.3070
    9.420    3.6967
    9.435    3.3386
    9.450    3.3070
    9.465    3.6124
    9.480    3.7704
    9.495    3.8336
    9.510    4.1074
    9.525    4.4444
    9.540    4.4339
    9.555    4.1811
    9.570    4.1390
    9.585    4.4234
    9.600    4.1285
    9.615    3.4966
    9.630    3.6756
    9.645    3.5492
    9.660    3.3913
    9.675    3.4650
    9.690    2.9595
    9.705    3.0753
    9.720    3.4755
    9.735    3.0753
    9.750    3.3913
    9.765    3.5914
    9.780    3.1385
    9.795    3.4334
    9.810    3.2754
    9.825    2.9700
    9.840    3.1385
    9.855    3.1596
    9.870    3.2227
    9.885    2.8647
    9.900    3.1596
    9.915    3.3913
    9.930    3.2543
    9.945    3.1701
    9.960    3.4123
    9.975    3.2754
    9.990    3.0648
   10.005    3.2122
   10.020    3.4334
   10.035    3.3070
   10.050    3.4018
   10.065    3.0016
   10.080    3.1596
   10.095    3.3070
   10.110    3.1912
   10.125    3.0964
   10.140    3.1912
   10.155    3.3175
   10.170    3.1280
   10.185    3.3702
   10.200    3.3597
   10.215    3.1912
   10.230    3.7072
   10.245    3.4334
   10.260    3.4229
   10.275    3.4544
   10.290    3.4755
   10.305    3.4544
   10.320    3.4860
   10.335    3.6019
   10.350    3.8441
   10.365    3.4650
   10.380    3.4123
   10.395    3.1912
   10.410    3.1596
   10.425    3.2333
   10.440    3.2543
   10.455    3.0858
   10.470    3.1174
   10.485    3.3175
   10.500    3.1806
   10.515    3.0964
   10.530    3.2438
   10.545    3.0226
   10.560    3.0016
   10.575    3.2122
   10.590    3.1912
   10.605    3.1069
   10.620    3.0226
   10.635    3.1490
   10.650    2.9805
   10.665    3.1174
   10.680    3.1701
   10.695    3.1280
   10.710    3.0332
   10.725    3.0648
   10.740    3.1280
   10.755    3.2965
   10.770    3.2122
   10.785    2.8225
   10.800    2.9595
   10.815    3.1701
   10.830    3.0753
   10.845    2.9068
   10.860    3.0226
   10.875    3.1385
   10.890    3.1806
   10.905    3.0964
   10.920    3.1912
   10.935    3.2754
   10.950    3.2333
   10.965    3.2649
   10.980    3.1490
   10.995    3.3070
   11.010    3.5282
   11.025    3.4860
   11.040    3.4860
   11.055    3.3491
   11.070    3.3807
   11.085    3.3913
   11.100    3.1596
   11.115    3.0648
   11.130    2.8541
   11.145    3.2122
   11.160    3.1806
   11.175    3.1701
   11.190    3.1912
   11.205    3.1806
   11.220    3.1701
   11.235    3.2227
   11.250    3.1701
   11.265    2.8857
   11.280    3.2333
   11.295    3.3070
   11.310    3.1806
   11.325    3.0437
   11.340    3.1280
   11.355    2.9279
   11.370    3.0121
   11.385    3.1490
   11.400    3.0964
   11.415    2.9384
   11.430    2.8752
   11.445    3.1174
   11.460    3.2543
   11.475    3.1385
   11.490    2.8436
   11.505    2.9700
   11.520    2.9595
   11.535    3.4018
   11.550    3.1069
   11.565    3.0121
   11.580    3.1912
   11.595    3.0964
   11.610    3.0016
   11.625    3.2754
   11.640    3.1701
   11.655    3.5176
   11.670    3.1806
   11.685    3.4334
   11.700    3.5387
   11.715    3.3175
   11.730    3.2438
   11.745    3.4860
   11.760    3.2965
   11.775    3.0016
   11.790    3.1596
   11.805    3.1912
   11.820    2.9173
   11.835    3.0121
   11.850    2.8120
   11.865    2.9384
   11.880    2.8857
   11.895    2.9700
   11.910    2.9489
   11.925    2.9068
   11.940    2.6540
   11.955    2.8015
   11.970    3.0858
   11.985    2.9279
   12.000    2.7909
   12.015    2.8225
   12.030    3.0332
   12.045    3.0858
   12.060    2.8436
   12.075    3.1912
   12.090    3.1069
   12.105    3.1280
   12.120    2.9489
   12.135    2.9489
   12.150    3.0437
   12.165    3.1280
   12.180    3.1701
   12.195    3.0226
   12.210    3.0226
   12.225    3.0964
   12.240    2.7804
   12.255    3.0121
   12.270    3.0226
   12.285    2.8436
   12.300    2.9805
   12.315    2.9068
   12.330    3.0858
   12.345    3.0226
   12.360    3.0332
   12.375    2.8647
   12.390    3.0858
   12.405    3.0121
   12.420    2.7699
   12.435    2.9700
   12.450    2.8752
   12.465    3.0121
   12.480    2.9910
   12.495    2.8120
   12.510    2.8015
   12.525    2.7067
   12.540    3.0648
   12.555    2.9068
   12.570    3.0542
   12.585    3.0332
   12.600    2.7699
   12.615    3.0964
   12.630    3.0858
   12.645    3.0437
   12.660    2.8436
   12.675    2.8963
   12.690    2.9595
   12.705    2.9279
   12.720    3.0542
   12.735    3.1069
   12.750    3.1069
   12.765    2.8857
   12.780    3.0964
   12.795    3.2017
   12.810    2.9910
   12.825    2.8647
   12.840    2.8225
   12.855    2.8647
   12.870    2.8647
   12.885    3.0648
   12.900    2.9068
   12.915    2.8436
   12.930    2.8331
   12.945    3.0964
   12.960    3.0964
   12.975    3.0226
   12.990    3.1701
   13.005    2.9279
   13.020    2.8857
   13.035    2.8120
   13.050    3.1385
   13.065    2.9173
   13.080    2.8015
   13.095    2.9384
   13.110    2.9489
   13.125    2.8331
   13.140    2.7804
   13.155    2.9595
   13.170    2.8331
   13.185    2.7804
   13.200    3.0648
   13.215    2.8857
   13.230    2.6751
   13.245    3.0542
   13.260    2.9384
   13.275    2.8015
   13.290    2.5382
   13.305    2.5698
   13.320    2.9384
   13.335    2.8752
   13.350    2.8857
   13.365    2.7909
   13.380    2.8436
   13.395    2.9068
   13.410    2.9384
   13.425    2.7067
   13.440    2.6856
   13.455    2.9068
   13.470    2.9173
   13.485    3.1701
   13.500    3.2017
   13.515    3.0016
   13.530    2.8436
   13.545    2.7593
   13.560    2.8857
   13.575    3.0437
   13.590    2.7804
   13.605    2.7488
   13.620    2.8647
   13.635    2.9595
   13.650    2.6751
   13.665    2.5487
   13.680    2.8857
   13.695    3.1280
   13.710    3.0121
   13.725    2.8120
   13.740    3.0121
   13.755    2.7804
   13.770    3.0858
   13.785    3.0226
   13.800    2.6751
   13.815    2.8120
   13.830    2.9489
   13.845    2.7804
   13.860    2.6435
   13.875    2.7699
   13.890    2.8963
   13.905    3.0648
   13.920    2.6646
   13.935    2.7699
   13.950    2.8963
   13.965    2.8225
   13.980    2.9173
   13.995    3.0016
   14.010    2.9068
   14.025    2.8436
   14.040    2.9489
   14.055    2.8752
   14.070    2.8647
   14.085    3.0016
   14.100    2.9384
   14.115    2.7488
   14.130    2.7383
   14.145    2.8331
   14.160    2.9489
   14.175    2.9910
   14.190    2.7383
   14.205    2.9173
   14.220    2.8857
   14.235    2.7909
   14.250    3.0437
   14.265    2.6962
   14.280    2.8120
   14.295    2.7909
   14.310    2.7699
   14.325    2.7278
   14.340    2.7804
   14.355    2.6014
   14.370    2.6751
   14.385    2.8015
   14.400    2.8963
   14.415    3.0016
   14.430    3.3070
   14.445    3.1174
   14.460    2.7278
   14.475    2.8436
   14.490    3.0226
   14.505    2.7804
   14.520    3.0226
   14.535    3.0648
   14.550    2.8120
   14.565    2.7804
   14.580    2.6435
   14.595    2.8331
   14.610    2.7488
   14.625    2.7593
   14.640    2.8963
   14.655    2.9805
   14.670    2.9595
   14.685    2.7593
   14.700    2.7699
   14.715    2.9489
   14.730    3.0332
   14.745    3.0332
   14.760    3.0226
   14.775    2.7488
   14.790    2.8963
   14.805    3.0226
   14.820    3.0226
   14.835    2.9700
   14.850    2.6119
   14.865    2.8225
   14.880    2.7593
   14.895    2.7804
   14.910    2.6646
   14.925    2.8436
   14.940    2.7699
   14.955    2.8120
   14.970    2.6540
   14.985    3.0121
   15.000    2.8331
   15.015    2.7172
   15.030    2.9068
   15.045    2.5487
   15.060    2.5592
   15.075    2.5171
   15.090    2.6646
   15.105    2.8963
   15.120    2.7909
   15.135    2.7804
   15.150    2.9173
   15.165    2.8647
   15.180    2.8963
   15.195    2.8857
   15.210    2.7909
   15.225    2.9068
   15.240    2.8331
   15.255    2.8225
   15.270    3.0858
   15.285    2.6435
   15.300    2.7383
   15.315    2.5803
   15.330    2.9173
   15.345    2.8436
   15.360    3.0332
   15.375    2.9173
   15.390    2.8015
   15.405    3.0753
   15.420    2.7383
   15.435    2.9384
   15.450    3.0753
   15.465    2.8331
   15.480    3.0542
   15.495    2.8541
   15.510    2.9595
   15.525    2.9595
   15.540    2.9700
   15.555    2.7593
   15.570    3.0226
   15.585    2.9384
   15.600    3.0542
   15.615    2.9173
   15.630    2.8857
   15.645    2.6119
   15.660    3.0753
   15.675    3.2333
   15.690    3.0964
   15.705    2.9279
   15.720    2.9595
   15.735    2.8647
   15.750    2.9489
   15.765    2.7593
   15.780    2.8120
   15.795    2.8857
   15.810    2.9384
   15.825    3.1069
   15.840    2.9384
   15.855    2.9595
   15.870    2.9910
   15.885    3.1174
   15.900    3.0016
   15.915    3.1596
   15.930    3.0121
   15.945    3.0226
   15.960    2.9910
   15.975    3.0437
   15.990    2.9700
   16.005    3.1280
   16.020    3.2227
   16.035    3.1069
   16.050    3.1701
   16.065    3.1701
   16.080    2.9910
   16.095    3.2122
   16.110    3.2543
   16.125    3.1912
   16.140    3.5071
   16.155    3.2649
   16.170    3.0964
   16.185    2.9279
   16.200    3.1912
   16.215    3.1280
   16.230    3.0858
   16.245    3.0858
   16.260    2.9910
   16.275    3.1701
   16.290    3.3070
   16.305    3.1174
   16.320    3.3070
   16.335    3.1385
   16.350    2.9700
   16.365    3.0753
   16.380    3.1280
   16.395    3.2649
   16.410    3.0753
   16.425    3.1385
   16.440    2.8752
   16.455    2.8436
   16.470    2.9279
   16.485    3.0437
   16.500    3.0542
   16.515    3.1174
   16.530    2.8752
   16.545    2.7067
   16.560    2.9805
   16.575    3.0964
   16.590    3.1701
   16.605    3.1701
   16.620    3.0437
   16.635    2.9384
   16.650    2.9805
   16.665    2.7804
   16.680    2.7383
   16.695    2.8857
   16.710    3.0858
   16.725    3.0858
   16.740    2.8647
   16.755    2.9805
   16.770    3.0016
   16.785    3.0226
   16.800    2.9700
   16.815    2.7909
   16.830    2.9910
   16.845    2.8331
   16.860    2.9068
   16.875    2.6856
   16.890    2.8331
   16.905    2.9805
   16.920    2.7172
   16.935    2.9489
   16.950    2.8752
   16.965    2.9279
   16.980    3.0964
   16.995    3.0648
   17.010    2.9595
   17.025    2.8436
   17.040    3.0226
   17.055    3.1912
   17.070    3.0542
   17.085    2.8436
   17.100    2.8752
   17.115    2.9279
   17.130    3.1385
   17.145    2.8436
   17.160    2.9068
   17.175    2.4118
   17.190    2.6646
   17.205    2.8752
   17.220    2.7804
   17.235    2.8225
   17.250    3.1596
   17.265    2.8120
   17.280    2.6962
   17.295    2.8331
   17.310    2.6751
   17.325    2.4539
   17.340    2.7172
   17.355    2.8752
   17.370    3.2754
   17.385    2.8647
   17.400    2.9489
   17.415    2.7804
   17.430    2.7383
   17.445    2.8436
   17.460    2.7593
   17.475    2.7909
   17.490    2.8857
   17.505    2.6856
   17.520    2.7804
   17.535    2.7593
   17.550    3.0332
   17.565    3.2649
   17.580    3.1596
   17.595    2.8647
   17.610    3.0437
   17.625    3.1490
   17.640    3.0332
   17.655    2.9910
   17.670    3.0858
   17.685    2.8647
   17.700    3.2017
   17.715    3.0016
   17.730    2.8647
   17.745    2.8436
   17.760    3.0437
   17.775    3.0437
   17.790    3.1806
   17.805    2.8752
   17.820    3.0437
   17.835    2.9700
   17.850    2.9910
   17.865    2.8647
   17.880    3.0016
   17.895    2.9805
   17.910    2.7172
   17.925    2.6856
   17.940    2.6646
   17.955    2.7278
   17.970    3.0542
   17.985    2.9700
   18.000    2.8120
   18.015    3.0753
   18.030    3.0016
   18.045    2.8647
   18.060    2.8963
   18.075    2.9068
   18.090    3.0121
   18.105    2.7699
   18.120    2.7909
   18.135    2.8015
   18.150    3.0226
   18.165    2.8752
   18.180    2.9489
   18.195    2.8120
   18.210    2.6119
   18.225    2.6646
   18.240    2.7909
   18.255    2.6119
   18.270    2.8120
   18.285    3.0964
   18.300    3.2017
   18.315    3.0753
   18.330    3.1280
   18.345    2.9068
   18.360    2.9805
   18.375    2.7699
   18.390    2.8331
   18.405    2.7804
   18.420    2.9384
   18.435    3.0542
   18.450    3.0332
   18.465    2.9173
   18.480    2.9700
   18.495    3.0332
   18.510    2.9384
   18.525    2.7593
   18.540    2.7804
   18.555    2.8647
   18.570    2.9489
   18.585    2.9700
   18.600    2.9700
   18.615    2.8963
   18.630    3.0753
   18.645    3.1912
   18.660    2.9384
   18.675    3.0542
   18.690    2.6119
   18.705    2.8225
   18.720    2.7593
   18.735    3.1174
   18.750    3.1280
   18.765    2.8752
   18.780    2.8963
   18.795    2.7909
   18.810    2.7804
   18.825    2.7804
   18.840    3.0016
   18.855    3.0542
   18.870    2.8857
   18.885    2.9384
   18.900    3.0437
   18.915    3.1280
   18.930    3.2227
   18.945    3.4229
   18.960    3.3597
   18.975    3.7072
   18.990    3.6967
   19.005    3.6967
   19.020    3.8547
   19.035    3.8547
   19.050    3.8231
   19.065    3.5808
   19.080    3.3386
   19.095    3.2543
   19.110    2.7804
   19.125    2.6646
   19.140    2.6119
   19.155    2.9068
   19.170    3.0121
   19.185    3.0016
   19.200    2.8225
   19.215    2.9384
   19.230    2.9700
   19.245    2.6856
   19.260    3.0753
   19.275    3.0121
   19.290    2.5171
   19.305    2.6856
   19.320    2.7488
   19.335    2.8647
   19.350    3.0437
   19.365    2.8120
   19.380    2.8225
   19.395    2.7172
   19.410    2.9595
   19.425    2.9910
   19.440    3.1912
   19.455    2.7699
   19.470    2.7172
   19.485    2.6856
   19.500    2.9700
   19.515    3.2859
   19.530    2.7909
   19.545    2.9384
   19.560    2.8541
   19.575    3.1490
   19.590    3.0226
   19.605    3.0121
   19.620    2.9805
   19.635    2.9384
   19.650    3.0542
   19.665    2.9489
   19.680    2.9700
   19.695    2.9384
   19.710    2.9700
   19.725    2.8647
   19.740    2.7172
   19.755    2.8647
   19.770    2.9700
   19.785    3.0332
   19.800    2.8015
   19.815    3.0332
   19.830    3.0648
   19.845    2.8015
   19.860    3.0016
   19.875    3.0332
   19.890    3.0964
   19.905    2.8015
   19.920    3.0753
   19.935    2.8225
   19.950    2.8857
   19.965    2.8015
   19.980    2.7488
   19.995    2.7804
   20.010    3.0332
   20.025    3.0016
   20.040    3.0226
   20.055    3.1701
   20.070    3.0016
   20.085    2.7172
   20.100    2.8331
   20.115    3.0542
   20.130    2.9805
   20.145    2.9595
   20.160    2.9384
   20.175    2.8436
   20.190    3.0648
   20.205    2.8331
   20.220    2.8436
   20.235    3.0437
   20.250    3.0753
   20.265    3.0964
   20.280    3.0121
   20.295    2.9384
   20.310    3.0226
   20.325    2.7067
   20.340    2.8436
   20.355    2.7909
   20.370    2.7909
   20.385    3.1280
   20.400    3.2543
   20.415    3.0648
   20.430    2.7804
   20.445    2.6646
   20.460    2.9595
   20.475    3.1174
   20.490    3.0226
   20.505    2.8331
   20.520    2.9489
   20.535    2.8436
   20.550    2.9279
   20.565    2.7804
   20.580    2.9279
   20.595    2.8331
   20.610    3.0648
   20.625    3.0121
   20.640    2.9700
   20.655    3.1806
   20.670    3.0226
   20.685    3.0542
   20.700    3.1069
   20.715    3.2017
   20.730    3.1596
   20.745    2.8752
   20.760    2.8436
   20.775    2.9384
   20.790    3.0226
   20.805    2.8015
   20.820    2.9384
   20.835    3.0226
   20.850    2.9173
   20.865    3.0226
   20.880    2.8331
   20.895    2.9910
   20.910    3.1174
   20.925    3.0542
   20.940    2.8225
   20.955    2.9595
   20.970    2.7909
   20.985    2.9700
   21.000    3.0016
   21.015    2.9910
   21.030    2.9595
   21.045    3.0332
   21.060    3.0332
   21.075    3.1069
   21.090    2.9595
   21.105    2.9384
   21.120    2.8541
   21.135    3.1069
   21.150    3.0226
   21.165    2.8541
   21.180    2.8857
   21.195    2.8015
   21.210    2.8225
   21.225    2.8120
   21.240    2.8541
   21.255    2.7383
   21.270    3.1174
   21.285    3.0753
   21.300    3.1174
   21.315    2.9384
   21.330    2.7699
   21.345    2.9805
   21.360    3.1174
   21.375    3.1596
   21.390    2.9173
   21.405    3.1701
   21.420    3.0858
   21.435    3.0648
   21.450    2.8225
   21.465    3.0858
   21.480    2.9805
   21.495    2.8015
   21.510    2.8647
   21.525    2.9173
   21.540    3.0858
   21.555    2.9489
   21.570    3.0753
   21.585    2.8752
   21.600    2.8857
   21.615    3.0648
   21.630    2.9595
   21.645    3.0648
   21.660    2.9384
   21.675    3.0542
   21.690    2.9279
   21.705    2.9489
   21.720    3.0964
   21.735    3.0964
   21.750    2.9805
   21.765    2.8752
   21.780    3.0437
   21.795    3.1069
   21.810    2.9805
   21.825    3.0753
   21.840    3.1596
   21.855    3.1069
   21.870    2.9595
   21.885    2.7804
   21.900    3.1280
   21.915    3.0016
   21.930    3.3491
   21.945    2.8963
   21.960    3.0121
   21.975    3.0332
   21.990    2.8752
   22.005    3.0016
   22.020    2.9910
   22.035    3.1596
   22.050    2.8647
   22.065    2.8857
   22.080    2.9068
   22.095    3.0016
   22.110    2.8225
   22.125    3.0226
   22.140    2.9910
   22.155    3.2754
   22.170    3.4439
   22.185    3.1596
   22.200    3.0332
   22.215    3.1280
   22.230    2.9910
   22.245    3.1280
   22.260    2.9279
   22.275    2.8752
   22.290    2.9700
   22.305    2.9489
   22.320    3.0648
   22.335    3.1490
   22.350    2.9805
   22.365    3.2754
   22.380    3.2227
   22.395    2.8225
   22.410    2.9595
   22.425    2.8752
   22.440    2.7699
   22.455    3.0437
   22.470    2.8857
   22.485    3.0332
   22.500    2.8015
   22.515    3.1490
   22.530    3.2333
   22.545    3.0964
   22.560    3.3386
   22.575    3.4966
   22.590    3.6546
   22.605    3.2227
   22.620    3.0964
   22.635    3.1596
   22.650    3.3807
   22.665    3.1490
   22.680    3.0858
   22.695    2.8752
   22.710    2.9805
   22.725    2.7804
   22.740    2.8541
   22.755    2.7383
   22.770    2.7383
   22.785    2.9700
   22.800    3.0542
   22.815    2.8647
   22.830    2.8541
   22.845    2.7699
   22.860    3.0858
   22.875    2.9910
   22.890    2.8752
   22.905    3.0332
   22.920    3.4123
   22.935    3.4018
   22.950    2.9700
   22.965    2.6856
   22.980    2.8647
   22.995    2.9910
   23.010    2.8541
   23.025    3.1385
   23.040    3.1174
   23.055    3.2122
   23.070    3.4334
   23.085    3.0753
   23.100    3.0121
   23.115    3.1806
   23.130    2.9279
   23.145    3.1806
   23.160    2.9700
   23.175    3.1806
   23.190    3.3070
   23.205    3.3175
   23.220    3.0332
   23.235    3.2017
   23.250    3.1174
   23.265    3.1069
   23.280    2.8857
   23.295    3.0858
   23.310    2.9700
   23.325    2.8857
   23.340    2.9805
   23.355    2.9910
   23.370    2.8120
   23.385    2.8015
   23.400    2.8541
   23.415    3.0016
   23.430    2.7593
   23.445    2.9700
   23.460    2.5592
   23.475    2.8015
   23.490    2.8857
   23.505    2.9805
   23.520    3.1701
   23.535    3.1069
   23.550    3.2754
   23.565    3.1596
   23.580    2.9173
   23.595    3.0226
   23.610    3.4229
   23.625    3.1490
   23.640    2.8647
   23.655    2.8752
   23.670    2.8752
   23.685    2.6751
   23.700    2.9489
   23.715    2.6435
   23.730    2.9805
   23.745    3.2122
   23.760    2.9068
   23.775    3.1280
   23.790    3.0332
   23.805    2.9805
   23.820    2.8541
   23.835    2.7804
   23.850    2.9805
   23.865    2.8647
   23.880    3.1385
   23.895    3.0437
   23.910    2.7909
   23.925    2.8857
   23.940    2.7067
   23.955    2.7699
   23.970    2.7593
   23.985    2.9068
   24.000    2.8647
   24.015    2.9595
   24.030    3.2122
   24.045    3.2227
   24.060    3.1490
   24.075    2.9595
   24.090    2.9910
   24.105    3.2017
   24.120    3.0226
   24.135    3.0858
   24.150    2.8963
   24.165    3.1174
   24.180    2.9910
   24.195    2.8647
   24.210    2.7172
   24.225    2.9384
   24.240    2.8647
   24.255    2.9700
   24.270    3.0964
   24.285    3.2017
   24.300    3.1069
   24.315    2.9279
   24.330    2.7067
   24.345    2.7488
   24.360    2.8647
   24.375    3.0542
   24.390    3.0648
   24.405    2.6646
   24.420    2.9068
   24.435    3.0858
   24.450    2.9700
   24.465    3.0858
   24.480    2.9068
   24.495    2.9279
   24.510    2.7699
   24.525    2.8331
   24.540    3.0542
   24.555    3.0226
   24.570    2.8647
   24.585    3.1069
   24.600    2.8963
   24.615    2.7804
   24.630    2.9595
   24.645    2.7909
   24.660    2.9279
   24.675    2.7804
   24.690    2.7909
   24.705    3.0121
   24.720    2.8225
   24.735    2.8015
   24.750    2.9384
   24.765    2.8331
   24.780    2.9279
   24.795    2.8225
   24.810    2.8541
   24.825    3.1280
   24.840    2.9700
   24.855    3.0332
   24.870    2.9384
   24.885    2.8015
   24.900    2.8331
   24.915    2.8331
   24.930    2.9068
   24.945    2.8015
   24.960    2.8225
   24.975    2.9910
   24.990    2.8225
   25.005    2.8331
   25.020    2.7383
   25.035    2.8120
   25.050    2.7383
   25.065    2.8541
   25.080    2.9173
   25.095    2.8963
   25.110    2.8857
   25.125    2.8225
   25.140    2.8436
   25.155    2.7593
   25.170    2.7699
   25.185    3.0648
   25.200    3.0016
   25.215    2.7593
   25.230    2.9384
   25.245    3.0226
   25.260    3.0226
   25.275    2.7593
   25.290    2.6962
   25.305    3.0226
   25.320    2.8752
   25.335    2.9384
   25.350    2.8015
   25.365    2.7488
   25.380    2.8120
   25.395    2.8436
   25.410    2.6962
   25.425    2.8436
   25.440    2.7278
   25.455    2.7488
   25.470    3.2438
   25.485    3.1280
   25.500    3.1174
   25.515    2.8541
   25.530    2.8120
   25.545    2.8015
   25.560    2.6330
   25.575    2.8331
   25.590    3.1385
   25.605    3.0437
   25.620    3.1385
   25.635    3.0437
   25.650    2.8331
   25.665    2.9595
   25.680    2.9595
   25.695    2.9279
   25.710    2.7278
   25.725    2.8120
   25.740    2.6856
   25.755    2.9068
   25.770    2.7488
   25.785    2.8541
   25.800    3.0332
   25.815    2.9595
   25.830    2.7909
   25.845    2.7804
   25.860    3.0753
   25.875    2.8436
   25.890    2.8647
   25.905    2.8120
   25.920    3.0016
   25.935    2.9068
   25.950    3.2227
   25.965    3.1806
   25.980    2.7593
   25.995    2.6962
   26.010    2.9068
   26.025    2.9595
   26.040    2.7067
   26.055    2.7278
   26.070    2.6119
   26.085    2.6962
   26.100    2.7067
   26.115    2.7383
   26.130    2.8857
   26.145    3.0858
   26.160    3.0753
   26.175    3.0753
   26.190    3.0437
   26.205    2.9805
   26.220    3.2649
   26.235    2.8225
   26.250    2.6751
   26.265    2.7383
   26.280    2.7804
   26.295    2.7172
   26.310    2.8647
   26.325    2.8963
   26.340    2.7909
   26.355    2.8857
   26.370    2.9279
   26.385    2.8647
   26.400    2.5698
   26.415    2.6962
   26.430    2.8752
   26.445    2.9805
   26.460    2.8120
   26.475    2.6119
   26.490    2.6751
   26.505    2.6856
   26.520    2.5908
   26.535    2.8015
   26.550    2.6646
   26.565    2.9173
   26.580    2.7488
   26.595    2.7172
   26.610    2.9489
   26.625    2.8331
   26.640    2.5382
   26.655    2.7488
   26.670    2.7278
   26.685    2.7804
   26.700    2.8647
   26.715    2.8541
   26.730    2.8963
   26.745    2.5803
   26.760    2.7488
   26.775    3.0016
   26.790    2.7804
   26.805    2.7593
   26.820    3.0753
   26.835    2.7488
   26.850    2.9805
   26.865    2.8857
   26.880    2.6962
   26.895    2.5066
   26.910    2.6646
   26.925    2.7593
   26.940    2.7699
   26.955    2.7488
   26.970    2.9279
   26.985    2.7699
   27.000    2.6119
   27.015    2.6646
   27.030    2.6330
   27.045    2.6435
   27.060    2.7278
   27.075    2.9173
   27.090    2.9700
   27.105    2.9805
   27.120    2.7172
   27.135    2.7804
   27.150    2.8752
   27.165    2.8541
   27.180    2.6330
   27.195    2.8963
   27.210    2.7278
   27.225    2.7699
   27.240    2.5803
   27.255    2.5908
   27.270    2.5698
   27.285    2.7804
   27.300    2.8331
   27.315    2.5908
   27.330    2.6435
   27.345    2.7488
   27.360    2.9910
   27.375    2.7067
   27.390    2.6962
   27.405    2.5487
   27.420    2.6646
   27.435    2.5382
   27.450    2.4961
   27.465    2.7172
   27.480    2.5698
   27.495    2.7699
   27.510    2.8436
   27.525    2.6119
   27.540    2.8015
   27.555    2.6119
   27.570    2.6751
   27.585    2.7172
   27.600    2.8436
   27.615    2.9489
   27.630    2.6751
   27.645    2.8963
   27.660    2.8541
   27.675    2.6014
   27.690    2.6856
   27.705    2.5592
   27.720    2.7172
   27.735    2.7383
   27.750    2.7278
   27.765    2.7067
   27.780    2.5382
   27.795    2.8436
   27.810    2.8857
   27.825    2.7383
   27.840    2.8331
   27.855    2.7278
   27.870    2.4118
   27.885    2.6540
   27.900    2.6540
   27.915    2.8015
   27.930    3.0332
   27.945    3.0542
   27.960    3.2754
   27.975    3.0964
   27.990    3.4334
   28.005    3.2122
   28.020    3.4860
   28.035    3.7283
   28.050    3.7072
   28.065    3.2754
   28.080    3.2227
   28.095    3.0437
   28.110    3.0858
   28.125    3.0332
   28.140    2.8225
   28.155    2.6330
   28.170    2.7909
   28.185    2.8225
   28.200    2.8331
   28.215    2.7699
   28.230    2.7593
   28.245    2.8120
   28.260    2.6119
   28.275    2.7699
   28.290    2.6751
   28.305    2.5803
   28.320    2.6330
   28.335    2.8541
   28.350    2.7593
   28.365    2.7383
   28.380    2.7488
   28.395    2.7804
   28.410    2.6646
   28.425    2.8541
   28.440    2.7909
   28.455    2.6540
   28.470    2.4855
   28.485    2.4961
   28.500    2.6540
   28.515    2.5908
   28.530    2.4961
   28.545    2.5592
   28.560    2.4961
   28.575    2.4855
   28.590    2.5382
   28.605    2.8647
   28.620    2.9173
   28.635    2.8120
   28.650    2.5382
   28.665    2.6224
   28.680    2.7383
   28.695    2.7278
   28.710    2.5698
   28.725    2.4645
   28.740    2.6435
   28.755    2.4013
   28.770    2.7172
   28.785    2.7172
   28.800    2.8225
   28.815    2.6856
   28.830    2.7172
   28.845    2.6330
   28.860    2.7383
   28.875    2.6330
   28.890    2.6751
   28.905    2.7804
   28.920    2.8541
   28.935    3.0648
   28.950    3.2649
   28.965    3.4650
   28.980    3.3913
   28.995    3.5071
   29.010    3.3702
   29.025    3.4860
   29.040    3.4229
   29.055    3.0964
   29.070    2.9595
   29.085    2.6962
   29.100    2.5592
   29.115    2.7383
   29.130    2.7593
   29.145    2.8752
   29.160    2.8120
   29.175    2.5487
   29.190    2.5908
   29.205    2.5171
   29.220    2.7699
   29.235    2.5908
   29.250    2.7699
   29.265    2.9279
   29.280    2.5171
   29.295    2.8752
   29.310    2.6751
   29.325    2.4539
   29.340    2.6119
   29.355    2.7278
   29.370    3.0226
   29.385    2.5487
   29.400    2.6435
   29.415    2.6435
   29.430    2.9805
   29.445    2.6856
   29.460    2.6014
   29.475    2.6962
   29.490    2.7172
   29.505    2.5487
   29.520    2.5171
   29.535    2.4645
   29.550    2.6856
   29.565    2.5171
   29.580    2.4855
   29.595    2.4329
   29.610    2.7909
   29.625    2.7488
   29.640    2.7804
   29.655    2.6014
   29.670    2.4118
   29.685    2.6330
   29.700    3.0437
   29.715    2.4223
   29.730    2.8015
   29.745    2.5908
   29.760    2.6119
   29.775    2.7804
   29.790    2.5276
   29.805    2.5698
   29.820    2.6856
   29.835    3.0542
   29.850    2.8225
   29.865    2.9595
   29.880    2.6962
   29.895    2.7488
   29.910    2.4961
   29.925    2.8015
   29.940    2.4961
   29.955    2.6224
   29.970    2.6119
   29.985    2.7278
   30.000    2.5487
   30.015    2.6330
   30.030    2.6540
   30.045    2.5908
   30.060    2.6119
   30.075    2.4434
   30.090    2.4750
   30.105    2.7067
   30.120    2.5908
   30.135    2.3802
   30.150    2.5487
   30.165    2.4223
   30.180    2.5592
   30.195    2.8015
   30.210    2.7067
   30.225    2.4750
   30.240    2.7067
   30.255    2.7593
   30.270    2.7278
   30.285    2.6435
   30.300    2.6540
   30.315    2.4539
   30.330    2.5276
   30.345    2.7909
   30.360    2.6751
   30.375    2.6751
   30.390    2.6856
   30.405    2.4223
   30.420    2.4855
   30.435    2.6540
   30.450    2.7593
   30.465    2.8015
   30.480    2.7593
   30.495    2.7699
   30.510    2.6856
   30.525    2.6540
   30.540    2.7278
   30.555    2.7909
   30.570    2.5908
   30.585    2.8647
   30.600    2.6856
   30.615    2.5487
   30.630    2.5698
   30.645    2.9384
   30.660    2.6119
   30.675    2.7804
   30.690    2.5803
   30.705    2.4855
   30.720    2.5171
   30.735    2.8225
   30.750    2.5698
   30.765    2.4855
   30.780    2.5487
   30.795    2.5487
   30.810    2.6646
   30.825    2.5382
   30.840    2.4223
   30.855    2.6014
   30.870    2.5908
   30.885    2.6119
   30.900    2.7804
   30.915    2.6014
   30.930    2.8015
   30.945    2.4539
   30.960    2.5487
   30.975    2.8225
   30.990    2.6856
   31.005    2.7593
   31.020    2.5592
   31.035    2.5592
   31.050    2.7067
   31.065    2.7278
   31.080    2.8015
   31.095    2.5908
   31.110    2.6435
   31.125    2.9384
   31.140    2.6435
   31.155    2.7067
   31.170    2.6751
   31.185    2.7172
   31.200    2.5908
   31.215    2.3486
   31.230    2.5066
   31.245    2.7172
   31.260    2.6014
   31.275    2.5908
   31.290    2.4329
   31.305    2.5803
   31.320    2.6962
   31.335    2.5908
   31.350    2.6330
   31.365    2.5276
   31.380    2.5066
   31.395    2.4750
   31.410    2.5803
   31.425    2.6856
   31.440    2.4434
   31.455    2.7172
   31.470    2.5066
   31.485    2.6751
   31.500    2.5382
   31.515    2.7067
   31.530    2.6330
   31.545    2.6646
   31.560    2.6646
   31.575    2.6435
   31.590    2.3697
   31.605    2.4434
   31.620    2.6014
   31.635    2.7172
   31.650    2.7278
   31.665    2.6962
   31.680    2.7699
   31.695    2.8331
   31.710    2.5908
   31.725    2.6330
   31.740    2.9700
   31.755    3.0648
   31.770    2.9700
   31.785    3.1069
   31.800    2.9595
   31.815    3.1385
   31.830    3.2333
   31.845    3.0858
   31.860    2.9700
   31.875    2.9595
   31.890    2.6646
   31.905    2.8120
   31.920    2.6962
   31.935    2.7067
   31.950    2.5487
   31.965    2.7172
   31.980    2.7909
   31.995    2.7909
   32.010    2.9595
   32.025    3.0332
   32.040    3.1912
   32.055    3.5176
   32.070    3.8863
   32.085    3.8652
   32.100    3.9179
   32.115    4.0969
   32.130    3.8968
   32.145    3.9389
   32.160    4.1706
   32.175    3.9179
   32.190    3.5176
   32.205    2.9068
   32.220    2.6119
   32.235    2.8857
   32.250    2.8120
   32.265    2.6119
   32.280    2.5487
   32.295    2.5592
   32.310    2.6751
   32.325    2.6435
   32.340    2.8120
   32.355    2.5803
   32.370    2.5908
   32.385    2.3907
   32.400    2.6119
   32.415    2.3591
   32.430    2.6435
   32.445    2.5803
   32.460    2.5171
   32.475    2.5066
   32.490    2.5908
   32.505    2.5698
   32.520    2.4855
   32.535    2.4961
   32.550    2.4645
   32.565    2.4013
   32.580    2.4855
   32.595    2.5171
   32.610    2.4645
   32.625    2.5698
   32.640    2.5276
   32.655    2.8015
   32.670    2.7699
   32.685    2.2328
   32.700    2.2328
   32.715    2.4013
   32.730    2.3907
   32.745    2.2854
   32.760    2.5171
   32.775    2.7804
   32.790    2.4961
   32.805    2.4855
   32.820    2.3697
   32.835    2.3802
   32.850    2.4645
   32.865    2.4013
   32.880    2.5803
   32.895    2.5698
   32.910    2.4013
   32.925    2.4434
   32.940    2.3907
   32.955    2.2538
   32.970    2.4329
   32.985    2.4961
   33.000    2.4118
   33.015    2.6540
   33.030    2.7909
   33.045    2.5171
   33.060    2.5592
   33.075    2.6856
   33.090    2.5171
   33.105    2.2643
   33.120    2.5698
   33.135    2.4961
   33.150    2.6119
   33.165    2.5171
   33.180    2.2012
   33.195    2.3591
   33.210    2.1380
   33.225    2.4539
   33.240    2.2117
   33.255    2.3275
   33.270    2.2854
   33.285    2.3170
   33.300    2.2749
   33.315    2.4013
   33.330    2.4434
   33.345    2.3802
   33.360    2.3907
   33.375    2.2854
   33.390    2.5066
   33.405    2.4750
   33.420    2.3697
   33.435    2.5487
   33.450    2.3170
   33.465    2.3065
   33.480    2.3065
   33.495    2.2538
   33.510    2.4118
   33.525    2.4855
   33.540    2.4223
   33.555    2.5698
   33.570    2.3275
   33.585    2.3591
   33.600    2.1590
   33.615    2.2328
   33.630    2.0537
   33.645    2.1274
   33.660    2.4329
   33.675    2.5592
   33.690    2.5171
   33.705    2.3907
   33.720    2.3065
   33.735    2.5276
   33.750    2.7172
   33.765    2.6014
   33.780    2.7804
   33.795    3.1701
   33.810    2.9805
   33.825    3.0332
   33.840    3.0858
   33.855    3.3070
   33.870    3.0226
   33.885    2.9068
   33.900    2.8963
   33.915    2.7383
   33.930    2.6330
   33.945    2.4013
   33.960    2.6435
   33.975    2.4434
   33.990    2.6540
   34.005    2.6224
   34.020    2.6330
   34.035    2.4961
   34.050    2.2012
   34.065    2.2433
   34.080    2.4223
   34.095    2.3486
   34.110    2.3802
   34.125    2.2222
   34.140    2.3170
   34.155    2.1169
   34.170    2.2538
   34.185    2.1274
   34.200    2.3486
   34.215    2.4118
   34.230    2.3486
   34.245    2.2328
   34.260    2.1380
   34.275    2.2012
   34.290    2.4539
   34.305    2.5382
   34.320    2.4750
   34.335    2.4223
   34.350    2.2959
   34.365    2.3275
   34.380    2.3907
   34.395    2.3591
   34.410    2.3170
   34.425    2.1696
   34.440    2.0326
   34.455    2.0853
   34.470    2.3381
   34.485    2.4013
   34.500    2.4750
   34.515    2.3907
   34.530    2.4539
   34.545    2.3591
   34.560    2.1485
   34.575    2.3802
   34.590    2.2328
   34.605    2.1590
   34.620    2.4750
   34.635    2.4855
   34.650    2.5276
   34.665    2.4434
   34.680    2.1169
   34.695    2.2012
   34.710    2.2012
   34.725    2.2959
   34.740    2.1590
   34.755    2.1380
   34.770    2.2222
   34.785    2.4223
   34.800    2.3170
   34.815    2.3065
   34.830    2.3486
   34.845    2.2854
   34.860    2.4223
   34.875    2.2433
   34.890    2.1485
   34.905    2.3486
   34.920    2.2749
   34.935    2.3591
   34.950    2.2854
   34.965    2.2854
   34.980    2.1801
   34.995    2.1906
   35.010    2.1064
   35.025    1.9905
   35.040    2.0221
   35.055    2.0853
   35.070    2.4118
   35.085    2.3486
   35.100    2.1485
   35.115    2.1485
   35.130    2.1696
   35.145    2.3907
   35.160    2.3486
   35.175    2.1274
   35.190    2.2117
   35.205    2.3275
   35.220    2.0221
   35.235    2.0853
   35.250    2.1906
   35.265    2.1169
   35.280    2.2538
   35.295    2.0537
   35.310    2.1380
   35.325    2.2433
   35.340    2.4645
   35.355    2.1801
   35.370    2.2749
   35.385    2.2222
   35.400    2.5171
   35.415    2.2749
   35.430    2.2643
   35.445    2.2538
   35.460    2.2749
   35.475    2.3486
   35.490    2.2749
   35.505    2.4118
   35.520    2.1169
   35.535    2.1064
   35.550    1.9379
   35.565    1.9589
   35.580    2.0221
   35.595    1.9695
   35.610    2.3275
   35.625    2.2538
   35.640    2.0116
   35.655    2.0432
   35.670    2.0116
   35.685    2.2012
   35.700    2.2538
   35.715    2.3486
   35.730    2.4645
   35.745    2.2328
   35.760    2.3170
   35.775    2.2854
   35.790    2.3486
   35.805    2.1590
   35.820    2.2959
   35.835    2.4434
   35.850    2.2538
   35.865    2.3275
   35.880    2.2328
   35.895    2.0748
   35.910    2.3802
   35.925    2.2959
   35.940    2.3486
   35.955    1.9800
   35.970    2.0326
   35.985    2.2643
   36.000    2.1801
   36.015    2.3697
   36.030    2.2117
   36.045    2.1801
   36.060    2.1380
   36.075    1.8957
   36.090    2.1274
   36.105    2.0537
   36.120    2.1064
   36.135    2.2854
   36.150    2.2433
   36.165    2.1801
   36.180    2.2433
   36.195    2.2959
   36.210    2.1906
   36.225    2.1485
   36.240    2.3486
   36.255    2.3591
   36.270    2.1485
   36.285    2.2749
   36.300    2.1380
   36.315    2.2012
   36.330    2.0642
   36.345    2.2538
   36.360    2.2222
   36.375    2.1801
   36.390    2.1485
   36.405    2.0432
   36.420    2.2959
   36.435    2.1380
   36.450    2.0853
   36.465    2.3065
   36.480    2.1590
   36.495    2.3381
   36.510    2.2854
   36.525    2.2117
   36.540    1.9905
   36.555    2.0011
   36.570    1.9168
   36.585    2.1380
   36.600    2.2222
   36.615    2.1274
   36.630    2.2749
   36.645    2.4013
   36.660    2.2012
   36.675    2.4223
   36.690    2.2117
   36.705    2.0642
   36.720    2.0116
   36.735    2.0748
   36.750    2.0853
   36.765    2.2117
   36.780    2.1696
   36.795    2.0537
   36.810    2.0853
   36.825    2.1801
   36.840    2.2854
   36.855    2.2538
   36.870    2.0221
   36.885    2.1485
   36.900    2.1274
   36.915    2.1380
   36.930    2.1380
   36.945    2.2749
   36.960    2.2433
   36.975    2.1274
   36.990    2.2222
   37.005    2.2222
   37.020    2.4750
   37.035    2.1906
   37.050    2.1274
   37.065    2.3065
   37.080    2.2117
   37.095    2.2959
   37.110    2.2643
   37.125    2.2538
   37.140    2.2117
   37.155    2.1801
   37.170    2.3907
   37.185    2.2012
   37.200    1.8957
   37.215    2.0432
   37.230    2.2643
   37.245    1.9273
   37.260    1.9695
   37.275    1.9695
   37.290    2.3170
   37.305    2.3065
   37.320    2.1169
   37.335    2.2328
   37.350    2.2433
   37.365    2.0116
   37.380    1.8852
   37.395    1.8325
   37.410    1.9695
   37.425    2.2117
   37.440    2.1274
   37.455    1.9379
   37.470    2.0748
   37.485    2.2117
   37.500    2.0748
   37.515    2.2643
   37.530    2.0011
   37.545    2.1274
   37.560    2.1801
   37.575    2.0537
   37.590    2.1274
   37.605    2.2222
   37.620    2.1169
   37.635    2.0853
   37.650    2.2012
   37.665    1.9484
   37.680    2.0748
   37.695    2.1590
   37.710    2.2117
   37.725    2.2643
   37.740    2.1064
   37.755    2.1169
   37.770    2.1485
   37.785    2.4855
   37.800    2.3381
   37.815    2.4223
   37.830    2.1380
   37.845    2.0853
   37.860    2.3381
   37.875    2.2959
   37.890    2.0642
   37.905    2.2854
   37.920    2.1696
   37.935    2.0432
   37.950    1.8957
   37.965    2.4855
   37.980    2.2643
   37.995    2.1906
   38.010    2.0642
   38.025    2.0748
   38.040    2.0011
   38.055    2.1801
   38.070    2.3065
   38.085    1.9800
   38.100    2.1169
   38.115    2.3275
   38.130    2.0853
   38.145    2.1590
   38.160    1.8641
   38.175    2.1906
   38.190    2.2012
   38.205    2.0853
   38.220    2.0748
   38.235    2.1274
   38.250    2.1274
   38.265    1.9695
   38.280    2.2643
   38.295    2.0853
   38.310    2.3591
   38.325    2.3170
   38.340    2.3802
   38.355    2.2854
   38.370    2.1906
   38.385    2.1696
   38.400    2.0748
   38.415    2.1696
   38.430    2.2222
   38.445    2.2117
   38.460    2.1590
   38.475    2.1380
   38.490    2.2328
   38.505    2.5908
   38.520    2.4013
   38.535    2.3486
   38.550    2.1590
   38.565    2.3486
   38.580    2.5487
   38.595    2.4645
   38.610    2.3486
   38.625    2.3065
   38.640    2.4329
   38.655    2.2012
   38.670    2.3381
   38.685    2.5066
   38.700    2.5171
   38.715    2.1590
   38.730    2.2959
   38.745    2.2433
   38.760    2.3065
   38.775    2.1380
   38.790    2.0537
   38.805    1.9800
   38.820    2.0958
   38.835    2.1064
   38.850    2.2854
   38.865    2.2012
   38.880    2.0748
   38.895    2.2749
   38.910    2.2959
   38.925    2.2643
   38.940    2.2012
   38.955    2.0748
   38.970    2.2012
   38.985    2.2643
   39.000    2.2538
   39.015    2.0853
   39.030    2.1801
   39.045    2.0432
   39.060    2.1064
   39.075    2.1801
   39.090    2.4223
   39.105    2.3486
   39.120    2.1485
   39.135    2.2538
   39.150    2.0642
   39.165    2.1169
   39.180    2.3065
   39.195    2.4118
   39.210    2.3802
   39.225    2.2749
   39.240    2.3907
   39.255    2.3275
   39.270    2.2433
   39.285    2.4434
   39.300    2.3486
   39.315    2.0432
   39.330    2.2749
   39.345    2.0853
   39.360    2.2328
   39.375    2.2643
   39.390    2.2012
   39.405    2.1064
   39.420    2.1906
   39.435    2.4750
   39.450    2.3802
   39.465    2.1380
   39.480    2.0221
   39.495    2.2222
   39.510    2.3591
   39.525    2.2012
   39.540    2.4329
   39.555    2.2749
   39.570    2.3170
   39.585    2.1906
   39.600    2.1380
   39.615    2.2222
   39.630    2.3802
   39.645    2.4118
   39.660    2.2117
   39.675    2.2643
   39.690    2.1064
   39.705    2.0432
   39.720    2.0642
   39.735    2.0221
   39.750    2.1380
   39.765    2.0326
   39.780    1.9063
   39.795    2.0748
   39.810    2.0432
   39.825    2.1274
   39.840    2.1064
   39.855    2.2643
   39.870    2.0221
   39.885    2.0221
   39.900    2.0116
   39.915    2.2117
   39.930    2.2222
   39.945    2.1906
   39.960    2.0011
   39.975    2.0853
   39.990    1.8325
