    1.500    8.6151
    1.515    8.6888
    1.530    8.5308
    1.545    8.6677
    1.560    8.2780
    1.575    8.6045
    1.590    8.1938
    1.605    8.1938
    1.620    8.1938
    1.635    8.3834
    1.650    8.2254
    1.665    8.4150
    1.680    8.0569
    1.695    7.5619
    1.710    7.8041
    1.725    8.1727
    1.740    7.7830
    1.755    7.6567
    1.770    7.6251
    1.785    7.6461
    1.800    7.9200
    1.815    7.3196
    1.830    7.3723
    1.845    7.9410
    1.860    7.6040
    1.875    7.7620
    1.890    7.3196
    1.905    7.2459
    1.920    6.9089
    1.935    7.2565
    1.950    7.2354
    1.965    7.1511
    1.980    7.3302
    1.995    7.1617
    2.010    7.2354
    2.025    7.1406
    2.040    6.9616
    2.055    6.6140
    2.070    6.5613
    2.085    6.7193
    2.100    7.2038
    2.115    6.8036
    2.130    6.8457
    2.145    6.8773
    2.160    6.7825
    2.175    6.6561
    2.190    6.4139
    2.205    6.6667
    2.220    6.6351
    2.235    6.4560
    2.250    6.5719
    2.265    6.4350
    2.280    6.4244
    2.295    6.3823
    2.310    6.4244
    2.325    6.3823
    2.340    6.4876
    2.355    6.4560
    2.370    6.5508
    2.385    6.1085
    2.400    6.2138
    2.415    6.2349
    2.430    6.4139
    2.445    6.1611
    2.460    6.5929
    2.475    5.8873
    2.490    6.1190
    2.505    6.1295
    2.520    6.2454
    2.535    6.0348
    2.550    6.2665
    2.565    6.2770
    2.580    6.0348
    2.595    5.9926
    2.610    5.9189
    2.625    5.8347
    2.640    6.3507
    2.655    6.2454
    2.670    5.7715
    2.685    6.1717
    2.700    6.0979
    2.715    5.8768
    2.730    5.9505
    2.745    5.5503
    2.760    5.8768
    2.775    5.8452
    2.790    5.8347
    2.805    5.8452
    2.820    5.5819
    2.835    6.0032
    2.850    5.7188
    2.865    6.0979
    2.880    5.7820
    2.895    5.4344
    2.910    5.7820
    2.925    5.9821
    2.940    5.8031
    2.955    5.8347
    2.970    5.6345
    2.985    5.4871
    3.000    5.2554
    3.015    5.6135
    3.030    5.6556
    3.045    5.4344
    3.060    5.4871
    3.075    5.2659
    3.090    5.6029
    3.105    5.6872
    3.120    5.3818
    3.135    5.4660
    3.150    5.5503
    3.165    5.7188
    3.180    5.4239
    3.195    5.9400
    3.210    5.5608
    3.225    5.2659
    3.240    5.3818
    3.255    5.2343
    3.270    5.6345
    3.285    5.2659
    3.300    5.3923
    3.315    5.4976
    3.330    5.2870
    3.345    5.8241
    3.360    5.6767
    3.375    5.5608
    3.390    5.4239
    3.405    5.3186
    3.420    5.2870
    3.435    5.1290
    3.450    5.4976
    3.465    5.2975
    3.480    5.4239
    3.495    5.2133
    3.510    5.6767
    3.525    5.6872
    3.540    5.4239
    3.555    5.2975
    3.570    5.4976
    3.585    5.4871
    3.600    5.2449
    3.615    5.4660
    3.630    5.4766
    3.645    5.6029
    3.660    5.2765
    3.675    5.3081
    3.690    5.6135
    3.705    5.5187
    3.720    4.6130
    3.735    5.3712
    3.750    5.2554
    3.765    5.3291
    3.780    5.4871
    3.795    5.4766
    3.810    5.8241
    3.825    5.2870
    3.840    5.6872
    3.855    5.5292
    3.870    5.5398
    3.885    5.6029
    3.900    4.9289
    3.915    5.4871
    3.930    5.5187
    3.945    5.4871
    3.960    5.6661
    3.975    5.4028
    3.990    5.2238
    4.005    5.4028
    4.020    5.4660
    4.035    5.4344
    4.050    5.6767
    4.065    5.5082
    4.080    5.4976
    4.095    5.0553
    4.110    4.9184
    4.125    5.6345
    4.140    5.7504
    4.155    5.7399
    4.170    5.5714
    4.185    5.6029
    4.200    5.3923
    4.215    6.0874
    4.230    5.9084
    4.245    5.2133
    4.260    5.2343
    4.275    5.5924
    4.290    5.4660
    4.305    5.6872
    4.320    5.7083
    4.335    5.4134
    4.350    5.6451
    4.365    5.8662
    4.380    5.6872
    4.395    5.4766
    4.410    5.5714
    4.425    5.9294
    4.440    5.7715
    4.455    5.6872
    4.470    5.8031
    4.485    5.7293
    4.500    5.7188
    4.515    5.4239
    4.530    5.5503
    4.545    5.8136
    4.560    5.5187
    4.575    5.8557
    4.590    5.6345
    4.605    5.6767
    4.620    5.5503
    4.635    5.3186
    4.650    5.5503
    4.665    5.4766
    4.680    5.6029
    4.695    5.9294
    4.710    5.6240
    4.725    5.7188
    4.740    5.3818
    4.755    5.5608
    4.770    5.5819
    4.785    5.5608
    4.800    5.7504
    4.815    5.7609
    4.830    5.6767
    4.845    5.6661
    4.860    5.8978
    4.875    5.9716
    4.890    6.1822
    4.905    5.8452
    4.920    6.1085
    4.935    5.9505
    4.950    5.8031
    4.965    5.9189
    4.980    6.0348
    4.995    6.0558
    5.010    5.8873
    5.025    6.4244
    5.040    6.0137
    5.055    6.6351
    5.070    6.4455
    5.085    5.7609
    5.100    5.7715
    5.115    6.3191
    5.130    6.2981
    5.145    6.0874
    5.160    6.2665
    5.175    6.5192
    5.190    6.7720
    5.205    6.7509
    5.220    6.8352
    5.235    6.8668
    5.250    6.8668
    5.265    6.8457
    5.280    7.0248
    5.295    6.9194
    5.310    6.9932
    5.325    7.2143
    5.340    7.2565
    5.355    7.0248
    5.370    6.8878
    5.385    7.2880
    5.400    7.7199
    5.415    7.8146
    5.430    7.3196
    5.445    7.4776
    5.460    7.4144
    5.475    7.5303
    5.490    7.6040
    5.505    8.0569
    5.520    7.6251
    5.535    7.5303
    5.550    7.5408
    5.565    7.5619
    5.580    7.1301
    5.595    7.5092
    5.610    7.3302
    5.625    7.6145
    5.640    7.4776
    5.655    7.6567
    5.670    7.3302
    5.685    7.3512
    5.700    7.6461
    5.715    7.0353
    5.730    7.1195
    5.745    7.0563
    5.760    7.1406
    5.775    7.1511
    5.790    7.0458
    5.805    6.5719
    5.820    6.7299
    5.835    6.6877
    5.850    6.3823
    5.865    6.4455
    5.880    6.2033
    5.895    6.0769
    5.910    6.0348
    5.925    5.8873
    5.940    6.3507
    5.955    6.1611
    5.970    6.3086
    5.985    6.1085
    6.000    6.2665
    6.015    5.9610
    6.030    5.4555
    6.045    6.2875
    6.060    6.1085
    6.075    6.0242
    6.090    5.9716
    6.105    5.6451
    6.120    5.5398
    6.135    5.3923
    6.150    5.3712
    6.165    5.8978
    6.180    5.6872
    6.195    5.5819
    6.210    5.4344
    6.225    5.2449
    6.240    4.9710
    6.255    5.4660
    6.270    5.3186
    6.285    5.1606
    6.300    5.3291
    6.315    5.1922
    6.330    5.3712
    6.345    4.9500
    6.360    5.2765
    6.375    5.1606
    6.390    4.9921
    6.405    4.9500
    6.420    5.2238
    6.435    5.3502
    6.450    5.1395
    6.465    4.9289
    6.480    4.9816
    6.495    5.0658
    6.510    5.2449
    6.525    4.7604
    6.540    4.7920
    6.555    5.0026
    6.570    4.8025
    6.585    4.9710
    6.600    5.0974
    6.615    4.6867
    6.630    4.9394
    6.645    4.9394
    6.660    4.9184
    6.675    5.2238
    6.690    4.9394
    6.705    4.6551
    6.720    4.8131
    6.735    4.8973
    6.750    5.0237
    6.765    4.7288
    6.780    4.5603
    6.795    4.6551
    6.810    5.0448
    6.825    4.6972
    6.840    4.6024
    6.855    4.6972
    6.870    4.6024
    6.885    4.5603
    6.900    4.8657
    6.915    4.6551
    6.930    4.3813
    6.945    4.6656
    6.960    4.9500
    6.975    4.8447
    6.990    4.7077
    7.005    4.4023
    7.020    4.4550
    7.035    4.6024
    7.050    4.6340
    7.065    4.3075
    7.080    4.3602
    7.095    4.2759
    7.110    4.2759
    7.125    4.3707
    7.140    4.2338
    7.155    4.5287
    7.170    4.4760
    7.185    4.4655
    7.200    4.4023
    7.215    4.2549
    7.230    4.2127
    7.245    4.4339
    7.260    4.4023
    7.275    4.3075
    7.290    3.9494
    7.305    3.7493
    7.320    4.0021
    7.335    4.0021
    7.350    4.2233
    7.365    4.1180
    7.380    4.0969
    7.395    4.2022
    7.410    3.9284
    7.425    4.2654
    7.440    4.3918
    7.455    4.3602
    7.470    4.3286
    7.485    3.8336
    7.500    3.6335
    7.515    3.6651
    7.530    4.1390
    7.545    3.6756
    7.560    3.6335
    7.575    3.6862
    7.590    3.8968
    7.605    4.1706
    7.620    3.9916
    7.635    3.8757
    7.650    3.8231
    7.665    4.1706
    7.680    4.2654
    7.695    3.7283
    7.710    3.6862
    7.725    3.8125
    7.740    3.8336
    7.755    3.8125
    7.770    3.8547
    7.785    3.8231
    7.800    3.9389
    7.815    3.7704
    7.830    3.5598
    7.845    4.0021
    7.860    3.8547
    7.875    3.6440
    7.890    3.6335
    7.905    3.9600
    7.920    3.5808
    7.935    3.8336
    7.950    3.6651
    7.965    3.7283
    7.980    3.6862
    7.995    3.4334
    8.010    3.2543
    8.025    3.6440
    8.040    3.6756
    8.055    3.2859
    8.070    3.7072
    8.085    3.6862
    8.100    3.4966
    8.115    3.8336
    8.130    3.6019
    8.145    3.5176
    8.160    3.6019
    8.175    3.7388
    8.190    3.5598
    8.205    3.4755
    8.220    3.3070
    8.235    3.4439
    8.250    3.6019
    8.265    3.5282
    8.280    3.5808
    8.295    3.4334
    8.310    3.4755
    8.325    3.7493
    8.340    3.6967
    8.355    3.3913
    8.370    3.2649
    8.385    3.2438
    8.400    3.1280
    8.415    3.2754
    8.430    3.2438
    8.445    3.4334
    8.460    3.4966
    8.475    3.3491
    8.490    3.2859
    8.505    3.4860
    8.520    3.8020
    8.535    3.8125
    8.550    3.7493
    8.565    3.6230
    8.580    3.6756
    8.595    3.2754
    8.610    3.1280
    8.625    3.2122
    8.640    3.5808
    8.655    3.5598
    8.670    3.3702
    8.685    3.1596
    8.700    3.1069
    8.715    3.5492
    8.730    3.3491
    8.745    3.3070
    8.760    3.5808
    8.775    3.6335
    8.790    3.3070
    8.805    3.3702
    8.820    3.3491
    8.835    3.3281
    8.850    3.2965
    8.865    3.4123
    8.880    3.2017
    8.895    3.3070
    8.910    3.2333
    8.925    3.1701
    8.940    3.4755
    8.955    3.0964
    8.970    3.2754
    8.985    3.6335
    9.000    3.2438
    9.015    3.1490
    9.030    3.0648
    9.045    3.1806
    9.060    3.2333
    9.075    3.2649
    9.090    3.3913
    9.105    3.1385
    9.120    3.1490
    9.135    3.6124
    9.150    3.3491
    9.165    3.1806
    9.180    3.4123
    9.195    3.3386
    9.210    2.8857
    9.225    3.2543
    9.240    3.3491
    9.255    3.3702
    9.270    3.3070
    9.285    3.3597
    9.300    3.2122
    9.315    3.1912
    9.330    2.9595
    9.345    3.2227
    9.360    3.3597
    9.375    3.2333
    9.390    3.1806
    9.405    3.1912
    9.420    3.1806
    9.435    3.4123
    9.450    3.2754
    9.465    3.0226
    9.480    3.0016
    9.495    3.0121
    9.510    3.0542
    9.525    2.9595
    9.540    3.2754
    9.555    3.1806
    9.570    3.3175
    9.585    3.2438
    9.600    2.8857
    9.615    2.9279
    9.630    2.8436
    9.645    2.9910
    9.660    3.0648
    9.675    3.3491
    9.690    3.4439
    9.705    3.0964
    9.720    3.3281
    9.735    3.5598
    9.750    3.3702
    9.765    3.2438
    9.780    3.3175
    9.795    3.3070
    9.810    3.2965
    9.825    3.0753
    9.840    3.3281
    9.855    3.4334
    9.870    3.3386
    9.885    3.3597
    9.900    3.2754
    9.915    3.3597
    9.930    3.0542
    9.945    2.9173
    9.960    3.1069
    9.975    3.2754
    9.990    3.2227
   10.005    3.0964
   10.020    3.0016
   10.035    3.4018
   10.050    3.1490
   10.065    3.4018
   10.080    3.0437
   10.095    3.0226
   10.110    3.2649
   10.125    3.0648
   10.140    2.9700
   10.155    3.2859
   10.170    3.2649
   10.185    3.2649
   10.200    3.2543
   10.215    3.0437
   10.230    3.1701
   10.245    3.0964
   10.260    3.4018
   10.275    3.1385
   10.290    3.4334
   10.305    3.0753
   10.320    2.9805
   10.335    3.2965
   10.350    3.4334
   10.365    3.2333
   10.380    3.2017
   10.395    3.2859
   10.410    3.2017
   10.425    3.0542
   10.440    3.1596
   10.455    3.4544
   10.470    3.5282
   10.485    3.5598
   10.500    3.4334
   10.515    3.5282
   10.530    3.4334
   10.545    3.3175
   10.560    3.3491
   10.575    3.5703
   10.590    3.2227
   10.605    3.1912
   10.620    3.2965
   10.635    3.2649
   10.650    3.2543
   10.665    3.4123
   10.680    3.2227
   10.695    3.1912
   10.710    3.1912
   10.725    3.1912
   10.740    3.4544
   10.755    3.4544
   10.770    3.2754
   10.785    3.5282
   10.800    3.3913
   10.815    3.8125
   10.830    3.6124
   10.845    3.5387
   10.860    3.6967
   10.875    3.4123
   10.890    3.4018
   10.905    3.3702
   10.920    3.4650
   10.935    3.6124
   10.950    3.6335
   10.965    3.5598
   10.980    3.3070
   10.995    3.5071
   11.010    3.5703
   11.025    3.5598
   11.040    3.0753
   11.055    3.2965
   11.070    3.4860
   11.085    3.4334
   11.100    3.3281
   11.115    3.5914
   11.130    3.3807
   11.145    3.1596
   11.160    3.3597
   11.175    3.4650
   11.190    3.2017
   11.205    3.4755
   11.220    3.5071
   11.235    3.6124
   11.250    3.6440
   11.265    3.4229
   11.280    3.3702
   11.295    3.5492
   11.310    3.8020
   11.325    3.5387
   11.340    3.5492
   11.355    3.3702
   11.370    3.3491
   11.385    3.4229
   11.400    3.6546
   11.415    3.6019
   11.430    3.7493
   11.445    3.2754
   11.460    3.3281
   11.475    3.3281
   11.490    3.2965
   11.505    3.3702
   11.520    3.3597
   11.535    3.4755
   11.550    3.2438
   11.565    3.2333
   11.580    3.5598
   11.595    3.5808
   11.610    3.5387
   11.625    3.3281
   11.640    3.4966
   11.655    3.4018
   11.670    3.3491
   11.685    3.4755
   11.700    3.3070
   11.715    3.3175
   11.730    3.3386
   11.745    3.0648
   11.760    3.5071
   11.775    3.3913
   11.790    3.3913
   11.805    3.3597
   11.820    3.3807
   11.835    3.0964
   11.850    3.3597
   11.865    3.2438
   11.880    3.2543
   11.895    3.3702
   11.910    3.4334
   11.925    3.4544
   11.940    3.1596
   11.955    3.6124
   11.970    3.5598
   11.985    3.2543
   12.000    3.3913
   12.015    3.2017
   12.030    3.4650
   12.045    3.1806
   12.060    3.2543
   12.075    3.3281
   12.090    3.4860
   12.105    3.0964
   12.120    3.3175
   12.135    3.1701
   12.150    3.4544
   12.165    3.2333
   12.180    3.4123
   12.195    3.0542
   12.210    3.2543
   12.225    3.3491
   12.240    3.4439
   12.255    3.2859
   12.270    3.6440
   12.285    3.5071
   12.300    3.3281
   12.315    3.1490
   12.330    3.2859
   12.345    3.2333
   12.360    3.1701
   12.375    3.3281
   12.390    3.4755
   12.405    2.9700
   12.420    3.0753
   12.435    3.2543
   12.450    3.4966
   12.465    3.2333
   12.480    3.1385
   12.495    3.4439
   12.510    3.4439
   12.525    3.6862
   12.540    3.8231
   12.555    3.4334
   12.570    3.2543
   12.585    3.1490
   12.600    3.2965
   12.615    3.0858
   12.630    2.9700
   12.645    2.9173
   12.660    3.5914
   12.675    3.1912
   12.690    3.1069
   12.705    3.2122
   12.720    2.8963
   12.735    2.9700
   12.750    3.1174
   12.765    2.9805
   12.780    3.2754
   12.795    3.3175
   12.810    3.0858
   12.825    3.1806
   12.840    3.6124
   12.855    3.3386
   12.870    3.0121
   12.885    2.9805
   12.900    3.0964
   12.915    3.2754
   12.930    3.1385
   12.945    3.2754
   12.960    3.3175
   12.975    3.1596
   12.990    3.1701
   13.005    3.2649
   13.020    3.2122
   13.035    3.2965
   13.050    3.3281
   13.065    3.4018
   13.080    3.4018
   13.095    3.1490
   13.110    3.3386
   13.125    3.2754
   13.140    3.3807
   13.155    3.1280
   13.170    3.3070
   13.185    3.3281
   13.200    3.2649
   13.215    3.0016
   13.230    3.0648
   13.245    3.2333
   13.260    3.2859
   13.275    3.6335
   13.290    3.3807
   13.305    2.9910
   13.320    3.1490
   13.335    3.2227
   13.350    3.0121
   13.365    3.3070
   13.380    3.1701
   13.395    3.0858
   13.410    2.9805
   13.425    3.0858
   13.440    3.0858
   13.455    3.1385
   13.470    3.1596
   13.485    3.0964
   13.500    3.0542
   13.515    3.0542
   13.530    2.8963
   13.545    3.2649
   13.560    3.4860
   13.575    3.4755
   13.590    3.2649
   13.605    3.2649
   13.620    3.1596
   13.635    3.2438
   13.650    3.0332
   13.665    2.9489
   13.680    3.2017
   13.695    3.1701
   13.710    3.3491
   13.725    3.2649
   13.740    3.4229
   13.755    3.4018
   13.770    3.3281
   13.785    3.2438
   13.800    3.0858
   13.815    3.1701
   13.830    3.3702
   13.845    3.3281
   13.860    2.9805
   13.875    3.0542
   13.890    3.5492
   13.905    3.2754
   13.920    3.1701
   13.935    3.3386
   13.950    3.1174
   13.965    3.2017
   13.980    3.5598
   13.995    3.3386
   14.010    3.4123
   14.025    3.5492
   14.040    3.4650
   14.055    3.4860
   14.070    3.2859
   14.085    3.4229
   14.100    3.6440
   14.115    3.5282
   14.130    3.4860
   14.145    3.6756
   14.160    3.4544
   14.175    3.5598
   14.190    3.4229
   14.205    3.4018
   14.220    3.2227
   14.235    3.6862
   14.250    3.4334
   14.265    3.6862
   14.280    3.4966
   14.295    3.5914
   14.310    3.3913
   14.325    3.6756
   14.340    3.3281
   14.355    3.6440
   14.370    3.7704
   14.385    3.7704
   14.400    3.7388
   14.415    3.9284
   14.430    3.8757
   14.445    3.8125
   14.460    3.7072
   14.475    3.4439
   14.490    3.6230
   14.505    3.6230
   14.520    3.5176
   14.535    3.4650
   14.550    3.7704
   14.565    3.8863
   14.580    3.4439
   14.595    3.6440
   14.610    3.7177
   14.625    3.6862
   14.640    3.5808
   14.655    3.7809
   14.670    3.6124
   14.685    3.8547
   14.700    3.5176
   14.715    3.3386
   14.730    3.6124
   14.745    3.4439
   14.760    3.6019
   14.775    3.5703
   14.790    3.6967
   14.805    3.3807
   14.820    3.2017
   14.835    3.3807
   14.850    3.6967
   14.865    3.8020
   14.880    3.5492
   14.895    3.2017
   14.910    3.2965
   14.925    3.5387
   14.940    3.2227
   14.955    2.9595
   14.970    3.1806
   14.985    3.4018
   15.000    3.4439
   15.015    3.4018
   15.030    3.3702
   15.045    3.3597
   15.060    3.3175
   15.075    3.6019
   15.090    3.4544
   15.105    3.2122
   15.120    3.2438
   15.135    3.0753
   15.150    3.2227
   15.165    3.2438
   15.180    3.4860
   15.195    3.5071
   15.210    3.4018
   15.225    3.1385
   15.240    2.9489
   15.255    3.2017
   15.270    3.2017
   15.285    3.5492
   15.300    3.2333
   15.315    3.3070
   15.330    3.3070
   15.345    3.3386
   15.360    3.3386
   15.375    3.3386
   15.390    3.4544
   15.405    3.5176
   15.420    3.1596
   15.435    3.1069
   15.450    3.0016
   15.465    3.2333
   15.480    3.1912
   15.495    3.2859
   15.510    3.4544
   15.525    3.3070
   15.540    3.1596
   15.555    3.4544
   15.570    2.9700
   15.585    3.3807
   15.600    3.5492
   15.615    3.4229
   15.630    3.5387
   15.645    3.4229
   15.660    3.2017
   15.675    3.3175
   15.690    3.1596
   15.705    3.4018
   15.720    3.2017
   15.735    3.0332
   15.750    3.4966
   15.765    3.5282
   15.780    3.3175
   15.795    3.6335
   15.810    3.6756
   15.825    3.2859
   15.840    3.3070
   15.855    3.4966
   15.870    3.7177
   15.885    3.5808
   15.900    3.2859
   15.915    3.0437
   15.930    3.3070
   15.945    3.4123
   15.960    3.4334
   15.975    3.2965
   15.990    3.2754
   16.005    3.5387
   16.020    3.2649
   16.035    3.4229
   16.050    3.2438
   16.065    3.3702
   16.080    3.4229
   16.095    3.5071
   16.110    3.4229
   16.125    3.5492
   16.140    3.0964
   16.155    3.3386
   16.170    3.1912
   16.185    3.3281
   16.200    3.4018
   16.215    3.2543
   16.230    3.4229
   16.245    3.3281
   16.260    3.3702
   16.275    3.3597
   16.290    3.2227
   16.305    3.3491
   16.320    3.2649
   16.335    3.2438
   16.350    3.5176
   16.365    3.4544
   16.380    3.3913
   16.395    3.3386
   16.410    3.2438
   16.425    3.1912
   16.440    3.4018
   16.455    3.0121
   16.470    3.3386
   16.485    3.3597
   16.500    3.3070
   16.515    3.3597
   16.530    3.3386
   16.545    3.3491
   16.560    3.3175
   16.575    3.2227
   16.590    3.3070
   16.605    3.1280
   16.620    2.9279
   16.635    3.3807
   16.650    3.2859
   16.665    3.2754
   16.680    3.3597
   16.695    3.6967
   16.710    3.4966
   16.725    3.1596
   16.740    3.3491
   16.755    3.3597
   16.770    3.5282
   16.785    3.1701
   16.800    3.2859
   16.815    3.2754
   16.830    3.2333
   16.845    3.0753
   16.860    3.2017
   16.875    3.3491
   16.890    3.4755
   16.905    3.1701
   16.920    3.2227
   16.935    3.0858
   16.950    3.1596
   16.965    3.4334
   16.980    3.1174
   16.995    3.0964
   17.010    3.4860
   17.025    3.4544
   17.040    3.5703
   17.055    3.2859
   17.070    3.2859
   17.085    3.2859
   17.100    3.2859
   17.115    3.4650
   17.130    3.5071
   17.145    3.3597
   17.160    3.7599
   17.175    3.4544
   17.190    3.4018
   17.205    3.2543
   17.220    3.4123
   17.235    3.4439
   17.250    3.3702
   17.265    3.2754
   17.280    3.2543
   17.295    3.0016
   17.310    3.1806
   17.325    3.1806
   17.340    3.4439
   17.355    3.1174
   17.370    3.1596
   17.385    3.5598
   17.400    3.4755
   17.415    3.1069
   17.430    3.4018
   17.445    3.5492
   17.460    3.4860
   17.475    3.4755
   17.490    3.2649
   17.505    3.4755
   17.520    3.1490
   17.535    3.2859
   17.550    3.3913
   17.565    3.1596
   17.580    2.9700
   17.595    2.9489
   17.610    3.0648
   17.625    3.3913
   17.640    3.1701
   17.655    3.0332
   17.670    3.1912
   17.685    3.1069
   17.700    3.1280
   17.715    3.1385
   17.730    3.3281
   17.745    3.2333
   17.760    3.4229
   17.775    3.5492
   17.790    3.4544
   17.805    3.2965
   17.820    3.2859
   17.835    3.3702
   17.850    3.4439
   17.865    3.2122
   17.880    3.2438
   17.895    3.2122
   17.910    3.1912
   17.925    3.2438
   17.940    3.2438
   17.955    3.2438
   17.970    3.3070
   17.985    3.3070
   18.000    3.3491
   18.015    3.2122
   18.030    3.1701
   18.045    3.2543
   18.060    3.4650
   18.075    3.3702
   18.090    3.2965
   18.105    3.3807
   18.120    3.4439
   18.135    3.4123
   18.150    3.4229
   18.165    3.4650
   18.180    3.0753
   18.195    3.3597
   18.210    3.3175
   18.225    3.3491
   18.240    3.4544
   18.255    3.1596
   18.270    2.9700
   18.285    2.8857
   18.300    3.0648
   18.315    3.3702
   18.330    3.2017
   18.345    3.4966
   18.360    3.4334
   18.375    3.1912
   18.390    3.2438
   18.405    3.5387
   18.420    3.3597
   18.435    3.3702
   18.450    3.3281
   18.465    3.4018
   18.480    3.3597
   18.495    3.2227
   18.510    2.9595
   18.525    3.2333
   18.540    3.4860
   18.555    3.5071
   18.570    3.2543
   18.585    3.2122
   18.600    3.1701
   18.615    3.0016
   18.630    3.2227
   18.645    3.3491
   18.660    2.9700
   18.675    3.3175
   18.690    3.4755
   18.705    3.2649
   18.720    3.3386
   18.735    3.3175
   18.750    3.1701
   18.765    3.5598
   18.780    3.4755
   18.795    3.1912
   18.810    3.0121
   18.825    3.1701
   18.840    3.3175
   18.855    3.3386
   18.870    3.0753
   18.885    3.0016
   18.900    3.2859
   18.915    3.3913
   18.930    3.0858
   18.945    3.0753
   18.960    3.1912
   18.975    3.2227
   18.990    3.1280
   19.005    3.2333
   19.020    3.2859
   19.035    3.0964
   19.050    3.0964
   19.065    3.0437
   19.080    3.2122
   19.095    3.4018
   19.110    3.4755
   19.125    3.3070
   19.140    3.1596
   19.155    3.4123
   19.170    3.5598
   19.185    3.5492
   19.200    3.0437
   19.215    3.2543
   19.230    3.2649
   19.245    3.0648
   19.260    3.2649
   19.275    3.3386
   19.290    3.3175
   19.305    3.1701
   19.320    3.1280
   19.335    3.1912
   19.350    3.3702
   19.365    3.2754
   19.380    2.9700
   19.395    3.2543
   19.410    3.1912
   19.425    3.0016
   19.440    3.3070
   19.455    3.0016
   19.470    3.1385
   19.485    3.3386
   19.500    3.2227
   19.515    3.1385
   19.530    3.1596
   19.545    3.1806
   19.560    3.1701
   19.575    3.2965
   19.590    3.1912
   19.605    3.0753
   19.620    3.0437
   19.635    3.1490
   19.650    2.9595
   19.665    3.2649
   19.680    3.1490
   19.695    3.2543
   19.710    3.2859
   19.725    3.2965
   19.740    3.2122
   19.755    3.1490
   19.770    3.4018
   19.785    3.2543
   19.800    3.2122
   19.815    3.2438
   19.830    3.0332
   19.845    2.6540
   19.860    3.1069
   19.875    3.2122
   19.890    3.1385
   19.905    2.9700
   19.920    3.2754
   19.935    3.2122
   19.950    2.9173
   19.965    3.1280
   19.980    3.2543
   19.995    3.1069
   20.010    3.0332
   20.025    3.1490
   20.040    2.8752
   20.055    2.8225
   20.070    2.9700
   20.085    2.9595
   20.100    3.0858
   20.115    3.2754
   20.130    2.8857
   20.145    2.6646
   20.160    2.9910
   20.175    3.0016
   20.190    2.7488
   20.205    3.0226
   20.220    3.0226
   20.235    2.9068
   20.250    3.0226
   20.265    3.3281
   20.280    3.0964
   20.295    2.8331
   20.310    3.1385
   20.325    3.0858
   20.340    2.9384
   20.355    3.1806
   20.370    2.8647
   20.385    3.0964
   20.400    3.1385
   20.415    3.0437
   20.430    2.9805
   20.445    3.0648
   20.460    2.9068
   20.475    2.9595
   20.490    2.8647
   20.505    2.9595
   20.520    2.9173
   20.535    3.2754
   20.550    3.2965
   20.565    3.2859
   20.580    2.8541
   20.595    2.9910
   20.610    3.0858
   20.625    2.8752
   20.640    3.2438
   20.655    3.0121
   20.670    2.9595
   20.685    3.0753
   20.700    3.1280
   20.715    2.9068
   20.730    3.0437
   20.745    3.1806
   20.760    3.0016
   20.775    3.1912
   20.790    2.8436
   20.805    2.7067
   20.820    3.0753
   20.835    3.0437
   20.850    3.2017
   20.865    2.9068
   20.880    2.5066
   20.895    2.9279
   20.910    3.0226
   20.925    3.0437
   20.940    2.9384
   20.955    3.1385
   20.970    3.1912
   20.985    2.6751
   21.000    3.2438
   21.015    3.3070
   21.030    3.1701
   21.045    3.1174
   21.060    2.8331
   21.075    2.9279
   21.090    3.0437
   21.105    2.8752
   21.120    2.9068
   21.135    2.8963
   21.150    2.8015
   21.165    2.8963
   21.180    2.9805
   21.195    3.1385
   21.210    2.7067
   21.225    2.7383
   21.240    2.8120
   21.255    2.9279
   21.270    3.1806
   21.285    2.8015
   21.300    2.8541
   21.315    2.9805
   21.330    2.8857
   21.345    2.8647
   21.360    2.7593
   21.375    2.8647
   21.390    2.8331
   21.405    2.7067
   21.420    2.8331
   21.435    2.7488
   21.450    3.0226
   21.465    2.7488
   21.480    2.8331
   21.495    3.2438
   21.510    2.9489
   21.525    2.6962
   21.540    2.9068
   21.555    2.9489
   21.570    2.9384
   21.585    2.9910
   21.600    2.9068
   21.615    3.0437
   21.630    2.8120
   21.645    2.8436
   21.660    3.0226
   21.675    2.9595
   21.690    2.9173
   21.705    3.0437
   21.720    2.6646
   21.735    2.7488
   21.750    2.7067
   21.765    2.7278
   21.780    2.8120
   21.795    2.8225
   21.810    2.8331
   21.825    2.8015
   21.840    2.8436
   21.855    3.1385
   21.870    2.9279
   21.885    2.8963
   21.900    2.7383
   21.915    2.8752
   21.930    2.6856
   21.945    2.6962
   21.960    2.7593
   21.975    2.9489
   21.990    3.0016
   22.005    2.8541
   22.020    2.6856
   22.035    2.8436
   22.050    2.8963
   22.065    2.6330
   22.080    2.7909
   22.095    2.6962
   22.110    2.7278
   22.125    2.6646
   22.140    2.6330
   22.155    2.5908
   22.170    2.6330
   22.185    2.6646
   22.200    2.7804
   22.215    2.6646
   22.230    2.7488
   22.245    2.7067
   22.260    2.7593
   22.275    2.6962
   22.290    2.6224
   22.305    2.9489
   22.320    2.7593
   22.335    2.6646
   22.350    2.6330
   22.365    2.6014
   22.380    2.7172
   22.395    2.5908
   22.410    2.8225
   22.425    2.8752
   22.440    2.9910
   22.455    2.9173
   22.470    2.4645
   22.485    2.7172
   22.500    2.5803
   22.515    2.8436
   22.530    2.7488
   22.545    2.6856
   22.560    3.0437
   22.575    2.6962
   22.590    2.8015
   22.605    2.6856
   22.620    2.6646
   22.635    2.5382
   22.650    2.6435
   22.665    2.6119
   22.680    2.8015
   22.695    2.6435
   22.710    2.6962
   22.725    2.7067
   22.740    2.7804
   22.755    2.6435
   22.770    2.4329
   22.785    2.6435
   22.800    2.4750
   22.815    2.6751
   22.830    2.4750
   22.845    2.7488
   22.860    2.7804
   22.875    2.6330
   22.890    2.5171
   22.905    2.7278
   22.920    2.5803
   22.935    2.5171
   22.950    2.6224
   22.965    2.5487
   22.980    2.5698
   22.995    2.5276
   23.010    2.5171
   23.025    2.4961
   23.040    2.4013
   23.055    2.7383
   23.070    2.8541
   23.085    2.5276
   23.100    2.5171
   23.115    2.5382
   23.130    2.4961
   23.145    2.6224
   23.160    2.5171
   23.175    2.7488
   23.190    2.5908
   23.205    2.4329
   23.220    2.6119
   23.235    2.6435
   23.250    2.5908
   23.265    2.7067
   23.280    2.7278
   23.295    2.3486
   23.310    2.4645
   23.325    2.4539
   23.340    2.6119
   23.355    2.3591
   23.370    2.4013
   23.385    2.2012
   23.400    2.5382
   23.415    2.5487
   23.430    2.5592
   23.445    2.4013
   23.460    2.3591
   23.475    2.4118
   23.490    2.4645
   23.505    2.8225
   23.520    2.7804
   23.535    2.6435
   23.550    2.8963
   23.565    2.7383
   23.580    2.9068
   23.595    2.9805
   23.610    2.7909
   23.625    2.5382
   23.640    2.4118
   23.655    2.7172
   23.670    2.4855
   23.685    2.3802
   23.700    2.7067
   23.715    2.4434
   23.730    2.4645
   23.745    2.2433
   23.760    2.1274
   23.775    2.5276
   23.790    2.6962
   23.805    2.7067
   23.820    2.5382
   23.835    2.3170
   23.850    2.6224
   23.865    2.4434
   23.880    2.4645
   23.895    2.5171
   23.910    2.1590
   23.925    2.2959
   23.940    2.5276
   23.955    2.4329
   23.970    2.2959
   23.985    2.3275
   24.000    2.4013
   24.015    2.3697
   24.030    2.5803
   24.045    2.6330
   24.060    2.4645
   24.075    2.3381
   24.090    2.2959
   24.105    2.5066
   24.120    2.4013
   24.135    2.2749
   24.150    2.4329
   24.165    2.5382
   24.180    2.4329
   24.195    2.2012
   24.210    2.2117
   24.225    2.4118
   24.240    2.4118
   24.255    2.4223
   24.270    2.5487
   24.285    2.3697
   24.300    2.3907
   24.315    2.4118
   24.330    2.3802
   24.345    2.2959
   24.360    2.3170
   24.375    2.5698
   24.390    2.2749
   24.405    2.4223
   24.420    2.4645
   24.435    2.3170
   24.450    2.1380
   24.465    2.3802
   24.480    2.4013
   24.495    2.4434
   24.510    2.5382
   24.525    2.3486
   24.540    2.3907
   24.555    2.4223
   24.570    2.3697
   24.585    2.3591
   24.600    2.5276
   24.615    2.5487
   24.630    2.3907
   24.645    2.2538
   24.660    2.3381
   24.675    2.2854
   24.690    2.1169
   24.705    2.2538
   24.720    2.3486
   24.735    2.2328
   24.750    2.1801
   24.765    2.4750
   24.780    2.4329
   24.795    2.4434
   24.810    2.3697
   24.825    2.1906
   24.840    2.1906
   24.855    2.2643
   24.870    2.2328
   24.885    2.4645
   24.900    2.4329
   24.915    2.3697
   24.930    2.2433
   24.945    2.3170
   24.960    2.2433
   24.975    2.4013
   24.990    2.3486
   25.005    2.3170
   25.020    2.4118
   25.035    2.3381
   25.050    2.4013
   25.065    2.2433
   25.080    2.2643
   25.095    2.2854
   25.110    2.0853
   25.125    2.3381
   25.140    2.2433
   25.155    2.2117
   25.170    2.2959
   25.185    2.2222
   25.200    2.2749
   25.215    2.2749
   25.230    2.3381
   25.245    2.3065
   25.260    2.3170
   25.275    2.0748
   25.290    2.2749
   25.305    2.5276
   25.320    2.3275
   25.335    2.3275
   25.350    2.1590
   25.365    2.2854
   25.380    2.3381
   25.395    2.4013
   25.410    2.2749
   25.425    2.2117
   25.440    2.3170
   25.455    2.1274
   25.470    2.2749
   25.485    2.4013
   25.500    2.2643
   25.515    2.2538
   25.530    2.1590
   25.545    2.3802
   25.560    2.5171
   25.575    2.2538
   25.590    2.1696
   25.605    2.1906
   25.620    2.4434
   25.635    2.5276
   25.650    2.3065
   25.665    2.2433
   25.680    2.2117
   25.695    2.2328
   25.710    2.2854
   25.725    2.1380
   25.740    2.1274
   25.755    2.3065
   25.770    2.3486
   25.785    2.3697
   25.800    2.1801
   25.815    1.9168
   25.830    1.9484
   25.845    2.1274
   25.860    2.3275
   25.875    2.1274
   25.890    2.1380
   25.905    2.4329
   25.920    2.1696
   25.935    2.0432
   25.950    2.0221
   25.965    2.1380
   25.980    2.0326
   25.995    2.1485
   26.010    2.1906
   26.025    2.1380
   26.040    2.1380
   26.055    2.0958
   26.070    2.2012
   26.085    2.1906
   26.100    2.1274
   26.115    2.1485
   26.130    2.3065
   26.145    2.2222
   26.160    2.2222
   26.175    2.1169
   26.190    1.9379
   26.205    2.1801
   26.220    2.2854
   26.235    2.1380
   26.250    2.1169
   26.265    2.0958
   26.280    2.2222
   26.295    2.1380
   26.310    1.9905
   26.325    2.0326
   26.340    2.2012
   26.355    2.0537
   26.370    2.0853
   26.385    2.0221
   26.400    2.0221
   26.415    2.2328
   26.430    1.9484
   26.445    1.9905
   26.460    2.0958
   26.475    2.0116
   26.490    2.1380
   26.505    2.0853
   26.520    2.0326
   26.535    2.0221
   26.550    2.1590
   26.565    2.2433
   26.580    1.9484
   26.595    2.0853
   26.610    2.0432
   26.625    2.0748
   26.640    2.1906
   26.655    2.0326
   26.670    2.0221
   26.685    2.2222
   26.700    2.0537
   26.715    2.1169
   26.730    1.8852
   26.745    1.8957
   26.760    2.0853
   26.775    2.1590
   26.790    1.9695
   26.805    2.0853
   26.820    1.9379
   26.835    1.9379
   26.850    2.2222
   26.865    2.0326
   26.880    1.9484
   26.895    2.1485
   26.910    2.0958
   26.925    1.8957
   26.940    1.9168
   26.955    2.0537
   26.970    1.9379
   26.985    1.9589
   27.000    1.8852
   27.015    2.2433
   27.030    2.2012
   27.045    2.0642
   27.060    2.0011
   27.075    1.9695
   27.090    2.1274
   27.105    1.9695
   27.120    1.9800
   27.135    2.1801
   27.150    2.0537
   27.165    2.3170
   27.180    2.1801
   27.195    2.0642
   27.210    1.8115
   27.225    1.6851
   27.240    1.9484
   27.255    2.1590
   27.270    2.0221
   27.285    2.0537
   27.300    2.1485
   27.315    2.0432
   27.330    2.0853
   27.345    2.0221
   27.360    2.1485
   27.375    1.7483
   27.390    1.8536
   27.405    2.0011
   27.420    1.9168
   27.435    1.8009
   27.450    1.8747
   27.465    1.9905
   27.480    1.6956
   27.495    2.1906
   27.510    2.0326
   27.525    1.8009
   27.540    1.7904
   27.555    2.0537
   27.570    1.8115
   27.585    1.7799
   27.600    1.9800
   27.615    1.8747
   27.630    1.6219
   27.645    1.8115
   27.660    1.9905
   27.675    1.8852
   27.690    1.7799
   27.705    1.7483
   27.720    1.9695
   27.735    1.7904
   27.750    1.8431
   27.765    1.9168
   27.780    1.6324
   27.795    1.8957
   27.810    2.0326
   27.825    1.8115
   27.840    1.8220
   27.855    1.8325
   27.870    1.6746
   27.885    1.5377
   27.900    1.6324
   27.915    1.6219
   27.930    1.6851
   27.945    1.7167
   27.960    1.7272
   27.975    1.9379
   27.990    1.8431
   28.005    1.8325
   28.020    1.7167
   28.035    1.8852
   28.050    1.6219
   28.065    1.6851
   28.080    1.9379
   28.095    1.8852
   28.110    1.8009
   28.125    1.8009
   28.140    1.7799
   28.155    1.6430
   28.170    1.6851
   28.185    1.8431
   28.200    1.8957
   28.215    1.8536
   28.230    1.8009
   28.245    1.7904
   28.260    1.6746
   28.275    1.8325
   28.290    1.5798
   28.305    1.8325
   28.320    1.6008
   28.335    1.7062
   28.350    1.5798
   28.365    1.5271
   28.380    1.7167
   28.395    1.7062
   28.410    1.8536
   28.425    2.0642
   28.440    1.7904
   28.455    1.7588
   28.470    1.5482
   28.485    1.7588
   28.500    1.6746
   28.515    1.8536
   28.530    1.8115
   28.545    2.0537
   28.560    1.9379
   28.575    1.8115
   28.590    1.7904
   28.605    1.8325
   28.620    1.8957
   28.635    1.7062
   28.650    1.8536
   28.665    1.8220
   28.680    1.7483
   28.695    1.8009
   28.710    1.7588
   28.725    1.6114
   28.740    1.7378
   28.755    1.5798
   28.770    1.7483
   28.785    1.8115
   28.800    1.7272
   28.815    1.8536
   28.830    1.9273
   28.845    1.9168
   28.860    1.8536
   28.875    1.8641
   28.890    1.8852
   28.905    1.8009
   28.920    1.7167
   28.935    1.7167
   28.950    1.6219
   28.965    1.7272
   28.980    1.7378
   28.995    1.6851
   29.010    1.7588
   29.025    2.0011
   29.040    1.7483
   29.055    1.8852
   29.070    1.7062
   29.085    1.8220
   29.100    1.7167
   29.115    1.8536
   29.130    1.7694
   29.145    1.7694
   29.160    1.7378
   29.175    1.9905
   29.190    1.7694
   29.205    1.8220
   29.220    1.7378
   29.235    1.6956
   29.250    1.8325
   29.265    1.7062
   29.280    1.5482
   29.295    1.8431
   29.310    1.7167
   29.325    1.7483
   29.340    1.5692
   29.355    1.4850
   29.370    1.5903
   29.385    1.7694
   29.400    1.7272
   29.415    1.5166
   29.430    1.4850
   29.445    1.6430
   29.460    1.5271
   29.475    1.6851
   29.490    1.6640
   29.505    1.7062
   29.520    1.5166
   29.535    1.6114
   29.550    1.7378
   29.565    1.5166
   29.580    1.5166
   29.595    1.6008
   29.610    1.6640
   29.625    1.5798
   29.640    1.4745
   29.655    1.5798
   29.670    1.6114
   29.685    1.6956
   29.700    1.6008
   29.715    1.5692
   29.730    1.5377
   29.745    1.5692
   29.760    1.6008
   29.775    1.6219
   29.790    1.5482
   29.805    1.6219
   29.820    1.5377
   29.835    1.6746
   29.850    1.7272
   29.865    1.5271
   29.880    1.4429
   29.895    1.4323
   29.910    1.5061
   29.925    1.6956
   29.940    1.5587
   29.955    1.6535
   29.970    1.7062
   29.985    1.5166
   30.000    1.6324
   30.015    1.6324
   30.030    1.6008
   30.045    1.6114
   30.060    1.4955
   30.075    1.4323
   30.090    1.5166
   30.105    1.6324
   30.120    1.6956
   30.135    1.5377
   30.150    1.2849
   30.165    1.3481
   30.180    1.4850
   30.195    1.4955
   30.210    1.4429
   30.225    1.5271
   30.240    1.5903
   30.255    1.5482
   30.270    1.4850
   30.285    1.5166
   30.300    1.4639
   30.315    1.4218
   30.330    1.5587
   30.345    1.5377
   30.360    1.4955
   30.375    1.5377
   30.390    1.4639
   30.405    1.4323
   30.420    1.3902
   30.435    1.3165
   30.450    1.4534
   30.465    1.3691
   30.480    1.2322
   30.495    1.4534
   30.510    1.6430
   30.525    1.4323
   30.540    1.2849
   30.555    1.4639
   30.570    1.4639
   30.585    1.4745
   30.600    1.5166
   30.615    1.3270
   30.630    1.4534
   30.645    1.4955
   30.660    1.3481
   30.675    1.4113
   30.690    1.4218
   30.705    1.4429
   30.720    1.4323
   30.735    1.4218
   30.750    1.4113
   30.765    1.4113
   30.780    1.4113
   30.795    1.3902
   30.810    1.5482
   30.825    1.5061
   30.840    1.3165
   30.855    1.3586
   30.870    1.4955
   30.885    1.4218
   30.900    1.3270
   30.915    1.3060
   30.930    1.3797
   30.945    1.4955
   30.960    1.4955
   30.975    1.3797
   30.990    1.3375
   31.005    1.4955
   31.020    1.2849
   31.035    1.5903
   31.050    1.4534
   31.065    1.4639
   31.080    1.6114
   31.095    1.4639
   31.110    1.3375
   31.125    1.2533
   31.140    1.1585
   31.155    1.2954
   31.170    1.3270
   31.185    1.3481
   31.200    1.3691
   31.215    1.3691
   31.230    1.3902
   31.245    1.3902
   31.260    1.2112
   31.275    1.1374
   31.290    1.2533
   31.305    1.2744
   31.320    1.1901
   31.335    1.3165
   31.350    1.4745
   31.365    1.4113
   31.380    1.4218
   31.395    1.3270
   31.410    1.1480
   31.425    1.4323
   31.440    1.3270
   31.455    1.2744
   31.470    1.2954
   31.485    1.1058
   31.500    1.1690
   31.515    1.2322
   31.530    1.1269
   31.545    1.1690
   31.560    1.2322
   31.575    1.2533
   31.590    1.3060
   31.605    1.4218
   31.620    1.4007
   31.635    1.4007
   31.650    1.3060
   31.665    1.4323
   31.680    1.3060
   31.695    1.2954
   31.710    1.1585
   31.725    1.3270
   31.740    1.3691
   31.755    1.4429
   31.770    1.3481
   31.785    1.4745
   31.800    1.5271
   31.815    1.4429
   31.830    1.3481
   31.845    1.4007
   31.860    1.1901
   31.875    1.0953
   31.890    1.3060
   31.905    1.4429
   31.920    1.3060
   31.935    1.2954
   31.950    1.3375
   31.965    1.1480
   31.980    1.2217
   31.995    1.2112
   32.010    1.2954
   32.025    1.2744
   32.040    1.2112
   32.055    1.3481
   32.070    1.2744
   32.085    1.0953
   32.100    1.2954
   32.115    1.2322
   32.130    1.2638
   32.145    1.0848
   32.160    1.1374
   32.175    1.1164
   32.190    1.1585
   32.205    1.1901
   32.220    1.2638
   32.235    1.1901
   32.250    1.2954
   32.265    1.2112
   32.280    1.1480
   32.295    1.1480
   32.310    1.1796
   32.325    1.1585
   32.340    1.2112
   32.355    1.1480
   32.370    1.3586
   32.385    1.2638
   32.400    1.0742
   32.415    1.2322
   32.430    1.1164
   32.445    1.1374
   32.460    1.2428
   32.475    1.1269
   32.490    1.1374
   32.505    1.2006
   32.520    1.1901
   32.535    1.3165
   32.550    1.2849
   32.565    1.3165
   32.580    1.2849
   32.595    1.2744
   32.610    1.2217
   32.625    1.2217
   32.640    1.4218
   32.655    1.2849
   32.670    1.0427
   32.685    1.0637
   32.700    1.0321
   32.715    1.1269
   32.730    1.3270
   32.745    1.0321
   32.760    1.2112
   32.775    1.2322
   32.790    1.1058
   32.805    1.2428
   32.820    1.1269
   32.835    1.2217
   32.850    1.2849
   32.865    1.1374
   32.880    1.1374
   32.895    1.1690
   32.910    1.3691
   32.925    1.1164
   32.940    1.0321
   32.955    1.1585
   32.970    1.0427
   32.985    1.2638
   33.000    1.1901
   33.015    1.0427
   33.030    1.1374
   33.045    1.0953
   33.060    1.1164
   33.075    1.2006
   33.090    1.1901
   33.105    1.1796
   33.120    1.2849
   33.135    1.2322
   33.150    1.2428
   33.165    1.2322
   33.180    1.1585
   33.195    1.1690
   33.210    1.1164
   33.225    1.1480
   33.240    1.3691
   33.255    1.1901
   33.270    1.1269
   33.285    1.0637
   33.300    1.1901
   33.315    1.1269
   33.330    1.2638
   33.345    1.2322
   33.360    1.1269
   33.375    1.0848
   33.390    1.2112
   33.405    1.3270
   33.420    1.0005
   33.435    1.0637
   33.450    1.1901
   33.465    1.1374
   33.480    1.2006
   33.495    1.3902
   33.510    1.1585
   33.525    1.1480
   33.540    1.1901
   33.555    1.0848
   33.570    1.0427
   33.585    1.0742
   33.600    1.2006
   33.615    1.1374
   33.630    1.1374
   33.645    1.0111
   33.660    0.9479
   33.675    1.2112
   33.690    1.1796
   33.705    1.0532
   33.720    0.9163
   33.735    1.0321
   33.750    1.1901
   33.765    1.1164
   33.780    1.2638
   33.795    1.1690
   33.810    1.1058
   33.825    1.0111
   33.840    1.1796
   33.855    1.1374
   33.870    1.0427
   33.885    1.0427
   33.900    1.2428
   33.915    1.1901
   33.930    1.2322
   33.945    1.4113
   33.960    1.2112
   33.975    1.2954
   33.990    1.2428
   34.005    1.2006
   34.020    1.0953
   34.035    1.0953
   34.050    1.2217
   34.065    1.1585
   34.080    1.1058
   34.095    1.0532
   34.110    1.0005
   34.125    1.0111
   34.140    1.0637
   34.155    1.1058
   34.170    1.2006
   34.185    1.0953
   34.200    0.9268
   34.215    1.1269
   34.230    1.2428
   34.245    1.1796
   34.260    0.9373
   34.275    1.0742
   34.290    1.1374
   34.305    1.0742
   34.320    1.0953
   34.335    1.0953
   34.350    1.1796
   34.365    1.1690
   34.380    1.0953
   34.395    1.1164
   34.410    1.1374
   34.425    1.0111
   34.440    1.0532
   34.455    0.9479
   34.470    1.0216
   34.485    1.0953
   34.500    1.1269
   34.515    1.1901
   34.530    1.1480
   34.545    0.9689
   34.560    1.0848
   34.575    1.0742
   34.590    1.0111
   34.605    1.0216
   34.620    0.9689
   34.635    1.0216
   34.650    0.9163
   34.665    0.9795
   34.680    1.0216
   34.695    1.3165
   34.710    1.2006
   34.725    1.0848
   34.740    0.9689
   34.755    1.0742
   34.770    1.0111
   34.785    1.1796
   34.800    1.1901
   34.815    1.0742
   34.830    1.1269
   34.845    1.0005
   34.860    1.0216
   34.875    1.1690
   34.890    0.9900
   34.905    1.1690
   34.920    1.2322
   34.935    1.0216
   34.950    1.2638
   34.965    1.1480
   34.980    1.0005
   34.995    1.0321
   35.010    0.9900
   35.025    1.1269
   35.040    1.2533
   35.055    1.1164
   35.070    1.0742
   35.085    1.0005
   35.100    0.9057
   35.115    0.9163
   35.130    0.9479
   35.145    1.0953
   35.160    1.1269
   35.175    0.9795
   35.190    0.9900
   35.205    1.0532
   35.220    1.2638
   35.235    1.2217
   35.250    1.2638
   35.265    0.9163
   35.280    1.0216
   35.295    1.0848
   35.310    0.9584
   35.325    1.0321
   35.340    1.0005
   35.355    1.1269
   35.370    1.0321
   35.385    1.0111
   35.400    1.0742
   35.415    1.1058
   35.430    1.1374
   35.445    1.2428
   35.460    0.9584
   35.475    0.9373
   35.490    0.9900
   35.505    1.0427
   35.520    0.9479
   35.535    1.1374
   35.550    1.0427
   35.565    1.0321
   35.580    1.2428
   35.595    1.1585
   35.610    0.9900
   35.625    1.0953
   35.640    1.0637
   35.655    1.1058
   35.670    0.9795
   35.685    1.0953
   35.700    1.0216
   35.715    0.8952
   35.730    1.1901
   35.745    1.2428
   35.760    1.1690
   35.775    0.8741
   35.790    0.9268
   35.805    1.0953
   35.820    0.8636
   35.835    1.1480
   35.850    1.1058
   35.865    1.1901
   35.880    1.1690
   35.895    1.0111
   35.910    1.1901
   35.925    1.1269
   35.940    1.0111
   35.955    1.0216
   35.970    1.0111
   35.985    1.0005
   36.000    1.0321
   36.015    1.0321
   36.030    1.0005
   36.045    0.8847
   36.060    1.0216
   36.075    0.9479
   36.090    0.9163
   36.105    1.1058
   36.120    1.0216
   36.135    1.0216
   36.150    1.0742
   36.165    1.0848
   36.180    0.9900
   36.195    1.0742
   36.210    0.9268
   36.225    1.0953
   36.240    1.0427
   36.255    1.1164
   36.270    1.0953
   36.285    0.9584
   36.300    1.0111
   36.315    1.1164
   36.330    1.0953
   36.345    1.0111
   36.360    1.0742
   36.375    1.0848
   36.390    1.0532
   36.405    1.0005
   36.420    0.9479
   36.435    1.0742
   36.450    1.1374
   36.465    1.0321
   36.480    0.8741
   36.495    1.0532
   36.510    0.8741
   36.525    0.9584
   36.540    1.0848
   36.555    1.1796
   36.570    0.9584
   36.585    0.8952
   36.600    0.8847
   36.615    1.0427
   36.630    0.8952
   36.645    1.0321
   36.660    1.0321
   36.675    0.9373
   36.690    0.9795
   36.705    1.0005
   36.720    0.8531
   36.735    1.0742
   36.750    1.1164
   36.765    1.0005
   36.780    1.0427
   36.795    1.0637
   36.810    1.0532
   36.825    0.8425
   36.840    0.9163
   36.855    1.0848
   36.870    0.9795
   36.885    1.0848
   36.900    0.9795
   36.915    0.9479
   36.930    1.0532
   36.945    1.1480
   36.960    1.1058
   36.975    1.1164
   36.990    0.9584
   37.005    1.0532
   37.020    0.9584
   37.035    0.9268
   37.050    0.9268
   37.065    1.0848
   37.080    0.9268
   37.095    1.1585
   37.110    0.9584
   37.125    0.9373
   37.140    1.0216
   37.155    0.9268
   37.170    0.9163
   37.185    0.9268
   37.200    0.8320
   37.215    0.8425
   37.230    0.9479
   37.245    0.9584
   37.260    0.9689
   37.275    0.9373
   37.290    0.9900
   37.305    1.0427
   37.320    0.9373
   37.335    0.9373
   37.350    1.0111
   37.365    0.9900
   37.380    1.0637
   37.395    0.9584
   37.410    1.0637
   37.425    1.0953
   37.440    1.0742
   37.455    0.9373
   37.470    0.9795
   37.485    1.0742
   37.500    1.0111
   37.515    0.9268
   37.530    0.8952
   37.545    1.0848
   37.560    0.8531
   37.575    0.8636
   37.590    0.8110
   37.605    1.0111
   37.620    1.1480
   37.635    1.0216
   37.650    0.9689
   37.665    1.0953
   37.680    1.0321
   37.695    1.1585
   37.710    1.0005
   37.725    0.9479
   37.740    0.9584
   37.755    1.2217
   37.770    1.0321
   37.785    1.0321
   37.800    0.8952
   37.815    0.9373
   37.830    0.8425
   37.845    0.8425
   37.860    0.9584
   37.875    1.0637
   37.890    1.0637
   37.905    0.8531
   37.920    0.9268
   37.935    0.9795
   37.950    0.8531
   37.965    0.9163
   37.980    0.9584
   37.995    0.9163
   38.010    0.8320
   38.025    0.8952
   38.040    0.9268
   38.055    0.8952
   38.070    0.9057
   38.085    1.0848
   38.100    1.0005
   38.115    1.0216
   38.130    0.8636
   38.145    1.0216
   38.160    0.9479
   38.175    0.9163
   38.190    0.9900
   38.205    1.0321
   38.220    0.7899
   38.235    0.9795
   38.250    1.0427
   38.265    0.9479
   38.280    1.0742
   38.295    1.0216
   38.310    0.9163
   38.325    0.9163
   38.340    0.8425
   38.355    0.9163
   38.370    0.8636
   38.385    0.9584
   38.400    0.8531
   38.415    0.8636
   38.430    0.9584
   38.445    0.9163
   38.460    1.0321
   38.475    0.9795
   38.490    1.0532
   38.505    1.0111
   38.520    1.0953
   38.535    0.9163
   38.550    0.9795
   38.565    0.8952
   38.580    0.9163
   38.595    0.9479
   38.610    0.9163
   38.625    0.8741
   38.640    0.9268
   38.655    1.0427
   38.670    0.9900
   38.685    0.9900
   38.700    0.8531
   38.715    0.9689
   38.730    1.0321
   38.745    1.0532
   38.760    0.9900
   38.775    1.0742
   38.790    0.9584
   38.805    0.8636
   38.820    0.8531
   38.835    0.9163
   38.850    1.0216
   38.865    0.9900
   38.880    1.0321
   38.895    0.9584
   38.910    0.8425
   38.925    0.7688
   38.940    1.0111
   38.955    0.7794
   38.970    0.8952
   38.985    0.8741
   39.000    1.0427
   39.015    0.8320
   39.030    0.8847
   39.045    0.8004
   39.060    0.8636
   39.075    0.8741
   39.090    0.9057
   39.105    0.9584
   39.120    0.9373
   39.135    0.9584
   39.150    0.8531
   39.165    0.8004
   39.180    0.8741
   39.195    0.8636
   39.210    0.9584
   39.225    0.9479
   39.240    0.9057
   39.255    0.9479
   39.270    0.8741
   39.285    0.8215
   39.300    0.8215
   39.315    1.0637
   39.330    0.9057
   39.345    0.8952
   39.360    0.9268
   39.375    0.8320
   39.390    0.9584
   39.405    0.9479
   39.420    0.9900
   39.435    0.9479
   39.450    0.8636
   39.465    0.8320
   39.480    0.8847
   39.495    0.8952
   39.510    0.8531
   39.525    0.8531
   39.540    0.8215
   39.555    0.9057
   39.570    0.8847
   39.585    0.9163
   39.600    0.9057
   39.615    0.9268
   39.630    1.0848
   39.645    0.7899
   39.660    0.8110
   39.675    0.8636
   39.690    0.9268
   39.705    0.9057
   39.720    0.8531
   39.735    0.8952
   39.750    0.8636
   39.765    0.7583
   39.780    0.8004
   39.795    0.8004
   39.810    0.8320
   39.825    0.9163
   39.840    0.7056
   39.855    0.7794
   39.870    0.9795
   39.885    0.9689
   39.900    0.9057
   39.915    0.8952
   39.930    1.0742
   39.945    0.8320
   39.960    0.9373
   39.975    1.0321
   39.990    1.0532
