    1.500   10.7109
    1.515   10.7320
    1.530   10.6793
    1.545   10.5424
    1.560   10.5319
    1.575   10.5529
    1.590   10.2054
    1.605   10.2264
    1.620   10.4581
    1.635   10.5845
    1.650   10.0685
    1.665   10.2159
    1.680    9.8894
    1.695   10.0685
    1.710    9.7630
    1.725    9.8473
    1.740   10.2686
    1.755   10.4055
    1.770   10.1948
    1.785   10.2054
    1.800   10.0158
    1.815   10.2791
    1.830   10.0474
    1.845   10.4055
    1.860   10.0579
    1.875    9.5419
    1.890    9.6998
    1.905   10.0158
    1.920   10.2054
    1.935   10.1211
    1.950   10.6898
    1.965   10.3002
    1.980   10.1001
    1.995   10.4055
    2.010    9.8789
    2.025    9.4365
    2.040    9.6472
    2.055   10.0053
    2.070   10.1422
    2.085   10.6582
    2.100   10.9637
    2.115   10.6372
    2.130   10.2896
    2.145   10.5845
    2.160   10.9847
    2.175   10.6898
    2.190   11.0479
    2.205   11.2270
    2.220   11.1322
    2.235   10.9953
    2.250   11.1006
    2.265   11.0163
    2.280   11.7641
    2.295   11.2375
    2.310   11.2902
    2.325   12.0379
    2.340   11.9010
    2.355   11.7430
    2.370   12.2275
    2.385   12.0063
    2.400   11.9010
    2.415   12.3644
    2.430   11.8589
    2.445   12.6698
    2.460   12.7014
    2.475   12.5434
    2.490   12.9963
    2.505   13.7546
    2.520   13.4071
    2.535   13.5334
    2.550   14.4497
    2.565   14.5656
    2.580   14.4602
    2.595   14.7446
    2.610   14.2285
    2.625   14.3549
    2.640   15.3870
    2.655   16.0400
    2.670   15.5134
    2.685   15.5029
    2.700   16.0611
    2.715   15.9979
    2.730   16.5034
    2.745   17.1143
    2.760   17.1037
    2.775   17.3776
    2.790   17.8304
    2.805   18.7362
    2.820   19.1048
    2.835   19.2101
    2.850   19.5155
    2.865   19.4734
    2.880   19.8420
    2.895   20.7583
    2.910   20.9689
    2.925   21.0637
    2.940   21.7167
    2.955   22.4855
    2.970   22.9910
    2.985   23.7809
    3.000   24.1811
    3.015   24.6130
    3.030   24.9500
    3.045   25.5924
    3.060   27.0353
    3.075   28.8152
    3.090   29.0153
    3.105   29.7630
    3.120   30.7741
    3.135   31.5219
    3.150   31.6588
    3.165   32.4908
    3.180   34.7235
    3.195   35.0606
    3.210   36.2823
    3.225   38.2833
    3.240   39.9157
    3.255   40.2738
    3.270   42.8963
    3.285   44.6551
    3.300   46.3507
    3.315   48.4887
    3.330   50.0263
    3.345   52.1854
    3.360   54.7867
    3.375   57.4513
    3.390   61.4218
    3.405   63.1596
    3.420   69.2996
    3.435   72.0169
    3.450   73.1648
    3.465   75.9452
    3.480   78.1359
    3.495   77.2091
    3.510   74.5445
    3.525   70.8478
    3.540   66.0558
    3.555   61.6746
    3.570   54.2601
    3.585   48.4992
    3.600   44.4023
    3.615   41.6851
    3.630   38.4623
    3.645   34.7235
    3.660   34.0390
    3.675   33.1438
    3.690   31.8694
    3.705   31.0163
    3.720   30.6582
    3.735   30.9321
    3.750   31.4165
    3.765   30.8689
    3.780   31.6061
    3.795   31.8905
    3.810   31.3323
    3.825   32.1748
    3.840   33.5756
    3.855   33.5018
    3.870   34.6709
    3.885   34.9974
    3.900   34.3971
    3.915   35.3555
    3.930   36.5140
    3.945   35.7346
    3.960   33.2596
    3.975   32.9015
    3.990   33.2280
    4.005   33.0595
    4.020   32.1222
    4.035   31.7746
    4.050   30.9426
    4.065   30.0895
    4.080   29.8684
    4.095   29.0995
    4.110   27.7936
    4.125   26.8878
    4.140   25.3291
    4.155   24.0969
    4.170   22.7804
    4.185   22.2538
    4.200   22.0221
    4.215   19.7999
    4.230   18.8520
    4.245   18.0621
    4.260   17.5671
    4.275   16.4297
    4.290   15.5977
    4.305   14.6919
    4.320   14.2812
    4.335   13.7019
    4.350   13.4492
    4.365   12.6382
    4.380   11.5956
    4.395   11.2375
    4.410   10.6266
    4.425   10.2686
    4.440   10.2264
    4.455    9.8473
    4.470    8.8678
    4.485    8.8784
    4.500    8.6572
    4.515    8.3834
    4.530    8.2886
    4.545    8.2254
    4.560    8.2254
    4.575    8.1411
    4.590    7.3302
    4.605    7.1406
    4.620    7.4882
    4.635    7.0879
    4.650    7.2880
    4.665    6.5719
    4.680    6.6035
    4.695    6.3296
    4.710    6.6667
    4.725    6.3612
    4.740    6.3507
    4.755    5.8557
    4.770    6.1611
    4.785    6.4560
    4.800    6.2981
    4.815    6.0558
    4.830    6.2033
    4.845    5.9189
    4.860    6.1401
    4.875    6.1190
    4.890    5.9610
    4.905    5.6240
    4.920    5.6029
    4.935    5.3923
    4.950    5.6556
    4.965    5.5503
    4.980    5.4028
    4.995    5.6451
    5.010    5.8136
    5.025    5.4450
    5.040    5.3081
    5.055    5.4450
    5.070    5.2659
    5.085    5.1606
    5.100    5.8031
    5.115    5.7609
    5.130    5.4871
    5.145    5.4766
    5.160    5.4871
    5.175    5.0553
    5.190    4.9605
    5.205    5.0132
    5.220    5.6556
    5.235    5.6345
    5.250    5.4555
    5.265    4.9500
    5.280    5.3607
    5.295    5.3923
    5.310    4.9921
    5.325    5.1290
    5.340    5.3818
    5.355    4.9710
    5.370    5.2554
    5.385    5.4766
    5.400    5.4239
    5.415    5.3397
    5.430    5.1080
    5.445    4.9078
    5.460    4.6972
    5.475    5.2975
    5.490    5.2238
    5.505    5.1922
    5.520    5.0342
    5.535    5.2554
    5.550    5.3607
    5.565    5.2870
    5.580    5.1290
    5.595    5.2238
    5.610    4.8973
    5.625    4.8236
    5.640    5.1501
    5.655    4.9078
    5.670    4.5287
    5.685    4.5603
    5.700    4.8131
    5.715    4.3075
    5.730    4.2865
    5.745    4.3707
    5.760    4.4234
    5.775    4.8552
    5.790    4.7709
    5.805    4.7920
    5.820    4.5182
    5.835    4.6761
    5.850    4.8973
    5.865    4.6130
    5.880    4.7077
    5.895    4.7393
    5.910    4.5919
    5.925    4.3707
    5.940    4.4760
    5.955    4.2443
    5.970    4.4444
    5.985    4.6340
    6.000    4.6340
    6.015    4.5708
    6.030    4.5814
    6.045    4.7183
    6.060    4.8131
    6.075    4.6656
    6.090    4.4128
    6.105    4.7604
    6.120    4.3707
    6.135    4.6551
    6.150    4.7183
    6.165    4.5603
    6.180    4.5287
    6.195    4.7920
    6.210    5.0026
    6.225    4.9500
    6.240    4.7288
    6.255    4.8763
    6.270    4.9289
    6.285    4.5498
    6.300    4.8763
    6.315    5.0553
    6.330    4.7815
    6.345    4.8236
    6.360    4.8131
    6.375    4.6235
    6.390    5.1395
    6.405    4.9921
    6.420    4.9394
    6.435    5.1185
    6.450    5.3291
    6.465    5.1922
    6.480    5.2343
    6.495    4.8763
    6.510    5.1606
    6.525    5.1711
    6.540    5.5503
    6.555    5.5082
    6.570    5.6661
    6.585    5.3607
    6.600    5.3818
    6.615    5.6661
    6.630    5.9821
    6.645    6.0558
    6.660    5.8241
    6.675    5.8768
    6.690    6.2349
    6.705    6.4560
    6.720    6.5403
    6.735    6.6351
    6.750    7.2775
    6.765    7.4250
    6.780    7.2880
    6.795    7.4039
    6.810    7.8989
    6.825    7.8778
    6.840    7.7409
    6.855    8.6572
    6.870    8.4044
    6.885    8.5729
    6.900    9.3418
    6.915    9.2680
    6.930    9.7630
    6.945   10.2475
    6.960   10.4897
    6.975   10.7214
    6.990   10.9953
    7.005   10.5845
    7.020   10.7214
    7.035    9.7841
    7.050    9.3312
    7.065    8.8678
    7.080    8.8257
    7.095    7.8568
    7.110    7.3618
    7.125    7.1090
    7.140    6.8246
    7.155    6.5403
    7.170    5.9610
    7.185    5.8978
    7.200    5.7609
    7.215    5.7399
    7.230    5.5082
    7.245    5.4555
    7.260    5.0658
    7.275    5.3081
    7.290    5.2870
    7.305    5.7188
    7.320    5.3291
    7.335    5.0764
    7.350    5.1080
    7.365    5.4239
    7.380    5.3607
    7.395    5.0237
    7.410    4.8868
    7.425    5.1922
    7.440    5.1711
    7.455    5.4344
    7.470    4.9710
    7.485    5.4028
    7.500    4.8552
    7.515    5.4766
    7.530    4.9289
    7.545    4.9078
    7.560    5.3081
    7.575    5.4450
    7.590    5.4766
    7.605    5.5082
    7.620    5.3607
    7.635    5.2449
    7.650    5.1185
    7.665    5.6977
    7.680    5.7609
    7.695    5.9084
    7.710    6.0242
    7.725    5.8768
    7.740    5.7925
    7.755    5.8978
    7.770    5.7925
    7.785    5.8978
    7.800    6.0137
    7.815    6.0558
    7.830    6.3612
    7.845    6.7404
    7.860    6.1717
    7.875    6.3928
    7.890    6.2243
    7.905    6.2875
    7.920    5.9294
    7.935    5.8662
    7.950    6.2559
    7.965    6.1822
    7.980    6.7615
    7.995    6.5824
    8.010    6.5508
    8.025    6.7509
    8.040    6.4455
    8.055    6.4244
    8.070    6.5824
    8.085    7.0248
    8.100    7.0037
    8.115    6.4560
    8.130    6.5087
    8.145    6.5087
    8.160    6.1822
    8.175    6.5824
    8.190    6.3402
    8.205    6.2243
    8.220    6.3296
    8.235    6.0664
    8.250    6.1717
    8.265    6.4139
    8.280    6.2770
    8.295    6.2665
    8.310    6.2454
    8.325    6.2875
    8.340    6.0453
    8.355    5.7293
    8.370    5.8557
    8.385    6.2138
    8.400    6.1190
    8.415    5.6872
    8.430    5.5082
    8.445    5.4450
    8.460    5.4660
    8.475    5.5398
    8.490    5.7188
    8.505    5.6977
    8.520    5.6661
    8.535    5.6872
    8.550    5.3186
    8.565    5.2343
    8.580    5.4766
    8.595    4.9605
    8.610    5.2238
    8.625    5.3081
    8.640    4.9710
    8.655    4.9605
    8.670    4.9078
    8.685    4.8447
    8.700    5.2765
    8.715    5.0553
    8.730    4.8447
    8.745    4.8131
    8.760    4.8973
    8.775    4.8552
    8.790    5.0869
    8.805    5.0132
    8.820    4.5603
    8.835    4.6130
    8.850    4.3075
    8.865    4.5076
    8.880    4.7815
    8.895    4.8657
    8.910    4.3707
    8.925    4.2654
    8.940    4.4971
    8.955    4.6024
    8.970    4.6551
    8.985    4.4444
    9.000    4.4760
    9.015    4.2970
    9.030    4.1390
    9.045    4.3707
    9.060    4.3707
    9.075    4.5498
    9.090    4.3602
    9.105    4.3286
    9.120    4.5392
    9.135    4.9078
    9.150    4.4655
    9.165    4.4866
    9.180    4.7604
    9.195    4.6235
    9.210    4.1917
    9.225    3.9600
    9.240    4.2970
    9.255    4.6130
    9.270    4.3075
    9.285    4.3391
    9.300    4.2338
    9.315    4.0864
    9.330    4.2759
    9.345    4.0442
    9.360    4.3075
    9.375    4.3602
    9.390    4.4339
    9.405    4.3918
    9.420    4.1285
    9.435    4.2338
    9.450    4.4444
    9.465    4.2443
    9.480    4.0021
    9.495    4.4971
    9.510    4.5182
    9.525    4.2443
    9.540    4.2759
    9.555    4.4866
    9.570    4.6235
    9.585    4.3602
    9.600    4.5287
    9.615    4.5182
    9.630    4.4550
    9.645    4.2654
    9.660    4.2759
    9.675    4.0232
    9.690    4.0232
    9.705    4.0653
    9.720    4.2759
    9.735    4.0969
    9.750    4.0864
    9.765    4.0021
    9.780    4.3181
    9.795    4.2549
    9.810    4.0232
    9.825    4.0232
    9.840    4.0864
    9.855    3.9600
    9.870    4.1811
    9.885    4.1496
    9.900    4.1285
    9.915    4.1390
    9.930    4.1285
    9.945    4.3286
    9.960    3.9600
    9.975    3.7599
    9.990    3.9916
   10.005    3.8547
   10.020    4.0126
   10.035    4.2338
   10.050    4.4023
   10.065    3.8125
   10.080    3.9494
   10.095    4.3391
   10.110    4.1917
   10.125    4.1496
   10.140    4.1917
   10.155    4.3602
   10.170    4.2233
   10.185    4.2759
   10.200    4.2127
   10.215    4.2654
   10.230    4.3286
   10.245    4.1917
   10.260    4.1285
   10.275    4.4655
   10.290    4.2022
   10.305    4.1285
   10.320    4.1811
   10.335    4.4550
   10.350    4.6024
   10.365    4.4339
   10.380    4.7077
   10.395    4.6130
   10.410    4.6445
   10.425    4.6445
   10.440    4.5498
   10.455    4.7499
   10.470    4.7709
   10.485    4.6972
   10.500    4.4866
   10.515    4.3602
   10.530    4.4128
   10.545    4.3918
   10.560    4.1811
   10.575    4.3813
   10.590    4.2549
   10.605    4.0442
   10.620    4.4444
   10.635    4.0864
   10.650    4.1285
   10.665    4.0758
   10.680    4.0442
   10.695    4.1811
   10.710    4.0653
   10.725    4.0337
   10.740    3.8652
   10.755    3.9600
   10.770    4.2759
   10.785    4.5392
   10.800    4.0126
   10.815    4.1180
   10.830    3.9179
   10.845    4.0548
   10.860    4.2127
   10.875    4.1074
   10.890    4.2654
   10.905    4.2865
   10.920    3.8547
   10.935    4.0653
   10.950    4.2865
   10.965    4.0758
   10.980    4.1074
   10.995    4.2970
   11.010    4.3497
   11.025    4.1390
   11.040    4.2338
   11.055    4.4760
   11.070    4.2654
   11.085    4.4234
   11.100    4.2338
   11.115    3.9810
   11.130    3.8547
   11.145    4.1601
   11.160    4.0864
   11.175    4.3602
   11.190    4.1180
   11.205    3.6440
   11.220    4.1180
   11.235    4.3286
   11.250    4.1496
   11.265    4.1496
   11.280    4.0969
   11.295    4.2127
   11.310    4.0442
   11.325    3.8547
   11.340    4.1390
   11.355    4.1285
   11.370    4.1390
   11.385    4.1917
   11.400    4.1496
   11.415    4.1811
   11.430    4.0232
   11.445    3.8441
   11.460    4.1706
   11.475    4.1706
   11.490    4.2549
   11.505    4.3391
   11.520    4.2865
   11.535    4.1074
   11.550    4.2759
   11.565    4.4760
   11.580    4.1601
   11.595    4.1811
   11.610    4.2654
   11.625    4.0232
   11.640    3.8968
   11.655    4.0969
   11.670    4.2127
   11.685    4.3602
   11.700    4.2338
   11.715    4.4760
   11.730    4.4760
   11.745    4.4128
   11.760    4.4444
   11.775    4.5708
   11.790    4.7288
   11.805    4.2022
   11.820    4.4866
   11.835    4.0758
   11.850    4.1601
   11.865    4.1496
   11.880    4.3813
   11.895    4.2865
   11.910    4.3286
   11.925    4.2549
   11.940    4.5814
   11.955    4.4128
   11.970    4.4339
   11.985    4.6024
   12.000    4.7920
   12.015    4.4550
   12.030    4.1811
   12.045    4.2233
   12.060    4.4444
   12.075    4.5287
   12.090    4.4128
   12.105    4.4444
   12.120    4.5498
   12.135    4.6761
   12.150    4.3181
   12.165    4.2759
   12.180    4.1074
   12.195    4.3918
   12.210    4.2338
   12.225    4.3497
   12.240    4.4128
   12.255    4.5498
   12.270    4.5603
   12.285    4.1706
   12.300    4.3707
   12.315    4.4971
   12.330    4.5708
   12.345    4.2549
   12.360    3.9073
   12.375    4.2865
   12.390    4.5076
   12.405    4.5603
   12.420    4.5182
   12.435    4.4339
   12.450    4.0653
   12.465    4.3918
   12.480    4.3918
   12.495    4.3707
   12.510    4.4444
   12.525    4.3075
   12.540    4.2127
   12.555    4.3602
   12.570    4.3181
   12.585    4.3391
   12.600    4.3602
   12.615    4.3707
   12.630    4.3602
   12.645    4.2654
   12.660    4.3707
   12.675    4.2338
   12.690    4.2022
   12.705    4.0758
   12.720    4.1285
   12.735    4.2970
   12.750    4.1917
   12.765    4.1285
   12.780    4.0548
   12.795    4.2338
   12.810    4.2970
   12.825    4.3181
   12.840    4.3075
   12.855    4.2443
   12.870    4.3181
   12.885    4.1601
   12.900    4.0548
   12.915    4.1496
   12.930    4.1285
   12.945    4.6024
   12.960    4.6340
   12.975    4.4760
   12.990    4.2865
   13.005    4.2022
   13.020    4.1496
   13.035    4.2549
   13.050    4.5708
   13.065    4.2338
   13.080    3.8441
   13.095    3.9916
   13.110    3.8968
   13.125    4.0442
   13.140    4.2970
   13.155    4.2127
   13.170    4.4023
   13.185    4.4234
   13.200    3.9916
   13.215    4.0232
   13.230    4.4655
   13.245    4.2338
   13.260    4.1390
   13.275    3.8547
   13.290    4.3181
   13.305    4.1180
   13.320    4.0337
   13.335    3.8652
   13.350    4.0548
   13.365    4.0232
   13.380    4.0337
   13.395    4.2233
   13.410    4.3918
   13.425    4.1180
   13.440    4.1601
   13.455    3.7599
   13.470    4.0442
   13.485    4.1180
   13.500    3.9179
   13.515    3.9916
   13.530    4.0232
   13.545    4.0126
   13.560    4.2970
   13.575    4.2759
   13.590    4.2654
   13.605    4.3602
   13.620    4.2233
   13.635    4.0864
   13.650    4.0969
   13.665    4.0653
   13.680    4.1706
   13.695    3.8968
   13.710    4.0232
   13.725    4.4550
   13.740    4.1180
   13.755    4.0021
   13.770    3.9284
   13.785    4.0758
   13.800    4.4760
   13.815    4.3286
   13.830    4.1706
   13.845    4.2549
   13.860    4.1285
   13.875    3.8020
   13.890    4.1496
   13.905    3.9494
   13.920    3.9179
   13.935    4.1390
   13.950    4.1706
   13.965    3.9600
   13.980    4.0969
   13.995    4.0969
   14.010    4.2549
   14.025    4.1601
   14.040    4.0864
   14.055    4.0758
   14.070    4.1180
   14.085    4.0864
   14.100    3.9916
   14.115    4.3286
   14.130    4.1074
   14.145    4.2022
   14.160    4.0337
   14.175    3.8547
   14.190    3.6546
   14.205    4.2549
   14.220    4.1811
   14.235    3.9073
   14.250    4.0969
   14.265    4.2865
   14.280    3.9916
   14.295    3.9810
   14.310    4.1496
   14.325    3.8757
   14.340    3.8231
   14.355    4.1917
   14.370    3.8547
   14.385    3.9705
   14.400    4.0653
   14.415    4.0126
   14.430    3.6862
   14.445    3.9705
   14.460    3.4544
   14.475    3.7072
   14.490    3.8020
   14.505    3.7388
   14.520    3.9179
   14.535    3.8757
   14.550    4.2443
   14.565    3.9810
   14.580    3.6440
   14.595    3.8652
   14.610    3.5492
   14.625    4.0758
   14.640    4.0126
   14.655    3.7809
   14.670    3.8231
   14.685    3.8020
   14.700    4.0126
   14.715    3.9494
   14.730    4.1601
   14.745    3.8652
   14.760    3.9705
   14.775    3.9916
   14.790    3.8020
   14.805    4.0548
   14.820    3.9916
   14.835    3.7809
   14.850    3.9705
   14.865    3.9810
   14.880    3.8336
   14.895    3.9916
   14.910    3.9810
   14.925    3.6651
   14.940    3.9494
   14.955    4.1285
   14.970    3.9179
   14.985    3.7915
   15.000    3.8231
   15.015    3.4650
   15.030    3.8652
   15.045    4.0653
   15.060    3.7388
   15.075    3.7915
   15.090    4.0232
   15.105    3.5492
   15.120    3.8547
   15.135    4.0758
   15.150    4.0126
   15.165    3.7283
   15.180    3.7283
   15.195    3.7177
   15.210    3.9179
   15.225    4.0021
   15.240    4.1811
   15.255    4.1811
   15.270    3.9916
   15.285    3.8547
   15.300    3.9494
   15.315    3.9705
   15.330    3.9705
   15.345    3.8020
   15.360    3.9073
   15.375    4.0864
   15.390    4.4234
   15.405    4.0758
   15.420    3.9179
   15.435    3.7704
   15.450    3.8441
   15.465    3.7599
   15.480    3.7388
   15.495    4.0758
   15.510    3.8757
   15.525    3.9284
   15.540    3.7283
   15.555    3.8336
   15.570    4.3602
   15.585    4.0126
   15.600    3.7915
   15.615    4.0653
   15.630    4.1390
   15.645    3.9600
   15.660    4.0548
   15.675    4.0548
   15.690    4.1180
   15.705    3.9284
   15.720    3.9073
   15.735    4.0442
   15.750    4.0126
   15.765    3.6440
   15.780    3.9810
   15.795    4.0232
   15.810    4.0126
   15.825    4.2338
   15.840    3.8336
   15.855    3.5282
   15.870    3.9179
   15.885    3.8547
   15.900    3.9284
   15.915    3.8757
   15.930    3.8441
   15.945    3.7283
   15.960    4.0337
   15.975    3.8547
   15.990    3.6124
   16.005    3.6967
   16.020    3.6967
   16.035    3.7599
   16.050    3.9179
   16.065    3.8441
   16.080    4.0969
   16.095    3.8757
   16.110    3.9389
   16.125    3.8652
   16.140    3.8441
   16.155    3.8547
   16.170    3.8125
   16.185    3.8652
   16.200    3.7283
   16.215    3.8231
   16.230    3.8652
   16.245    4.0653
   16.260    3.8020
   16.275    3.8757
   16.290    3.4544
   16.305    3.2333
   16.320    3.8125
   16.335    3.7809
   16.350    3.9073
   16.365    4.0232
   16.380    3.8125
   16.395    4.1180
   16.410    3.9916
   16.425    3.7388
   16.440    3.7072
   16.455    3.7283
   16.470    3.9073
   16.485    3.8336
   16.500    3.8020
   16.515    3.8547
   16.530    4.0021
   16.545    3.9073
   16.560    3.6440
   16.575    3.7493
   16.590    3.6651
   16.605    3.7915
   16.620    3.8020
   16.635    3.5808
   16.650    3.8652
   16.665    3.8652
   16.680    3.8968
   16.695    3.9494
   16.710    3.9810
   16.725    3.9600
   16.740    3.7177
   16.755    3.9916
   16.770    3.7388
   16.785    4.0442
   16.800    3.7177
   16.815    3.6756
   16.830    3.9600
   16.845    3.8231
   16.860    3.6862
   16.875    3.6546
   16.890    3.9073
   16.905    3.7809
   16.920    3.7915
   16.935    3.9600
   16.950    4.0442
   16.965    4.0442
   16.980    4.1285
   16.995    4.1074
   17.010    3.8231
   17.025    3.8968
   17.040    3.9810
   17.055    3.8231
   17.070    3.6651
   17.085    3.8968
   17.100    4.1285
   17.115    4.1074
   17.130    3.8441
   17.145    3.8125
   17.160    3.9073
   17.175    3.6862
   17.190    3.7388
   17.205    3.8652
   17.220    3.6862
   17.235    3.8125
   17.250    3.7599
   17.265    4.0126
   17.280    3.8968
   17.295    3.5492
   17.310    3.8757
   17.325    4.1917
   17.340    3.9494
   17.355    4.0758
   17.370    3.9600
   17.385    3.9494
   17.400    3.6440
   17.415    3.9916
   17.430    3.9389
   17.445    3.9600
   17.460    3.8441
   17.475    3.8020
   17.490    3.8125
   17.505    3.8020
   17.520    3.8441
   17.535    4.0337
   17.550    3.8231
   17.565    3.8757
   17.580    3.8652
   17.595    3.7809
   17.610    3.8968
   17.625    3.8125
   17.640    3.9284
   17.655    3.8863
   17.670    3.9389
   17.685    3.9600
   17.700    3.9284
   17.715    4.2022
   17.730    4.1180
   17.745    3.8441
   17.760    3.5914
   17.775    3.6756
   17.790    3.9389
   17.805    3.9284
   17.820    3.8441
   17.835    3.9073
   17.850    3.8125
   17.865    3.6440
   17.880    3.8336
   17.895    3.8652
   17.910    4.1074
   17.925    3.6967
   17.940    4.1285
   17.955    3.8020
   17.970    3.8968
   17.985    3.8652
   18.000    3.8231
   18.015    3.9073
   18.030    3.8336
   18.045    3.9284
   18.060    4.0232
   18.075    3.6124
   18.090    4.0021
   18.105    3.6440
   18.120    3.6440
   18.135    3.7704
   18.150    4.1706
   18.165    3.9389
   18.180    3.7283
   18.195    3.6756
   18.210    3.7493
   18.225    3.8863
   18.240    4.0758
   18.255    4.1285
   18.270    3.9494
   18.285    4.0337
   18.300    4.0548
   18.315    4.1390
   18.330    4.1180
   18.345    3.6967
   18.360    3.9179
   18.375    3.6230
   18.390    3.8336
   18.405    3.8020
   18.420    3.7915
   18.435    4.0758
   18.450    3.7809
   18.465    3.8652
   18.480    3.9600
   18.495    3.8757
   18.510    3.9284
   18.525    3.9073
   18.540    3.8863
   18.555    3.8231
   18.570    3.7809
   18.585    4.1074
   18.600    4.1074
   18.615    3.8336
   18.630    3.8547
   18.645    3.8863
   18.660    3.6124
   18.675    3.8441
   18.690    4.2233
   18.705    4.1917
   18.720    3.8652
   18.735    3.7283
   18.750    3.8757
   18.765    3.9600
   18.780    4.2865
   18.795    3.9810
   18.810    4.0969
   18.825    3.8231
   18.840    3.8336
   18.855    4.2022
   18.870    4.0442
   18.885    4.1285
   18.900    4.0442
   18.915    4.1285
   18.930    4.0864
   18.945    4.2338
   18.960    4.2759
   18.975    4.1917
   18.990    4.1601
   19.005    4.2970
   19.020    4.7709
   19.035    4.7709
   19.050    4.4550
   19.065    4.3497
   19.080    4.2338
   19.095    4.1601
   19.110    3.9494
   19.125    3.8757
   19.140    4.0653
   19.155    3.6756
   19.170    3.8652
   19.185    4.3497
   19.200    3.9705
   19.215    3.8231
   19.230    4.1180
   19.245    4.0021
   19.260    4.0548
   19.275    4.1180
   19.290    3.8652
   19.305    4.0126
   19.320    3.6651
   19.335    3.9916
   19.350    4.5287
   19.365    4.2233
   19.380    3.6124
   19.395    3.8757
   19.410    3.8757
   19.425    4.1706
   19.440    4.3813
   19.455    4.1074
   19.470    4.1706
   19.485    4.0548
   19.500    4.2127
   19.515    4.3391
   19.530    4.1074
   19.545    4.2549
   19.560    4.3918
   19.575    3.9389
   19.590    4.0337
   19.605    4.2970
   19.620    4.0969
   19.635    3.9179
   19.650    3.9600
   19.665    4.1390
   19.680    4.2549
   19.695    4.4023
   19.710    4.4550
   19.725    4.3075
   19.740    4.1390
   19.755    4.4128
   19.770    4.1917
   19.785    3.8441
   19.800    3.6862
   19.815    4.0021
   19.830    4.2127
   19.845    4.2759
   19.860    4.0232
   19.875    4.3391
   19.890    4.2549
   19.905    4.2654
   19.920    3.9494
   19.935    4.1180
   19.950    4.3286
   19.965    4.3391
   19.980    4.4655
   19.995    4.1074
   20.010    4.0337
   20.025    4.2022
   20.040    4.3391
   20.055    4.3181
   20.070    4.3181
   20.085    3.8863
   20.100    4.0126
   20.115    4.0969
   20.130    4.0126
   20.145    3.9179
   20.160    3.8757
   20.175    3.8968
   20.190    4.5076
   20.205    4.3286
   20.220    4.6024
   20.235    4.6235
   20.250    4.1496
   20.265    4.0653
   20.280    4.3286
   20.295    4.3391
   20.310    4.0969
   20.325    4.0126
   20.340    4.6024
   20.355    4.1706
   20.370    4.3813
   20.385    4.4023
   20.400    4.6656
   20.415    4.3707
   20.430    4.4234
   20.445    4.1180
   20.460    4.1917
   20.475    4.6130
   20.490    4.4234
   20.505    4.1390
   20.520    4.1074
   20.535    4.1917
   20.550    4.0232
   20.565    3.8231
   20.580    4.1180
   20.595    4.2443
   20.610    4.1601
   20.625    4.2338
   20.640    4.4234
   20.655    4.3391
   20.670    4.4023
   20.685    4.2549
   20.700    4.1496
   20.715    4.2233
   20.730    4.0442
   20.745    3.8020
   20.760    4.3707
   20.775    4.4655
   20.790    4.1917
   20.805    4.3602
   20.820    3.9810
   20.835    3.9284
   20.850    4.0864
   20.865    4.4128
   20.880    4.3707
   20.895    4.1285
   20.910    4.3391
   20.925    4.2654
   20.940    4.3602
   20.955    4.3813
   20.970    4.2970
   20.985    3.7809
   21.000    4.0021
   21.015    4.2233
   21.030    4.2443
   21.045    4.0232
   21.060    4.1811
   21.075    4.0548
   21.090    4.1285
   21.105    4.0232
   21.120    4.2022
   21.135    4.0337
   21.150    4.1811
   21.165    4.1706
   21.180    4.4234
   21.195    4.1917
   21.210    4.0548
   21.225    4.2127
   21.240    4.3181
   21.255    4.2233
   21.270    4.3602
   21.285    4.0969
   21.300    4.3707
   21.315    4.5287
   21.330    4.3286
   21.345    4.4866
   21.360    4.1706
   21.375    4.4866
   21.390    4.4444
   21.405    4.3918
   21.420    3.9284
   21.435    4.0337
   21.450    4.5076
   21.465    4.3181
   21.480    4.1390
   21.495    4.2233
   21.510    4.2127
   21.525    4.0864
   21.540    4.4023
   21.555    4.2233
   21.570    4.1074
   21.585    4.3181
   21.600    4.3391
   21.615    4.2443
   21.630    4.4339
   21.645    4.6235
   21.660    4.4128
   21.675    4.2022
   21.690    4.5076
   21.705    4.2549
   21.720    4.2865
   21.735    4.3497
   21.750    4.3075
   21.765    4.0232
   21.780    4.0232
   21.795    4.2233
   21.810    4.2759
   21.825    4.0337
   21.840    4.4444
   21.855    4.6972
   21.870    4.2338
   21.885    3.9389
   21.900    4.1496
   21.915    4.2654
   21.930    4.1074
   21.945    4.1601
   21.960    4.3707
   21.975    4.1601
   21.990    4.0548
   22.005    4.2654
   22.020    4.3075
   22.035    3.9705
   22.050    4.0653
   22.065    4.3181
   22.080    4.2865
   22.095    4.3391
   22.110    4.3497
   22.125    4.2022
   22.140    4.3391
   22.155    4.3181
   22.170    4.5392
   22.185    4.2233
   22.200    4.0337
   22.215    4.2549
   22.230    4.2022
   22.245    4.3813
   22.260    4.3918
   22.275    4.5076
   22.290    4.2549
   22.305    4.3075
   22.320    4.4234
   22.335    4.2127
   22.350    4.4023
   22.365    4.1285
   22.380    4.1074
   22.395    4.2233
   22.410    4.1285
   22.425    4.1917
   22.440    4.6340
   22.455    4.2443
   22.470    4.4550
   22.485    4.3602
   22.500    4.4023
   22.515    4.1285
   22.530    4.3497
   22.545    4.2338
   22.560    3.9916
   22.575    4.2233
   22.590    4.3918
   22.605    4.2654
   22.620    4.1390
   22.635    4.4655
   22.650    4.5919
   22.665    4.4971
   22.680    4.5708
   22.695    4.2233
   22.710    4.2865
   22.725    3.9389
   22.740    4.1074
   22.755    4.0337
   22.770    3.9389
   22.785    4.2970
   22.800    4.3075
   22.815    4.2233
   22.830    4.0969
   22.845    4.2127
   22.860    4.2338
   22.875    4.0653
   22.890    4.3391
   22.905    4.3075
   22.920    4.3497
   22.935    4.0126
   22.950    4.1706
   22.965    4.2654
   22.980    4.2338
   22.995    4.2443
   23.010    4.1496
   23.025    4.1601
   23.040    4.0969
   23.055    4.2233
   23.070    4.1285
   23.085    3.7704
   23.100    4.2127
   23.115    4.2549
   23.130    4.3918
   23.145    4.4655
   23.160    4.3918
   23.175    4.2022
   23.190    4.4550
   23.205    4.1811
   23.220    4.0337
   23.235    3.9705
   23.250    4.3497
   23.265    4.2549
   23.280    3.9916
   23.295    4.1706
   23.310    4.3181
   23.325    4.0758
   23.340    4.0442
   23.355    3.9179
   23.370    4.0758
   23.385    4.1811
   23.400    4.4128
   23.415    4.1811
   23.430    4.0232
   23.445    4.0864
   23.460    3.7599
   23.475    4.0864
   23.490    4.2970
   23.505    4.2022
   23.520    4.1706
   23.535    4.0653
   23.550    4.2759
   23.565    3.8652
   23.580    3.9705
   23.595    4.0864
   23.610    4.0548
   23.625    3.9600
   23.640    4.1811
   23.655    4.2233
   23.670    4.2338
   23.685    3.8336
   23.700    3.9073
   23.715    4.1706
   23.730    4.2338
   23.745    4.1285
   23.760    4.2127
   23.775    4.1390
   23.790    4.3813
   23.805    4.0232
   23.820    3.8125
   23.835    4.1706
   23.850    4.1917
   23.865    4.1496
   23.880    3.8441
   23.895    4.1180
   23.910    3.9916
   23.925    3.6230
   23.940    3.8231
   23.955    4.0864
   23.970    3.9284
   23.985    4.1917
   24.000    4.2970
   24.015    4.1811
   24.030    4.0653
   24.045    3.9705
   24.060    4.0337
   24.075    4.1074
   24.090    4.5603
   24.105    4.2865
   24.120    3.9916
   24.135    4.0758
   24.150    4.1390
   24.165    3.9810
   24.180    4.0232
   24.195    4.0653
   24.210    3.9389
   24.225    3.9810
   24.240    4.1285
   24.255    4.0653
   24.270    3.9494
   24.285    4.0969
   24.300    4.0758
   24.315    3.7493
   24.330    3.9284
   24.345    4.1917
   24.360    4.2338
   24.375    4.2127
   24.390    4.3813
   24.405    4.2759
   24.420    4.0442
   24.435    3.9179
   24.450    3.8020
   24.465    3.8652
   24.480    3.7704
   24.495    3.6756
   24.510    3.9810
   24.525    4.2338
   24.540    4.0548
   24.555    4.1496
   24.570    3.8231
   24.585    4.2970
   24.600    4.1917
   24.615    4.3181
   24.630    4.0442
   24.645    4.1074
   24.660    4.0864
   24.675    4.3918
   24.690    3.9916
   24.705    3.9600
   24.720    3.6546
   24.735    3.9600
   24.750    3.9284
   24.765    4.2970
   24.780    4.2443
   24.795    4.1601
   24.810    3.9916
   24.825    3.8547
   24.840    3.8336
   24.855    4.0232
   24.870    3.9073
   24.885    3.7493
   24.900    3.6862
   24.915    4.0021
   24.930    4.0758
   24.945    3.9179
   24.960    4.1496
   24.975    3.9916
   24.990    3.9179
   25.005    3.9705
   25.020    3.6335
   25.035    3.8757
   25.050    4.0548
   25.065    3.4966
   25.080    3.6546
   25.095    3.9179
   25.110    3.7493
   25.125    3.7072
   25.140    3.6967
   25.155    3.7283
   25.170    3.8863
   25.185    4.1917
   25.200    4.1390
   25.215    3.8863
   25.230    3.9810
   25.245    4.1074
   25.260    4.0864
   25.275    3.8125
   25.290    4.2549
   25.305    4.0442
   25.320    3.7809
   25.335    3.9179
   25.350    3.8547
   25.365    3.7915
   25.380    3.8441
   25.395    3.8441
   25.410    3.9494
   25.425    3.8125
   25.440    3.5808
   25.455    3.7809
   25.470    3.6967
   25.485    4.1601
   25.500    3.9916
   25.515    3.7177
   25.530    3.6862
   25.545    4.0021
   25.560    3.9600
   25.575    3.7915
   25.590    3.9389
   25.605    3.7388
   25.620    3.7915
   25.635    4.0548
   25.650    3.8020
   25.665    4.0548
   25.680    3.6967
   25.695    3.6756
   25.710    3.7915
   25.725    4.0232
   25.740    3.5914
   25.755    3.5598
   25.770    3.8757
   25.785    4.0126
   25.800    3.6440
   25.815    3.6756
   25.830    3.6440
   25.845    3.8125
   25.860    3.7388
   25.875    3.6440
   25.890    3.7915
   25.905    3.3913
   25.920    3.8757
   25.935    3.9284
   25.950    3.7915
   25.965    3.7493
   25.980    3.7388
   25.995    3.6651
   26.010    3.7072
   26.025    3.9494
   26.040    3.4755
   26.055    3.4860
   26.070    3.7283
   26.085    3.7809
   26.100    3.7072
   26.115    3.9284
   26.130    3.5703
   26.145    3.6651
   26.160    3.4439
   26.175    3.6335
   26.190    3.7072
   26.205    3.5071
   26.220    3.7493
   26.235    3.8336
   26.250    3.6019
   26.265    3.5598
   26.280    3.5914
   26.295    3.6124
   26.310    3.5598
   26.325    3.8125
   26.340    3.6651
   26.355    3.8441
   26.370    3.4860
   26.385    3.7915
   26.400    3.8652
   26.415    3.5808
   26.430    3.8125
   26.445    3.4018
   26.460    3.6651
   26.475    3.6335
   26.490    3.8125
   26.505    3.7388
   26.520    3.6756
   26.535    3.4123
   26.550    3.7915
   26.565    3.5282
   26.580    3.6335
   26.595    3.5914
   26.610    3.6019
   26.625    3.7915
   26.640    3.5387
   26.655    3.8231
   26.670    3.5071
   26.685    3.4755
   26.700    3.6124
   26.715    3.6335
   26.730    3.6124
   26.745    3.5914
   26.760    3.5808
   26.775    3.2859
   26.790    3.5071
   26.805    3.5176
   26.820    3.4755
   26.835    3.5703
   26.850    3.6124
   26.865    3.6230
   26.880    3.3281
   26.895    3.5914
   26.910    3.7388
   26.925    3.6440
   26.940    3.6651
   26.955    3.4650
   26.970    3.5387
   26.985    3.4018
   27.000    3.6756
   27.015    3.5914
   27.030    3.6440
   27.045    4.0126
   27.060    3.6756
   27.075    3.4860
   27.090    3.4334
   27.105    3.5387
   27.120    3.2543
   27.135    3.4966
   27.150    3.5703
   27.165    3.0753
   27.180    3.4650
   27.195    3.6230
   27.210    3.5282
   27.225    3.7177
   27.240    3.4229
   27.255    3.5598
   27.270    3.4334
   27.285    3.3913
   27.300    3.5387
   27.315    3.6440
   27.330    3.4334
   27.345    3.4229
   27.360    3.5282
   27.375    3.6862
   27.390    3.9179
   27.405    4.0021
   27.420    3.7388
   27.435    3.5282
   27.450    3.5914
   27.465    3.4650
   27.480    3.5703
   27.495    3.4018
   27.510    3.4123
   27.525    3.4966
   27.540    3.5598
   27.555    3.5071
   27.570    3.4755
   27.585    3.4966
   27.600    3.6546
   27.615    3.5598
   27.630    3.4544
   27.645    3.5492
   27.660    3.6440
   27.675    3.6546
   27.690    3.4966
   27.705    3.7599
   27.720    3.6651
   27.735    3.6862
   27.750    3.4018
   27.765    3.3807
   27.780    3.4334
   27.795    3.3386
   27.810    3.6230
   27.825    3.3386
   27.840    3.5492
   27.855    3.5071
   27.870    3.4650
   27.885    3.4334
   27.900    3.2438
   27.915    3.4860
   27.930    3.9179
   27.945    3.8863
   27.960    3.7177
   27.975    3.8336
   27.990    3.6862
   28.005    3.6440
   28.020    3.6756
   28.035    3.8652
   28.050    3.5492
   28.065    3.7704
   28.080    4.0548
   28.095    3.8652
   28.110    3.7493
   28.125    3.7915
   28.140    3.8125
   28.155    3.5387
   28.170    3.3807
   28.185    3.6019
   28.200    3.5598
   28.215    3.5598
   28.230    3.6440
   28.245    3.7809
   28.260    3.9705
   28.275    3.9916
   28.290    3.7177
   28.305    3.3281
   28.320    3.4018
   28.335    3.6124
   28.350    3.3281
   28.365    3.0332
   28.380    3.4439
   28.395    3.4650
   28.410    3.4229
   28.425    3.3491
   28.440    3.6019
   28.455    3.2754
   28.470    3.5598
   28.485    3.3070
   28.500    3.3175
   28.515    3.5387
   28.530    3.3807
   28.545    3.5598
   28.560    3.4755
   28.575    3.7493
   28.590    3.5703
   28.605    3.3702
   28.620    3.4544
   28.635    3.3281
   28.650    3.5387
   28.665    3.5703
   28.680    3.5282
   28.695    3.3281
   28.710    3.4334
   28.725    3.7599
   28.740    3.3597
   28.755    3.3702
   28.770    3.1701
   28.785    3.2965
   28.800    3.5598
   28.815    3.6335
   28.830    3.5282
   28.845    3.2333
   28.860    3.2649
   28.875    3.3281
   28.890    3.4018
   28.905    3.3597
   28.920    3.3807
   28.935    3.6440
   28.950    3.7704
   28.965    3.6967
   28.980    3.9179
   28.995    3.6440
   29.010    3.8757
   29.025    3.9705
   29.040    3.9073
   29.055    3.7283
   29.070    3.5282
   29.085    3.5808
   29.100    3.5703
   29.115    3.3175
   29.130    3.3175
   29.145    3.4755
   29.160    3.4229
   29.175    3.4229
   29.190    3.3386
   29.205    3.5598
   29.220    3.6019
   29.235    3.3597
   29.250    3.0753
   29.265    3.2543
   29.280    3.1596
   29.295    3.6230
   29.310    3.7177
   29.325    3.5598
   29.340    3.4123
   29.355    3.1806
   29.370    3.1912
   29.385    3.0964
   29.400    3.2859
   29.415    3.6440
   29.430    3.3386
   29.445    3.2333
   29.460    3.2543
   29.475    3.3070
   29.490    3.4860
   29.505    3.6019
   29.520    3.3702
   29.535    3.6651
   29.550    3.5176
   29.565    3.4755
   29.580    3.4544
   29.595    3.1596
   29.610    3.6124
   29.625    3.5387
   29.640    3.2227
   29.655    3.1912
   29.670    3.2333
   29.685    3.4018
   29.700    3.1912
   29.715    3.1385
   29.730    3.1385
   29.745    3.1385
   29.760    3.4229
   29.775    3.3386
   29.790    3.1912
   29.805    3.1385
   29.820    2.8857
   29.835    3.0753
   29.850    3.2649
   29.865    3.2227
   29.880    3.1701
   29.895    3.1385
   29.910    3.4860
   29.925    3.3597
   29.940    3.2017
   29.955    3.4334
   29.970    3.2543
   29.985    2.9805
   30.000    3.1385
   30.015    3.2017
   30.030    3.2017
   30.045    3.2333
   30.060    3.0437
   30.075    3.2649
   30.090    3.1280
   30.105    3.1596
   30.120    2.9595
   30.135    3.2859
   30.150    3.2543
   30.165    3.1806
   30.180    3.1806
   30.195    3.0121
   30.210    3.0858
   30.225    3.0016
   30.240    3.0964
   30.255    3.0964
   30.270    3.2543
   30.285    2.9384
   30.300    3.0121
   30.315    3.1069
   30.330    3.2122
   30.345    3.0753
   30.360    3.2122
   30.375    3.1280
   30.390    3.1912
   30.405    3.3175
   30.420    3.0542
   30.435    3.1596
   30.450    3.0542
   30.465    3.1280
   30.480    3.0226
   30.495    3.0016
   30.510    3.0437
   30.525    3.4334
   30.540    3.0016
   30.555    3.0753
   30.570    3.1596
   30.585    3.3070
   30.600    3.1385
   30.615    3.2649
   30.630    3.4229
   30.645    3.1385
   30.660    3.0332
   30.675    3.2227
   30.690    3.1596
   30.705    3.1385
   30.720    3.0648
   30.735    3.1596
   30.750    3.2543
   30.765    3.2227
   30.780    2.9805
   30.795    3.2543
   30.810    3.2754
   30.825    3.0964
   30.840    2.9173
   30.855    2.9700
   30.870    3.1069
   30.885    2.9805
   30.900    3.3597
   30.915    3.1385
   30.930    3.3175
   30.945    3.0332
   30.960    2.9595
   30.975    3.0332
   30.990    3.2543
   31.005    2.9805
   31.020    2.9489
   31.035    3.0226
   31.050    3.1280
   31.065    2.9910
   31.080    3.1280
   31.095    2.8647
   31.110    2.9173
   31.125    3.0332
   31.140    2.8963
   31.155    3.0648
   31.170    3.2333
   31.185    3.3491
   31.200    3.2965
   31.215    3.0858
   31.230    3.1280
   31.245    3.0753
   31.260    3.0648
   31.275    2.8963
   31.290    2.9910
   31.305    2.9910
   31.320    2.7804
   31.335    2.9279
   31.350    2.8225
   31.365    2.7909
   31.380    3.0437
   31.395    3.1280
   31.410    3.1701
   31.425    3.2017
   31.440    3.3491
   31.455    3.3070
   31.470    3.1912
   31.485    3.0648
   31.500    3.3386
   31.515    3.4018
   31.530    3.0542
   31.545    3.3386
   31.560    3.4650
   31.575    3.3807
   31.590    3.1912
   31.605    3.2859
   31.620    3.3281
   31.635    3.0016
   31.650    3.2227
   31.665    3.1069
   31.680    3.3175
   31.695    3.4439
   31.710    3.2649
   31.725    3.3070
   31.740    3.1069
   31.755    3.0858
   31.770    3.2965
   31.785    3.0542
   31.800    3.0964
   31.815    3.2333
   31.830    3.1701
   31.845    3.1596
   31.860    3.1490
   31.875    3.1701
   31.890    3.2965
   31.905    3.2333
   31.920    3.1174
   31.935    3.0858
   31.950    3.1912
   31.965    3.2438
   31.980    3.2438
   31.995    3.0121
   32.010    3.2333
   32.025    3.2438
   32.040    3.3175
   32.055    3.5492
   32.070    3.5492
   32.085    3.6124
   32.100    3.8231
   32.115    3.6651
   32.130    3.8863
   32.145    3.6651
   32.160    4.0337
   32.175    3.9494
   32.190    3.7915
   32.205    3.4334
   32.220    3.4860
   32.235    3.1596
   32.250    2.9700
   32.265    3.3281
   32.280    3.0332
   32.295    2.9384
   32.310    2.8225
   32.325    2.8647
   32.340    2.9279
   32.355    2.7278
   32.370    2.6962
   32.385    2.8120
   32.400    2.8225
   32.415    2.8857
   32.430    2.7488
   32.445    2.9173
   32.460    2.9595
   32.475    2.8647
   32.490    3.0542
   32.505    3.1806
   32.520    3.1385
   32.535    3.1069
   32.550    2.9173
   32.565    2.7804
   32.580    2.9805
   32.595    2.9384
   32.610    2.8120
   32.625    2.8857
   32.640    2.8857
   32.655    2.6435
   32.670    2.7699
   32.685    2.8541
   32.700    2.8857
   32.715    3.2017
   32.730    3.0753
   32.745    2.8120
   32.760    2.6962
   32.775    2.8120
   32.790    2.9595
   32.805    2.7278
   32.820    2.8647
   32.835    2.8331
   32.850    2.8541
   32.865    3.0226
   32.880    2.9068
   32.895    2.9700
   32.910    2.8541
   32.925    3.0753
   32.940    2.8331
   32.955    3.0648
   32.970    2.7278
   32.985    2.5698
   33.000    2.5698
   33.015    2.8541
   33.030    2.8331
   33.045    2.6751
   33.060    2.7909
   33.075    2.9700
   33.090    2.9173
   33.105    2.9279
   33.120    2.7488
   33.135    2.6751
   33.150    2.7804
   33.165    2.8120
   33.180    2.6330
   33.195    2.9700
   33.210    2.8015
   33.225    2.7909
   33.240    2.8120
   33.255    2.8541
   33.270    2.7909
   33.285    2.6435
   33.300    2.9384
   33.315    2.7383
   33.330    2.9173
   33.345    2.8436
   33.360    2.8963
   33.375    2.7593
   33.390    2.7804
   33.405    2.7488
   33.420    2.7067
   33.435    2.7699
   33.450    2.8015
   33.465    2.8015
   33.480    2.7488
   33.495    2.9489
   33.510    2.6751
   33.525    2.7488
   33.540    2.8225
   33.555    2.5908
   33.570    2.6540
   33.585    2.6646
   33.600    3.0226
   33.615    2.8225
   33.630    2.6330
   33.645    2.5592
   33.660    2.7593
   33.675    2.6646
   33.690    2.8015
   33.705    2.9384
   33.720    2.9805
   33.735    2.5066
   33.750    2.6435
   33.765    2.7383
   33.780    2.8963
   33.795    2.9068
   33.810    3.0016
   33.825    3.1385
   33.840    2.9805
   33.855    3.0858
   33.870    3.0332
   33.885    3.2438
   33.900    3.1069
   33.915    3.0332
   33.930    3.0226
   33.945    3.0437
   33.960    2.7593
   33.975    2.6119
   33.990    2.8120
   34.005    2.7172
   34.020    2.8752
   34.035    2.7699
   34.050    2.6646
   34.065    2.6540
   34.080    2.7488
   34.095    2.8331
   34.110    2.6962
   34.125    2.7804
   34.140    2.9068
   34.155    2.7067
   34.170    2.8015
   34.185    2.8541
   34.200    2.8436
   34.215    2.8541
   34.230    2.7593
   34.245    2.5171
   34.260    2.5171
   34.275    2.5171
   34.290    2.4329
   34.305    2.3697
   34.320    2.6646
   34.335    2.7383
   34.350    2.5171
   34.365    2.5171
   34.380    2.7699
   34.395    2.4118
   34.410    2.5698
   34.425    2.5276
   34.440    2.4118
   34.455    2.7699
   34.470    2.4750
   34.485    2.3802
   34.500    2.4118
   34.515    2.7067
   34.530    2.5487
   34.545    2.5487
   34.560    2.6751
   34.575    2.5171
   34.590    2.6224
   34.605    2.8963
   34.620    2.8015
   34.635    2.6540
   34.650    2.5698
   34.665    2.4223
   34.680    2.6856
   34.695    2.6014
   34.710    2.4645
   34.725    2.6856
   34.740    2.3802
   34.755    2.5487
   34.770    2.2328
   34.785    2.5698
   34.800    3.1385
   34.815    2.6330
   34.830    2.2117
   34.845    2.4645
   34.860    2.6435
   34.875    2.7699
   34.890    2.7699
   34.905    2.8963
   34.920    2.6646
   34.935    2.8225
   34.950    2.6856
   34.965    2.6435
   34.980    2.6435
   34.995    2.8120
   35.010    2.6962
   35.025    2.5698
   35.040    2.6540
   35.055    2.4750
   35.070    2.5698
   35.085    2.5487
   35.100    2.9805
   35.115    2.7067
   35.130    2.7067
   35.145    2.5066
   35.160    2.5171
   35.175    2.2538
   35.190    2.3591
   35.205    2.9068
   35.220    2.5171
   35.235    2.6119
   35.250    2.6646
   35.265    2.5487
   35.280    2.7909
   35.295    2.7067
   35.310    2.6856
   35.325    2.4329
   35.340    2.5487
   35.355    2.3065
   35.370    2.6014
   35.385    2.3802
   35.400    2.6856
   35.415    2.2433
   35.430    2.3065
   35.445    2.4855
   35.460    2.5382
   35.475    2.5487
   35.490    2.3907
   35.505    2.6119
   35.520    2.3275
   35.535    2.4961
   35.550    2.7909
   35.565    2.5908
   35.580    2.6856
   35.595    2.4645
   35.610    2.5803
   35.625    2.5908
   35.640    2.5803
   35.655    2.5487
   35.670    2.6119
   35.685    2.4118
   35.700    2.3907
   35.715    2.4961
   35.730    2.3591
   35.745    2.4539
   35.760    2.4645
   35.775    2.3591
   35.790    2.4855
   35.805    2.6119
   35.820    2.7699
   35.835    2.3170
   35.850    2.2854
   35.865    2.4539
   35.880    2.6540
   35.895    2.4645
   35.910    2.5803
   35.925    2.5698
   35.940    2.5592
   35.955    2.4855
   35.970    2.6330
   35.985    2.5487
   36.000    2.4750
   36.015    2.5592
   36.030    2.4539
   36.045    2.6540
   36.060    2.6224
   36.075    2.3907
   36.090    2.2538
   36.105    2.5382
   36.120    2.2854
   36.135    2.2433
   36.150    2.3065
   36.165    2.4645
   36.180    2.6435
   36.195    2.5803
   36.210    2.7593
   36.225    2.4961
   36.240    2.4329
   36.255    2.1590
   36.270    2.3591
   36.285    2.4855
   36.300    2.4118
   36.315    2.5066
   36.330    2.4855
   36.345    2.3486
   36.360    2.3170
   36.375    2.2012
   36.390    2.3381
   36.405    2.3381
   36.420    2.2222
   36.435    2.1696
   36.450    2.3486
   36.465    2.3802
   36.480    2.4645
   36.495    2.1485
   36.510    2.4223
   36.525    2.5487
   36.540    2.3591
   36.555    2.3802
   36.570    2.4855
   36.585    2.4223
   36.600    2.4645
   36.615    2.3697
   36.630    2.5382
   36.645    2.3591
   36.660    2.4013
   36.675    2.5171
   36.690    2.4855
   36.705    2.5698
   36.720    2.4645
   36.735    2.2959
   36.750    2.4645
   36.765    2.3486
   36.780    2.3486
   36.795    2.4855
   36.810    2.6856
   36.825    2.5066
   36.840    2.3907
   36.855    2.4118
   36.870    2.3170
   36.885    2.2749
   36.900    2.3697
   36.915    2.3381
   36.930    2.2643
   36.945    2.1801
   36.960    2.3802
   36.975    2.4750
   36.990    2.6856
   37.005    2.5171
   37.020    2.3697
   37.035    2.2959
   37.050    2.1696
   37.065    2.3907
   37.080    2.2749
   37.095    2.2854
   37.110    2.1906
   37.125    2.3381
   37.140    2.1696
   37.155    2.5382
   37.170    2.3275
   37.185    2.2222
   37.200    2.1274
   37.215    2.4118
   37.230    2.4645
   37.245    2.3907
   37.260    2.4539
   37.275    2.5908
   37.290    2.5066
   37.305    2.2433
   37.320    2.3486
   37.335    2.4223
   37.350    2.2854
   37.365    2.3381
   37.380    2.3275
   37.395    2.4013
   37.410    2.2433
   37.425    2.3486
   37.440    2.2538
   37.455    2.4855
   37.470    2.4434
   37.485    2.5803
   37.500    2.1906
   37.515    2.3275
   37.530    2.2433
   37.545    2.4013
   37.560    2.6014
   37.575    2.1380
   37.590    2.3170
   37.605    2.1485
   37.620    2.1380
   37.635    2.2328
   37.650    2.1906
   37.665    2.0748
   37.680    2.4329
   37.695    2.4013
   37.710    2.2117
   37.725    2.2012
   37.740    2.2433
   37.755    2.5698
   37.770    2.2749
   37.785    2.5908
   37.800    2.5382
   37.815    2.2538
   37.830    2.2643
   37.845    2.1064
   37.860    2.3381
   37.875    2.3275
   37.890    2.2012
   37.905    2.0958
   37.920    2.3802
   37.935    2.4329
   37.950    2.1485
   37.965    1.8747
   37.980    2.2117
   37.995    2.2222
   38.010    2.1696
   38.025    2.1064
   38.040    2.1380
   38.055    2.3275
   38.070    2.3065
   38.085    2.3170
   38.100    2.3486
   38.115    2.4223
   38.130    2.2328
   38.145    2.1380
   38.160    2.5171
   38.175    2.3907
   38.190    2.4223
   38.205    2.4539
   38.220    2.1485
   38.235    2.1169
   38.250    2.1590
   38.265    2.2433
   38.280    2.3381
   38.295    2.4539
   38.310    2.4013
   38.325    2.3170
   38.340    2.4013
   38.355    2.4329
   38.370    2.3381
   38.385    2.3065
   38.400    2.2222
   38.415    2.3697
   38.430    2.2012
   38.445    2.1696
   38.460    2.5487
   38.475    2.2222
   38.490    2.4539
   38.505    2.3486
   38.520    2.3486
   38.535    2.2012
   38.550    2.5382
   38.565    2.5276
   38.580    2.4750
   38.595    2.6330
   38.610    2.4750
   38.625    2.1169
   38.640    2.3275
   38.655    2.6119
   38.670    2.4855
   38.685    2.5066
   38.700    2.3802
   38.715    2.4013
   38.730    2.2749
   38.745    2.3486
   38.760    2.1485
   38.775    2.2222
   38.790    2.3170
   38.805    2.2117
   38.820    2.2012
   38.835    2.0116
   38.850    2.1380
   38.865    2.0958
   38.880    2.2959
   38.895    1.9695
   38.910    1.9800
   38.925    2.1906
   38.940    2.1274
   38.955    2.2749
   38.970    2.3170
   38.985    2.1906
   39.000    2.2854
   39.015    2.0748
   39.030    2.2222
   39.045    2.3381
   39.060    2.2222
   39.075    2.3907
   39.090    2.2012
   39.105    2.3065
   39.120    2.0853
   39.135    2.3907
   39.150    2.2012
   39.165    2.1064
   39.180    2.2643
   39.195    2.0537
   39.210    2.2328
   39.225    2.2749
   39.240    2.2538
   39.255    2.2749
   39.270    2.1380
   39.285    2.2959
   39.300    2.2222
   39.315    2.3591
   39.330    2.1169
   39.345    2.1906
   39.360    2.2433
   39.375    2.1380
   39.390    2.3381
   39.405    2.1906
   39.420    2.0853
   39.435    2.2117
   39.450    2.0748
   39.465    2.1274
   39.480    2.0432
   39.495    2.3275
   39.510    2.4645
   39.525    2.0748
   39.540    2.0432
   39.555    2.1696
   39.570    2.2643
   39.585    2.4539
   39.600    2.1696
   39.615    2.0537
   39.630    2.2959
   39.645    2.1801
   39.660    2.2222
   39.675    2.3170
   39.690    2.3802
   39.705    2.1274
   39.720    2.2433
   39.735    2.2749
   39.750    2.4645
   39.765    2.2749
   39.780    2.1801
   39.795    2.3591
   39.810    2.1906
   39.825    2.2222
   39.840    2.1590
   39.855    2.2117
   39.870    2.2012
   39.885    2.0748
   39.900    2.2222
   39.915    2.2328
   39.930    2.2538
   39.945    2.1064
   39.960    2.2433
   39.975    2.2433
   39.990    2.3275
