    1.500   10.0228
    1.515   10.2861
    1.530    9.7595
    1.545    9.8473
    1.560    9.6893
    1.575    9.0574
    1.590    9.1101
    1.605    8.5659
    1.620    9.2329
    1.635    8.7590
    1.650    8.9872
    1.665    8.9170
    1.680    9.1627
    1.695    8.8468
    1.710    8.9170
    1.725    8.6888
    1.740    9.0223
    1.755    8.8994
    1.770    8.1622
    1.785    7.5478
    1.800    7.6883
    1.815    7.6180
    1.830    7.5654
    1.845    7.8287
    1.860    7.2319
    1.875    7.5654
    1.890    7.7936
    1.905    7.1792
    1.920    6.6702
    1.935    7.1792
    1.950    7.4250
    1.965    7.3899
    1.980    6.9861
    1.995    7.3372
    2.010    7.0915
    2.025    7.4776
    2.040    6.8457
    2.055    6.7579
    2.070    7.4074
    2.085    7.0212
    2.100    6.8106
    2.115    6.9159
    2.130    6.6175
    2.145    6.7053
    2.160    6.8106
    2.175    6.6877
    2.190    6.7053
    2.205    6.5473
    2.220    6.3367
    2.235    6.0909
    2.250    6.5649
    2.265    6.3718
    2.280    6.2665
    2.295    6.3893
    2.310    5.9681
    2.325    6.0909
    2.340    6.3542
    2.355    6.4420
    2.370    6.2489
    2.385    5.9681
    2.400    6.2840
    2.415    5.9329
    2.430    5.8803
    2.445    6.0734
    2.460    5.8627
    2.475    6.0383
    2.490    5.4415
    2.505    5.8627
    2.520    5.7750
    2.535    5.6521
    2.550    5.5292
    2.565    5.4415
    2.580    5.7750
    2.595    5.9505
    2.610    5.5117
    2.625    5.3186
    2.640    6.1085
    2.655    5.7223
    2.670    5.9154
    2.685    5.4766
    2.700    5.7048
    2.715    5.5643
    2.730    5.4239
    2.745    5.6872
    2.760    5.7048
    2.775    5.8627
    2.790    5.7399
    2.805    5.8803
    2.820    5.5819
    2.835    5.5292
    2.850    5.9329
    2.865    5.6697
    2.880    5.6345
    2.895    5.9856
    2.910    5.7048
    2.925    5.7750
    2.940    6.1260
    2.955    6.3016
    2.970    5.8276
    2.985    6.1611
    3.000    6.4420
    3.015    6.6000
    3.030    7.0388
    3.045    6.6351
    3.060    6.5824
    3.075    7.0037
    3.090    7.0563
    3.105    7.7585
    3.120    8.1095
    3.135    8.1622
    3.150    7.6180
    3.165    7.9164
    3.180    8.2675
    3.195    8.7765
    3.210    8.9872
    3.225    9.5489
    3.240    8.8994
    3.255   10.4441
    3.270   10.9531
    3.285   10.9356
    3.300   11.7079
    3.315   12.9191
    3.330   12.8138
    3.345   13.2526
    3.360   13.6739
    3.375   14.8148
    3.390   15.8856
    3.405   16.7808
    3.420   17.0441
    3.435   18.0972
    3.450   19.7999
    3.465   20.4845
    3.480   22.6786
    3.495   23.3632
    3.510   24.3988
    3.525   27.6461
    3.540   28.1552
    3.555   29.6472
    3.570   33.1929
    3.585   33.8950
    3.600   37.6338
    3.615   40.3546
    3.630   45.4450
    3.645   47.2529
    3.660   51.1673
    3.675   55.1167
    3.690   61.3656
    3.705   68.0007
    3.720   73.3544
    3.735   80.4459
    3.750   90.4336
    3.765  103.2298
    3.780  120.9935
    3.795  142.1274
    3.810  171.1778
    3.825  199.7192
    3.840  212.4803
    3.855  199.9473
    3.870  161.2428
    3.885  118.9047
    3.900   74.5831
    3.915   38.4939
    3.930   19.8350
    3.945   11.9010
    3.960    8.6888
    3.975    7.3723
    3.990    6.5473
    4.005    5.8627
    4.020    6.1787
    4.035    5.9329
    4.050    5.8803
    4.065    4.9500
    4.080    4.5638
    4.095    4.4058
    4.110    4.8798
    4.125    4.9851
    4.140    4.7920
    4.155    4.5463
    4.170    4.3707
    4.185    4.9324
    4.200    4.8622
    4.215    4.6516
    4.230    4.4409
    4.245    4.4234
    4.260    4.2303
    4.275    4.5111
    4.290    4.3181
    4.305    4.4234
    4.320    4.3005
    4.335    4.4760
    4.350    4.3005
    4.365    4.1425
    4.380    4.3005
    4.395    3.6686
    4.410    3.7388
    4.425    4.2478
    4.440    4.1952
    4.455    3.9319
    4.470    4.3532
    4.485    4.1601
    4.500    4.1425
    4.515    4.0548
    4.530    4.2478
    4.545    4.5463
    4.560    4.1425
    4.575    3.5984
    4.590    3.7037
    4.605    4.3181
    4.620    4.1425
    4.635    4.0197
    4.650    4.2303
    4.665    3.9846
    4.680    3.4755
    4.695    4.0899
    4.710    3.9143
    4.725    4.1425
    4.740    4.2303
    4.755    3.9670
    4.770    3.4931
    4.785    4.0372
    4.800    3.8266
    4.815    4.1601
    4.830    3.7915
    4.845    3.8968
    4.860    3.6159
    4.875    3.9670
    4.890    4.1425
    4.905    3.9494
    4.920    4.1601
    4.935    4.3181
    4.950    4.2127
    4.965    4.4058
    4.980    4.4058
    4.995    4.6691
    5.010    4.9500
    5.025    4.6867
    5.040    4.7744
    5.055    4.9851
    5.070    5.2835
    5.085    5.5994
    5.100    5.1431
    5.115    5.3010
    5.130    5.6345
    5.145    5.5994
    5.160    6.1085
    5.175    6.6000
    5.190    6.4595
    5.205    6.8106
    5.220    7.6883
    5.235    8.4606
    5.250    8.8292
    5.265    9.5313
    5.280    9.4611
    5.295   10.1983
    5.310   11.4271
    5.325   11.6904
    5.340   12.9893
    5.355   14.9903
    5.370   16.9738
    5.385   19.2206
    5.400   22.2573
    5.415   26.2770
    5.430   31.2621
    5.445   37.2477
    5.460   40.3897
    5.475   38.0902
    5.490   33.1403
    5.505   25.9961
    5.520   18.3605
    5.535   11.3920
    5.550    7.2494
    5.565    5.5117
    5.580    4.9149
    5.595    4.5989
    5.610    4.1952
    5.625    3.8968
    5.640    3.9846
    5.655    4.0723
    5.670    3.8968
    5.685    3.8090
    5.700    3.7388
    5.715    4.0899
    5.730    3.5282
    5.745    3.4229
    5.760    3.7388
    5.775    3.5633
    5.790    3.6159
    5.805    3.7915
    5.820    3.6335
    5.835    3.7739
    5.850    3.1947
    5.865    3.4931
    5.880    3.2649
    5.895    3.3351
    5.910    3.5633
    5.925    3.9494
    5.940    3.5808
    5.955    3.3526
    5.970    3.5106
    5.985    3.4755
    6.000    3.4053
    6.015    3.3175
    6.030    3.3175
    6.045    3.4931
    6.060    3.1069
    6.075    3.7564
    6.090    3.2298
    6.105    3.5808
    6.120    4.0197
    6.135    3.5457
    6.150    3.1420
    6.165    3.4580
    6.180    3.6335
    6.195    3.4580
    6.210    3.3000
    6.225    3.5457
    6.240    3.5457
    6.255    3.5633
    6.270    3.7739
    6.285    3.8441
    6.300    3.4931
    6.315    3.6159
    6.330    3.6159
    6.345    3.8266
    6.360    3.4404
    6.375    3.5457
    6.390    3.4053
    6.405    3.5106
    6.420    3.5984
    6.435    3.9846
    6.450    3.7037
    6.465    4.1250
    6.480    3.9670
    6.495    4.3181
    6.510    3.8441
    6.525    3.6686
    6.540    3.9670
    6.555    4.2654
    6.570    4.1776
    6.585    4.5463
    6.600    4.7218
    6.615    4.9851
    6.630    5.8803
    6.645    6.0383
    6.660    6.9861
    6.675    7.2319
    6.690    8.2675
    6.705    8.3553
    6.720    8.9872
    6.735    8.1622
    6.750    6.8282
    6.765    5.6345
    6.780    4.5638
    6.795    4.1776
    6.810    3.5984
    6.825    3.4229
    6.840    3.4053
    6.855    3.7037
    6.870    3.6686
    6.885    3.3702
    6.900    3.3000
    6.915    3.2824
    6.930    3.1420
    6.945    3.1245
    6.960    3.2473
    6.975    3.3351
    6.990    3.1771
    7.005    3.3526
    7.020    3.2473
    7.035    3.1069
    7.050    3.2473
    7.065    3.0367
    7.080    3.2649
    7.095    3.2473
    7.110    3.1771
    7.125    3.0542
    7.140    3.3351
    7.155    2.8963
    7.170    2.7909
    7.185    3.2473
    7.200    2.9489
    7.215    3.0893
    7.230    3.1069
    7.245    3.2298
    7.260    3.2298
    7.275    3.3702
    7.290    3.3702
    7.305    3.0542
    7.320    2.8085
    7.335    3.2298
    7.350    3.2649
    7.365    3.0542
    7.380    3.1596
    7.395    3.5282
    7.410    3.1245
    7.425    3.3175
    7.440    3.5984
    7.455    3.4229
    7.470    3.4580
    7.485    3.6335
    7.500    3.5984
    7.515    3.7915
    7.530    3.7915
    7.545    3.6686
    7.560    3.9143
    7.575    4.1601
    7.590    4.2478
    7.605    4.8622
    7.620    5.3712
    7.635    5.3010
    7.650    5.7399
    7.665    5.6170
    7.680    6.5122
    7.695    7.3021
    7.710    8.5659
    7.725    9.8473
    7.740   12.1643
    7.755   13.2526
    7.770   13.1648
    7.785   11.4622
    7.800    9.6542
    7.815    7.3547
    7.830    5.9329
    7.845    4.3532
    7.860    3.6159
    7.875    3.4229
    7.890    3.7213
    7.905    3.4053
    7.920    3.3702
    7.935    3.1596
    7.950    3.1947
    7.965    3.3351
    7.980    3.0016
    7.995    3.2473
    8.010    3.0542
    8.025    3.3702
    8.040    3.5808
    8.055    3.4053
    8.070    3.5282
    8.085    3.3175
    8.100    3.0893
    8.115    3.0542
    8.130    3.2473
    8.145    3.2824
    8.160    3.0893
    8.175    2.8963
    8.190    3.2298
    8.205    3.2824
    8.220    3.1947
    8.235    3.0367
    8.250    2.9840
    8.265    2.6856
    8.280    2.8787
    8.295    3.0016
    8.310    3.0542
    8.325    3.4755
    8.340    3.0718
    8.355    3.0893
    8.370    2.9489
    8.385    3.0542
    8.400    3.1771
    8.415    3.0542
    8.430    2.9138
    8.445    3.0718
    8.460    3.1771
    8.475    3.1947
    8.490    3.0718
    8.505    3.3175
    8.520    2.9314
    8.535    3.1069
    8.550    3.0191
    8.565    3.0893
    8.580    3.2649
    8.595    3.1245
    8.610    3.2298
    8.625    3.5808
    8.640    3.5106
    8.655    3.4229
    8.670    4.1074
    8.685    4.3883
    8.700    3.9670
    8.715    3.4580
    8.730    3.3877
    8.745    3.5282
    8.760    3.5633
    8.775    2.8260
    8.790    2.8436
    8.805    2.9314
    8.820    2.9840
    8.835    2.9840
    8.850    2.9489
    8.865    2.6856
    8.880    3.0718
    8.895    3.1069
    8.910    3.6159
    8.925    2.8787
    8.940    2.7558
    8.955    3.0016
    8.970    3.0893
    8.985    3.1947
    9.000    2.8085
    9.015    2.8436
    9.030    2.8963
    9.045    2.9665
    9.060    3.3000
    9.075    3.1420
    9.090    2.8787
    9.105    3.1245
    9.120    2.9314
    9.135    2.8963
    9.150    3.0367
    9.165    3.0367
    9.180    2.8963
    9.195    2.8612
    9.210    2.7909
    9.225    2.8085
    9.240    2.7032
    9.255    3.3351
    9.270    3.4053
    9.285    3.3175
    9.300    3.3351
    9.315    3.6159
    9.330    3.4931
    9.345    4.2654
    9.360    4.2830
    9.375    4.6340
    9.390    4.9851
    9.405    5.5117
    9.420    6.6702
    9.435    7.9340
    9.450    9.1803
    9.465   10.2510
    9.480   11.2340
    9.495   14.0074
    9.510   16.7457
    9.525   18.3605
    9.540   17.1143
    9.555   14.5691
    9.570   12.4276
    9.585    8.5484
    9.600    6.1260
    9.615    4.4409
    9.630    3.5808
    9.645    3.3175
    9.660    3.0718
    9.675    3.0893
    9.690    3.1069
    9.705    3.0191
    9.720    2.7909
    9.735    2.7909
    9.750    2.6681
    9.765    2.5628
    9.780    2.9489
    9.795    2.8436
    9.810    3.0542
    9.825    2.8963
    9.840    2.7383
    9.855    2.5803
    9.870    2.5979
    9.885    2.7032
    9.900    2.5276
    9.915    2.7032
    9.930    2.8612
    9.945    3.1771
    9.960    2.9138
    9.975    2.9489
    9.990    3.0542
   10.005    3.0718
   10.020    2.9489
   10.035    3.3000
   10.050    3.2824
   10.065    3.3175
   10.080    2.9665
   10.095    2.9489
   10.110    3.2122
   10.125    3.1420
   10.140    3.4053
   10.155    3.6159
   10.170    3.5457
   10.185    3.5282
   10.200    4.0723
   10.215    4.7920
   10.230    4.7920
   10.245    5.7399
   10.260    6.1260
   10.275    7.0212
   10.290    7.8989
   10.305    7.6356
   10.320    7.6356
   10.335    6.4771
   10.350    5.0202
   10.365    4.4234
   10.380    3.4053
   10.395    3.3351
   10.410    2.9314
   10.425    2.8787
   10.440    2.9138
   10.455    2.8436
   10.470    3.0016
   10.485    2.9840
   10.500    2.9138
   10.515    2.8963
   10.530    3.0893
   10.545    2.9138
   10.560    2.8436
   10.575    2.8612
   10.590    2.9489
   10.605    3.0718
   10.620    2.6681
   10.635    2.6330
   10.650    2.9489
   10.665    2.8260
   10.680    2.7207
   10.695    2.8260
   10.710    2.7383
   10.725    2.7909
   10.740    2.9314
   10.755    2.9314
   10.770    3.0367
   10.785    2.9314
   10.800    3.0718
   10.815    3.0016
   10.830    3.1069
   10.845    3.1420
   10.860    2.9665
   10.875    3.4053
   10.890    3.4404
   10.905    3.0718
   10.920    3.9494
   10.935    4.7920
   10.950    5.3537
   10.965    5.3186
   10.980    6.4946
   10.995    7.8287
   11.010    8.0393
   11.025    7.8813
   11.040    6.9335
   11.055    6.3893
   11.070    5.3361
   11.085    4.3883
   11.100    3.4580
   11.115    2.9840
   11.130    2.8963
   11.145    2.4750
   11.160    2.8436
   11.175    2.8963
   11.190    2.6856
   11.205    2.6681
   11.220    2.6856
   11.235    2.8612
   11.250    2.7383
   11.265    2.4048
   11.280    2.3872
   11.295    2.5979
   11.310    2.8963
   11.325    2.5101
   11.340    2.9665
   11.355    2.7207
   11.370    2.5276
   11.385    2.4750
   11.400    2.5276
   11.415    2.7734
   11.430    2.4750
   11.445    2.7207
   11.460    2.7558
   11.475    2.7032
   11.490    3.2824
   11.505    3.0718
   11.520    3.3877
   11.535    3.0191
   11.550    3.1420
   11.565    3.5457
   11.580    3.4931
   11.595    4.1952
   11.610    4.3181
   11.625    4.8973
   11.640    5.1255
   11.655    6.3718
   11.670    7.4601
   11.685    8.1446
   11.700    8.0218
   11.715    7.1441
   11.730    6.4069
   11.745    5.4766
   11.760    4.4585
   11.775    3.3175
   11.790    3.1245
   11.805    2.9489
   11.820    2.8085
   11.835    3.1596
   11.850    2.8260
   11.865    2.9489
   11.880    2.6505
   11.895    2.4574
   11.910    2.6154
   11.925    2.5101
   11.940    2.4574
   11.955    2.7909
   11.970    2.4750
   11.985    2.7207
   12.000    2.9489
   12.015    2.5628
   12.030    2.8085
   12.045    2.7383
   12.060    2.2819
   12.075    2.8260
   12.090    2.9314
   12.105    2.6856
   12.120    2.9489
   12.135    2.8612
   12.150    2.5979
   12.165    2.7207
   12.180    2.8963
   12.195    3.0191
   12.210    2.8787
   12.225    3.0893
   12.240    2.9489
   12.255    2.9665
   12.270    3.0191
   12.285    3.4755
   12.300    3.7739
   12.315    3.5808
   12.330    3.7915
   12.345    3.7213
   12.360    3.7739
   12.375    3.5808
   12.390    3.3702
   12.405    2.9314
   12.420    2.6505
   12.435    2.4574
   12.450    3.0367
   12.465    2.9489
   12.480    2.9314
   12.495    2.7032
   12.510    2.8436
   12.525    2.5452
   12.540    2.7558
   12.555    2.8787
   12.570    2.8436
   12.585    2.6330
   12.600    2.8085
   12.615    2.5628
   12.630    2.6681
   12.645    2.6154
   12.660    2.6505
   12.675    2.8436
   12.690    2.9840
   12.705    2.7032
   12.720    2.6330
   12.735    2.5276
   12.750    2.6681
   12.765    3.1947
   12.780    3.1069
   12.795    3.1771
   12.810    3.1245
   12.825    3.5106
   12.840    3.5633
   12.855    3.7564
   12.870    4.5463
   12.885    4.8447
   12.900    5.7574
   12.915    6.6000
   12.930    6.6000
   12.945    6.6175
   12.960    6.1611
   12.975    5.5994
   12.990    5.0026
   13.005    4.3356
   13.020    3.4053
   13.035    3.0191
   13.050    2.7032
   13.065    2.6505
   13.080    2.7383
   13.095    2.6154
   13.110    2.6681
   13.125    2.4399
   13.140    2.3872
   13.155    2.7032
   13.170    2.6856
   13.185    2.7558
   13.200    2.7734
   13.215    3.0367
   13.230    2.9489
   13.245    2.8436
   13.260    2.7032
   13.275    2.7383
   13.290    2.7734
   13.305    2.6681
   13.320    2.8260
   13.335    2.4750
   13.350    2.4750
   13.365    2.6856
   13.380    2.9314
   13.395    2.5979
   13.410    2.6505
   13.425    3.0893
   13.440    3.6686
   13.455    3.7564
   13.470    3.5808
   13.485    4.3532
   13.500    4.4585
   13.515    4.5111
   13.530    5.1255
   13.545    4.5638
   13.560    4.1425
   13.575    3.7915
   13.590    3.5282
   13.605    2.8260
   13.620    2.8260
   13.635    2.7734
   13.650    2.7207
   13.665    2.8963
   13.680    2.4925
   13.695    2.5276
   13.710    2.5101
   13.725    2.6330
   13.740    2.7383
   13.755    2.5979
   13.770    2.6154
   13.785    2.9489
   13.800    2.8612
   13.815    2.8260
   13.830    2.9840
   13.845    3.0542
   13.860    2.7734
   13.875    2.9840
   13.890    2.6154
   13.905    2.7207
   13.920    2.4399
   13.935    2.6681
   13.950    3.0367
   13.965    2.9489
   13.980    3.0718
   13.995    3.4931
   14.010    3.9319
   14.025    3.8792
   14.040    4.5814
   14.055    5.3361
   14.070    5.6521
   14.085    5.5292
   14.100    5.3888
   14.115    4.8095
   14.130    4.1776
   14.145    3.5633
   14.160    3.2824
   14.175    2.7207
   14.190    2.7734
   14.205    2.6154
   14.220    2.6154
   14.235    2.5803
   14.250    3.2122
   14.265    2.7734
   14.280    2.6330
   14.295    2.3346
   14.310    2.4574
   14.325    2.7909
   14.340    2.6505
   14.355    2.6505
   14.370    2.6154
   14.385    2.5979
   14.400    2.8436
   14.415    2.6154
   14.430    2.2468
   14.445    2.4048
   14.460    2.7734
   14.475    2.8963
   14.490    2.8436
   14.505    2.8612
   14.520    2.7032
   14.535    2.5101
   14.550    2.8085
   14.565    2.7383
   14.580    2.5803
   14.595    2.7032
   14.610    2.7032
   14.625    2.7032
   14.640    2.5452
   14.655    2.4399
   14.670    2.5628
   14.685    2.6154
   14.700    2.5628
   14.715    2.4574
   14.730    2.6856
   14.745    2.5628
   14.760    2.9665
   14.775    2.8436
   14.790    2.4399
   14.805    2.6856
   14.820    2.3346
   14.835    2.6330
   14.850    2.5276
   14.865    2.5276
   14.880    2.4574
   14.895    2.3697
   14.910    2.8963
   14.925    2.8612
   14.940    2.6505
   14.955    2.6681
   14.970    2.7207
   14.985    2.5276
   15.000    2.3170
   15.015    2.5452
   15.030    2.5979
   15.045    2.8787
   15.060    3.0542
   15.075    2.8612
   15.090    2.8787
   15.105    3.1069
   15.120    2.9840
   15.135    2.9665
   15.150    2.8436
   15.165    2.7207
   15.180    2.9840
   15.195    2.6154
   15.210    2.8436
   15.225    2.6681
   15.240    2.7558
   15.255    2.6330
   15.270    2.7734
   15.285    2.4574
   15.300    2.5276
   15.315    2.4223
   15.330    2.6330
   15.345    2.5803
   15.360    2.7558
   15.375    2.8963
   15.390    2.6505
   15.405    2.7558
   15.420    2.5803
   15.435    2.7383
   15.450    3.0367
   15.465    2.6330
   15.480    2.3872
   15.495    2.5452
   15.510    2.2643
   15.525    2.9138
   15.540    2.5628
   15.555    2.5803
   15.570    2.7909
   15.585    2.5101
   15.600    2.5452
   15.615    2.5276
   15.630    2.6505
   15.645    2.4048
   15.660    2.3872
   15.675    2.6154
   15.690    2.6681
   15.705    2.3521
   15.720    2.6681
   15.735    2.9138
   15.750    2.5979
   15.765    2.7383
   15.780    2.5452
   15.795    2.5276
   15.810    2.4750
   15.825    2.7032
   15.840    2.7558
   15.855    2.5452
   15.870    2.4399
   15.885    2.6505
   15.900    2.5803
   15.915    2.4925
   15.930    2.5979
   15.945    2.4750
   15.960    2.7909
   15.975    2.8787
   15.990    2.9314
   16.005    2.7909
   16.020    2.6681
   16.035    3.0191
   16.050    2.8963
   16.065    3.3877
   16.080    3.1947
   16.095    3.6510
   16.110    3.5633
   16.125    3.0718
   16.140    3.4931
   16.155    3.1947
   16.170    3.0016
   16.185    2.9840
   16.200    2.8612
   16.215    2.6681
   16.230    2.8612
   16.245    2.8436
   16.260    2.4574
   16.275    2.3521
   16.290    2.3872
   16.305    2.6856
   16.320    2.7032
   16.335    2.6330
   16.350    2.7734
   16.365    2.2643
   16.380    2.2117
   16.395    2.2468
   16.410    2.6856
   16.425    2.5276
   16.440    2.7909
   16.455    2.7032
   16.470    2.6330
   16.485    3.1771
   16.500    2.9138
   16.515    2.7207
   16.530    2.7207
   16.545    2.8260
   16.560    3.2298
   16.575    3.2298
   16.590    3.5457
   16.605    3.4053
   16.620    3.2649
   16.635    3.3526
   16.650    3.0893
   16.665    2.8085
   16.680    2.6681
   16.695    2.8085
   16.710    2.9665
   16.725    2.8436
   16.740    2.6154
   16.755    2.4750
   16.770    2.5979
   16.785    2.2468
   16.800    2.4750
   16.815    2.6856
   16.830    2.8612
   16.845    2.8963
   16.860    2.5101
   16.875    3.0016
   16.890    2.6154
   16.905    2.8787
   16.920    3.0016
   16.935    2.8963
   16.950    2.7207
   16.965    2.9665
   16.980    3.7564
   16.995    4.2654
   17.010    4.5463
   17.025    4.8622
   17.040    5.4766
   17.055    5.8627
   17.070    5.4239
   17.085    4.7920
   17.100    4.5463
   17.115    4.0723
   17.130    3.8792
   17.145    3.1596
   17.160    3.0191
   17.175    2.7383
   17.190    2.3872
   17.205    2.7032
   17.220    2.7207
   17.235    2.9665
   17.250    2.3346
   17.265    2.8787
   17.280    2.6505
   17.295    2.5276
   17.310    2.4574
   17.325    2.5979
   17.340    2.6681
   17.355    2.5803
   17.370    2.8260
   17.385    2.5628
   17.400    2.9138
   17.415    3.0542
   17.430    3.1420
   17.445    3.0542
   17.460    2.8787
   17.475    3.0542
   17.490    2.8612
   17.505    2.9665
   17.520    2.7558
   17.535    2.9489
   17.550    3.1947
   17.565    2.8436
   17.580    2.7909
   17.595    2.4750
   17.610    2.8085
   17.625    2.6154
   17.640    2.5452
   17.655    2.9314
   17.670    2.8963
   17.685    2.4399
   17.700    2.4750
   17.715    2.7734
   17.730    2.7207
   17.745    2.7558
   17.760    2.3346
   17.775    2.6330
   17.790    2.9840
   17.805    2.6505
   17.820    2.7383
   17.835    2.6154
   17.850    2.8085
   17.865    3.1245
   17.880    3.1596
   17.895    3.0893
   17.910    3.1596
   17.925    3.1947
   17.940    3.3702
   17.955    3.2824
   17.970    3.2298
   17.985    3.0191
   18.000    2.9665
   18.015    2.9138
   18.030    3.0016
   18.045    2.9840
   18.060    2.4574
   18.075    2.6681
   18.090    2.5979
   18.105    2.5276
   18.120    2.5101
   18.135    2.5101
   18.150    2.7207
   18.165    2.5101
   18.180    2.7734
   18.195    2.9665
   18.210    2.8085
   18.225    2.6856
   18.240    2.9314
   18.255    2.6154
   18.270    2.6681
   18.285    2.9489
   18.300    3.2649
   18.315    3.2649
   18.330    3.2473
   18.345    3.4931
   18.360    3.4229
   18.375    3.5457
   18.390    3.1596
   18.405    3.3000
   18.420    3.3175
   18.435    3.3351
   18.450    3.1947
   18.465    2.5276
   18.480    2.4223
   18.495    2.7734
   18.510    2.9314
   18.525    3.0016
   18.540    2.8085
   18.555    2.6154
   18.570    2.8787
   18.585    2.7383
   18.600    2.7383
   18.615    2.8085
   18.630    2.5979
   18.645    2.7032
   18.660    2.5628
   18.675    2.6330
   18.690    2.7207
   18.705    2.5452
   18.720    2.6505
   18.735    2.6154
   18.750    2.6681
   18.765    2.6154
   18.780    3.2824
   18.795    3.0191
   18.810    3.0016
   18.825    3.1771
   18.840    3.1947
   18.855    3.2122
   18.870    2.8436
   18.885    2.8963
   18.900    2.7383
   18.915    2.8085
   18.930    2.7909
   18.945    2.5276
   18.960    2.5803
   18.975    2.6330
   18.990    2.6681
   19.005    2.7734
   19.020    2.8963
   19.035    2.7558
   19.050    2.5452
   19.065    2.6681
   19.080    2.5803
   19.095    2.4574
   19.110    2.7032
   19.125    2.7558
   19.140    2.5803
   19.155    2.5276
   19.170    2.0888
   19.185    2.3521
   19.200    2.5803
   19.215    2.5803
   19.230    2.5276
   19.245    2.7909
   19.260    2.7909
   19.275    2.3872
   19.290    2.7558
   19.305    2.7032
   19.320    2.5803
   19.335    2.5979
   19.350    2.4574
   19.365    2.7909
   19.380    2.6154
   19.395    2.4750
   19.410    2.4925
   19.425    2.7558
   19.440    2.6856
   19.455    2.3346
   19.470    3.0191
   19.485    2.7207
   19.500    2.9489
   19.515    3.2649
   19.530    3.0191
   19.545    3.2649
   19.560    3.5633
   19.575    3.6335
   19.590    3.4755
   19.605    3.7915
   19.620    3.2824
   19.635    3.0893
   19.650    2.9489
   19.665    2.8787
   19.680    2.9314
   19.695    3.1245
   19.710    2.6681
   19.725    2.5803
   19.740    2.3170
   19.755    2.5101
   19.770    2.2819
   19.785    2.6681
   19.800    2.9489
   19.815    2.5276
   19.830    2.6856
   19.845    2.8612
   19.860    2.8085
   19.875    3.1069
   19.890    2.4750
   19.905    2.7032
   19.920    2.5979
   19.935    2.4223
   19.950    2.8436
   19.965    2.8787
   19.980    2.6856
   19.995    2.6505
   20.010    2.8612
   20.025    2.7032
   20.040    2.7207
   20.055    2.7909
   20.070    2.9314
   20.085    2.8612
   20.100    2.7383
   20.115    2.5452
   20.130    2.7909
   20.145    2.5276
   20.160    2.7909
   20.175    3.0016
   20.190    2.8963
   20.205    2.7383
   20.220    2.7032
   20.235    3.1245
   20.250    3.0367
   20.265    2.8612
   20.280    2.9138
   20.295    3.0893
   20.310    3.2473
   20.325    3.6159
   20.340    4.3883
   20.355    4.5638
   20.370    4.6867
   20.385    4.8447
   20.400    4.8271
   20.415    4.6516
   20.430    4.1250
   20.445    3.6159
   20.460    3.3702
   20.475    2.9314
   20.490    2.8963
   20.505    3.0542
   20.520    2.9489
   20.535    2.6681
   20.550    2.8436
   20.565    3.0542
   20.580    2.8085
   20.595    2.6681
   20.610    2.6330
   20.625    2.4925
   20.640    2.5452
   20.655    2.5979
   20.670    2.5276
   20.685    2.5628
   20.700    2.7207
   20.715    2.5628
   20.730    2.6330
   20.745    2.7558
   20.760    2.8436
   20.775    2.7734
   20.790    2.9489
   20.805    3.1420
   20.820    2.5452
   20.835    2.7383
   20.850    2.8612
   20.865    2.6154
   20.880    2.4750
   20.895    2.8612
   20.910    3.0542
   20.925    2.5979
   20.940    2.6505
   20.955    2.6681
   20.970    2.5101
   20.985    2.7207
   21.000    2.4223
   21.015    2.6154
   21.030    2.6681
   21.045    2.7383
   21.060    2.5452
   21.075    2.7207
   21.090    2.3170
   21.105    2.6154
   21.120    2.6154
   21.135    2.6505
   21.150    2.6154
   21.165    2.6154
   21.180    2.8787
   21.195    2.4399
   21.210    2.4048
   21.225    2.5276
   21.240    2.5276
   21.255    2.9138
   21.270    2.4048
   21.285    2.6856
   21.300    2.4574
   21.315    2.6856
   21.330    2.5803
   21.345    2.5276
   21.360    2.7734
   21.375    2.2995
   21.390    2.4223
   21.405    2.5452
   21.420    2.8787
   21.435    2.7383
   21.450    2.9665
   21.465    2.7734
   21.480    2.6330
   21.495    2.8085
   21.510    2.5628
   21.525    2.8612
   21.540    2.8436
   21.555    2.6154
   21.570    2.6330
   21.585    2.5803
   21.600    2.6330
   21.615    2.8260
   21.630    3.0367
   21.645    2.7909
   21.660    2.9489
   21.675    2.6154
   21.690    2.6154
   21.705    2.8612
   21.720    2.7909
   21.735    3.0367
   21.750    2.4750
   21.765    2.7734
   21.780    3.3175
   21.795    3.4404
   21.810    3.3175
   21.825    3.4580
   21.840    3.4580
   21.855    3.3351
   21.870    3.6862
   21.885    3.5633
   21.900    3.3351
   21.915    3.4229
   21.930    3.1771
   21.945    3.1245
   21.960    3.0893
   21.975    2.5452
   21.990    3.0718
   22.005    2.7909
   22.020    2.8963
   22.035    2.4750
   22.050    2.5628
   22.065    2.5628
   22.080    2.7734
   22.095    2.3521
   22.110    2.5276
   22.125    2.6330
   22.140    2.8612
   22.155    2.8787
   22.170    2.9314
   22.185    3.0542
   22.200    3.3702
   22.215    3.3702
   22.230    3.4404
   22.245    3.1596
   22.260    2.8260
   22.275    2.8612
   22.290    2.9489
   22.305    2.7383
   22.320    2.6681
   22.335    2.7558
   22.350    2.6505
   22.365    2.5979
   22.380    3.0718
   22.395    2.8963
   22.410    2.6505
   22.425    2.6856
   22.440    2.6856
   22.455    2.7032
   22.470    2.8787
   22.485    3.3175
   22.500    3.7739
   22.515    4.4234
   22.530    4.4234
   22.545    4.4936
   22.560    4.9675
   22.575    4.5111
   22.590    4.4234
   22.605    4.5287
   22.620    4.0197
   22.635    3.6510
   22.650    3.2824
   22.665    3.0718
   22.680    2.9138
   22.695    2.9314
   22.710    2.9840
   22.725    2.7734
   22.740    2.6505
   22.755    2.7032
   22.770    2.7734
   22.785    2.9840
   22.800    3.3175
   22.815    3.1069
   22.830    3.2298
   22.845    3.6159
   22.860    4.1601
   22.875    4.6516
   22.890    4.8798
   22.905    5.2835
   22.920    5.3010
   22.935    4.9675
   22.950    4.5989
   22.965    4.4409
   22.980    4.2654
   22.995    3.7388
   23.010    3.2298
   23.025    2.8612
   23.040    3.0893
   23.055    3.0542
   23.070    2.9314
   23.085    2.7909
   23.100    2.5452
   23.115    2.6505
   23.130    2.8260
   23.145    2.8787
   23.160    2.7383
   23.175    2.9138
   23.190    2.8612
   23.205    3.2824
   23.220    3.7037
   23.235    3.4755
   23.250    3.5282
   23.265    3.4053
   23.280    3.0893
   23.295    3.0016
   23.310    2.9489
   23.325    2.9665
   23.340    3.0367
   23.355    3.0191
   23.370    2.5628
   23.385    2.9665
   23.400    2.8612
   23.415    2.8436
   23.430    2.7207
   23.445    2.3346
   23.460    2.6856
   23.475    2.5803
   23.490    2.4223
   23.505    2.9489
   23.520    2.5276
   23.535    2.5628
   23.550    2.6154
   23.565    2.7383
   23.580    3.0016
   23.595    2.6505
   23.610    2.6856
   23.625    2.7207
   23.640    3.0893
   23.655    2.6856
   23.670    2.4399
   23.685    2.6154
   23.700    2.4750
   23.715    2.5979
   23.730    2.5276
   23.745    2.8436
   23.760    2.4925
   23.775    2.4399
   23.790    2.4574
   23.805    2.8085
   23.820    2.8436
   23.835    2.9314
   23.850    2.9314
   23.865    3.2298
   23.880    3.4580
   23.895    3.4580
   23.910    3.2824
   23.925    3.5106
   23.940    3.7388
   23.955    3.4580
   23.970    3.2473
   23.985    3.1069
   24.000    2.8787
   24.015    2.8963
   24.030    2.7734
   24.045    2.4925
   24.060    2.8260
   24.075    2.5452
   24.090    2.5628
   24.105    2.5452
   24.120    2.5803
   24.135    2.6856
   24.150    2.4574
   24.165    2.2468
   24.180    2.8963
   24.195    2.5979
   24.210    2.6681
   24.225    2.6330
   24.240    2.5979
   24.255    2.6505
   24.270    2.5628
   24.285    2.5452
   24.300    2.5101
   24.315    2.8085
   24.330    2.6681
   24.345    2.5452
   24.360    2.7207
   24.375    2.6505
   24.390    2.4223
   24.405    2.5101
   24.420    2.6505
   24.435    2.4048
   24.450    2.5276
   24.465    2.6681
   24.480    2.4750
   24.495    2.6505
   24.510    2.7734
   24.525    2.8085
   24.540    2.7383
   24.555    3.0191
   24.570    3.1245
   24.585    2.8085
   24.600    2.7032
   24.615    2.5276
   24.630    2.8963
   24.645    2.8963
   24.660    2.7558
   24.675    2.5803
   24.690    2.5628
   24.705    2.6154
   24.720    2.6154
   24.735    2.4399
   24.750    2.7734
   24.765    2.8436
   24.780    2.5452
   24.795    2.5803
   24.810    2.4399
   24.825    2.6505
   24.840    2.7734
   24.855    2.7383
   24.870    3.0016
   24.885    2.8436
   24.900    2.6154
   24.915    2.7207
   24.930    2.7558
   24.945    2.7207
   24.960    2.8612
   24.975    2.5452
   24.990    2.5452
   25.005    2.9665
   25.020    2.6681
   25.035    2.7734
   25.050    2.6154
   25.065    2.4048
   25.080    2.5452
   25.095    2.5452
   25.110    2.7383
   25.125    3.0191
   25.140    2.8260
   25.155    2.9314
   25.170    2.7207
   25.185    2.6154
   25.200    2.8436
   25.215    2.7383
   25.230    3.0016
   25.245    2.8963
   25.260    2.8787
   25.275    2.5276
   25.290    2.5276
   25.305    2.8436
   25.320    2.7734
   25.335    2.2117
   25.350    2.5979
   25.365    2.3521
   25.380    2.8612
   25.395    2.4925
   25.410    3.0191
   25.425    2.8436
   25.440    2.6681
   25.455    2.6681
   25.470    2.9138
   25.485    2.7558
   25.500    2.8612
   25.515    2.7383
   25.530    2.7207
   25.545    3.0542
   25.560    2.7734
   25.575    2.7383
   25.590    2.8436
   25.605    2.9840
   25.620    2.7383
   25.635    2.1766
   25.650    2.6154
   25.665    2.9138
   25.680    2.6330
   25.695    2.6681
   25.710    2.5979
   25.725    2.7558
   25.740    2.9489
   25.755    3.0718
   25.770    3.4931
   25.785    3.7915
   25.800    4.3883
   25.815    4.4760
   25.830    4.3532
   25.845    4.1776
   25.860    3.9319
   25.875    3.8090
   25.890    3.0893
   25.905    3.3000
   25.920    2.8963
   25.935    2.7207
   25.950    2.5101
   25.965    2.4048
   25.980    2.7383
   25.995    2.8260
   26.010    2.7734
   26.025    2.5803
   26.040    2.4048
   26.055    2.4750
   26.070    2.7032
   26.085    2.8260
   26.100    2.7383
   26.115    3.0893
   26.130    2.9665
   26.145    2.6856
   26.160    2.8963
   26.175    2.4223
   26.190    2.5803
   26.205    2.6681
   26.220    2.7207
   26.235    2.2292
   26.250    2.6154
   26.265    2.3346
   26.280    2.5452
   26.295    2.8260
   26.310    2.6681
   26.325    2.7909
   26.340    2.5803
   26.355    2.8260
   26.370    3.2298
   26.385    2.9840
   26.400    2.8612
   26.415    2.8963
   26.430    2.6856
   26.445    3.3702
   26.460    2.9840
   26.475    2.8787
   26.490    3.0542
   26.505    2.9489
   26.520    2.7383
   26.535    2.7383
   26.550    2.5628
   26.565    2.8787
   26.580    2.6505
   26.595    2.3697
   26.610    2.7558
   26.625    2.6681
   26.640    2.6681
   26.655    2.3872
   26.670    2.3346
   26.685    2.7032
   26.700    2.7909
   26.715    2.4574
   26.730    2.4925
   26.745    2.5628
   26.760    2.7207
   26.775    2.5803
   26.790    2.3170
   26.805    2.3346
   26.820    2.5628
   26.835    2.3346
   26.850    2.4048
   26.865    2.2643
   26.880    2.1941
   26.895    2.7032
   26.910    2.2819
   26.925    2.6330
   26.940    2.9138
   26.955    2.7734
   26.970    2.7909
   26.985    2.9489
   27.000    3.2473
   27.015    3.2122
   27.030    3.1771
   27.045    3.3000
   27.060    3.5457
   27.075    3.0016
   27.090    2.7383
   27.105    2.7909
   27.120    2.8085
   27.135    2.5452
   27.150    2.9840
   27.165    2.6505
   27.180    2.5803
   27.195    2.3521
   27.210    2.4223
   27.225    2.6154
   27.240    2.8787
   27.255    2.3170
   27.270    2.7032
   27.285    2.4750
   27.300    2.4750
   27.315    2.5803
   27.330    2.4399
   27.345    2.0186
   27.360    2.2819
   27.375    2.2995
   27.390    2.6330
   27.405    2.6505
   27.420    2.4750
   27.435    2.2819
   27.450    2.5276
   27.465    2.7383
   27.480    2.3697
   27.495    2.8260
   27.510    2.5628
   27.525    2.3170
   27.540    2.6505
   27.555    2.6154
   27.570    2.5803
   27.585    3.0191
   27.600    2.8085
   27.615    2.8436
   27.630    2.8612
   27.645    2.9489
   27.660    2.7909
   27.675    2.7558
   27.690    2.6681
   27.705    2.2995
   27.720    2.6330
   27.735    2.7558
   27.750    2.3697
   27.765    2.3697
   27.780    2.3346
   27.795    2.4048
   27.810    2.7207
   27.825    2.6856
   27.840    2.6856
   27.855    2.5452
   27.870    2.8963
   27.885    2.9314
   27.900    2.2995
   27.915    2.2643
   27.930    2.4750
   27.945    2.8436
   27.960    2.5979
   27.975    2.4048
   27.990    2.5979
   28.005    2.4399
   28.020    2.6505
   28.035    2.4223
   28.050    2.5276
   28.065    2.3170
   28.080    2.5628
   28.095    2.7909
   28.110    2.9489
   28.125    3.0367
   28.140    2.9665
   28.155    3.2298
   28.170    3.4755
   28.185    3.0367
   28.200    3.2649
   28.215    3.0542
   28.230    2.8963
   28.245    2.6154
   28.260    2.8963
   28.275    2.5452
   28.290    2.5452
   28.305    2.2292
   28.320    2.4925
   28.335    2.1590
   28.350    2.1941
   28.365    2.5803
   28.380    2.7909
   28.395    2.8436
   28.410    3.2824
   28.425    3.1947
   28.440    2.8612
   28.455    3.0016
   28.470    2.8436
   28.485    3.2473
   28.500    3.5106
   28.515    2.9138
   28.530    2.2995
   28.545    2.5979
   28.560    2.4750
   28.575    2.5803
   28.590    2.6330
   28.605    2.4574
   28.620    2.4925
   28.635    2.1766
   28.650    2.4048
   28.665    2.6154
   28.680    2.6505
   28.695    2.5101
   28.710    2.4399
   28.725    2.8260
   28.740    2.4574
   28.755    2.3697
   28.770    2.4048
   28.785    2.4048
   28.800    2.4925
   28.815    2.6154
   28.830    2.4048
   28.845    2.3346
   28.860    2.5803
   28.875    2.4223
   28.890    2.6505
   28.905    2.4925
   28.920    2.3872
   28.935    2.3346
   28.950    2.4048
   28.965    2.7734
   28.980    2.7207
   28.995    2.4750
   29.010    2.4750
   29.025    2.7383
   29.040    2.6505
   29.055    2.2643
   29.070    2.2995
   29.085    2.4925
   29.100    2.5101
   29.115    2.5101
   29.130    2.4925
   29.145    2.4574
   29.160    2.3170
   29.175    2.2643
   29.190    2.4925
   29.205    2.5803
   29.220    2.4223
   29.235    2.7383
   29.250    2.8436
   29.265    2.7207
   29.280    3.0893
   29.295    2.8963
   29.310    3.0893
   29.325    3.0016
   29.340    2.8612
   29.355    2.5803
   29.370    2.3521
   29.385    2.2643
   29.400    2.4925
   29.415    2.2468
   29.430    2.1766
   29.445    2.6154
   29.460    2.0537
   29.475    2.1766
   29.490    2.2643
   29.505    2.2468
   29.520    2.6505
   29.535    2.3521
   29.550    2.2117
   29.565    2.5979
   29.580    2.4925
   29.595    2.4399
   29.610    2.0888
   29.625    2.2819
   29.640    2.7207
   29.655    2.4048
   29.670    2.2468
   29.685    2.3521
   29.700    2.2819
   29.715    2.4750
   29.730    2.2643
   29.745    2.4574
   29.760    2.3697
   29.775    2.4750
   29.790    2.4925
   29.805    2.1064
   29.820    2.6505
   29.835    2.6154
   29.850    2.6681
   29.865    2.5979
   29.880    2.4574
   29.895    2.5101
   29.910    2.2292
   29.925    2.1590
   29.940    2.1064
   29.955    2.1590
   29.970    2.5803
   29.985    2.0713
   30.000    2.6330
   30.015    2.7558
   30.030    2.4925
   30.045    2.5452
   30.060    2.6330
   30.075    2.2819
   30.090    2.4048
   30.105    2.7032
   30.120    2.5803
   30.135    2.4223
   30.150    2.3170
   30.165    2.7032
   30.180    2.6505
   30.195    2.2995
   30.210    2.7909
   30.225    2.8963
   30.240    2.6856
   30.255    2.7383
   30.270    2.5101
   30.285    2.3170
   30.300    2.3872
   30.315    2.3872
   30.330    2.3872
   30.345    2.3697
   30.360    2.3521
   30.375    2.2819
   30.390    2.2643
   30.405    2.6856
   30.420    2.4925
   30.435    2.4048
   30.450    2.4223
   30.465    2.3170
   30.480    2.3872
   30.495    2.1941
   30.510    2.0888
   30.525    2.3346
   30.540    2.7383
   30.555    2.6681
   30.570    2.7032
   30.585    2.6505
   30.600    2.3170
   30.615    2.6681
   30.630    2.5979
   30.645    2.7207
   30.660    2.4223
   30.675    2.3346
   30.690    2.2117
   30.705    1.9659
   30.720    2.4048
   30.735    2.2468
   30.750    2.4399
   30.765    2.0537
   30.780    2.3697
   30.795    2.5979
   30.810    2.3521
   30.825    2.4223
   30.840    2.5452
   30.855    2.6154
   30.870    2.5101
   30.885    2.3521
   30.900    2.2995
   30.915    2.0537
   30.930    2.1239
   30.945    2.4750
   30.960    2.5979
   30.975    2.1064
   30.990    1.9659
   31.005    2.1941
   31.020    2.5276
   31.035    2.4574
   31.050    2.0537
   31.065    2.2819
   31.080    2.4750
   31.095    2.2643
   31.110    2.2468
   31.125    2.4574
   31.140    2.2468
   31.155    2.1766
   31.170    2.0888
   31.185    2.1590
   31.200    2.0186
   31.215    2.1590
   31.230    2.0888
   31.245    2.0186
   31.260    2.3170
   31.275    2.3170
   31.290    2.2995
   31.305    2.5276
   31.320    2.3521
   31.335    2.4399
   31.350    2.5101
   31.365    2.3872
   31.380    2.4750
   31.395    2.4399
   31.410    2.2643
   31.425    2.4223
   31.440    2.5628
   31.455    2.4925
   31.470    2.4048
   31.485    2.4048
   31.500    2.2468
   31.515    2.1590
   31.530    2.4223
   31.545    2.2995
   31.560    2.2643
   31.575    2.3346
   31.590    2.2117
   31.605    2.4750
   31.620    2.1941
   31.635    2.3346
   31.650    2.3872
   31.665    2.5979
   31.680    2.5979
   31.695    2.2117
   31.710    2.3872
   31.725    2.4925
   31.740    2.3346
   31.755    1.8606
   31.770    2.1415
   31.785    2.4223
   31.800    1.9484
   31.815    2.4399
   31.830    2.6330
   31.845    2.4750
   31.860    2.6154
   31.875    2.0186
   31.890    2.4750
   31.905    2.2995
   31.920    2.5276
   31.935    2.5101
   31.950    2.2995
   31.965    2.2117
   31.980    1.9835
   31.995    2.0362
   32.010    2.1064
   32.025    2.2643
   32.040    2.3170
   32.055    2.2819
   32.070    2.4223
   32.085    2.2995
   32.100    2.0186
   32.115    2.1766
   32.130    2.1239
   32.145    2.2117
   32.160    2.2995
   32.175    2.5979
   32.190    2.4399
   32.205    2.4399
   32.220    2.4399
   32.235    2.1415
   32.250    2.0713
   32.265    1.9659
   32.280    2.2117
   32.295    2.1239
   32.310    2.3872
   32.325    2.2292
   32.340    2.2117
   32.355    2.3346
   32.370    2.2117
   32.385    2.0362
   32.400    2.2292
   32.415    2.1064
   32.430    2.2292
   32.445    2.1239
   32.460    1.9835
   32.475    2.0537
   32.490    2.1941
   32.505    2.1064
   32.520    2.3697
   32.535    2.3346
   32.550    2.4750
   32.565    2.3170
   32.580    2.1064
   32.595    2.2643
   32.610    2.3521
   32.625    2.2292
   32.640    2.0713
   32.655    2.1766
   32.670    2.2995
   32.685    2.0011
   32.700    2.1239
   32.715    2.0713
   32.730    2.1941
   32.745    2.1766
   32.760    2.3697
   32.775    2.4223
   32.790    2.4574
   32.805    2.4925
   32.820    2.4048
   32.835    2.2117
   32.850    2.1239
   32.865    2.3697
   32.880    2.3697
   32.895    2.2117
   32.910    2.4925
   32.925    2.5276
   32.940    2.4574
   32.955    2.5276
   32.970    2.4750
   32.985    2.4048
   33.000    2.2468
   33.015    2.2995
   33.030    2.2643
   33.045    2.0713
   33.060    2.0888
   33.075    2.0888
   33.090    2.3170
   33.105    2.5276
   33.120    2.2117
   33.135    2.2819
   33.150    2.2292
   33.165    2.0011
   33.180    2.1590
   33.195    2.2468
   33.210    2.0186
   33.225    2.1064
   33.240    2.4048
   33.255    1.9133
   33.270    1.9484
   33.285    2.0713
   33.300    2.0537
   33.315    2.2468
   33.330    1.9659
   33.345    1.8782
   33.360    2.0888
   33.375    2.4223
   33.390    2.2117
   33.405    1.9133
   33.420    2.0537
   33.435    2.1590
   33.450    2.1941
   33.465    2.3697
   33.480    2.0713
   33.495    2.3170
   33.510    2.3170
   33.525    2.2117
   33.540    2.3170
   33.555    2.1415
   33.570    1.9659
   33.585    1.8606
   33.600    2.2117
   33.615    2.1415
   33.630    2.0713
   33.645    2.0362
   33.660    2.3170
   33.675    2.1941
   33.690    2.3697
   33.705    2.2643
   33.720    2.0713
   33.735    1.9835
   33.750    2.0186
   33.765    2.4048
   33.780    2.2292
   33.795    2.2995
   33.810    2.2819
   33.825    2.3521
   33.840    2.1590
   33.855    2.3346
   33.870    2.4750
   33.885    2.4223
   33.900    2.5979
   33.915    2.6856
   33.930    2.3170
   33.945    2.3872
   33.960    2.2468
   33.975    2.1941
   33.990    2.1941
   34.005    1.9308
   34.020    2.1590
   34.035    2.0186
   34.050    1.9835
   34.065    2.2643
   34.080    2.1415
   34.095    1.9659
   34.110    1.9308
   34.125    2.0537
   34.140    2.0186
   34.155    2.2995
   34.170    2.3346
   34.185    2.0537
   34.200    2.0537
   34.215    2.0537
   34.230    2.2468
   34.245    2.3697
   34.260    1.8957
   34.275    1.9835
   34.290    1.9659
   34.305    2.2819
   34.320    2.2468
   34.335    2.2995
   34.350    2.2643
   34.365    2.0011
   34.380    2.1064
   34.395    2.0713
   34.410    2.0537
   34.425    2.0362
   34.440    2.1590
   34.455    1.9659
   34.470    2.0537
   34.485    1.9835
   34.500    1.7378
   34.515    1.8606
   34.530    2.1766
   34.545    1.7904
   34.560    2.1064
   34.575    2.1064
   34.590    1.7729
   34.605    2.1064
   34.620    1.9835
   34.635    2.2468
   34.650    2.3697
   34.665    2.1941
   34.680    2.0888
   34.695    1.9835
   34.710    2.1239
   34.725    1.9659
   34.740    1.8782
   34.755    1.6149
   34.770    1.9484
   34.785    2.1590
   34.800    2.4223
   34.815    2.1064
   34.830    2.2117
   34.845    2.1239
   34.860    2.1590
   34.875    2.3521
   34.890    2.2117
   34.905    2.0362
   34.920    2.0888
   34.935    2.0537
   34.950    2.1941
   34.965    1.7904
   34.980    1.6675
   34.995    1.7553
   35.010    1.7904
   35.025    1.9835
   35.040    2.2117
   35.055    2.0713
   35.070    2.0362
   35.085    1.9484
   35.100    2.0362
   35.115    2.0186
   35.130    2.0713
   35.145    1.9659
   35.160    1.9133
   35.175    1.9484
   35.190    2.0713
   35.205    2.0713
   35.220    2.2468
   35.235    2.2117
   35.250    1.9308
   35.265    1.8957
   35.280    1.9659
   35.295    2.2643
   35.310    2.1590
   35.325    2.0537
   35.340    1.9835
   35.355    1.9308
   35.370    1.9659
   35.385    1.8431
   35.400    1.8782
   35.415    1.7904
   35.430    1.8255
   35.445    1.7904
   35.460    1.7904
   35.475    2.0362
   35.490    1.8606
   35.505    1.9133
   35.520    1.9133
   35.535    2.2995
   35.550    2.3346
   35.565    2.2117
   35.580    2.1766
   35.595    1.9308
   35.610    2.0362
   35.625    2.1239
   35.640    1.9484
   35.655    2.0888
   35.670    2.1415
   35.685    1.9835
   35.700    1.8957
   35.715    1.8957
   35.730    2.1590
   35.745    2.1239
   35.760    1.8431
   35.775    2.0011
   35.790    2.3346
   35.805    2.1064
   35.820    1.8782
   35.835    1.9308
   35.850    1.8080
   35.865    1.9835
   35.880    2.2643
   35.895    2.1766
   35.910    2.0713
   35.925    2.0011
   35.940    2.3872
   35.955    2.0186
   35.970    2.3697
   35.985    2.1766
   36.000    2.0713
   36.015    2.2643
   36.030    2.2292
   36.045    1.9308
   36.060    1.9659
   36.075    1.8606
   36.090    1.9659
   36.105    2.0713
   36.120    1.9308
   36.135    2.4223
   36.150    2.3521
   36.165    1.9659
   36.180    1.7027
   36.195    1.9133
   36.210    1.8255
   36.225    1.8957
   36.240    2.1941
   36.255    2.0011
   36.270    1.6324
   36.285    1.8080
   36.300    1.8606
   36.315    2.1590
   36.330    1.7729
   36.345    2.0713
   36.360    2.3697
   36.375    2.2995
   36.390    2.1239
   36.405    1.9133
   36.420    1.7202
   36.435    2.1415
   36.450    1.9484
   36.465    2.1064
   36.480    1.7729
   36.495    2.1064
   36.510    1.7729
   36.525    1.8957
   36.540    2.0537
   36.555    1.8957
   36.570    1.7904
   36.585    2.2643
   36.600    1.9133
   36.615    1.9659
   36.630    1.9308
   36.645    2.1766
   36.660    2.1064
   36.675    2.1239
   36.690    2.0888
   36.705    2.2117
   36.720    2.1941
   36.735    2.2292
   36.750    2.1064
   36.765    1.9835
   36.780    2.0888
   36.795    1.6324
   36.810    1.8782
   36.825    1.9484
   36.840    1.8957
   36.855    1.8255
   36.870    2.0186
   36.885    1.6324
   36.900    1.8957
   36.915    2.1766
   36.930    1.6851
   36.945    1.8957
   36.960    1.9484
   36.975    1.5973
   36.990    1.9659
   37.005    1.7378
   37.020    2.0186
   37.035    1.9133
   37.050    2.0186
   37.065    2.4574
   37.080    2.2819
   37.095    2.1766
   37.110    2.2117
   37.125    2.2292
   37.140    2.1766
   37.155    2.0888
   37.170    2.1239
   37.185    2.4574
   37.200    2.0888
   37.215    1.8782
   37.230    1.7904
   37.245    1.7553
   37.260    2.1064
   37.275    2.0713
   37.290    1.7904
   37.305    1.5973
   37.320    1.9308
   37.335    1.8782
   37.350    1.7202
   37.365    1.8255
   37.380    1.9133
   37.395    1.9484
   37.410    1.7202
   37.425    1.7553
   37.440    1.8606
   37.455    2.0713
   37.470    1.9835
   37.485    1.8255
   37.500    1.8957
   37.515    1.9308
   37.530    2.1590
   37.545    1.9133
   37.560    1.9308
   37.575    2.0362
   37.590    1.7904
   37.605    2.0362
   37.620    1.9835
   37.635    1.9133
   37.650    1.9659
   37.665    1.8080
   37.680    1.8255
   37.695    2.0011
   37.710    1.9659
   37.725    1.8080
   37.740    1.8606
   37.755    1.9308
   37.770    1.8957
   37.785    1.8957
   37.800    2.0713
   37.815    2.0186
   37.830    1.7378
   37.845    1.9308
   37.860    1.9484
   37.875    2.0011
   37.890    2.0537
   37.905    2.1415
   37.920    2.1766
   37.935    2.0011
   37.950    2.0362
   37.965    1.8782
   37.980    1.9484
   37.995    2.0362
   38.010    2.1064
   38.025    1.9133
   38.040    2.1239
   38.055    2.1064
   38.070    1.8606
   38.085    1.8431
   38.100    1.9308
   38.115    1.8782
   38.130    1.7904
   38.145    2.0186
   38.160    2.0011
   38.175    2.0186
   38.190    2.0186
   38.205    1.7202
   38.220    2.0011
   38.235    2.1415
   38.250    2.0011
   38.265    1.9133
   38.280    1.7202
   38.295    1.8080
   38.310    2.0713
   38.325    1.9484
   38.340    2.0011
   38.355    2.2292
   38.370    2.1064
   38.385    2.2292
   38.400    1.9308
   38.415    1.9484
   38.430    2.0362
   38.445    2.1064
   38.460    2.0537
   38.475    1.8957
   38.490    1.7904
   38.505    2.0537
   38.520    2.1590
   38.535    2.0713
   38.550    1.8080
   38.565    1.9484
   38.580    1.6851
   38.595    1.6675
   38.610    2.0186
   38.625    2.0362
   38.640    2.0011
   38.655    1.9835
   38.670    2.0713
   38.685    1.7904
   38.700    1.8431
   38.715    1.9484
   38.730    1.7553
   38.745    1.9484
   38.760    1.8957
   38.775    1.6851
   38.790    1.7378
   38.805    2.0362
   38.820    1.9308
   38.835    1.9133
   38.850    2.0362
   38.865    1.8957
   38.880    1.8957
   38.895    1.8080
   38.910    1.8255
   38.925    1.7729
   38.940    1.7202
   38.955    1.8255
   38.970    1.8782
   38.985    1.6500
   39.000    1.7202
   39.015    2.0362
   39.030    1.7729
   39.045    1.5447
   39.060    1.8782
   39.075    1.7904
   39.090    1.8080
   39.105    1.7729
   39.120    2.1239
   39.135    1.7729
   39.150    1.7553
   39.165    1.7904
   39.180    2.0713
   39.195    2.1239
   39.210    1.7553
   39.225    2.0713
   39.240    1.8606
   39.255    1.7904
   39.270    1.9133
   39.285    1.9484
   39.300    1.7729
   39.315    1.8080
   39.330    2.0537
   39.345    1.8080
   39.360    1.6500
   39.375    2.0713
   39.390    2.1064
   39.405    1.9835
   39.420    1.8782
   39.435    1.9308
   39.450    1.8606
   39.465    1.8431
   39.480    1.9835
   39.495    1.9659
   39.510    1.9835
   39.525    1.4745
   39.540    1.6851
   39.555    1.8080
   39.570    1.9308
   39.585    1.7378
   39.600    1.7904
   39.615    1.9484
   39.630    2.0713
   39.645    1.9659
   39.660    1.7202
   39.675    2.0362
   39.690    1.8606
   39.705    1.8080
   39.720    1.8606
   39.735    1.9659
   39.750    2.0537
   39.765    2.0713
   39.780    1.7027
   39.795    1.7378
   39.810    1.9308
   39.825    1.7202
   39.840    1.9133
   39.855    1.8957
   39.870    1.7729
   39.885    1.9484
   39.900    1.9308
   39.915    1.9133
   39.930    2.0362
   39.945    1.8957
   39.960    1.8782
   39.975    2.0186
   39.990    2.0362
