    1.500    2.6540
    1.515    2.7172
    1.530    2.6014
    1.545    2.6435
    1.560    2.4013
    1.575    2.7383
    1.590    2.7804
    1.605    2.8541
    1.620    2.6330
    1.635    2.7804
    1.650    2.7067
    1.665    2.5487
    1.680    2.8015
    1.695    2.8647
    1.710    2.7593
    1.725    2.7383
    1.740    2.7383
    1.755    2.5066
    1.770    2.5803
    1.785    2.9068
    1.800    3.0964
    1.815    3.1280
    1.830    3.1280
    1.845    3.2017
    1.860    3.0964
    1.875    3.0332
    1.890    3.1174
    1.905    3.0648
    1.920    2.9595
    1.935    3.0332
    1.950    3.2438
    1.965    3.2965
    1.980    3.1174
    1.995    3.3702
    2.010    3.3491
    2.025    3.3386
    2.040    3.4334
    2.055    3.2017
    2.070    3.1174
    2.085    3.2859
    2.100    3.2754
    2.115    2.9910
    2.130    2.9700
    2.145    3.1596
    2.160    3.2543
    2.175    3.0648
    2.190    2.9489
    2.205    3.0226
    2.220    3.4860
    2.235    3.3070
    2.250    3.0648
    2.265    3.2017
    2.280    3.0858
    2.295    3.0648
    2.310    3.2227
    2.325    3.2754
    2.340    3.5176
    2.355    3.4755
    2.370    3.6546
    2.385    3.5914
    2.400    3.2543
    2.415    3.4334
    2.430    3.4860
    2.445    3.6546
    2.460    3.7809
    2.475    3.7283
    2.490    3.3070
    2.505    3.7283
    2.520    3.7915
    2.535    3.5914
    2.550    3.6756
    2.565    3.3913
    2.580    3.4860
    2.595    3.7177
    2.610    3.7599
    2.625    3.8547
    2.640    3.5282
    2.655    3.5703
    2.670    3.7177
    2.685    3.7072
    2.700    3.6756
    2.715    3.8336
    2.730    4.1074
    2.745    3.7177
    2.760    3.9179
    2.775    4.1074
    2.790    3.8652
    2.805    4.1074
    2.820    4.0126
    2.835    4.0126
    2.850    4.3813
    2.865    4.3075
    2.880    4.4023
    2.895    4.1390
    2.910    4.0021
    2.925    4.4234
    2.940    3.9284
    2.955    3.9600
    2.970    4.3602
    2.985    4.3497
    3.000    4.3181
    3.015    4.4023
    3.030    4.1601
    3.045    4.2022
    3.060    4.4971
    3.075    4.6867
    3.090    4.5814
    3.105    4.1390
    3.120    4.6761
    3.135    4.5182
    3.150    4.3497
    3.165    4.7604
    3.180    4.6972
    3.195    4.6445
    3.210    4.6867
    3.225    4.9078
    3.240    4.7393
    3.255    4.8763
    3.270    5.1185
    3.285    5.2027
    3.300    5.4239
    3.315    5.4134
    3.330    5.6345
    3.345    5.5187
    3.360    5.3923
    3.375    5.6556
    3.390    6.0453
    3.405    5.8031
    3.420    5.5819
    3.435    5.5082
    3.450    5.7715
    3.465    5.7293
    3.480    5.6661
    3.495    5.9189
    3.510    6.0032
    3.525    6.0664
    3.540    5.9084
    3.555    5.6977
    3.570    5.4344
    3.585    5.4028
    3.600    5.5608
    3.615    5.2238
    3.630    5.0448
    3.645    5.1922
    3.660    5.4134
    3.675    5.1711
    3.690    4.7815
    3.705    4.7499
    3.720    5.0132
    3.735    5.2659
    3.750    4.8657
    3.765    4.8025
    3.780    4.8868
    3.795    4.7183
    3.810    4.8131
    3.825    4.9710
    3.840    4.5814
    3.855    4.4971
    3.870    4.7288
    3.885    4.5603
    3.900    4.7920
    3.915    5.0026
    3.930    4.4550
    3.945    4.3813
    3.960    4.5392
    3.975    4.0969
    3.990    4.2022
    4.005    4.3075
    4.020    3.9494
    4.035    4.2022
    4.050    4.0548
    4.065    4.0021
    4.080    4.0969
    4.095    3.8020
    4.110    3.8125
    4.125    3.6335
    4.140    3.7283
    4.155    3.8968
    4.170    3.7493
    4.185    3.9073
    4.200    3.5492
    4.215    3.6546
    4.230    3.5914
    4.245    3.7072
    4.260    3.6546
    4.275    3.6124
    4.290    3.2754
    4.305    3.2017
    4.320    3.2649
    4.335    3.3175
    4.350    3.3175
    4.365    3.4439
    4.380    3.5598
    4.395    3.3070
    4.410    3.4966
    4.425    3.2965
    4.440    3.5071
    4.455    3.2649
    4.470    2.9595
    4.485    3.0542
    4.500    3.3070
    4.515    3.1912
    4.530    3.3281
    4.545    3.4650
    4.560    3.3807
    4.575    3.4229
    4.590    3.4966
    4.605    3.2859
    4.620    3.2017
    4.635    3.2649
    4.650    3.1069
    4.665    3.0858
    4.680    3.0753
    4.695    3.5598
    4.710    3.6651
    4.725    3.3070
    4.740    3.5598
    4.755    3.6124
    4.770    3.2965
    4.785    3.4860
    4.800    3.3807
    4.815    3.4650
    4.830    3.2965
    4.845    3.2649
    4.860    3.5282
    4.875    3.5598
    4.890    3.2122
    4.905    3.1701
    4.920    3.2754
    4.935    3.2017
    4.950    3.4650
    4.965    3.4123
    4.980    3.2438
    4.995    3.2859
    5.010    3.4018
    5.025    3.3281
    5.040    3.1385
    5.055    3.4860
    5.070    3.3491
    5.085    3.2543
    5.100    3.2438
    5.115    2.9805
    5.130    3.0542
    5.145    3.1280
    5.160    3.2965
    5.175    2.9700
    5.190    3.0226
    5.205    3.4650
    5.220    3.0858
    5.235    2.9700
    5.250    3.3491
    5.265    3.5387
    5.280    3.4334
    5.295    3.3070
    5.310    3.2333
    5.325    3.4544
    5.340    3.1912
    5.355    3.1490
    5.370    3.2859
    5.385    3.2649
    5.400    3.4334
    5.415    3.6651
    5.430    3.3597
    5.445    3.5176
    5.460    3.6862
    5.475    3.3386
    5.490    3.1385
    5.505    3.3491
    5.520    3.2543
    5.535    3.2122
    5.550    3.2122
    5.565    3.2227
    5.580    3.1806
    5.595    3.0437
    5.610    2.9805
    5.625    3.3913
    5.640    3.3597
    5.655    3.2438
    5.670    3.2122
    5.685    3.1596
    5.700    3.2333
    5.715    3.3702
    5.730    3.5282
    5.745    3.4650
    5.760    3.1806
    5.775    3.4334
    5.790    3.5282
    5.805    3.3386
    5.820    3.3070
    5.835    3.2859
    5.850    3.4755
    5.865    3.2543
    5.880    3.3702
    5.895    3.1806
    5.910    3.2333
    5.925    3.4334
    5.940    3.2754
    5.955    3.3913
    5.970    3.2438
    5.985    3.0753
    6.000    3.2227
    6.015    3.1596
    6.030    3.3597
    6.045    3.5598
    6.060    3.5282
    6.075    3.6124
    6.090    3.3491
    6.105    3.3281
    6.120    3.5598
    6.135    3.2754
    6.150    3.2438
    6.165    3.3175
    6.180    3.0542
    6.195    3.0437
    6.210    3.2965
    6.225    3.1280
    6.240    3.3386
    6.255    3.1596
    6.270    3.3386
    6.285    3.2649
    6.300    3.5176
    6.315    3.1596
    6.330    3.4755
    6.345    3.1069
    6.360    3.1912
    6.375    3.1596
    6.390    3.2438
    6.405    3.4334
    6.420    3.2859
    6.435    3.2333
    6.450    3.1490
    6.465    3.2333
    6.480    3.4966
    6.495    3.4018
    6.510    3.1701
    6.525    3.3070
    6.540    3.3807
    6.555    3.1596
    6.570    3.2649
    6.585    3.1806
    6.600    3.4755
    6.615    3.3491
    6.630    3.2543
    6.645    3.5808
    6.660    3.4544
    6.675    3.1490
    6.690    3.5598
    6.705    3.6124
    6.720    3.6230
    6.735    3.4860
    6.750    3.4650
    6.765    3.4966
    6.780    3.3702
    6.795    3.5282
    6.810    3.4650
    6.825    3.6230
    6.840    3.8020
    6.855    3.4966
    6.870    3.5071
    6.885    3.2543
    6.900    3.5282
    6.915    3.8020
    6.930    3.6862
    6.945    3.7493
    6.960    3.4755
    6.975    3.4966
    6.990    3.6019
    7.005    3.4755
    7.020    3.8231
    7.035    3.6546
    7.050    3.3913
    7.065    3.2965
    7.080    3.5071
    7.095    3.4123
    7.110    3.5071
    7.125    3.4018
    7.140    3.2333
    7.155    3.1701
    7.170    3.2333
    7.185    3.3175
    7.200    3.7283
    7.215    3.5598
    7.230    3.5808
    7.245    3.2754
    7.260    3.2859
    7.275    3.2333
    7.290    3.2649
    7.305    3.4334
    7.320    3.1912
    7.335    3.2754
    7.350    3.5598
    7.365    3.4229
    7.380    3.4018
    7.395    3.3807
    7.410    3.2754
    7.425    3.2859
    7.440    3.4755
    7.455    3.8020
    7.470    3.5492
    7.485    3.4439
    7.500    3.1596
    7.515    3.3386
    7.530    3.3386
    7.545    3.5282
    7.560    3.6335
    7.575    3.2649
    7.590    3.2122
    7.605    3.3597
    7.620    3.4229
    7.635    3.2649
    7.650    3.4966
    7.665    3.5071
    7.680    3.5282
    7.695    3.5492
    7.710    3.5071
    7.725    3.6440
    7.740    3.4439
    7.755    3.4650
    7.770    3.3597
    7.785    3.6335
    7.800    3.4018
    7.815    3.4650
    7.830    3.4334
    7.845    3.4123
    7.860    3.5176
    7.875    3.4544
    7.890    3.2227
    7.905    3.1280
    7.920    3.4229
    7.935    3.3281
    7.950    3.1912
    7.965    3.7177
    7.980    3.5598
    7.995    3.4860
    8.010    3.5282
    8.025    3.2543
    8.040    3.3807
    8.055    3.4334
    8.070    3.3597
    8.085    3.3702
    8.100    3.2543
    8.115    3.3386
    8.130    3.2017
    8.145    3.4229
    8.160    3.1701
    8.175    3.1490
    8.190    3.4544
    8.205    3.3807
    8.220    3.3281
    8.235    3.3386
    8.250    3.3597
    8.265    3.4123
    8.280    3.1701
    8.295    3.3702
    8.310    3.6230
    8.325    3.2543
    8.340    3.1912
    8.355    3.0858
    8.370    3.2017
    8.385    3.3386
    8.400    3.3913
    8.415    3.3070
    8.430    3.0648
    8.445    3.0542
    8.460    3.2227
    8.475    3.0648
    8.490    3.1596
    8.505    3.1912
    8.520    3.2438
    8.535    3.2965
    8.550    3.0542
    8.565    3.4123
    8.580    3.1174
    8.595    3.2965
    8.610    3.1069
    8.625    3.6651
    8.640    3.4650
    8.655    3.2965
    8.670    3.4966
    8.685    3.2438
    8.700    3.2438
    8.715    3.3175
    8.730    3.1806
    8.745    3.1174
    8.760    3.0121
    8.775    3.0121
    8.790    2.8963
    8.805    3.2122
    8.820    3.2227
    8.835    3.2754
    8.850    3.1701
    8.865    3.1596
    8.880    3.1912
    8.895    3.2227
    8.910    3.1385
    8.925    3.1912
    8.940    3.2017
    8.955    3.0858
    8.970    3.1701
    8.985    3.2965
    9.000    3.0437
    9.015    3.1701
    9.030    3.2017
    9.045    3.2859
    9.060    3.0016
    9.075    2.9910
    9.090    3.3491
    9.105    3.2438
    9.120    3.6124
    9.135    3.5071
    9.150    3.0437
    9.165    3.0437
    9.180    3.2859
    9.195    3.1912
    9.210    3.0858
    9.225    3.2965
    9.240    3.2017
    9.255    3.2754
    9.270    3.4650
    9.285    3.5282
    9.300    3.4650
    9.315    3.6546
    9.330    3.3070
    9.345    3.1280
    9.360    3.1806
    9.375    3.2017
    9.390    3.4123
    9.405    3.2965
    9.420    3.0858
    9.435    3.2649
    9.450    3.0437
    9.465    3.0858
    9.480    2.9805
    9.495    3.2333
    9.510    3.2333
    9.525    3.1280
    9.540    3.1385
    9.555    3.0542
    9.570    3.0858
    9.585    3.2649
    9.600    3.4334
    9.615    3.2122
    9.630    3.1912
    9.645    3.0858
    9.660    3.1806
    9.675    3.3807
    9.690    3.3913
    9.705    2.9595
    9.720    2.9068
    9.735    2.9384
    9.750    2.9805
    9.765    3.0964
    9.780    3.2017
    9.795    3.5492
    9.810    3.3913
    9.825    3.3386
    9.840    3.1596
    9.855    3.0016
    9.870    2.9595
    9.885    3.2017
    9.900    3.2333
    9.915    3.1280
    9.930    3.3281
    9.945    3.4439
    9.960    3.1385
    9.975    2.8752
    9.990    2.9279
   10.005    3.1596
   10.020    3.3597
   10.035    3.0332
   10.050    3.1174
   10.065    3.2649
   10.080    3.0332
   10.095    2.9173
   10.110    2.8857
   10.125    3.1701
   10.140    3.5703
   10.155    3.2333
   10.170    3.0016
   10.185    2.8225
   10.200    3.0121
   10.215    3.0437
   10.230    3.1912
   10.245    3.0858
   10.260    3.0121
   10.275    3.1174
   10.290    3.1596
   10.305    2.9279
   10.320    3.1385
   10.335    3.0753
   10.350    3.3597
   10.365    3.2859
   10.380    3.1490
   10.395    3.0964
   10.410    3.0964
   10.425    3.3386
   10.440    3.4755
   10.455    3.4544
   10.470    3.4334
   10.485    3.2859
   10.500    2.9595
   10.515    3.3386
   10.530    3.1069
   10.545    3.1701
   10.560    3.4018
   10.575    3.0332
   10.590    2.8963
   10.605    3.0964
   10.620    3.0648
   10.635    3.2017
   10.650    3.0858
   10.665    3.0226
   10.680    3.1806
   10.695    2.9805
   10.710    3.0332
   10.725    3.3281
   10.740    3.1806
   10.755    2.8436
   10.770    2.9910
   10.785    3.0648
   10.800    3.0226
   10.815    3.1174
   10.830    2.9384
   10.845    3.0648
   10.860    3.0858
   10.875    3.2438
   10.890    3.1912
   10.905    3.1490
   10.920    3.1701
   10.935    3.2227
   10.950    3.1806
   10.965    3.1912
   10.980    3.0437
   10.995    3.1701
   11.010    3.2227
   11.025    3.0648
   11.040    3.2649
   11.055    3.2227
   11.070    2.9595
   11.085    2.9068
   11.100    3.1701
   11.115    3.0858
   11.130    3.2859
   11.145    3.1385
   11.160    3.2438
   11.175    3.0858
   11.190    3.2227
   11.205    2.9489
   11.220    2.9489
   11.235    2.8752
   11.250    3.0753
   11.265    2.9805
   11.280    3.0858
   11.295    3.0858
   11.310    3.0858
   11.325    3.3386
   11.340    3.5492
   11.355    3.3175
   11.370    3.1069
   11.385    3.3070
   11.400    3.2227
   11.415    3.0964
   11.430    3.3175
   11.445    3.1596
   11.460    2.8436
   11.475    2.9910
   11.490    2.9279
   11.505    3.0121
   11.520    3.3807
   11.535    3.0542
   11.550    3.1806
   11.565    3.3175
   11.580    3.4018
   11.595    3.2965
   11.610    3.0332
   11.625    2.8120
   11.640    3.2543
   11.655    3.2438
   11.670    2.8120
   11.685    3.0542
   11.700    3.0753
   11.715    3.0648
   11.730    3.0542
   11.745    2.9384
   11.760    2.8015
   11.775    2.8541
   11.790    3.0332
   11.805    2.8120
   11.820    2.9068
   11.835    3.0437
   11.850    3.0542
   11.865    3.2017
   11.880    2.9384
   11.895    2.8015
   11.910    2.8857
   11.925    2.8331
   11.940    3.0016
   11.955    3.0121
   11.970    3.0016
   11.985    3.2333
   12.000    2.9595
   12.015    3.1490
   12.030    3.0437
   12.045    2.9279
   12.060    2.9910
   12.075    2.7593
   12.090    2.8647
   12.105    3.0121
   12.120    3.2017
   12.135    3.2017
   12.150    3.0332
   12.165    2.9384
   12.180    2.7067
   12.195    2.9489
   12.210    2.9700
   12.225    3.0542
   12.240    3.0753
   12.255    3.3597
   12.270    2.8752
   12.285    2.9910
   12.300    3.0332
   12.315    3.0964
   12.330    3.0542
   12.345    2.9068
   12.360    3.0858
   12.375    3.0437
   12.390    3.1596
   12.405    2.7699
   12.420    2.8752
   12.435    3.1385
   12.450    2.9910
   12.465    3.2122
   12.480    2.7909
   12.495    3.0332
   12.510    2.8647
   12.525    2.8225
   12.540    3.1701
   12.555    3.3386
   12.570    3.2649
   12.585    3.1174
   12.600    2.7699
   12.615    3.2017
   12.630    3.0542
   12.645    3.0226
   12.660    2.9489
   12.675    2.6962
   12.690    3.1069
   12.705    3.1490
   12.720    2.8963
   12.735    3.0226
   12.750    3.0121
   12.765    3.1280
   12.780    3.0226
   12.795    2.7383
   12.810    2.8647
   12.825    2.8963
   12.840    2.9384
   12.855    2.9805
   12.870    2.8647
   12.885    3.1912
   12.900    3.1806
   12.915    2.8120
   12.930    2.8331
   12.945    2.8541
   12.960    2.8857
   12.975    2.8015
   12.990    2.8541
   13.005    2.8963
   13.020    3.0016
   13.035    3.1174
   13.050    2.9805
   13.065    2.9700
   13.080    2.9068
   13.095    2.8857
   13.110    3.0437
   13.125    3.3281
   13.140    3.0542
   13.155    3.0016
   13.170    2.8541
   13.185    2.8541
   13.200    3.0858
   13.215    3.0858
   13.230    3.1701
   13.245    2.9595
   13.260    3.0332
   13.275    2.7804
   13.290    2.9805
   13.305    3.0542
   13.320    3.0858
   13.335    2.9068
   13.350    2.9489
   13.365    2.8857
   13.380    2.9173
   13.395    2.9489
   13.410    2.8436
   13.425    2.9700
   13.440    2.9700
   13.455    2.8225
   13.470    2.9805
   13.485    2.8225
   13.500    2.8015
   13.515    3.1385
   13.530    3.0648
   13.545    2.8647
   13.560    2.7383
   13.575    2.8225
   13.590    3.0437
   13.605    2.9068
   13.620    2.9384
   13.635    3.2438
   13.650    2.8015
   13.665    2.7172
   13.680    2.6435
   13.695    2.8120
   13.710    3.0332
   13.725    2.9279
   13.740    2.7593
   13.755    2.8120
   13.770    3.0858
   13.785    3.0016
   13.800    2.9489
   13.815    2.9489
   13.830    2.9910
   13.845    3.1385
   13.860    3.2122
   13.875    2.8857
   13.890    2.9595
   13.905    3.0437
   13.920    3.2227
   13.935    3.1385
   13.950    3.2017
   13.965    3.1385
   13.980    2.9700
   13.995    3.2965
   14.010    2.8963
   14.025    2.8963
   14.040    3.2649
   14.055    2.9805
   14.070    2.8857
   14.085    3.1806
   14.100    2.8963
   14.115    2.8015
   14.130    2.9068
   14.145    2.8541
   14.160    2.9595
   14.175    2.9068
   14.190    3.0016
   14.205    2.8225
   14.220    2.6119
   14.235    2.7804
   14.250    2.8436
   14.265    2.7804
   14.280    3.1280
   14.295    2.9595
   14.310    3.1385
   14.325    3.0648
   14.340    3.0542
   14.355    3.1385
   14.370    2.9700
   14.385    2.9595
   14.400    3.0437
   14.415    2.8436
   14.430    2.7699
   14.445    3.1701
   14.460    3.2122
   14.475    3.0648
   14.490    3.0542
   14.505    2.9489
   14.520    2.8225
   14.535    2.5592
   14.550    3.1280
   14.565    2.9489
   14.580    2.9279
   14.595    2.8015
   14.610    2.9700
   14.625    3.0226
   14.640    2.9489
   14.655    2.8225
   14.670    3.3070
   14.685    3.0753
   14.700    2.6540
   14.715    2.9489
   14.730    2.9173
   14.745    2.8752
   14.760    2.8541
   14.775    2.9279
   14.790    3.0332
   14.805    2.7909
   14.820    2.8647
   14.835    3.0542
   14.850    3.1490
   14.865    3.0121
   14.880    3.0332
   14.895    2.7383
   14.910    3.1806
   14.925    3.1385
   14.940    3.0332
   14.955    3.1385
   14.970    2.8963
   14.985    2.8752
   15.000    2.9910
   15.015    2.8963
   15.030    3.0648
   15.045    3.3386
   15.060    3.0964
   15.075    2.8963
   15.090    3.0753
   15.105    2.8436
   15.120    2.7593
   15.135    2.7699
   15.150    2.8857
   15.165    3.0648
   15.180    2.8015
   15.195    2.9805
   15.210    2.7804
   15.225    2.8331
   15.240    3.0753
   15.255    2.7278
   15.270    2.8752
   15.285    2.8752
   15.300    2.9805
   15.315    2.8225
   15.330    2.7172
   15.345    2.7804
   15.360    2.7593
   15.375    3.0226
   15.390    2.8647
   15.405    2.7067
   15.420    2.8647
   15.435    2.9910
   15.450    2.7909
   15.465    2.8436
   15.480    2.9910
   15.495    3.0121
   15.510    3.0121
   15.525    3.1385
   15.540    2.9173
   15.555    2.7488
   15.570    2.5487
   15.585    2.5487
   15.600    2.7278
   15.615    2.9595
   15.630    2.7909
   15.645    2.9489
   15.660    3.0437
   15.675    3.3281
   15.690    3.2438
   15.705    3.0016
   15.720    2.7172
   15.735    2.8963
   15.750    2.7172
   15.765    2.8647
   15.780    2.8331
   15.795    2.8436
   15.810    2.8120
   15.825    2.7172
   15.840    2.7278
   15.855    2.8436
   15.870    2.8963
   15.885    2.7383
   15.900    2.8225
   15.915    2.7909
   15.930    2.9489
   15.945    3.2649
   15.960    2.7593
   15.975    2.9384
   15.990    2.8015
   16.005    2.8857
   16.020    2.7699
   16.035    3.0121
   16.050    2.9489
   16.065    2.8647
   16.080    2.7804
   16.095    2.8963
   16.110    2.9384
   16.125    2.7383
   16.140    2.9595
   16.155    2.6435
   16.170    3.0016
   16.185    2.8963
   16.200    2.7909
   16.215    2.7593
   16.230    2.7172
   16.245    2.9489
   16.260    2.7383
   16.275    2.6856
   16.290    2.6751
   16.305    2.8752
   16.320    2.6751
   16.335    2.8436
   16.350    2.9910
   16.365    2.8647
   16.380    2.7804
   16.395    2.8963
   16.410    2.9384
   16.425    2.9173
   16.440    2.8331
   16.455    2.8541
   16.470    2.9595
   16.485    2.9489
   16.500    2.6646
   16.515    2.8225
   16.530    2.8120
   16.545    3.0332
   16.560    2.8857
   16.575    2.6751
   16.590    2.8331
   16.605    2.9384
   16.620    3.0437
   16.635    3.0648
   16.650    2.8120
   16.665    2.6646
   16.680    3.0437
   16.695    2.9384
   16.710    3.0332
   16.725    2.9805
   16.740    3.1701
   16.755    2.9805
   16.770    2.6751
   16.785    2.5908
   16.800    2.7909
   16.815    3.0858
   16.830    2.7488
   16.845    2.9489
   16.860    2.9068
   16.875    3.0437
   16.890    2.9910
   16.905    2.8120
   16.920    2.9173
   16.935    2.8963
   16.950    2.8225
   16.965    2.9279
   16.980    3.1385
   16.995    2.7593
   17.010    2.7699
   17.025    2.8857
   17.040    3.0121
   17.055    3.0858
   17.070    3.3386
   17.085    2.6856
   17.100    2.7067
   17.115    2.9068
   17.130    3.0226
   17.145    3.1806
   17.160    2.7488
   17.175    2.9173
   17.190    3.2649
   17.205    3.1069
   17.220    2.9279
   17.235    2.8120
   17.250    3.0016
   17.265    3.1174
   17.280    3.2017
   17.295    2.9910
   17.310    2.9700
   17.325    2.6856
   17.340    2.7278
   17.355    2.8963
   17.370    3.1490
   17.385    2.9700
   17.400    2.8225
   17.415    2.8331
   17.430    2.8647
   17.445    2.9279
   17.460    2.7804
   17.475    2.8120
   17.490    2.9279
   17.505    2.6856
   17.520    2.7593
   17.535    3.0121
   17.550    3.0858
   17.565    2.8015
   17.580    2.8120
   17.595    2.8857
   17.610    2.8436
   17.625    2.8857
   17.640    2.8120
   17.655    2.6540
   17.670    2.8541
   17.685    2.7172
   17.700    2.7804
   17.715    2.8436
   17.730    3.0121
   17.745    3.1701
   17.760    2.9595
   17.775    2.9595
   17.790    3.0016
   17.805    2.8225
   17.820    2.8752
   17.835    2.9805
   17.850    2.9173
   17.865    3.0121
   17.880    2.7278
   17.895    2.9279
   17.910    2.8120
   17.925    2.9700
   17.940    2.8331
   17.955    2.9910
   17.970    2.8015
   17.985    3.0226
   18.000    2.9068
   18.015    2.8120
   18.030    2.9173
   18.045    3.1385
   18.060    3.0437
   18.075    2.9805
   18.090    3.0753
   18.105    2.8752
   18.120    3.0121
   18.135    2.6962
   18.150    2.6856
   18.165    3.0437
   18.180    3.0542
   18.195    2.8541
   18.210    2.9068
   18.225    2.7383
   18.240    2.6435
   18.255    2.8647
   18.270    2.9489
   18.285    3.0858
   18.300    3.0858
   18.315    3.0226
   18.330    3.2754
   18.345    2.9805
   18.360    3.0964
   18.375    2.9489
   18.390    2.8436
   18.405    3.1280
   18.420    2.8331
   18.435    2.9595
   18.450    2.9384
   18.465    2.8857
   18.480    2.9489
   18.495    3.0437
   18.510    2.9805
   18.525    3.0648
   18.540    2.8647
   18.555    2.8857
   18.570    2.8015
   18.585    3.0226
   18.600    2.8015
   18.615    2.9910
   18.630    2.9595
   18.645    3.1174
   18.660    3.0648
   18.675    3.0121
   18.690    3.2122
   18.705    2.9068
   18.720    2.9489
   18.735    2.9489
   18.750    3.0226
   18.765    3.0542
   18.780    2.8857
   18.795    2.6751
   18.810    2.8120
   18.825    2.7488
   18.840    3.1806
   18.855    3.0437
   18.870    2.9595
   18.885    3.3175
   18.900    3.0648
   18.915    3.0437
   18.930    2.9910
   18.945    3.0964
   18.960    2.8963
   18.975    2.9384
   18.990    3.0226
   19.005    2.9910
   19.020    3.0542
   19.035    2.9068
   19.050    2.9805
   19.065    3.0016
   19.080    2.8752
   19.095    2.9595
   19.110    2.9068
   19.125    2.7067
   19.140    2.6435
   19.155    2.5803
   19.170    2.8436
   19.185    3.0542
   19.200    3.0332
   19.215    2.9489
   19.230    2.8857
   19.245    2.9910
   19.260    2.9384
   19.275    2.8120
   19.290    2.7172
   19.305    2.8647
   19.320    2.9279
   19.335    3.1069
   19.350    2.9595
   19.365    2.9910
   19.380    3.2017
   19.395    3.0332
   19.410    2.8857
   19.425    2.9595
   19.440    2.9489
   19.455    3.1490
   19.470    2.8331
   19.485    2.9700
   19.500    3.3070
   19.515    3.2122
   19.530    3.0332
   19.545    2.9279
   19.560    2.7488
   19.575    2.7804
   19.590    3.1174
   19.605    2.7909
   19.620    2.9805
   19.635    3.1069
   19.650    2.9595
   19.665    3.2543
   19.680    3.1385
   19.695    2.9279
   19.710    2.8752
   19.725    3.1069
   19.740    3.0121
   19.755    3.1912
   19.770    3.4334
   19.785    3.0542
   19.800    2.9068
   19.815    2.9068
   19.830    3.0332
   19.845    3.0542
   19.860    3.0332
   19.875    3.2017
   19.890    3.0226
   19.905    2.6962
   19.920    2.9700
   19.935    3.1174
   19.950    3.0121
   19.965    2.8963
   19.980    2.9173
   19.995    2.9173
   20.010    3.1912
   20.025    2.9173
   20.040    3.0226
   20.055    2.8963
   20.070    3.0858
   20.085    2.9910
   20.100    3.3175
   20.115    3.2859
   20.130    2.9805
   20.145    3.3386
   20.160    3.2543
   20.175    3.2122
   20.190    2.9384
   20.205    2.9279
   20.220    3.0648
   20.235    2.9173
   20.250    3.2017
   20.265    3.0753
   20.280    3.3913
   20.295    3.1701
   20.310    2.9805
   20.325    2.8436
   20.340    2.7699
   20.355    2.9910
   20.370    2.9068
   20.385    3.0964
   20.400    3.1385
   20.415    2.9173
   20.430    2.8331
   20.445    2.9384
   20.460    2.9384
   20.475    2.9700
   20.490    2.8857
   20.505    3.0226
   20.520    3.2859
   20.535    3.1174
   20.550    3.0437
   20.565    2.9805
   20.580    2.8752
   20.595    3.0858
   20.610    3.2543
   20.625    3.1385
   20.640    2.8752
   20.655    2.8120
   20.670    3.1280
   20.685    3.0226
   20.700    2.9910
   20.715    3.0542
   20.730    2.7909
   20.745    3.1385
   20.760    3.0964
   20.775    3.1701
   20.790    2.9700
   20.805    3.2017
   20.820    3.0121
   20.835    3.1069
   20.850    3.0542
   20.865    2.9068
   20.880    2.8541
   20.895    2.9489
   20.910    3.1806
   20.925    3.1174
   20.940    2.9489
   20.955    3.0437
   20.970    2.8857
   20.985    2.8225
   21.000    2.9805
   21.015    2.9489
   21.030    2.9595
   21.045    2.6962
   21.060    2.9595
   21.075    3.1490
   21.090    2.8225
   21.105    3.0648
   21.120    2.7593
   21.135    2.8857
   21.150    2.8647
   21.165    3.0648
   21.180    2.9805
   21.195    3.2438
   21.210    3.0964
   21.225    3.1069
   21.240    2.8541
   21.255    2.9700
   21.270    2.9910
   21.285    2.9700
   21.300    2.8857
   21.315    2.8015
   21.330    3.1069
   21.345    3.0437
   21.360    3.0542
   21.375    2.8120
   21.390    2.9173
   21.405    3.0016
   21.420    3.3386
   21.435    2.9173
   21.450    3.2227
   21.465    3.1174
   21.480    3.3807
   21.495    3.0648
   21.510    2.8857
   21.525    2.7909
   21.540    3.0753
   21.555    2.9910
   21.570    3.1806
   21.585    3.3702
   21.600    3.1280
   21.615    2.9279
   21.630    2.8963
   21.645    2.9910
   21.660    3.3807
   21.675    3.1701
   21.690    2.9700
   21.705    2.8857
   21.720    2.8436
   21.735    2.8647
   21.750    3.1385
   21.765    3.1596
   21.780    3.0648
   21.795    2.9068
   21.810    2.6962
   21.825    2.9489
   21.840    3.1701
   21.855    3.4755
   21.870    3.0964
   21.885    2.7909
   21.900    3.0226
   21.915    2.9910
   21.930    2.9384
   21.945    2.9384
   21.960    2.9384
   21.975    3.0332
   21.990    2.8752
   22.005    2.7488
   22.020    2.7067
   22.035    3.2649
   22.050    3.1490
   22.065    3.0964
   22.080    3.2438
   22.095    3.0964
   22.110    3.2649
   22.125    3.1912
   22.140    2.9489
   22.155    3.1806
   22.170    3.1280
   22.185    3.0226
   22.200    2.8752
   22.215    2.8647
   22.230    3.0016
   22.245    3.0964
   22.260    3.0332
   22.275    3.1490
   22.290    3.0437
   22.305    3.1385
   22.320    2.9489
   22.335    3.2122
   22.350    3.0542
   22.365    3.1701
   22.380    2.7067
   22.395    2.9173
   22.410    2.9279
   22.425    3.0016
   22.440    3.1174
   22.455    3.0332
   22.470    3.1280
   22.485    3.1701
   22.500    3.0437
   22.515    2.9489
   22.530    3.3175
   22.545    3.2227
   22.560    3.1280
   22.575    2.9910
   22.590    2.9173
   22.605    3.1069
   22.620    3.0753
   22.635    3.0332
   22.650    3.0332
   22.665    2.7909
   22.680    2.9910
   22.695    3.0226
   22.710    2.9910
   22.725    3.2649
   22.740    3.2649
   22.755    2.9805
   22.770    3.0753
   22.785    3.0332
   22.800    3.3702
   22.815    3.0964
   22.830    3.0332
   22.845    3.0858
   22.860    3.2333
   22.875    3.0858
   22.890    3.3491
   22.905    2.9910
   22.920    3.1806
   22.935    3.1280
   22.950    3.0226
   22.965    2.9489
   22.980    3.0964
   22.995    3.1069
   23.010    2.7067
   23.025    2.7488
   23.040    3.1385
   23.055    2.8752
   23.070    3.1069
   23.085    3.0332
   23.100    3.0016
   23.115    3.0753
   23.130    2.9279
   23.145    3.0437
   23.160    3.2754
   23.175    3.3386
   23.190    2.8963
   23.205    2.6435
   23.220    3.1806
   23.235    2.9805
   23.250    3.0121
   23.265    3.1912
   23.280    3.0964
   23.295    3.0648
   23.310    2.8436
   23.325    3.0648
   23.340    2.7593
   23.355    2.8647
   23.370    3.0226
   23.385    3.0016
   23.400    2.8857
   23.415    3.0542
   23.430    2.8963
   23.445    3.0226
   23.460    3.3175
   23.475    3.0121
   23.490    2.9595
   23.505    3.2438
   23.520    3.3281
   23.535    3.0648
   23.550    3.4229
   23.565    3.1174
   23.580    2.8541
   23.595    3.1912
   23.610    3.0437
   23.625    2.9173
   23.640    2.6962
   23.655    2.8647
   23.670    3.0121
   23.685    3.1596
   23.700    3.1174
   23.715    2.9279
   23.730    2.8647
   23.745    3.1912
   23.760    2.8963
   23.775    3.1912
   23.790    3.1701
   23.805    2.9384
   23.820    2.9805
   23.835    3.0226
   23.850    2.8120
   23.865    2.9068
   23.880    2.8120
   23.895    2.9595
   23.910    2.8647
   23.925    2.8331
   23.940    2.9700
   23.955    3.1280
   23.970    2.8857
   23.985    2.9068
   24.000    2.8647
   24.015    2.7278
   24.030    2.9595
   24.045    3.0332
   24.060    2.8857
   24.075    2.7699
   24.090    2.9595
   24.105    3.0542
   24.120    2.8015
   24.135    2.9173
   24.150    3.0437
   24.165    2.7488
   24.180    2.9700
   24.195    3.0226
   24.210    3.0753
   24.225    3.0016
   24.240    3.1069
   24.255    2.8857
   24.270    2.9910
   24.285    2.8857
   24.300    2.9068
   24.315    2.8120
   24.330    2.7488
   24.345    2.8752
   24.360    2.9489
   24.375    3.0332
   24.390    2.9279
   24.405    2.9173
   24.420    2.8541
   24.435    2.7804
   24.450    3.1280
   24.465    2.6224
   24.480    2.9068
   24.495    2.8331
   24.510    2.8015
   24.525    2.6540
   24.540    2.9910
   24.555    3.0648
   24.570    2.7699
   24.585    2.9384
   24.600    3.1385
   24.615    2.8963
   24.630    3.1912
   24.645    3.0753
   24.660    2.9489
   24.675    2.9910
   24.690    3.0858
   24.705    2.8963
   24.720    2.9173
   24.735    2.9173
   24.750    3.0542
   24.765    3.0332
   24.780    2.7699
   24.795    2.9384
   24.810    2.6856
   24.825    2.9173
   24.840    3.1806
   24.855    2.7699
   24.870    2.6119
   24.885    2.6962
   24.900    2.8015
   24.915    2.9068
   24.930    2.7172
   24.945    2.8015
   24.960    2.9068
   24.975    2.8647
   24.990    2.8436
   25.005    2.9173
   25.020    2.8225
   25.035    3.0332
   25.050    3.1490
   25.065    2.8752
   25.080    3.0016
   25.095    2.8225
   25.110    2.6435
   25.125    2.9700
   25.140    3.0121
   25.155    2.7593
   25.170    3.0332
   25.185    2.7593
   25.200    2.8015
   25.215    2.9595
   25.230    2.9068
   25.245    2.9595
   25.260    3.0753
   25.275    2.8647
   25.290    3.0016
   25.305    2.9279
   25.320    2.9805
   25.335    2.9489
   25.350    3.1806
   25.365    2.9805
   25.380    2.8120
   25.395    2.9700
   25.410    2.9595
   25.425    2.9805
   25.440    2.8225
   25.455    2.6330
   25.470    2.7909
   25.485    2.9700
   25.500    3.0226
   25.515    2.4855
   25.530    2.8436
   25.545    2.6646
   25.560    2.8120
   25.575    2.9700
   25.590    2.8225
   25.605    2.9173
   25.620    2.6856
   25.635    2.6646
   25.650    2.9068
   25.665    3.0332
   25.680    2.7488
   25.695    2.7804
   25.710    2.7488
   25.725    2.6014
   25.740    2.7804
   25.755    2.4645
   25.770    2.8225
   25.785    2.7488
   25.800    3.0016
   25.815    2.8857
   25.830    2.8541
   25.845    2.7067
   25.860    2.8331
   25.875    2.8225
   25.890    2.6435
   25.905    2.6330
   25.920    2.7593
   25.935    2.8647
   25.950    2.8647
   25.965    2.7909
   25.980    2.7699
   25.995    3.0016
   26.010    2.7383
   26.025    2.7278
   26.040    2.8015
   26.055    2.6646
   26.070    2.7909
   26.085    2.7172
   26.100    2.7699
   26.115    2.7909
   26.130    2.6646
   26.145    2.9910
   26.160    2.9805
   26.175    2.7593
   26.190    2.9700
   26.205    2.8225
   26.220    2.9384
   26.235    2.9489
   26.250    3.0121
   26.265    2.6646
   26.280    2.5592
   26.295    2.5171
   26.310    2.7067
   26.325    2.5698
   26.340    2.4855
   26.355    2.7067
   26.370    2.6014
   26.385    2.5171
   26.400    2.7804
   26.415    2.8647
   26.430    2.7278
   26.445    2.7909
   26.460    2.7909
   26.475    2.5171
   26.490    2.6962
   26.505    2.9279
   26.520    2.8015
   26.535    2.7488
   26.550    2.8541
   26.565    2.5698
   26.580    2.5592
   26.595    2.7699
   26.610    2.4961
   26.625    2.6856
   26.640    2.6751
   26.655    2.9489
   26.670    3.0016
   26.685    2.7278
   26.700    2.5698
   26.715    2.3907
   26.730    2.4013
   26.745    2.5276
   26.760    2.7278
   26.775    2.6646
   26.790    2.4539
   26.805    2.6751
   26.820    2.6014
   26.835    2.8436
   26.850    2.5382
   26.865    2.6856
   26.880    2.6646
   26.895    2.5171
   26.910    2.4539
   26.925    2.6856
   26.940    2.6751
   26.955    2.6435
   26.970    2.6962
   26.985    2.8331
   27.000    2.8015
   27.015    2.7278
   27.030    2.3697
   27.045    2.3381
   27.060    2.7488
   27.075    2.7593
   27.090    2.6856
   27.105    2.6435
   27.120    2.5487
   27.135    2.8120
   27.150    2.7067
   27.165    2.8015
   27.180    2.8752
   27.195    2.6014
   27.210    2.5487
   27.225    2.5171
   27.240    2.5171
   27.255    2.5592
   27.270    2.6119
   27.285    2.4118
   27.300    2.4223
   27.315    2.6856
   27.330    2.5382
   27.345    2.6962
   27.360    2.7067
   27.375    2.8225
   27.390    2.6540
   27.405    2.4855
   27.420    2.6856
   27.435    2.6330
   27.450    2.6856
   27.465    2.6224
   27.480    2.5592
   27.495    2.2854
   27.510    2.6751
   27.525    2.6751
   27.540    2.5592
   27.555    2.6224
   27.570    2.4013
   27.585    2.6119
   27.600    2.7488
   27.615    2.4855
   27.630    2.5171
   27.645    2.6224
   27.660    2.5698
   27.675    2.9068
   27.690    2.7172
   27.705    2.3486
   27.720    2.3486
   27.735    2.3907
   27.750    2.2538
   27.765    2.3065
   27.780    2.7593
   27.795    2.7172
   27.810    2.4855
   27.825    2.4750
   27.840    2.5908
   27.855    2.7278
   27.870    2.4434
   27.885    2.4750
   27.900    2.7067
   27.915    2.5908
   27.930    2.4645
   27.945    2.8015
   27.960    2.8120
   27.975    2.7067
   27.990    2.8963
   28.005    2.4855
   28.020    2.4750
   28.035    2.5382
   28.050    2.4223
   28.065    2.5171
   28.080    2.6119
   28.095    2.5487
   28.110    2.7278
   28.125    2.3907
   28.140    2.5487
   28.155    2.5698
   28.170    2.6646
   28.185    2.5698
   28.200    2.5171
   28.215    2.4855
   28.230    2.5592
   28.245    2.7488
   28.260    2.7909
   28.275    2.5908
   28.290    2.7804
   28.305    2.5908
   28.320    2.6646
   28.335    2.5698
   28.350    2.4750
   28.365    2.5698
   28.380    2.7488
   28.395    2.6224
   28.410    2.6856
   28.425    2.6962
   28.440    2.5803
   28.455    2.7172
   28.470    2.7804
   28.485    2.4434
   28.500    2.4329
   28.515    2.6435
   28.530    2.7804
   28.545    2.7909
   28.560    2.4329
   28.575    2.6119
   28.590    2.8436
   28.605    2.6119
   28.620    2.4750
   28.635    2.6646
   28.650    2.7278
   28.665    2.6540
   28.680    2.3907
   28.695    2.6330
   28.710    2.5487
   28.725    2.4118
   28.740    2.4750
   28.755    2.4645
   28.770    2.6962
   28.785    2.5698
   28.800    2.4855
   28.815    2.3802
   28.830    2.3486
   28.845    2.4539
   28.860    2.2643
   28.875    2.4539
   28.890    2.4118
   28.905    2.5592
   28.920    2.5592
   28.935    2.6224
   28.950    2.6014
   28.965    2.4434
   28.980    2.3486
   28.995    2.5066
   29.010    2.6646
   29.025    2.4223
   29.040    2.4329
   29.055    2.2433
   29.070    2.4329
   29.085    2.5698
   29.100    2.4434
   29.115    2.2749
   29.130    2.5276
   29.145    2.7067
   29.160    2.3275
   29.175    2.4539
   29.190    2.4223
   29.205    2.6014
   29.220    2.6540
   29.235    2.5171
   29.250    2.4434
   29.265    2.2749
   29.280    2.5487
   29.295    2.4223
   29.310    2.5592
   29.325    2.4434
   29.340    2.1696
   29.355    2.3381
   29.370    2.5382
   29.385    2.7278
   29.400    2.3591
   29.415    2.7067
   29.430    2.7488
   29.445    2.8647
   29.460    2.2854
   29.475    2.2959
   29.490    2.4645
   29.505    2.4013
   29.520    2.2538
   29.535    2.5487
   29.550    2.4539
   29.565    2.3591
   29.580    2.5592
   29.595    2.6856
   29.610    2.5171
   29.625    2.5171
   29.640    2.5066
   29.655    2.4961
   29.670    2.4539
   29.685    2.4961
   29.700    2.5066
   29.715    2.4539
   29.730    2.4013
   29.745    2.4645
   29.760    2.2538
   29.775    2.3591
   29.790    2.2959
   29.805    2.2959
   29.820    2.4013
   29.835    2.4329
   29.850    2.3907
   29.865    2.2538
   29.880    2.2433
   29.895    2.5382
   29.910    2.1590
   29.925    2.2643
   29.940    2.3381
   29.955    2.4434
   29.970    2.5276
   29.985    2.3591
   30.000    2.5382
   30.015    2.2538
   30.030    2.4645
   30.045    2.3907
   30.060    2.1696
   30.075    2.3486
   30.090    2.3275
   30.105    2.4329
   30.120    2.4329
   30.135    2.1801
   30.150    2.2538
   30.165    2.2012
   30.180    2.3802
   30.195    2.3275
   30.210    2.3486
   30.225    2.4434
   30.240    2.0853
   30.255    2.4434
   30.270    2.4750
   30.285    2.3697
   30.300    2.5276
   30.315    2.3907
   30.330    2.3170
   30.345    2.5592
   30.360    2.2538
   30.375    2.3486
   30.390    2.0116
   30.405    2.4329
   30.420    2.3907
   30.435    2.0642
   30.450    2.1485
   30.465    2.2433
   30.480    2.6540
   30.495    2.4539
   30.510    2.1906
   30.525    2.3381
   30.540    2.5066
   30.555    2.3065
   30.570    2.3907
   30.585    2.4645
   30.600    2.1696
   30.615    2.1485
   30.630    2.3381
   30.645    2.2538
   30.660    2.1380
   30.675    1.9905
   30.690    2.3802
   30.705    2.4118
   30.720    2.2222
   30.735    2.0642
   30.750    2.1274
   30.765    2.0537
   30.780    1.9168
   30.795    2.0221
   30.810    2.4013
   30.825    2.6014
   30.840    2.1274
   30.855    2.2222
   30.870    2.3170
   30.885    2.4750
   30.900    2.6330
   30.915    2.5276
   30.930    2.3486
   30.945    2.4750
   30.960    2.2959
   30.975    2.2222
   30.990    2.2012
   31.005    2.1696
   31.020    2.1696
   31.035    2.4329
   31.050    2.4855
   31.065    2.2222
   31.080    2.4223
   31.095    2.3065
   31.110    2.3486
   31.125    2.1696
   31.140    2.0642
   31.155    2.2222
   31.170    2.1169
   31.185    2.1169
   31.200    2.1906
   31.215    2.4013
   31.230    2.2328
   31.245    2.1064
   31.260    2.2538
   31.275    2.3170
   31.290    2.2117
   31.305    2.1380
   31.320    2.0853
   31.335    2.2854
   31.350    2.0221
   31.365    2.1485
   31.380    2.3065
   31.395    2.1380
   31.410    2.2538
   31.425    2.1169
   31.440    2.0853
   31.455    2.1274
   31.470    2.0958
   31.485    2.3065
   31.500    2.4118
   31.515    2.2959
   31.530    2.2643
   31.545    2.4855
   31.560    2.2538
   31.575    1.9168
   31.590    2.2538
   31.605    2.0958
   31.620    2.2328
   31.635    2.1801
   31.650    2.2328
   31.665    2.2328
   31.680    2.2117
   31.695    2.1696
   31.710    2.3065
   31.725    2.2538
   31.740    2.3275
   31.755    2.3275
   31.770    2.1169
   31.785    2.0642
   31.800    2.1696
   31.815    1.8641
   31.830    1.9484
   31.845    2.0958
   31.860    2.0958
   31.875    2.1590
   31.890    2.1274
   31.905    1.9063
   31.920    1.9379
   31.935    2.2538
   31.950    2.2328
   31.965    2.1064
   31.980    2.0326
   31.995    2.3907
   32.010    2.2117
   32.025    2.2538
   32.040    2.2222
   32.055    2.2749
   32.070    2.1485
   32.085    1.8957
   32.100    1.7904
   32.115    1.9800
   32.130    2.3275
   32.145    2.2012
   32.160    2.0958
   32.175    2.0116
   32.190    2.0748
   32.205    2.2643
   32.220    1.8536
   32.235    2.0853
   32.250    2.1274
   32.265    2.2222
   32.280    2.1169
   32.295    2.0642
   32.310    2.3275
   32.325    2.1485
   32.340    1.9168
   32.355    1.9800
   32.370    2.0011
   32.385    2.0432
   32.400    1.9379
   32.415    1.8852
   32.430    1.9484
   32.445    1.8852
   32.460    2.1380
   32.475    2.1274
   32.490    2.1906
   32.505    2.0432
   32.520    2.1485
   32.535    1.9589
   32.550    1.8536
   32.565    2.2117
   32.580    1.8957
   32.595    2.0748
   32.610    2.0853
   32.625    1.9695
   32.640    2.2959
   32.655    1.8747
   32.670    1.9905
   32.685    1.9273
   32.700    1.9168
   32.715    2.2222
   32.730    2.0326
   32.745    1.9695
   32.760    2.1801
   32.775    2.0326
   32.790    2.0116
   32.805    1.9695
   32.820    2.0642
   32.835    1.9063
   32.850    2.2538
   32.865    2.1696
   32.880    2.0537
   32.895    2.0432
   32.910    1.9273
   32.925    1.8957
   32.940    1.8431
   32.955    2.0537
   32.970    1.6219
   32.985    1.7378
   33.000    2.0116
   33.015    1.7062
   33.030    1.8641
   33.045    2.0853
   33.060    2.1696
   33.075    2.0221
   33.090    1.8747
   33.105    2.0853
   33.120    2.0011
   33.135    1.9168
   33.150    1.7588
   33.165    1.9589
   33.180    1.8220
   33.195    1.9273
   33.210    1.9063
   33.225    1.7904
   33.240    1.9168
   33.255    2.0432
   33.270    1.8641
   33.285    1.7694
   33.300    1.8536
   33.315    1.8325
   33.330    2.0221
   33.345    1.7904
   33.360    1.8325
   33.375    1.8220
   33.390    1.8641
   33.405    1.9063
   33.420    1.9168
   33.435    1.7483
   33.450    1.9589
   33.465    1.9273
   33.480    1.9379
   33.495    1.8957
   33.510    1.9695
   33.525    1.8747
   33.540    1.9695
   33.555    2.0221
   33.570    1.7694
   33.585    1.8852
   33.600    1.8431
   33.615    2.0116
   33.630    1.7483
   33.645    1.8536
   33.660    1.7904
   33.675    1.8747
   33.690    1.7167
   33.705    1.7378
   33.720    1.9379
   33.735    1.8536
   33.750    1.9168
   33.765    1.9063
   33.780    1.9379
   33.795    1.8747
   33.810    1.7378
   33.825    1.9905
   33.840    1.8115
   33.855    1.8009
   33.870    1.9273
   33.885    1.8852
   33.900    1.7694
   33.915    1.8536
   33.930    1.7483
   33.945    1.6956
   33.960    1.7799
   33.975    1.6114
   33.990    1.8009
   34.005    2.0011
   34.020    1.8536
   34.035    1.7694
   34.050    1.8747
   34.065    1.9273
   34.080    1.8957
   34.095    1.6640
   34.110    1.7378
   34.125    1.6535
   34.140    1.7483
   34.155    1.8957
   34.170    1.6640
   34.185    1.7799
   34.200    1.8852
   34.215    1.9273
   34.230    1.9695
   34.245    1.6956
   34.260    1.7694
   34.275    1.4639
   34.290    1.5377
   34.305    1.6324
   34.320    1.7272
   34.335    1.6851
   34.350    1.5798
   34.365    1.8115
   34.380    1.7799
   34.395    1.9273
   34.410    1.6114
   34.425    1.6535
   34.440    1.8115
   34.455    1.7799
   34.470    1.8009
   34.485    1.5377
   34.500    1.7483
   34.515    1.7799
   34.530    1.6746
   34.545    1.6008
   34.560    1.7378
   34.575    1.6219
   34.590    1.6640
   34.605    1.8115
   34.620    1.5482
   34.635    1.7167
   34.650    1.7272
   34.665    1.7062
   34.680    1.6430
   34.695    1.6324
   34.710    1.6430
   34.725    1.7167
   34.740    1.5798
   34.755    1.6324
   34.770    1.7694
   34.785    1.5903
   34.800    1.7378
   34.815    1.5798
   34.830    1.6219
   34.845    1.5587
   34.860    1.6746
   34.875    1.5271
   34.890    1.5377
   34.905    1.6008
   34.920    1.6430
   34.935    1.5903
   34.950    1.6851
   34.965    1.6535
   34.980    1.6746
   34.995    1.7799
   35.010    1.7272
   35.025    1.5587
   35.040    1.5798
   35.055    1.6324
   35.070    1.6430
   35.085    1.6430
   35.100    1.7062
   35.115    1.8641
   35.130    1.6008
   35.145    1.6219
   35.160    1.6324
   35.175    1.5482
   35.190    1.5903
   35.205    1.5587
   35.220    1.6535
   35.235    1.5903
   35.250    1.6640
   35.265    1.6114
   35.280    1.5271
   35.295    1.6008
   35.310    1.4429
   35.325    1.5271
   35.340    1.6324
   35.355    1.4429
   35.370    1.5377
   35.385    1.7799
   35.400    1.4534
   35.415    1.6324
   35.430    1.6535
