    1.500   24.4866
    1.515   24.8236
    1.530   24.1390
    1.545   23.8020
    1.560   23.3281
    1.575   23.0858
    1.590   22.7172
    1.605   22.7804
    1.620   22.0116
    1.635   21.5692
    1.650   20.7794
    1.665   19.5998
    1.680   20.3160
    1.695   20.2317
    1.710   20.1369
    1.725   19.9684
    1.740   19.7051
    1.755   19.1680
    1.770   18.9258
    1.785   18.7888
    1.800   18.3781
    1.815   17.6409
    1.830   17.5882
    1.845   17.9463
    1.860   17.4302
    1.875   17.1143
    1.890   17.1459
    1.905   16.7773
    1.920   16.5666
    1.935   16.2717
    1.950   15.7557
    1.965   15.9242
    1.980   15.9452
    1.995   15.9768
    2.010   15.8610
    2.025   16.5350
    2.040   15.8715
    2.055   15.2923
    2.070   15.3555
    2.085   15.5977
    2.100   15.1132
    2.115   15.0184
    2.130   15.6082
    2.145   15.1343
    2.160   15.4397
    2.175   15.2080
    2.190   15.1553
    2.205   15.5556
    2.220   14.1759
    2.235   14.6498
    2.250   14.9026
    2.265   14.7446
    2.280   14.7973
    2.295   14.5129
    2.310   14.6919
    2.325   14.6077
    2.340   15.1975
    2.355   14.7235
    2.370   14.1759
    2.385   14.6919
    2.400   14.8710
    2.415   15.0500
    2.430   15.3239
    2.445   14.8078
    2.460   15.0184
    2.475   14.9658
    2.490   15.5661
    2.505   15.8294
    2.520   15.0606
    2.535   15.4397
    2.550   15.1975
    2.565   15.5134
    2.580   15.7873
    2.595   16.1769
    2.610   16.2612
    2.625   16.1769
    2.640   15.8610
    2.655   16.6298
    2.670   16.6087
    2.685   16.7983
    2.700   16.5666
    2.715   17.2617
    2.730   18.1148
    2.745   17.5671
    2.760   17.9358
    2.775   18.5045
    2.790   18.1043
    2.805   18.3992
    2.820   19.1680
    2.835   19.2628
    2.850   19.9263
    2.865   19.4839
    2.880   20.1580
    2.895   20.4634
    2.910   20.8320
    2.925   22.7383
    2.940   21.8009
    2.955   22.4434
    2.970   23.8020
    2.985   23.8336
    3.000   24.5603
    3.015   25.4239
    3.030   25.5082
    3.045   26.4982
    3.060   27.7093
    3.075   27.6356
    3.090   28.7836
    3.105   29.5419
    3.120   29.6788
    3.135   30.9847
    3.150   32.2275
    3.165   33.5124
    3.180   35.7241
    3.195   36.3349
    3.210   36.5877
    3.225   38.4623
    3.240   40.4529
    3.255   41.4534
    3.270   43.5282
    3.285   45.2659
    3.300   46.5192
    3.315   49.3734
    3.330   53.8810
    3.345   56.1875
    3.360   58.0516
    3.375   61.3270
    3.390   64.3391
    3.405   67.4039
    3.420   69.7525
    3.435   72.1011
    3.450   73.2385
    3.465   72.5961
    3.480   70.7320
    3.495   67.5408
    3.510   63.7283
    3.525   60.4529
    3.540   56.5350
    3.555   53.8178
    3.570   49.8157
    3.585   46.6772
    3.600   44.4550
    3.615   41.9695
    3.630   39.9157
    3.645   39.0837
    3.660   38.4202
    3.675   38.1780
    3.690   37.9568
    3.705   38.7467
    3.720   38.2728
    3.735   39.7051
    3.750   40.4845
    3.765   40.7478
    3.780   42.4329
    3.795   44.6867
    3.810   46.3928
    3.825   48.5097
    3.840   53.2385
    3.855   57.5777
    3.870   63.6440
    3.885   63.1174
    3.900   60.6003
    3.915   52.2591
    3.930   42.9173
    3.945   32.7857
    3.960   28.5519
    3.975   27.7409
    3.990   26.8668
    4.005   26.1927
    4.020   26.1085
    4.035   26.1295
    4.050   24.8236
    4.065   24.2443
    4.080   23.6019
    4.095   23.9179
    4.110   23.0121
    4.125   21.6114
    4.140   21.1901
    4.155   20.8531
    4.170   19.4945
    4.185   19.7894
    4.200   18.3570
    4.215   17.5671
    4.230   16.9984
    4.245   16.9458
    4.260   15.3870
    4.275   14.6288
    4.290   14.3655
    4.305   13.8389
    4.320   13.7019
    4.335   12.7751
    4.350   12.2801
    4.365   12.3855
    4.380   11.8905
    4.395   11.3533
    4.410   10.5424
    4.425   10.5424
    4.440   10.7952
    4.455   10.2475
    4.470    9.7525
    4.485    9.3207
    4.500    9.6156
    4.515    9.4050
    4.530    8.5729
    4.545    8.3834
    4.560    8.3728
    4.575    8.1411
    4.590    8.1938
    4.605    7.7936
    4.620    7.5829
    4.635    7.8252
    4.650    7.6040
    4.665    7.4144
    4.680    7.4355
    4.695    7.2775
    4.710    7.5092
    4.725    7.2354
    4.740    7.2249
    4.755    7.2880
    4.770    7.0353
    4.785    6.4771
    4.800    6.6983
    4.815    6.9721
    4.830    6.4455
    4.845    6.4982
    4.860    6.4982
    4.875    6.3823
    4.890    6.5298
    4.905    6.7088
    4.920    6.6667
    4.935    6.4244
    4.950    6.6983
    4.965    6.4139
    4.980    6.4982
    4.995    6.5613
    5.010    5.9294
    5.025    6.2665
    5.040    6.5508
    5.055    6.6245
    5.070    6.7509
    5.085    6.6351
    5.100    6.4034
    5.115    6.6983
    5.130    6.3507
    5.145    6.2665
    5.160    6.3191
    5.175    6.4982
    5.190    6.4982
    5.205    6.5824
    5.220    6.3507
    5.235    6.6877
    5.250    7.2143
    5.265    7.2880
    5.280    7.0669
    5.295    7.1195
    5.310    7.1722
    5.325    6.8668
    5.340    7.3618
    5.355    8.0042
    5.370    7.8041
    5.385    8.4044
    5.400    8.2780
    5.415    8.6256
    5.430    8.9837
    5.445    9.2996
    5.460   10.5951
    5.475   11.5008
    5.490   12.5224
    5.505   12.8067
    5.520   12.3749
    5.535   10.9110
    5.550    8.7414
    5.565    7.0037
    5.580    6.0453
    5.595    5.5187
    5.610    5.1606
    5.625    5.1185
    5.640    5.3397
    5.655    5.3186
    5.670    5.3186
    5.685    5.1501
    5.700    5.3186
    5.715    4.9500
    5.730    5.2554
    5.745    4.7920
    5.760    4.7499
    5.775    4.7709
    5.790    4.7709
    5.805    5.0658
    5.820    5.1290
    5.835    5.0448
    5.850    5.0869
    5.865    4.8868
    5.880    4.8657
    5.895    5.0342
    5.910    5.0132
    5.925    4.9394
    5.940    4.7815
    5.955    5.0448
    5.970    5.2238
    5.985    4.9394
    6.000    4.8025
    6.015    5.0974
    6.030    5.1080
    6.045    5.0448
    6.060    5.2765
    6.075    4.9289
    6.090    5.1290
    6.105    4.9394
    6.120    4.8552
    6.135    4.6761
    6.150    4.8236
    6.165    4.8763
    6.180    4.9500
    6.195    5.0132
    6.210    4.7393
    6.225    5.0237
    6.240    5.2343
    6.255    5.1290
    6.270    4.9184
    6.285    5.2659
    6.300    5.1080
    6.315    4.9500
    6.330    5.3923
    6.345    5.5819
    6.360    5.4555
    6.375    5.2343
    6.390    5.3607
    6.405    5.1711
    6.420    5.3607
    6.435    5.1501
    6.450    5.7083
    6.465    5.4134
    6.480    5.2027
    6.495    5.1817
    6.510    5.4871
    6.525    6.0137
    6.540    5.7715
    6.555    5.9189
    6.570    6.0348
    6.585    5.9926
    6.600    6.2138
    6.615    6.2033
    6.630    6.2349
    6.645    6.6456
    6.660    6.8457
    6.675    6.8352
    6.690    7.5513
    6.705    7.3302
    6.720    8.0463
    6.735    8.4360
    6.750    8.2464
    6.765    8.4781
    6.780    8.4887
    6.795    8.5097
    6.810    7.7409
    6.825    7.6777
    6.840    8.2464
    6.855    8.4044
    6.870    8.7098
    6.885    9.0574
    6.900    9.3102
    6.915    9.2364
    6.930   10.1738
    6.945   10.2054
    6.960    9.8157
    6.975    9.8052
    6.990    9.5419
    7.005    9.1732
    7.020    9.3312
    7.035    8.6361
    7.050    8.1833
    7.065    7.6040
    7.080    7.4355
    7.095    7.1827
    7.110    6.8562
    7.125    6.3823
    7.140    6.2033
    7.155    6.0874
    7.170    5.7715
    7.185    5.9926
    7.200    5.8662
    7.215    5.9505
    7.230    5.6451
    7.245    5.4450
    7.260    5.4871
    7.275    5.5714
    7.290    5.5082
    7.305    5.4766
    7.320    5.4766
    7.335    5.5398
    7.350    5.5187
    7.365    5.2133
    7.380    5.2449
    7.395    5.2238
    7.410    5.6977
    7.425    5.4871
    7.440    5.5082
    7.455    5.3502
    7.470    5.4555
    7.485    5.3081
    7.500    5.4555
    7.515    5.5503
    7.530    5.2659
    7.545    5.1290
    7.560    5.0553
    7.575    5.4660
    7.590    6.0664
    7.605    5.6029
    7.620    6.0137
    7.635    6.0242
    7.650    6.0348
    7.665    6.0558
    7.680    6.3402
    7.695    5.9821
    7.710    6.0137
    7.725    6.6772
    7.740    6.4560
    7.755    6.3086
    7.770    7.0985
    7.785    7.1195
    7.800    7.5408
    7.815    7.4776
    7.830    7.1827
    7.845    6.8562
    7.860    6.0769
    7.875    6.2981
    7.890    6.2559
    7.905    5.9821
    7.920    6.2349
    7.935    6.1717
    7.950    6.2349
    7.965    6.4244
    7.980    6.1401
    7.995    5.8873
    8.010    6.0769
    8.025    6.0769
    8.040    6.2981
    8.055    6.0348
    8.070    5.9189
    8.085    6.3928
    8.100    6.3823
    8.115    6.2981
    8.130    6.3296
    8.145    6.3928
    8.160    6.0979
    8.175    5.6345
    8.190    6.0558
    8.205    6.3402
    8.220    6.2559
    8.235    6.0874
    8.250    5.6661
    8.265    6.0242
    8.280    5.9505
    8.295    6.2875
    8.310    5.9294
    8.325    5.8347
    8.340    5.9821
    8.355    5.8873
    8.370    5.5082
    8.385    5.4976
    8.400    5.3081
    8.415    5.6767
    8.430    5.7820
    8.445    5.5608
    8.460    5.4134
    8.475    5.1185
    8.490    5.3291
    8.505    5.6661
    8.520    5.5187
    8.535    5.4134
    8.550    5.5714
    8.565    5.4028
    8.580    5.2554
    8.595    5.2659
    8.610    5.1606
    8.625    5.0026
    8.640    5.2027
    8.655    5.1080
    8.670    5.1711
    8.685    5.3081
    8.700    5.1395
    8.715    5.4976
    8.730    5.4344
    8.745    5.2659
    8.760    4.9184
    8.775    5.0764
    8.790    4.8131
    8.805    4.6024
    8.820    4.7288
    8.835    4.8236
    8.850    4.8763
    8.865    4.7604
    8.880    4.8657
    8.895    4.6761
    8.910    4.7920
    8.925    4.8236
    8.940    4.4550
    8.955    4.8447
    8.970    4.8552
    8.985    4.6972
    9.000    4.5392
    9.015    4.4971
    9.030    4.4023
    9.045    4.9605
    9.060    4.7183
    9.075    4.5814
    9.090    4.6130
    9.105    4.5392
    9.120    4.6024
    9.135    4.8341
    9.150    4.7183
    9.165    4.4339
    9.180    4.4234
    9.195    5.0237
    9.210    4.8552
    9.225    4.7709
    9.240    4.8447
    9.255    4.8552
    9.270    4.8552
    9.285    4.6972
    9.300    4.7604
    9.315    4.7920
    9.330    4.6867
    9.345    5.1395
    9.360    5.2343
    9.375    4.5603
    9.390    5.0448
    9.405    5.2554
    9.420    5.3397
    9.435    5.4028
    9.450    5.4555
    9.465    5.6556
    9.480    5.3923
    9.495    5.9610
    9.510    6.3928
    9.525    7.0248
    9.540    7.2249
    9.555    7.5724
    9.570    7.8778
    9.585    7.5619
    9.600    7.3618
    9.615    6.2875
    9.630    5.1606
    9.645    4.6656
    9.660    4.6867
    9.675    4.3813
    9.690    4.5919
    9.705    4.3707
    9.720    4.2759
    9.735    4.0969
    9.750    4.3602
    9.765    4.5076
    9.780    4.1706
    9.795    3.8968
    9.810    4.4655
    9.825    4.3602
    9.840    4.4234
    9.855    4.2759
    9.870    4.2865
    9.885    4.2127
    9.900    4.1811
    9.915    4.5182
    9.930    4.2759
    9.945    4.5287
    9.960    4.1390
    9.975    4.2865
    9.990    4.1285
   10.005    4.4655
   10.020    4.4760
   10.035    4.2759
   10.050    4.4023
   10.065    4.7183
   10.080    4.5392
   10.095    4.6867
   10.110    4.5287
   10.125    4.8447
   10.140    4.6761
   10.155    4.5392
   10.170    4.5287
   10.185    4.7815
   10.200    4.6551
   10.215    4.4339
   10.230    4.7183
   10.245    4.5814
   10.260    4.8447
   10.275    5.6451
   10.290    5.0553
   10.305    5.5082
   10.320    5.5819
   10.335    5.6029
   10.350    5.6240
   10.365    5.5398
   10.380    5.4976
   10.395    5.0764
   10.410    5.1290
   10.425    4.9289
   10.440    4.5708
   10.455    4.5603
   10.470    4.7815
   10.485    4.8763
   10.500    4.4339
   10.515    4.2338
   10.530    4.7288
   10.545    4.7604
   10.560    4.4760
   10.575    4.6024
   10.590    4.3707
   10.605    3.9600
   10.620    4.2759
   10.635    4.3813
   10.650    4.4655
   10.665    4.2865
   10.680    4.4760
   10.695    4.4971
   10.710    4.3181
   10.725    4.1285
   10.740    4.0126
   10.755    4.1601
   10.770    4.7815
   10.785    4.8025
   10.800    4.2022
   10.815    4.3918
   10.830    4.4550
   10.845    4.3918
   10.860    4.2338
   10.875    4.2970
   10.890    4.4760
   10.905    4.3497
   10.920    4.4023
   10.935    4.3813
   10.950    4.2338
   10.965    4.7288
   10.980    4.8657
   10.995    4.7393
   11.010    4.7709
   11.025    5.1290
   11.040    5.5082
   11.055    5.7083
   11.070    5.1922
   11.085    5.2870
   11.100    5.1395
   11.115    4.6972
   11.130    4.4339
   11.145    4.4444
   11.160    4.2233
   11.175    4.4234
   11.190    4.2654
   11.205    4.4760
   11.220    4.1811
   11.235    4.1285
   11.250    4.4971
   11.265    4.1390
   11.280    4.3602
   11.295    4.3181
   11.310    4.2865
   11.325    4.3286
   11.340    4.6867
   11.355    4.4971
   11.370    4.3602
   11.385    4.3707
   11.400    4.0021
   11.415    4.3391
   11.430    4.5814
   11.445    4.4128
   11.460    4.4760
   11.475    4.2443
   11.490    4.5076
   11.505    4.4023
   11.520    4.1601
   11.535    4.5076
   11.550    4.7815
   11.565    4.4866
   11.580    4.1601
   11.595    4.4339
   11.610    4.3707
   11.625    4.5919
   11.640    4.7288
   11.655    4.5708
   11.670    4.8973
   11.685    4.9816
   11.700    5.4450
   11.715    5.5608
   11.730    5.3502
   11.745    5.4766
   11.760    5.4239
   11.775    5.1501
   11.790    4.9078
   11.805    4.3707
   11.820    4.3813
   11.835    4.6340
   11.850    4.7288
   11.865    4.4760
   11.880    4.2759
   11.895    4.3918
   11.910    4.3918
   11.925    4.5182
   11.940    4.2865
   11.955    4.7288
   11.970    4.7077
   11.985    4.3602
   12.000    4.5287
   12.015    4.3391
   12.030    4.3075
   12.045    4.5287
   12.060    4.3181
   12.075    4.4339
   12.090    4.7183
   12.105    4.4971
   12.120    4.7393
   12.135    4.4760
   12.150    4.3707
   12.165    4.3075
   12.180    4.3391
   12.195    4.3075
   12.210    4.4866
   12.225    4.2127
   12.240    4.4339
   12.255    4.5498
   12.270    4.5814
   12.285    4.5814
   12.300    4.5708
   12.315    4.3497
   12.330    4.8131
   12.345    4.7183
   12.360    4.5708
   12.375    4.7499
   12.390    4.7604
   12.405    4.7920
   12.420    4.3918
   12.435    4.2865
   12.450    4.3602
   12.465    4.6867
   12.480    4.4655
   12.495    4.3391
   12.510    4.4760
   12.525    4.4550
   12.540    4.5498
   12.555    4.5287
   12.570    4.4339
   12.585    4.3602
   12.600    4.3918
   12.615    4.7393
   12.630    4.5603
   12.645    5.0026
   12.660    4.6761
   12.675    4.5392
   12.690    4.5814
   12.705    4.4023
   12.720    4.6445
   12.735    4.5603
   12.750    4.4444
   12.765    4.5498
   12.780    4.7604
   12.795    4.5182
   12.810    4.6024
   12.825    4.2443
   12.840    4.6761
   12.855    4.9078
   12.870    4.8447
   12.885    4.9500
   12.900    4.9921
   12.915    4.8868
   12.930    4.9500
   12.945    5.1817
   12.960    5.1817
   12.975    4.6972
   12.990    5.1606
   13.005    5.0869
   13.020    5.0237
   13.035    4.8868
   13.050    4.3497
   13.065    4.4444
   13.080    4.1074
   13.095    4.2443
   13.110    4.2443
   13.125    4.1601
   13.140    4.3391
   13.155    4.3497
   13.170    4.2654
   13.185    4.4444
   13.200    4.2865
   13.215    4.2549
   13.230    4.2338
   13.245    4.1496
   13.260    4.4550
   13.275    4.8868
   13.290    4.3391
   13.305    4.6551
   13.320    4.9921
   13.335    4.3391
   13.350    4.5392
   13.365    4.7604
   13.380    4.4444
   13.395    4.1285
   13.410    4.0021
   13.425    4.3075
   13.440    4.6445
   13.455    4.3181
   13.470    4.2443
   13.485    4.3602
   13.500    4.1706
   13.515    4.6340
   13.530    4.5603
   13.545    4.7920
   13.560    4.6024
   13.575    4.4444
   13.590    4.5919
   13.605    4.4234
   13.620    4.4550
   13.635    4.5498
   13.650    4.4550
   13.665    4.1496
   13.680    4.2970
   13.695    4.0864
   13.710    4.3286
   13.725    4.2759
   13.740    4.2443
   13.755    4.1496
   13.770    4.4128
   13.785    4.3707
   13.800    4.1074
   13.815    4.0653
   13.830    4.3813
   13.845    4.3391
   13.860    4.2127
   13.875    4.5182
   13.890    4.4444
   13.905    4.4128
   13.920    4.2759
   13.935    4.1496
   13.950    4.3497
   13.965    4.2865
   13.980    4.2759
   13.995    4.2127
   14.010    4.1180
   14.025    4.3813
   14.040    4.6024
   14.055    4.3602
   14.070    4.6130
   14.085    4.9605
   14.100    4.9500
   14.115    5.0869
   14.130    5.1606
   14.145    4.5814
   14.160    4.6972
   14.175    4.4760
   14.190    4.5603
   14.205    4.4023
   14.220    4.5392
   14.235    4.1706
   14.250    4.2970
   14.265    4.1601
   14.280    4.1496
   14.295    4.2654
   14.310    4.2338
   14.325    4.2338
   14.340    4.3707
   14.355    4.2233
   14.370    4.1917
   14.385    4.0021
   14.400    4.1180
   14.415    4.2022
   14.430    4.2443
   14.445    4.3497
   14.460    4.2865
   14.475    3.9705
   14.490    3.9810
   14.505    3.9389
   14.520    4.1074
   14.535    4.2970
   14.550    4.3075
   14.565    4.1285
   14.580    4.1074
   14.595    4.4866
   14.610    4.3075
   14.625    4.1601
   14.640    4.0442
   14.655    4.0548
   14.670    4.0653
   14.685    3.8336
   14.700    4.0337
   14.715    4.3918
   14.730    4.1706
   14.745    4.1601
   14.760    4.2654
   14.775    3.9389
   14.790    4.1917
   14.805    4.1917
   14.820    4.1496
   14.835    4.1285
   14.850    4.0021
   14.865    4.1390
   14.880    4.3602
   14.895    3.9810
   14.910    4.2233
   14.925    4.2654
   14.940    4.2970
   14.955    3.9389
   14.970    3.9073
   14.985    4.3813
   15.000    4.1390
   15.015    4.1074
   15.030    4.2443
   15.045    4.3286
   15.060    4.0758
   15.075    4.0864
   15.090    4.2654
   15.105    4.2443
   15.120    4.0548
   15.135    4.2127
   15.150    4.1706
   15.165    4.4339
   15.180    4.2233
   15.195    4.3707
   15.210    4.4023
   15.225    4.2970
   15.240    4.4023
   15.255    4.3813
   15.270    4.0126
   15.285    4.2022
   15.300    4.3075
   15.315    4.0442
   15.330    3.7809
   15.345    4.0758
   15.360    4.2549
   15.375    4.5287
   15.390    3.9916
   15.405    4.1285
   15.420    3.9600
   15.435    4.2022
   15.450    4.4971
   15.465    4.1811
   15.480    4.2338
   15.495    4.4023
   15.510    4.0864
   15.525    4.0126
   15.540    4.1706
   15.555    3.9600
   15.570    4.4128
   15.585    4.5708
   15.600    4.3497
   15.615    4.1180
   15.630    4.2759
   15.645    3.9600
   15.660    4.1390
   15.675    4.0548
   15.690    4.1601
   15.705    4.1496
   15.720    4.1917
   15.735    4.4866
   15.750    4.3075
   15.765    3.8757
   15.780    4.1706
   15.795    4.2654
   15.810    4.0969
   15.825    3.9389
   15.840    4.0021
   15.855    4.0653
   15.870    3.9810
   15.885    4.3286
   15.900    4.1917
   15.915    4.1390
   15.930    4.2443
   15.945    4.2022
   15.960    4.0442
   15.975    3.9916
   15.990    4.1706
   16.005    4.2127
   16.020    3.8547
   16.035    3.9284
   16.050    4.0653
   16.065    4.0442
   16.080    4.0337
   16.095    4.0653
   16.110    4.7393
   16.125    4.2759
   16.140    4.3707
   16.155    4.2338
   16.170    4.0548
   16.185    4.3918
   16.200    4.4234
   16.215    4.0126
   16.230    4.0758
   16.245    4.2022
   16.260    4.4444
   16.275    4.2127
   16.290    3.9705
   16.305    4.1074
   16.320    4.1074
   16.335    3.8652
   16.350    4.2233
   16.365    4.2338
   16.380    3.9916
   16.395    4.2338
   16.410    4.5498
   16.425    4.0126
   16.440    4.3497
   16.455    4.2022
   16.470    4.1285
   16.485    4.2549
   16.500    4.3813
   16.515    4.4234
   16.530    4.1601
   16.545    4.3075
   16.560    4.2127
   16.575    4.3075
   16.590    4.1917
   16.605    4.0864
   16.620    4.2549
   16.635    4.2127
   16.650    4.2759
   16.665    4.2654
   16.680    4.2338
   16.695    4.2759
   16.710    4.0653
   16.725    3.9389
   16.740    4.2127
   16.755    4.3075
   16.770    4.1180
   16.785    3.9916
   16.800    4.1706
   16.815    4.1601
   16.830    3.9916
   16.845    4.1390
   16.860    4.2443
   16.875    4.0758
   16.890    3.9494
   16.905    3.9810
   16.920    4.1180
   16.935    4.0232
   16.950    4.1917
   16.965    4.0758
   16.980    4.2233
   16.995    4.3286
   17.010    4.2338
   17.025    4.4760
   17.040    4.6235
   17.055    4.6024
   17.070    4.6551
   17.085    4.6235
   17.100    4.5182
   17.115    4.6340
   17.130    4.3497
   17.145    4.5708
   17.160    4.6445
   17.175    4.1811
   17.190    4.1601
   17.205    4.1285
   17.220    4.2338
   17.235    4.3181
   17.250    4.0021
   17.265    4.2759
   17.280    4.3075
   17.295    4.0442
   17.310    3.9284
   17.325    4.1390
   17.340    4.1390
   17.355    4.3075
   17.370    4.2338
   17.385    3.7388
   17.400    3.8547
   17.415    4.1917
   17.430    4.1074
   17.445    3.9810
   17.460    4.0021
   17.475    4.0653
   17.490    4.0864
   17.505    4.5392
   17.520    4.8131
   17.535    4.5919
   17.550    4.3075
   17.565    4.1180
   17.580    4.1917
   17.595    4.0653
   17.610    4.1917
   17.625    4.3707
   17.640    4.2549
   17.655    4.0337
   17.670    4.3813
   17.685    3.9705
   17.700    4.4128
   17.715    4.1706
   17.730    4.3181
   17.745    4.3813
   17.760    4.3286
   17.775    4.5814
   17.790    4.5498
   17.805    4.2338
   17.820    4.5603
   17.835    4.3707
   17.850    4.2654
   17.865    3.9389
   17.880    4.2970
   17.895    4.4444
   17.910    4.4128
   17.925    4.2549
   17.940    4.2338
   17.955    4.2338
   17.970    4.3075
   17.985    4.2233
   18.000    4.3497
   18.015    4.2970
   18.030    4.1496
   18.045    4.0653
   18.060    4.3075
   18.075    4.3497
   18.090    4.1706
   18.105    4.1917
   18.120    4.6445
   18.135    4.3391
   18.150    3.9494
   18.165    4.0758
   18.180    4.2759
   18.195    4.2865
   18.210    4.2338
   18.225    3.9916
   18.240    4.0969
   18.255    3.9179
   18.270    4.2865
   18.285    4.2338
   18.300    4.4234
   18.315    4.4760
   18.330    4.2759
   18.345    4.3497
   18.360    4.2970
   18.375    4.1496
   18.390    4.4339
   18.405    4.4234
   18.420    4.6340
   18.435    4.2759
   18.450    4.2127
   18.465    4.4655
   18.480    4.1917
   18.495    4.1601
   18.510    4.4971
   18.525    4.2022
   18.540    4.0864
   18.555    4.1706
   18.570    3.9600
   18.585    4.5182
   18.600    4.5919
   18.615    4.4339
   18.630    3.8336
   18.645    3.9916
   18.660    4.1706
   18.675    4.3181
   18.690    4.2654
   18.705    4.2443
   18.720    4.1706
   18.735    4.0653
   18.750    4.3286
   18.765    4.4339
   18.780    4.3497
   18.795    4.2549
   18.810    4.3075
   18.825    4.4550
   18.840    4.1811
   18.855    4.3075
   18.870    4.3813
   18.885    4.1706
   18.900    4.0864
   18.915    4.1496
   18.930    3.9810
   18.945    4.1180
   18.960    4.3286
   18.975    4.5287
   18.990    4.4760
   19.005    4.4550
   19.020    4.3497
   19.035    4.2759
   19.050    4.0548
   19.065    4.2759
   19.080    4.0442
   19.095    4.2233
   19.110    4.1180
   19.125    4.0864
   19.140    4.0653
   19.155    4.2443
   19.170    4.2865
   19.185    4.3707
   19.200    4.6972
   19.215    4.4866
   19.230    4.5708
   19.245    4.3602
   19.260    4.4444
   19.275    4.0548
   19.290    4.2865
   19.305    4.2338
   19.320    4.4023
   19.335    4.4023
   19.350    4.3707
   19.365    4.3075
   19.380    4.3075
   19.395    4.3707
   19.410    3.8968
   19.425    4.4339
   19.440    4.4023
   19.455    4.0969
   19.470    3.9284
   19.485    4.1496
   19.500    4.3181
   19.515    4.6130
   19.530    4.5919
   19.545    4.7499
   19.560    4.6024
   19.575    4.2759
   19.590    4.5603
   19.605    4.6340
   19.620    4.5287
   19.635    4.6340
   19.650    4.6445
   19.665    4.4971
   19.680    4.7183
   19.695    4.8025
   19.710    4.6656
   19.725    4.5708
   19.740    4.3813
   19.755    4.4023
   19.770    4.3813
   19.785    4.5182
   19.800    4.4339
   19.815    4.5392
   19.830    4.4971
   19.845    4.6761
   19.860    4.4234
   19.875    4.3707
   19.890    4.2338
   19.905    4.5603
   19.920    4.4444
   19.935    4.5603
   19.950    4.3286
   19.965    4.0548
   19.980    4.1285
   19.995    4.3075
   20.010    4.4444
   20.025    4.4128
   20.040    4.5603
   20.055    4.1496
   20.070    4.5498
   20.085    4.4760
   20.100    4.4971
   20.115    4.4866
   20.130    4.1601
   20.145    4.7183
   20.160    4.5814
   20.175    4.4234
   20.190    4.3286
   20.205    4.6551
   20.220    4.5392
   20.235    4.6024
   20.250    4.6972
   20.265    4.5182
   20.280    4.6867
   20.295    4.6235
   20.310    4.8341
   20.325    4.7920
   20.340    4.5708
   20.355    4.5708
   20.370    4.8763
   20.385    4.6340
   20.400    4.3707
   20.415    4.1496
   20.430    4.6130
   20.445    4.8341
   20.460    4.7183
   20.475    4.8447
   20.490    4.5182
   20.505    4.6551
   20.520    4.2865
   20.535    4.5182
   20.550    4.4023
   20.565    4.4760
   20.580    4.3918
   20.595    4.6235
   20.610    4.4655
   20.625    4.3813
   20.640    4.2970
   20.655    4.4128
   20.670    4.2865
   20.685    4.3391
   20.700    4.7920
   20.715    4.4971
   20.730    4.7077
   20.745    4.3391
   20.760    4.4866
   20.775    4.4444
   20.790    4.2654
   20.805    4.3602
   20.820    4.6024
   20.835    4.8341
   20.850    4.6445
   20.865    4.7604
   20.880    4.4760
   20.895    4.4444
   20.910    4.5603
   20.925    4.6130
   20.940    4.4760
   20.955    4.3075
   20.970    4.6235
   20.985    4.7183
   21.000    4.5287
   21.015    4.6761
   21.030    4.6972
   21.045    4.2865
   21.060    4.3813
   21.075    4.5919
   21.090    4.6024
   21.105    4.3286
   21.120    4.6867
   21.135    4.5498
   21.150    4.2233
   21.165    4.8552
   21.180    4.4234
   21.195    4.5182
   21.210    4.6867
   21.225    4.2549
   21.240    3.8652
   21.255    4.1496
   21.270    4.2022
   21.285    4.5708
   21.300    4.4234
   21.315    4.4444
   21.330    4.6761
   21.345    4.3602
   21.360    4.4866
   21.375    4.4128
   21.390    4.6340
   21.405    4.6130
   21.420    4.5814
   21.435    4.3497
   21.450    4.6235
   21.465    4.3391
   21.480    4.3602
   21.495    4.4023
   21.510    4.6024
   21.525    4.4971
   21.540    4.4234
   21.555    4.7499
   21.570    4.5182
   21.585    4.6340
   21.600    4.6445
   21.615    4.6024
   21.630    4.4128
   21.645    4.7499
   21.660    4.5182
   21.675    4.1285
   21.690    4.3181
   21.705    4.5498
   21.720    4.4550
   21.735    4.7183
   21.750    4.6130
   21.765    4.3602
   21.780    4.6656
   21.795    4.7288
   21.810    4.1917
   21.825    4.8341
   21.840    4.8341
   21.855    5.0448
   21.870    4.8447
   21.885    4.6340
   21.900    4.2233
   21.915    4.8131
   21.930    4.8657
   21.945    5.0658
   21.960    4.8341
   21.975    4.8552
   21.990    4.8657
   22.005    4.6445
   22.020    4.5182
   22.035    4.6130
   22.050    4.5392
   22.065    4.3918
   22.080    4.4866
   22.095    4.4234
   22.110    4.5076
   22.125    4.3707
   22.140    4.5392
   22.155    4.6130
   22.170    4.4234
   22.185    4.2759
   22.200    4.5919
   22.215    4.5814
   22.230    4.4550
   22.245    4.6867
   22.260    4.6551
   22.275    4.8341
   22.290    4.5814
   22.305    4.2654
   22.320    4.5919
   22.335    4.3707
   22.350    4.3602
   22.365    4.5708
   22.380    4.5814
   22.395    4.4128
   22.410    4.2022
   22.425    4.5287
   22.440    4.4444
   22.455    4.4128
   22.470    4.6761
   22.485    4.5603
   22.500    4.6235
   22.515    4.9394
   22.530    4.7499
   22.545    4.8868
   22.560    4.8763
   22.575    5.0869
   22.590    5.1395
   22.605    4.9078
   22.620    4.9710
   22.635    5.0237
   22.650    5.0974
   22.665    4.8131
   22.680    4.5498
   22.695    4.6024
   22.710    4.2865
   22.725    4.7815
   22.740    4.2759
   22.755    4.3707
   22.770    4.2549
   22.785    4.3918
   22.800    4.7920
   22.815    4.6972
   22.830    4.5814
   22.845    4.4023
   22.860    4.7183
   22.875    4.9184
   22.890    4.9078
   22.905    4.9921
   22.920    5.1817
   22.935    4.7709
   22.950    5.1817
   22.965    5.0553
   22.980    4.7815
   22.995    4.6551
   23.010    4.9816
   23.025    4.9289
   23.040    4.5603
   23.055    4.6235
   23.070    4.6972
   23.085    4.7604
   23.100    4.5708
   23.115    4.4655
   23.130    4.1074
   23.145    4.3918
   23.160    4.5392
   23.175    4.4550
   23.190    4.1496
   23.205    4.5498
   23.220    4.2338
   23.235    4.5287
   23.250    4.8552
   23.265    4.5392
   23.280    4.5814
   23.295    4.4866
   23.310    5.0869
   23.325    5.0974
   23.340    4.7604
   23.355    4.3813
   23.370    4.2127
   23.385    4.4760
   23.400    4.4339
   23.415    4.4655
   23.430    4.2865
   23.445    4.2654
   23.460    4.0969
   23.475    4.2338
   23.490    4.5076
   23.505    4.8447
   23.520    4.5708
   23.535    4.2338
   23.550    4.3813
   23.565    4.3707
   23.580    4.5182
   23.595    4.3707
   23.610    4.3286
   23.625    4.4550
   23.640    4.4234
   23.655    4.2654
   23.670    4.4128
   23.685    4.5392
   23.700    4.4655
   23.715    4.5498
   23.730    4.3813
   23.745    4.2338
   23.760    4.3391
   23.775    4.5076
   23.790    4.7077
   23.805    4.2759
   23.820    4.5182
   23.835    4.5814
   23.850    4.3918
   23.865    4.7288
   23.880    4.6551
   23.895    4.6130
   23.910    4.5498
   23.925    4.6761
   23.940    4.7499
   23.955    4.4760
   23.970    4.7604
   23.985    4.7077
   24.000    4.3707
   24.015    4.4971
   24.030    4.6024
   24.045    4.3707
   24.060    4.3497
   24.075    4.3391
   24.090    4.4760
   24.105    4.1917
   24.120    4.1601
   24.135    4.7077
   24.150    4.6024
   24.165    4.5392
   24.180    4.4444
   24.195    4.4655
   24.210    4.1285
   24.225    4.2443
   24.240    4.4550
   24.255    4.4023
   24.270    4.5814
   24.285    4.6656
   24.300    4.6024
   24.315    4.2970
   24.330    4.3286
   24.345    4.3602
   24.360    3.9916
   24.375    3.9179
   24.390    4.5076
   24.405    4.1285
   24.420    4.3813
   24.435    4.6445
   24.450    4.4971
   24.465    4.6235
   24.480    4.6130
   24.495    4.4971
   24.510    4.4444
   24.525    4.2759
   24.540    4.1496
   24.555    4.4550
   24.570    4.5392
   24.585    4.4760
   24.600    4.2549
   24.615    4.4760
   24.630    4.6340
   24.645    4.6130
   24.660    4.2443
   24.675    4.2443
   24.690    4.5076
   24.705    4.4760
   24.720    4.4550
   24.735    4.3391
   24.750    4.3602
   24.765    4.2022
   24.780    4.4655
   24.795    4.4234
   24.810    4.1180
   24.825    4.2127
   24.840    4.0864
   24.855    3.9494
   24.870    4.0337
   24.885    4.3813
   24.900    4.2865
   24.915    4.2127
   24.930    3.9705
   24.945    4.3391
   24.960    3.9705
   24.975    4.1496
   24.990    4.6972
   25.005    4.3707
   25.020    4.2233
   25.035    4.3918
   25.050    4.2549
   25.065    4.0653
   25.080    3.7599
   25.095    4.1285
   25.110    4.0126
   25.125    4.2865
   25.140    4.1811
   25.155    4.2654
   25.170    4.2338
   25.185    4.3497
   25.200    4.1917
   25.215    4.3391
   25.230    4.4128
   25.245    4.1706
   25.260    4.1496
   25.275    4.1601
   25.290    4.1706
   25.305    4.3391
   25.320    4.3707
   25.335    4.8447
   25.350    4.4444
   25.365    4.1601
   25.380    3.9600
   25.395    4.1811
   25.410    4.1390
   25.425    4.2759
   25.440    4.3813
   25.455    4.3075
   25.470    3.9916
   25.485    4.5603
   25.500    4.0758
   25.515    4.2233
   25.530    4.1601
   25.545    4.3497
   25.560    4.1285
   25.575    4.2759
   25.590    4.5076
   25.605    4.1811
   25.620    4.0021
   25.635    4.2549
   25.650    4.3286
   25.665    4.2443
   25.680    4.0021
   25.695    4.2759
   25.710    4.2443
   25.725    4.2338
   25.740    4.3391
   25.755    3.9705
   25.770    4.0126
   25.785    4.0442
   25.800    4.3286
   25.815    4.4760
   25.830    4.5498
   25.845    4.6972
   25.860    4.5182
   25.875    4.2759
   25.890    4.5708
   25.905    4.7183
   25.920    4.4128
   25.935    4.2970
   25.950    4.3075
   25.965    4.1496
   25.980    4.4866
   25.995    4.0758
   26.010    4.0337
   26.025    4.0548
   26.040    4.1917
   26.055    4.1285
   26.070    3.9073
   26.085    4.0969
   26.100    3.9916
   26.115    4.2127
   26.130    4.1917
   26.145    4.0758
   26.160    4.1496
   26.175    4.0969
   26.190    4.0337
   26.205    4.1285
   26.220    4.2022
   26.235    3.8968
   26.250    4.0337
   26.265    4.2022
   26.280    4.2654
   26.295    4.2127
   26.310    4.3391
   26.325    4.2549
   26.340    4.0548
   26.355    3.9705
   26.370    4.0232
   26.385    4.0653
   26.400    4.2759
   26.415    4.3497
   26.430    4.0021
   26.445    4.0337
   26.460    4.3181
   26.475    4.0021
   26.490    4.3497
   26.505    4.4023
   26.520    3.8968
   26.535    3.9916
   26.550    4.2022
   26.565    3.9284
   26.580    3.8547
   26.595    4.1285
   26.610    4.1074
   26.625    3.9179
   26.640    3.9179
   26.655    3.8336
   26.670    3.6546
   26.685    3.8652
   26.700    4.1390
   26.715    4.0126
   26.730    3.6651
   26.745    3.9284
   26.760    3.9916
   26.775    3.8863
   26.790    4.0653
   26.805    4.0653
   26.820    3.8757
   26.835    3.6756
   26.850    4.1180
   26.865    4.0442
   26.880    3.7599
   26.895    4.2338
   26.910    4.3497
   26.925    3.9494
   26.940    3.8231
   26.955    3.5808
   26.970    3.8336
   26.985    3.8968
   27.000    3.7915
   27.015    4.2022
   27.030    3.8231
   27.045    3.9284
   27.060    3.9600
   27.075    3.8231
   27.090    4.0653
   27.105    4.0653
   27.120    4.0442
   27.135    4.0021
   27.150    3.8020
   27.165    4.0021
   27.180    3.9705
   27.195    3.7283
   27.210    3.9179
   27.225    3.7388
   27.240    3.9179
   27.255    3.8547
   27.270    3.4544
   27.285    3.7704
   27.300    4.1706
   27.315    4.0126
   27.330    4.0442
   27.345    4.0548
   27.360    3.7177
   27.375    4.0021
   27.390    3.8547
   27.405    4.0337
   27.420    3.9810
   27.435    4.2127
   27.450    3.9073
   27.465    3.9284
   27.480    4.1074
   27.495    3.9916
   27.510    4.0758
   27.525    4.0548
   27.540    3.7915
   27.555    4.0548
   27.570    4.0126
   27.585    3.9494
   27.600    3.8547
   27.615    3.8968
   27.630    4.0653
   27.645    4.0021
   27.660    4.0337
   27.675    3.9810
   27.690    4.0653
   27.705    3.9600
   27.720    3.6440
   27.735    4.1285
   27.750    4.0864
   27.765    4.2022
   27.780    4.2443
   27.795    4.2233
   27.810    3.8863
   27.825    4.3181
   27.840    3.9389
   27.855    3.8441
   27.870    3.6967
   27.885    3.9284
   27.900    3.9179
   27.915    3.8441
   27.930    3.7493
   27.945    3.7809
   27.960    3.9600
   27.975    3.7388
   27.990    4.0126
   28.005    3.8547
   28.020    4.0758
   28.035    4.2127
   28.050    4.1285
   28.065    4.0021
   28.080    4.0864
   28.095    4.0126
   28.110    4.0442
   28.125    3.8863
   28.140    4.0232
   28.155    3.9600
   28.170    4.2127
   28.185    4.0969
   28.200    4.0969
   28.215    4.1180
   28.230    3.6862
   28.245    3.6862
   28.260    3.8968
   28.275    3.9073
   28.290    4.2865
   28.305    4.3075
   28.320    3.6967
   28.335    4.1285
   28.350    3.9073
   28.365    4.2233
   28.380    3.7809
   28.395    3.9073
   28.410    4.0758
   28.425    3.9284
   28.440    3.7915
   28.455    4.1811
   28.470    4.0758
   28.485    3.9916
   28.500    3.7388
   28.515    4.0969
   28.530    4.1706
   28.545    4.1074
   28.560    4.0969
   28.575    4.1811
   28.590    3.9494
   28.605    3.8652
   28.620    3.9494
   28.635    3.8652
   28.650    3.7283
   28.665    4.0969
   28.680    4.1180
   28.695    3.8441
   28.710    3.8441
   28.725    4.0021
   28.740    3.8652
   28.755    3.9179
   28.770    4.0232
   28.785    3.9600
   28.800    3.8547
   28.815    3.7388
   28.830    3.8125
   28.845    4.0232
   28.860    3.8757
   28.875    3.9705
   28.890    3.7915
   28.905    3.8231
   28.920    3.9389
   28.935    3.9284
   28.950    4.0758
   28.965    4.0969
   28.980    3.6756
   28.995    3.6651
   29.010    3.5492
   29.025    3.7177
   29.040    3.8547
   29.055    3.6967
   29.070    3.8125
   29.085    4.0969
   29.100    3.9705
   29.115    3.8336
   29.130    3.7599
   29.145    3.8441
   29.160    3.6335
   29.175    3.5282
   29.190    3.7177
   29.205    3.6019
   29.220    3.5808
   29.235    3.9179
   29.250    3.7915
   29.265    3.8757
   29.280    3.7072
   29.295    3.9179
   29.310    3.9810
   29.325    4.1496
   29.340    4.0653
   29.355    3.9810
   29.370    3.5808
   29.385    3.6756
   29.400    3.7493
   29.415    3.8547
   29.430    3.6440
   29.445    3.6440
   29.460    3.7704
   29.475    3.6651
   29.490    3.6230
   29.505    3.5282
   29.520    3.6967
   29.535    3.6862
   29.550    3.5808
   29.565    3.8441
   29.580    3.8125
   29.595    3.6440
   29.610    3.8441
   29.625    4.1180
   29.640    3.7388
   29.655    3.5176
   29.670    3.7493
   29.685    3.8231
   29.700    3.7493
   29.715    3.6230
   29.730    3.5282
   29.745    3.5914
   29.760    3.7915
   29.775    3.5598
   29.790    3.7493
   29.805    3.8652
   29.820    3.6967
   29.835    3.8757
   29.850    3.6230
   29.865    3.8336
   29.880    3.8863
   29.895    3.8547
   29.910    3.9179
   29.925    3.6335
   29.940    3.6862
   29.955    4.0758
   29.970    3.7072
   29.985    3.9389
   30.000    3.8547
   30.015    3.7493
   30.030    3.5492
   30.045    3.7388
   30.060    3.8125
   30.075    3.8231
   30.090    3.7704
   30.105    3.6019
   30.120    3.6651
   30.135    3.7809
   30.150    3.9705
   30.165    4.1917
   30.180    4.0758
   30.195    3.8125
   30.210    3.7283
   30.225    3.5071
   30.240    3.4018
   30.255    3.3175
   30.270    3.6967
   30.285    3.8125
   30.300    3.8336
   30.315    3.4966
   30.330    3.7388
   30.345    3.6335
   30.360    3.5598
   30.375    3.3807
   30.390    3.6756
   30.405    3.6862
   30.420    3.8336
   30.435    3.5914
   30.450    3.6862
   30.465    3.6335
   30.480    3.8336
   30.495    3.5703
   30.510    3.5598
   30.525    3.8652
   30.540    3.6230
   30.555    3.9073
   30.570    4.0126
   30.585    3.7493
   30.600    3.8441
   30.615    3.9705
   30.630    3.6440
   30.645    3.4755
   30.660    3.5598
   30.675    3.6335
   30.690    3.8863
   30.705    3.8757
   30.720    3.4966
   30.735    3.6546
   30.750    3.7388
   30.765    3.6440
   30.780    3.7704
   30.795    3.6862
   30.810    3.7388
   30.825    3.6335
   30.840    3.6651
   30.855    3.4018
   30.870    3.6335
   30.885    3.5703
   30.900    3.7388
   30.915    3.6440
   30.930    3.5387
   30.945    3.6546
   30.960    3.7493
   30.975    3.3175
   30.990    3.4334
   31.005    3.6440
   31.020    3.4966
   31.035    3.6651
   31.050    3.4229
   31.065    3.7915
   31.080    3.6335
   31.095    3.4860
   31.110    3.5598
   31.125    3.4860
   31.140    3.6967
   31.155    3.4860
   31.170    3.7177
   31.185    3.6862
   31.200    3.5703
   31.215    3.3597
   31.230    3.6124
   31.245    3.4966
   31.260    3.4650
   31.275    3.6019
   31.290    3.4123
   31.305    3.5703
   31.320    3.4544
   31.335    3.6335
   31.350    3.6440
   31.365    3.6967
   31.380    3.9179
   31.395    3.4650
   31.410    3.7283
   31.425    3.4860
   31.440    3.7493
   31.455    3.7072
   31.470    3.6967
   31.485    3.4229
   31.500    3.2649
   31.515    3.4650
   31.530    3.5071
   31.545    3.5071
   31.560    3.4439
   31.575    3.4123
   31.590    3.5282
   31.605    3.6756
   31.620    3.6651
   31.635    3.7493
   31.650    3.6862
   31.665    3.4755
   31.680    3.6440
   31.695    3.4966
   31.710    3.6862
   31.725    3.6124
   31.740    3.5282
   31.755    3.4229
   31.770    3.6230
   31.785    3.8968
   31.800    3.8652
   31.815    3.9284
   31.830    3.4966
   31.845    3.7388
   31.860    3.7493
   31.875    3.6440
   31.890    3.7915
   31.905    3.8231
   31.920    3.5387
   31.935    3.2543
   31.950    3.2649
   31.965    3.6967
   31.980    3.6546
   31.995    3.8125
   32.010    3.5387
   32.025    3.6651
   32.040    3.5598
   32.055    3.5492
   32.070    3.5914
   32.085    3.9494
   32.100    4.1285
   32.115    3.8441
   32.130    3.6230
   32.145    3.7599
   32.160    3.6862
   32.175    3.6651
   32.190    3.6546
   32.205    3.6967
   32.220    3.6862
   32.235    3.3702
   32.250    3.3070
   32.265    3.6756
   32.280    3.4439
   32.295    3.2965
   32.310    3.4229
   32.325    3.7283
   32.340    3.5598
   32.355    3.5808
   32.370    3.3491
   32.385    3.5176
   32.400    3.3597
   32.415    3.4544
   32.430    3.3597
   32.445    3.1069
   32.460    3.5282
   32.475    3.3597
   32.490    3.2227
   32.505    3.2017
   32.520    3.4439
   32.535    3.3175
   32.550    3.4544
   32.565    3.5176
   32.580    3.3386
   32.595    3.6019
   32.610    3.2859
   32.625    3.2438
   32.640    3.5492
   32.655    3.2122
   32.670    3.4229
   32.685    3.6546
   32.700    3.4123
   32.715    3.4334
   32.730    3.5598
   32.745    3.6440
   32.760    3.4966
   32.775    3.4229
   32.790    3.5071
   32.805    3.4018
   32.820    3.1596
   32.835    3.3913
   32.850    3.4439
   32.865    3.4018
   32.880    3.2438
   32.895    2.9805
   32.910    2.9700
   32.925    3.1069
   32.940    3.3175
   32.955    3.6019
   32.970    3.4650
   32.985    3.4229
   33.000    3.4334
   33.015    3.3070
   33.030    3.3807
   33.045    3.2754
   33.060    3.0542
   33.075    3.4544
   33.090    3.2754
   33.105    3.4544
   33.120    3.1280
   33.135    3.0858
   33.150    3.3491
   33.165    3.1701
   33.180    3.4123
   33.195    3.1806
   33.210    3.0964
   33.225    3.3070
   33.240    3.3070
   33.255    3.1280
   33.270    3.1701
   33.285    3.5176
   33.300    3.7177
   33.315    3.3281
   33.330    3.2438
   33.345    3.3491
   33.360    3.2333
   33.375    3.0016
   33.390    3.0121
   33.405    3.0648
   33.420    3.1490
   33.435    3.2438
   33.450    3.4018
   33.465    3.3491
   33.480    3.2543
   33.495    3.0542
   33.510    3.0858
   33.525    3.2543
   33.540    3.4650
   33.555    3.2333
   33.570    3.0648
   33.585    3.1174
   33.600    3.1069
   33.615    3.0542
   33.630    3.2227
   33.645    3.2649
   33.660    3.1490
   33.675    3.2859
   33.690    3.6546
   33.705    3.5071
   33.720    3.2333
   33.735    3.3070
   33.750    3.4650
   33.765    3.3807
   33.780    3.6440
   33.795    3.5176
   33.810    3.4439
   33.825    3.5703
   33.840    3.4439
   33.855    3.3913
   33.870    3.4229
   33.885    3.3913
   33.900    3.3702
   33.915    3.1174
   33.930    2.9384
   33.945    3.4439
   33.960    3.5492
   33.975    3.2438
   33.990    3.2543
   34.005    3.4334
   34.020    3.2859
   34.035    3.1174
   34.050    2.9489
   34.065    3.0648
   34.080    3.1385
   34.095    3.2965
   34.110    3.0332
   34.125    3.0016
   34.140    3.0437
   34.155    3.3597
   34.170    3.2017
   34.185    3.2859
   34.200    3.2543
   34.215    3.0437
   34.230    3.1280
   34.245    3.2227
   34.260    3.1174
   34.275    3.0542
   34.290    3.0332
   34.305    3.0121
   34.320    3.3070
   34.335    3.3386
   34.350    2.9700
   34.365    2.9595
   34.380    3.1596
   34.395    2.9384
   34.410    3.1280
   34.425    3.0437
   34.440    3.0964
   34.455    3.0332
   34.470    2.8120
   34.485    3.2333
   34.500    3.1069
   34.515    2.8752
   34.530    3.1912
   34.545    3.4123
   34.560    3.0332
   34.575    2.6751
   34.590    3.0858
   34.605    3.2965
   34.620    3.0648
   34.635    3.2333
   34.650    3.0964
   34.665    3.1069
   34.680    2.8541
   34.695    3.1701
   34.710    3.2859
   34.725    3.1069
   34.740    2.9384
   34.755    3.1069
   34.770    2.9700
   34.785    3.1490
   34.800    2.8541
   34.815    3.1280
   34.830    3.2017
   34.845    3.2543
   34.860    2.8963
   34.875    3.0542
   34.890    3.0542
   34.905    2.8647
   34.920    3.2438
   34.935    3.2543
   34.950    3.2438
   34.965    2.8647
   34.980    2.7067
   34.995    3.0226
   35.010    3.1701
   35.025    3.1385
   35.040    3.0964
   35.055    3.0542
   35.070    2.7804
   35.085    2.8120
   35.100    2.7699
   35.115    2.8963
   35.130    2.9700
   35.145    3.0753
   35.160    2.9700
   35.175    3.0437
   35.190    3.0332
   35.205    3.0332
   35.220    2.8963
   35.235    2.8963
   35.250    3.0858
   35.265    3.2122
   35.280    3.0437
   35.295    2.8647
   35.310    3.2227
   35.325    3.1596
   35.340    3.2333
   35.355    3.0226
   35.370    3.2122
   35.385    3.1596
   35.400    3.1280
   35.415    2.9279
   35.430    2.8857
   35.445    2.8857
   35.460    3.0332
   35.475    3.0332
   35.490    3.1490
   35.505    3.0016
   35.520    3.0121
   35.535    3.0016
   35.550    3.0332
   35.565    2.7909
   35.580    2.9489
   35.595    2.8647
   35.610    2.7593
   35.625    3.2754
   35.640    3.1912
   35.655    2.8647
   35.670    2.7488
   35.685    2.8225
   35.700    3.0648
   35.715    2.9595
   35.730    2.8015
   35.745    3.0332
   35.760    2.8752
   35.775    2.9595
   35.790    2.9384
   35.805    2.9805
   35.820    2.7804
   35.835    2.7909
   35.850    3.0964
   35.865    3.0121
   35.880    3.2227
   35.895    3.0964
   35.910    3.0648
   35.925    2.8752
   35.940    2.6751
   35.955    2.7699
   35.970    2.6751
   35.985    2.8541
   36.000    3.0753
   36.015    3.0648
   36.030    2.7383
   36.045    2.7383
   36.060    3.0226
   36.075    3.0121
   36.090    3.3386
   36.105    3.1596
   36.120    2.9910
   36.135    2.9489
   36.150    2.6119
   36.165    2.9173
   36.180    3.1280
   36.195    3.2122
   36.210    3.0226
   36.225    2.8120
   36.240    2.9279
   36.255    3.0648
   36.270    3.0542
   36.285    2.9595
   36.300    2.6119
   36.315    2.7383
   36.330    2.8752
   36.345    2.9173
   36.360    2.8752
   36.375    2.9279
   36.390    3.0121
   36.405    3.0753
   36.420    2.7909
   36.435    3.1385
   36.450    2.8857
   36.465    2.7804
   36.480    2.8331
   36.495    2.9700
   36.510    3.0648
   36.525    2.9173
   36.540    2.7488
   36.555    3.0858
   36.570    3.2965
   36.585    2.6962
   36.600    2.9700
   36.615    3.1280
   36.630    3.1385
   36.645    2.7067
   36.660    2.7804
   36.675    2.8857
   36.690    2.7909
   36.705    2.6540
   36.720    2.9068
   36.735    2.8120
   36.750    3.1490
   36.765    3.0542
   36.780    2.8331
   36.795    2.9384
   36.810    2.8963
   36.825    3.0016
   36.840    2.9805
   36.855    2.8541
   36.870    2.8752
   36.885    2.8752
   36.900    2.9173
   36.915    2.6962
   36.930    2.7804
   36.945    2.8963
   36.960    2.7383
   36.975    2.8015
   36.990    2.8752
   37.005    2.8963
   37.020    2.8647
   37.035    2.9805
   37.050    2.9489
   37.065    3.0858
   37.080    2.9700
   37.095    2.7699
   37.110    2.8541
   37.125    2.7909
   37.140    2.7699
   37.155    2.7067
   37.170    2.9279
   37.185    2.6646
   37.200    3.0648
   37.215    3.0016
   37.230    2.7172
   37.245    3.0332
   37.260    2.8752
   37.275    3.0437
   37.290    2.8225
   37.305    2.6014
   37.320    2.8015
   37.335    3.0858
   37.350    2.9595
   37.365    2.8120
   37.380    2.7699
   37.395    3.0964
   37.410    2.8225
   37.425    2.8647
   37.440    3.1280
   37.455    3.0964
   37.470    2.9384
   37.485    2.6540
   37.500    3.0648
   37.515    2.8541
   37.530    2.7278
   37.545    2.9173
   37.560    2.8225
   37.575    2.9279
   37.590    2.7699
   37.605    2.8331
   37.620    2.5908
   37.635    2.6224
   37.650    2.4645
   37.665    2.8436
   37.680    2.7383
   37.695    2.6224
   37.710    2.6119
   37.725    2.9489
   37.740    2.7909
   37.755    2.9384
   37.770    2.7278
   37.785    2.9279
   37.800    2.9173
   37.815    2.6224
   37.830    2.6119
   37.845    2.6330
   37.860    2.5803
   37.875    2.7383
   37.890    2.7067
   37.905    2.6119
   37.920    2.7909
   37.935    2.9595
   37.950    2.8436
   37.965    2.7909
   37.980    2.6119
   37.995    2.5908
   38.010    2.6119
   38.025    2.5066
   38.040    2.6119
   38.055    2.6014
   38.070    2.8752
   38.085    2.8963
   38.100    2.8015
   38.115    2.7699
   38.130    2.8752
   38.145    2.7172
   38.160    2.6014
   38.175    2.7699
   38.190    2.7593
   38.205    2.8857
   38.220    2.8120
   38.235    2.6330
   38.250    2.7278
   38.265    2.8752
   38.280    2.8752
   38.295    3.0016
   38.310    2.7909
   38.325    2.8647
   38.340    2.8647
   38.355    2.5698
   38.370    2.7172
   38.385    2.7593
   38.400    2.7383
   38.415    3.0121
   38.430    2.8436
   38.445    2.5066
   38.460    2.4645
   38.475    2.5803
   38.490    2.5276
   38.505    2.6856
   38.520    2.8436
   38.535    2.6962
   38.550    2.8752
   38.565    2.8647
   38.580    2.6751
   38.595    2.3381
   38.610    2.5803
   38.625    2.6646
   38.640    2.8963
   38.655    2.5908
   38.670    2.6646
   38.685    2.7804
   38.700    2.8541
   38.715    2.7383
   38.730    2.9805
   38.745    2.9173
   38.760    2.7172
   38.775    2.7909
   38.790    2.7699
   38.805    2.6856
   38.820    2.7067
   38.835    2.6856
   38.850    2.7804
   38.865    2.8752
   38.880    2.7172
   38.895    2.5592
   38.910    2.7172
   38.925    2.7383
   38.940    2.8331
   38.955    2.7699
   38.970    2.8120
   38.985    2.5908
   39.000    2.6014
   39.015    2.6962
   39.030    2.9279
   39.045    2.5487
   39.060    2.4539
   39.075    2.6224
   39.090    2.8752
   39.105    2.6014
   39.120    2.4434
   39.135    2.8541
   39.150    2.5592
   39.165    2.6435
   39.180    2.5066
   39.195    2.8436
   39.210    2.7593
   39.225    2.6224
   39.240    2.9173
   39.255    3.1912
   39.270    2.7383
   39.285    2.6014
   39.300    2.9279
   39.315    2.9384
   39.330    2.8225
   39.345    2.6224
   39.360    2.7067
   39.375    2.7593
   39.390    2.7488
   39.405    2.6224
   39.420    2.6751
   39.435    2.5908
   39.450    2.6751
   39.465    2.8752
   39.480    2.8752
   39.495    2.4961
   39.510    2.7593
   39.525    2.7067
   39.540    2.6224
   39.555    2.5698
   39.570    2.6856
   39.585    2.9595
   39.600    2.7804
   39.615    2.7172
   39.630    2.6962
   39.645    2.8436
   39.660    2.7172
   39.675    2.6646
   39.690    2.6856
   39.705    2.7699
   39.720    2.7383
   39.735    2.6962
   39.750    2.9489
   39.765    2.8120
   39.780    3.0121
   39.795    2.8752
   39.810    2.6540
   39.825    2.5066
   39.840    2.8436
   39.855    2.9279
   39.870    2.6962
   39.885    2.6751
   39.900    2.6856
   39.915    2.6751
   39.930    2.6856
   39.945    2.9279
   39.960    2.7804
   39.975    2.8331
   39.990    2.5592
