    1.500   19.7367
    1.515   19.8736
    1.530   19.6103
    1.545   19.3681
    1.560   19.4839
    1.575   19.1785
    1.590   19.0521
    1.605   17.8515
    1.620   18.8836
    1.635   18.5466
    1.650   17.8304
    1.665   17.3354
    1.680   17.7567
    1.695   17.7672
    1.710   18.2412
    1.725   18.0200
    1.740   18.1359
    1.755   17.1669
    1.770   17.1248
    1.785   17.6409
    1.800   17.1985
    1.815   17.3354
    1.830   16.7351
    1.845   16.6719
    1.860   16.8720
    1.875   16.9879
    1.890   16.9142
    1.905   17.1353
    1.920   16.8194
    1.935   16.5350
    1.950   16.3349
    1.965   16.7773
    1.980   16.6930
    1.995   16.5982
    2.010   16.7246
    2.025   16.8826
    2.040   16.8615
    2.055   16.3454
    2.070   16.9563
    2.085   16.9352
    2.100   16.9668
    2.115   16.7983
    2.130   16.5982
    2.145   16.8088
    2.160   17.3144
    2.175   16.8720
    2.190   16.8615
    2.205   16.4929
    2.220   16.9352
    2.235   17.3670
    2.250   17.3460
    2.265   16.5982
    2.280   17.4724
    2.295   17.4724
    2.310   17.2091
    2.325   18.1569
    2.340   17.8726
    2.355   17.4092
    2.370   17.7251
    2.385   17.7988
    2.400   18.8415
    2.415   17.9252
    2.430   18.4623
    2.445   18.0832
    2.460   18.9468
    2.475   19.3681
    2.490   19.0311
    2.505   18.7151
    2.520   19.2417
    2.535   19.6419
    2.550   19.7472
    2.565   19.8104
    2.580   19.7999
    2.595   19.9052
    2.610   20.1580
    2.625   20.3476
    2.640   21.2322
    2.655   22.0432
    2.670   21.4955
    2.685   21.0953
    2.700   21.7799
    2.715   22.5066
    2.730   23.2859
    2.745   23.2122
    2.760   23.3491
    2.775   23.8020
    2.790   24.5498
    2.805   24.1496
    2.820   24.3707
    2.835   25.3502
    2.850   26.4350
    2.865   26.3928
    2.880   27.3407
    2.895   27.7514
    2.910   28.5308
    2.925   28.9205
    2.940   29.9526
    2.955   29.8578
    2.970   30.5108
    2.985   31.8273
    3.000   32.0590
    3.015   34.0811
    3.030   34.6498
    3.045   34.9342
    3.060   36.3244
    3.075   37.7357
    3.090   38.5782
    3.105   38.2517
    3.120   39.8210
    3.135   41.3165
    3.150   42.9489
    3.165   44.4339
    3.180   45.6661
    3.195   47.1722
    3.210   48.8152
    3.225   49.5629
    3.240   51.5113
    3.255   53.2912
    3.270   56.3981
    3.285   58.6098
    3.300   61.6219
    3.315   63.6230
    3.330   67.0879
    3.345   70.3739
    3.360   71.8273
    3.375   76.3139
    3.390   78.7046
    3.405   84.1285
    3.420   88.4781
    3.435   91.5113
    3.450   91.4060
    3.465   91.6588
    3.480   91.0900
    3.495   87.7199
    3.510   81.4745
    3.525   77.5566
    3.540   73.0384
    3.555   70.8057
    3.570   68.6888
    3.585   67.0248
    3.600   66.6772
    3.615   67.9621
    3.630   69.4576
    3.645   69.6367
    3.660   72.4276
    3.675   73.8073
    3.690   76.9563
    3.705   80.5371
    3.720   83.9705
    3.735   88.2780
    3.750   95.1975
    3.765  102.4750
    3.780  111.3428
    3.795  119.0521
    3.810  132.2591
    3.825  149.4787
    3.840  173.8915
    3.855  190.3212
    3.870  196.7351
    3.885  187.0985
    3.900  158.2412
    3.915  116.0611
    3.930   72.1011
    3.945   45.3397
    3.960   37.1037
    3.975   35.1553
    3.990   34.2707
    4.005   33.4281
    4.020   32.0063
    4.035   32.0906
    4.050   32.0906
    4.065   30.3002
    4.080   28.9521
    4.095   27.2354
    4.110   25.8768
    4.125   25.7399
    4.140   24.0653
    4.155   23.0542
    4.170   22.1274
    4.185   20.9584
    4.200   19.2101
    4.215   17.5987
    4.230   16.7035
    4.245   17.1353
    4.260   15.7451
    4.275   14.5550
    4.290   14.1127
    4.305   13.7651
    4.320   13.0911
    4.335   12.4697
    4.350   12.0484
    4.365   11.8799
    4.380   10.9742
    4.395   10.2686
    4.410   10.6898
    4.425   10.5213
    4.440   10.1422
    4.455   10.5845
    4.470   10.4476
    4.485   10.0053
    4.500   10.0579
    4.515    9.9315
    4.530    9.9105
    4.545    9.5103
    4.560    9.8157
    4.575    9.6788
    4.590    9.0890
    4.605    9.2470
    4.620    9.7630
    4.635    9.5524
    4.650    8.9100
    4.665    9.3207
    4.680    9.3839
    4.695    9.0469
    4.710    9.4365
    4.725    9.8052
    4.740   10.0053
    4.755    9.3102
    4.770    9.6156
    4.785    9.7209
    4.800    9.3839
    4.815    9.3944
    4.830   10.0790
    4.845    9.7736
    4.860    9.5840
    4.875    9.4892
    4.890   10.1316
    4.905   10.3423
    4.920   10.4160
    4.935   11.0900
    4.950   11.0585
    4.965   11.0690
    4.980   11.0479
    4.995   11.1111
    5.010   11.0585
    5.025   11.6588
    5.040   12.1327
    5.055   12.5013
    5.070   12.2064
    5.085   12.4276
    5.100   13.5124
    5.115   13.5861
    5.130   13.7967
    5.145   14.3128
    5.160   14.7762
    5.175   15.3239
    5.190   15.7030
    5.205   16.4718
    5.220   16.7246
    5.235   17.8515
    5.250   18.6625
    5.265   19.3576
    5.280   20.5266
    5.295   21.2006
    5.310   21.6535
    5.325   22.6751
    5.340   24.0337
    5.355   26.2981
    5.370   27.3407
    5.385   30.4265
    5.400   33.0279
    5.415   36.5771
    5.430   41.0321
    5.445   47.4039
    5.460   55.1553
    5.475   58.5782
    5.490   62.2749
    5.505   60.9584
    5.520   51.7114
    5.535   35.7346
    5.550   20.8531
    5.565   11.8378
    5.580    8.5940
    5.595    7.4039
    5.610    7.3828
    5.625    7.3618
    5.640    7.2354
    5.655    7.1722
    5.670    6.6561
    5.685    6.6035
    5.700    6.5929
    5.715    6.8878
    5.730    6.8457
    5.745    6.7720
    5.760    6.3823
    5.775    6.6772
    5.790    6.6035
    5.805    6.7404
    5.820    7.1301
    5.835    6.5719
    5.850    6.2875
    5.865    6.6667
    5.880    6.4244
    5.895    6.4244
    5.910    6.9300
    5.925    6.7825
    5.940    6.4560
    5.955    6.7615
    5.970    6.9721
    5.985    6.5719
    6.000    7.0458
    6.015    7.0669
    6.030    6.3612
    6.045    6.5298
    6.060    6.8352
    6.075    6.8773
    6.090    6.5087
    6.105    6.6983
    6.120    6.8141
    6.135    7.2670
    6.150    6.9510
    6.165    6.8246
    6.180    6.9300
    6.195    7.0248
    6.210    7.3618
    6.225    7.0985
    6.240    7.1406
    6.255    7.6672
    6.270    7.9726
    6.285    7.6145
    6.300    7.7725
    6.315    7.8146
    6.330    7.5829
    6.345    7.9516
    6.360    8.1517
    6.375    8.3518
    6.390    8.2886
    6.405    8.3834
    6.420    8.9731
    6.435    9.1101
    6.450    8.6783
    6.465    9.2154
    6.480    9.7209
    6.495    9.6682
    6.510    9.8789
    6.525    9.7209
    6.540   10.2686
    6.555   10.9321
    6.570   11.5745
    6.585   12.0063
    6.600   12.0695
    6.615   12.8805
    6.630   13.8494
    6.645   14.8499
    6.660   16.3770
    6.675   17.4934
    6.690   18.6625
    6.705   21.2744
    6.720   23.4860
    6.735   24.1917
    6.750   23.9600
    6.765   21.6114
    6.780   16.5245
    6.795   12.1854
    6.810   10.7320
    6.825   10.0474
    6.840    9.8894
    6.855    9.4050
    6.870   10.1632
    6.885   10.5108
    6.900   10.9005
    6.915   11.9958
    6.930   11.4797
    6.945   11.2164
    6.960   11.3112
    6.975   11.4165
    6.990   10.9426
    7.005   10.5529
    7.020   10.2054
    7.035    9.1838
    7.050    8.6361
    7.065    8.3728
    7.080    7.8462
    7.095    7.9410
    7.110    7.5619
    7.125    7.4039
    7.140    7.2459
    7.155    6.7193
    7.170    6.9510
    7.185    7.0669
    7.200    6.9826
    7.215    7.0353
    7.230    6.8773
    7.245    7.1827
    7.260    7.3091
    7.275    7.0353
    7.290    6.9932
    7.305    6.9300
    7.320    6.9510
    7.335    7.2249
    7.350    7.1090
    7.365    7.1827
    7.380    7.3196
    7.395    7.5303
    7.410    7.4671
    7.425    7.5935
    7.440    7.6988
    7.455    7.5197
    7.470    7.3723
    7.485    7.5092
    7.500    7.6461
    7.515    7.8673
    7.530    8.0463
    7.545    8.5729
    7.560    8.4466
    7.575    8.7309
    7.590    9.1522
    7.605    9.0679
    7.620    9.4576
    7.635   10.1843
    7.650   11.0058
    7.665   11.0585
    7.680   11.4481
    7.695   11.9326
    7.710   13.0384
    7.725   13.4281
    7.740   15.1764
    7.755   16.8615
    7.770   16.9984
    7.785   17.8726
    7.800   17.4513
    7.815   16.0295
    7.830   13.2070
    7.845   10.8057
    7.860    9.0679
    7.875    8.2149
    7.890    8.4044
    7.905    7.8462
    7.920    8.1727
    7.935    8.0147
    7.950    8.1517
    7.965    8.3307
    7.980    8.3834
    7.995    8.1095
    8.010    7.9200
    8.025    7.8778
    8.040    7.8146
    8.055    7.9094
    8.070    8.4255
    8.085    8.1201
    8.100    8.0779
    8.115    8.1095
    8.130    8.0253
    8.145    7.9937
    8.160    7.5513
    8.175    8.1201
    8.190    7.6461
    8.205    7.4460
    8.220    7.3828
    8.235    7.8673
    8.250    7.4039
    8.265    7.4460
    8.280    7.5935
    8.295    7.7514
    8.310    7.4987
    8.325    7.5092
    8.340    7.6672
    8.355    7.3723
    8.370    7.1090
    8.385    7.2459
    8.400    6.9510
    8.415    7.1406
    8.430    7.0037
    8.445    7.2038
    8.460    6.9616
    8.475    6.7720
    8.490    6.3402
    8.505    6.3718
    8.520    6.9721
    8.535    6.9510
    8.550    6.6772
    8.565    6.8984
    8.580    6.1927
    8.595    6.8352
    8.610    7.1933
    8.625    6.8984
    8.640    6.9194
    8.655    7.5829
    8.670    7.4882
    8.685    7.5303
    8.700    7.6777
    8.715    7.4566
    8.730    7.6145
    8.745    7.1301
    8.760    6.8668
    8.775    6.4455
    8.790    6.2770
    8.805    5.9716
    8.820    6.1401
    8.835    5.9716
    8.850    6.5087
    8.865    6.3928
    8.880    6.2770
    8.895    6.1611
    8.910    5.9189
    8.925    6.0874
    8.940    6.0348
    8.955    5.7715
    8.970    6.0664
    8.985    6.2033
    9.000    6.1190
    9.015    6.0242
    9.030    6.4350
    9.045    6.4034
    9.060    6.4350
    9.075    6.3612
    9.090    6.8668
    9.105    6.9194
    9.120    6.5087
    9.135    6.7404
    9.150    6.9089
    9.165    7.1195
    9.180    6.9932
    9.195    6.8984
    9.210    7.4355
    9.225    7.3618
    9.240    7.5829
    9.255    7.2459
    9.270    7.9200
    9.285    8.0147
    9.300    8.4887
    9.315    8.1095
    9.330    8.6888
    9.345    9.5103
    9.360   10.0053
    9.375   10.2264
    9.390   11.0585
    9.405   12.1748
    9.420   13.1227
    9.435   13.5440
    9.450   15.0395
    9.465   16.3454
    9.480   18.1675
    9.495   21.2112
    9.510   23.5387
    9.525   26.2033
    9.540   28.0358
    9.555   27.0774
    9.570   25.5187
    9.585   21.1164
    9.600   14.7551
    9.615    9.7736
    9.630    6.9405
    9.645    6.3718
    9.660    5.8768
    9.675    5.7715
    9.690    6.0664
    9.705    5.5503
    9.720    5.9294
    9.735    5.5187
    9.750    5.5398
    9.765    5.8978
    9.780    5.7820
    9.795    5.6135
    9.810    5.7083
    9.825    5.6767
    9.840    6.0558
    9.855    5.3818
    9.870    5.4766
    9.885    5.9189
    9.900    5.8978
    9.915    5.6451
    9.930    6.0032
    9.945    5.7820
    9.960    5.7293
    9.975    5.8557
    9.990    5.6767
   10.005    5.8978
   10.020    6.3718
   10.035    6.2770
   10.050    6.5087
   10.065    6.2770
   10.080    6.4139
   10.095    6.8457
   10.110    6.9721
   10.125    7.3302
   10.140    7.1090
   10.155    7.2565
   10.170    7.6883
   10.185    7.5619
   10.200    7.6040
   10.215    8.0990
   10.230    8.5729
   10.245    9.3418
   10.260   10.3633
   10.275   11.2691
   10.290   12.6066
   10.305   12.9753
   10.320   13.0806
   10.335   12.5118
   10.350   11.3533
   10.365    9.6472
   10.380    7.8357
   10.395    6.4771
   10.410    6.2033
   10.425    5.9926
   10.440    5.8557
   10.455    6.0979
   10.470    6.3612
   10.485    5.8557
   10.500    5.7188
   10.515    6.1822
   10.530    6.0558
   10.545    5.8241
   10.560    5.8557
   10.575    5.6135
   10.590    5.6556
   10.605    5.6556
   10.620    5.4555
   10.635    5.4660
   10.650    6.2665
   10.665    5.8662
   10.680    6.1506
   10.695    6.1190
   10.710    6.3296
   10.725    6.1085
   10.740    6.2349
   10.755    6.2981
   10.770    6.1295
   10.785    6.2138
   10.800    6.3402
   10.815    6.7509
   10.830    6.1822
   10.845    6.4560
   10.860    6.8668
   10.875    7.2038
   10.890    7.2038
   10.905    7.3302
   10.920    7.8357
   10.935    8.2043
   10.950    8.9415
   10.965    9.7946
   10.980   10.3318
   10.995   11.1532
   11.010   11.9221
   11.025   12.8910
   11.040   12.1643
   11.055   11.4797
   11.070   10.7846
   11.085    9.1943
   11.100    7.5197
   11.115    6.3612
   11.130    5.9294
   11.145    5.5608
   11.160    5.4344
   11.175    5.3712
   11.190    5.6977
   11.205    5.7925
   11.220    5.1606
   11.235    5.3502
   11.250    5.4450
   11.265    5.5714
   11.280    5.6556
   11.295    6.1190
   11.310    5.8241
   11.325    5.5187
   11.340    5.9821
   11.355    5.4660
   11.370    5.2975
   11.385    5.8873
   11.400    5.7609
   11.415    5.6556
   11.430    5.9610
   11.445    6.3086
   11.460    6.4560
   11.475    6.2243
   11.490    6.7193
   11.505    6.6035
   11.520    6.8668
   11.535    7.4460
   11.550    7.2986
   11.565    7.2354
   11.580    7.4250
   11.595    7.5829
   11.610    8.5940
   11.625    9.4050
   11.640    9.8157
   11.655   10.1948
   11.670   11.9747
   11.685   12.7751
   11.700   13.3755
   11.715   13.1438
   11.730   12.5540
   11.745   11.3744
   11.760    9.2680
   11.775    7.3934
   11.790    7.0458
   11.805    6.3507
   11.820    6.2243
   11.835    5.6767
   11.850    5.5714
   11.865    5.8978
   11.880    5.8978
   11.895    6.0558
   11.910    5.5819
   11.925    5.5082
   11.940    6.0664
   11.955    5.5503
   11.970    5.4450
   11.985    5.7504
   12.000    5.6767
   12.015    5.5187
   12.030    5.7188
   12.045    5.6767
   12.060    5.8873
   12.075    6.1927
   12.090    5.6767
   12.105    5.8136
   12.120    5.7925
   12.135    5.7504
   12.150    5.6451
   12.165    6.1927
   12.180    6.3718
   12.195    6.1295
   12.210    6.0558
   12.225    6.0137
   12.240    6.0874
   12.255    6.3718
   12.270    6.1717
   12.285    6.1927
   12.300    6.3402
   12.315    6.8878
   12.330    6.9616
   12.345    6.6877
   12.360    6.5508
   12.375    6.6351
   12.390    6.4982
   12.405    5.9505
   12.420    5.9294
   12.435    5.9189
   12.450    5.5924
   12.465    5.7504
   12.480    5.3923
   12.495    5.7925
   12.510    5.5714
   12.525    5.3186
   12.540    5.4766
   12.555    5.3923
   12.570    5.6767
   12.585    5.6767
   12.600    6.3191
   12.615    5.7925
   12.630    5.8241
   12.645    5.8031
   12.660    5.6451
   12.675    6.0769
   12.690    5.9189
   12.705    6.1295
   12.720    5.9821
   12.735    5.9821
   12.750    5.9821
   12.765    6.6245
   12.780    6.7825
   12.795    6.1085
   12.810    6.3612
   12.825    6.6561
   12.840    7.1827
   12.855    7.1722
   12.870    8.0885
   12.885    8.1306
   12.900    8.2359
   12.915    9.3102
   12.930    9.8999
   12.945   10.6793
   12.960   10.3528
   12.975    9.6051
   12.990    9.0574
   13.005    7.5724
   13.020    6.6772
   13.035    6.3823
   13.050    5.7609
   13.065    5.6556
   13.080    5.7399
   13.095    5.7399
   13.110    5.5398
   13.125    5.6977
   13.140    5.5503
   13.155    5.2133
   13.170    5.4871
   13.185    5.8873
   13.200    5.7925
   13.215    5.4766
   13.230    5.6451
   13.245    5.5082
   13.260    5.5503
   13.275    5.6240
   13.290    5.8241
   13.305    5.8136
   13.320    5.5608
   13.335    5.6135
   13.350    5.8557
   13.365    6.4876
   13.380    5.9400
   13.395    6.1295
   13.410    6.4139
   13.425    6.3296
   13.440    6.2454
   13.455    6.5719
   13.470    7.2670
   13.485    7.3723
   13.500    7.6672
   13.515    7.6461
   13.530    8.0990
   13.545    7.5092
   13.560    7.5408
   13.575    6.7404
   13.590    6.3718
   13.605    5.9610
   13.620    5.6556
   13.635    5.3818
   13.650    5.4239
   13.665    5.5292
   13.680    5.2975
   13.695    5.2870
   13.710    5.4660
   13.725    5.4976
   13.740    5.3923
   13.755    5.6135
   13.770    5.6451
   13.785    5.3607
   13.800    5.3186
   13.815    5.6345
   13.830    5.2975
   13.845    5.4660
   13.860    5.5082
   13.875    5.8662
   13.890    5.8768
   13.905    5.8873
   13.920    6.1927
   13.935    6.4350
   13.950    6.4876
   13.965    6.7509
   13.980    6.8141
   13.995    6.9932
   14.010    7.3934
   14.025    7.5724
   14.040    8.5835
   14.055    8.9100
   14.070    9.3312
   14.085    9.8789
   14.100    9.4365
   14.115    9.4576
   14.130    8.2359
   14.145    6.7720
   14.160    6.2033
   14.175    5.8873
   14.190    5.6029
   14.205    5.4555
   14.220    5.2238
   14.235    5.3186
   14.250    5.3397
   14.265    5.5187
   14.280    5.2343
   14.295    5.2765
   14.310    5.2133
   14.325    5.5503
   14.340    5.2659
   14.355    5.6556
   14.370    5.8347
   14.385    5.3923
   14.400    5.1080
   14.415    5.4239
   14.430    5.3923
   14.445    5.4134
   14.460    4.8868
   14.475    5.1817
   14.490    5.2449
   14.505    5.0237
   14.520    5.1185
   14.535    5.1290
   14.550    5.2133
   14.565    5.1711
   14.580    5.3397
   14.595    5.0448
   14.610    4.8657
   14.625    5.4976
   14.640    5.4660
   14.655    5.4028
   14.670    5.5187
   14.685    5.0869
   14.700    4.8657
   14.715    5.1080
   14.730    5.2343
   14.745    5.3397
   14.760    5.3502
   14.775    5.2765
   14.790    5.4660
   14.805    5.2554
   14.820    5.3712
   14.835    5.3186
   14.850    5.6240
   14.865    5.2027
   14.880    5.1922
   14.895    5.6661
   14.910    5.2449
   14.925    5.4134
   14.940    5.6872
   14.955    5.6977
   14.970    5.3712
   14.985    4.9500
   15.000    5.6767
   15.015    5.5503
   15.030    5.3291
   15.045    5.5924
   15.060    5.9294
   15.075    5.8662
   15.090    6.1085
   15.105    6.0769
   15.120    6.4455
   15.135    6.1717
   15.150    6.2454
   15.165    5.9926
   15.180    5.8452
   15.195    5.5398
   15.210    5.2870
   15.225    5.5819
   15.240    5.5924
   15.255    5.7188
   15.270    5.3397
   15.285    5.3923
   15.300    5.4344
   15.315    5.5187
   15.330    5.5187
   15.345    5.1185
   15.360    5.0448
   15.375    5.0132
   15.390    5.2765
   15.405    4.9289
   15.420    5.3397
   15.435    5.0026
   15.450    4.9078
   15.465    5.0132
   15.480    5.2975
   15.495    5.0764
   15.510    5.2449
   15.525    5.4766
   15.540    5.2975
   15.555    5.2449
   15.570    5.2870
   15.585    5.6872
   15.600    5.3818
   15.615    5.2238
   15.630    5.5608
   15.645    5.5503
   15.660    5.6767
   15.675    5.6767
   15.690    5.6345
   15.705    4.9921
   15.720    5.1395
   15.735    5.1606
   15.750    4.9184
   15.765    5.3081
   15.780    5.4344
   15.795    5.2870
   15.810    5.2133
   15.825    5.3186
   15.840    5.3502
   15.855    5.1290
   15.870    5.3712
   15.885    5.3397
   15.900    5.5398
   15.915    5.2133
   15.930    5.5292
   15.945    5.0237
   15.960    5.0764
   15.975    5.5187
   15.990    5.6661
   16.005    5.6345
   16.020    5.4766
   16.035    5.6240
   16.050    5.8347
   16.065    5.8241
   16.080    5.9610
   16.095    5.9189
   16.110    6.3928
   16.125    6.2033
   16.140    6.0032
   16.155    5.9821
   16.170    5.6556
   16.185    5.6345
   16.200    5.6240
   16.215    5.6661
   16.230    5.5714
   16.245    5.3081
   16.260    5.1080
   16.275    4.9394
   16.290    5.0026
   16.305    5.0342
   16.320    5.3502
   16.335    5.3607
   16.350    5.2554
   16.365    5.2238
   16.380    5.1817
   16.395    5.7399
   16.410    5.6240
   16.425    5.7504
   16.440    5.4450
   16.455    5.1817
   16.470    5.2027
   16.485    5.6135
   16.500    5.5608
   16.515    5.3186
   16.530    5.4239
   16.545    5.8136
   16.560    6.0979
   16.575    5.9400
   16.590    6.2559
   16.605    6.3086
   16.620    6.1506
   16.635    5.9189
   16.650    5.5187
   16.665    5.7188
   16.680    5.2554
   16.695    5.3186
   16.710    5.2659
   16.725    5.5398
   16.740    5.6345
   16.755    5.6872
   16.770    5.5503
   16.785    5.4660
   16.800    5.4660
   16.815    5.4766
   16.830    5.4450
   16.845    5.4344
   16.860    5.8241
   16.875    5.6135
   16.890    5.8031
   16.905    5.6977
   16.920    5.7820
   16.935    6.0348
   16.950    6.1717
   16.965    6.2138
   16.980    6.6245
   16.995    7.5829
   17.010    8.0358
   17.025    8.0147
   17.040    8.2675
   17.055    8.2886
   17.070    8.2886
   17.085    8.4044
   17.100    8.1306
   17.115    7.1406
   17.130    6.6772
   17.145    6.0453
   17.160    5.6029
   17.175    5.7188
   17.190    5.2765
   17.205    5.0448
   17.220    4.8131
   17.235    4.8763
   17.250    5.0448
   17.265    5.1080
   17.280    5.3923
   17.295    5.5924
   17.310    5.3186
   17.325    5.2449
   17.340    5.3818
   17.355    5.7399
   17.370    5.5082
   17.385    5.6029
   17.400    6.0137
   17.415    5.5292
   17.430    5.6872
   17.445    5.8662
   17.460    5.9189
   17.475    6.2033
   17.490    6.1611
   17.505    6.3296
   17.520    6.1717
   17.535    6.1295
   17.550    5.7925
   17.565    5.8031
   17.580    5.6240
   17.595    5.4660
   17.610    5.5503
   17.625    5.4239
   17.640    5.0342
   17.655    5.3502
   17.670    5.3186
   17.685    5.4555
   17.700    5.2449
   17.715    5.5082
   17.730    5.5608
   17.745    5.1395
   17.760    5.0974
   17.775    5.3291
   17.790    5.0974
   17.805    5.5187
   17.820    5.4555
   17.835    5.7925
   17.850    5.6451
   17.865    5.6977
   17.880    5.4871
   17.895    5.4028
   17.910    6.0348
   17.925    6.0137
   17.940    5.6240
   17.955    5.9294
   17.970    6.0348
   17.985    6.0242
   18.000    5.4871
   18.015    5.4660
   18.030    5.6872
   18.045    5.5292
   18.060    5.4344
   18.075    5.6029
   18.090    5.7293
   18.105    5.5082
   18.120    5.1501
   18.135    5.3291
   18.150    5.4028
   18.165    5.2449
   18.180    5.2659
   18.195    5.2975
   18.210    5.4766
   18.225    5.4239
   18.240    5.4344
   18.255    5.3291
   18.270    5.7925
   18.285    5.8873
   18.300    6.0137
   18.315    6.0979
   18.330    6.1506
   18.345    6.1295
   18.360    6.3402
   18.375    6.3612
   18.390    6.2033
   18.405    5.8873
   18.420    5.7609
   18.435    5.7188
   18.450    5.6135
   18.465    5.4555
   18.480    5.8136
   18.495    5.7609
   18.510    5.7609
   18.525    5.1185
   18.540    5.0237
   18.555    5.3923
   18.570    5.4134
   18.585    5.6977
   18.600    5.4344
   18.615    5.4028
   18.630    5.3081
   18.645    4.9500
   18.660    5.2870
   18.675    5.4450
   18.690    5.7083
   18.705    5.5819
   18.720    5.3818
   18.735    5.7083
   18.750    5.8873
   18.765    5.9400
   18.780    6.1506
   18.795    5.6451
   18.810    5.8347
   18.825    6.2138
   18.840    5.8347
   18.855    5.7820
   18.870    5.9716
   18.885    6.1506
   18.900    5.9505
   18.915    6.0558
   18.930    6.0137
   18.945    6.2981
   18.960    6.7193
   18.975    7.1511
   18.990    7.3723
   19.005    7.1827
   19.020    7.0458
   19.035    6.6772
   19.050    6.0979
   19.065    5.9400
   19.080    5.3186
   19.095    5.5292
   19.110    5.6977
   19.125    5.4766
   19.140    5.6451
   19.155    5.3081
   19.170    5.5819
   19.185    5.7504
   19.200    5.7925
   19.215    5.5924
   19.230    5.6767
   19.245    5.8662
   19.260    5.4871
   19.275    5.0764
   19.290    4.9605
   19.305    5.2027
   19.320    5.2870
   19.335    5.3712
   19.350    5.3502
   19.365    5.4555
   19.380    5.7715
   19.395    5.6240
   19.410    5.7399
   19.425    5.2870
   19.440    5.4450
   19.455    5.8031
   19.470    5.9505
   19.485    5.9294
   19.500    5.8662
   19.515    5.9189
   19.530    6.1506
   19.545    6.1717
   19.560    6.9510
   19.575    6.5298
   19.590    6.2875
   19.605    6.4455
   19.620    6.0032
   19.635    6.2559
   19.650    5.9189
   19.665    5.9294
   19.680    6.0032
   19.695    5.5398
   19.710    5.3291
   19.725    6.2454
   19.740    5.8452
   19.755    5.6345
   19.770    5.5819
   19.785    5.7609
   19.800    5.4766
   19.815    5.4134
   19.830    5.4239
   19.845    5.7188
   19.860    5.4871
   19.875    5.3397
   19.890    5.9189
   19.905    5.8136
   19.920    5.6872
   19.935    5.8241
   19.950    5.6661
   19.965    5.6240
   19.980    5.9926
   19.995    5.6451
   20.010    5.7504
   20.025    5.6977
   20.040    5.8031
   20.055    5.4555
   20.070    5.6872
   20.085    5.6661
   20.100    5.7188
   20.115    5.4450
   20.130    5.5292
   20.145    5.9400
   20.160    5.9505
   20.175    6.1190
   20.190    5.8347
   20.205    6.0453
   20.220    6.3086
   20.235    6.1611
   20.250    6.1822
   20.265    6.1401
   20.280    6.6140
   20.295    6.4876
   20.310    6.8246
   20.325    7.4776
   20.340    7.7620
   20.355    7.9410
   20.370    8.0885
   20.385    8.6361
   20.400    8.0779
   20.415    7.3196
   20.430    6.9510
   20.445    6.8246
   20.460    6.4876
   20.475    5.9084
   20.490    5.9610
   20.505    5.9189
   20.520    5.6661
   20.535    5.6240
   20.550    5.8978
   20.565    5.8452
   20.580    5.5714
   20.595    5.6451
   20.610    6.0453
   20.625    5.7609
   20.640    5.5292
   20.655    5.7820
   20.670    5.7609
   20.685    5.7609
   20.700    5.8557
   20.715    5.6451
   20.730    5.7504
   20.745    5.9294
   20.760    5.9084
   20.775    5.5187
   20.790    5.8031
   20.805    5.8768
   20.820    5.6556
   20.835    5.8031
   20.850    5.4450
   20.865    5.5292
   20.880    5.5608
   20.895    5.8662
   20.910    5.7820
   20.925    5.7715
   20.940    5.6029
   20.955    5.7715
   20.970    5.6135
   20.985    5.6767
   21.000    5.7083
   21.015    5.6135
   21.030    6.0137
   21.045    5.9610
   21.060    5.6451
   21.075    6.0558
   21.090    6.1190
   21.105    5.7504
   21.120    5.9821
   21.135    5.6556
   21.150    5.6661
   21.165    5.6240
   21.180    5.6767
   21.195    5.6661
   21.210    5.9084
   21.225    5.7399
   21.240    5.7609
   21.255    6.0137
   21.270    5.7399
   21.285    5.6767
   21.300    5.7188
   21.315    5.7715
   21.330    5.5292
   21.345    5.7925
   21.360    6.0032
   21.375    5.7609
   21.390    5.6029
   21.405    5.7188
   21.420    5.7609
   21.435    5.4976
   21.450    5.6029
   21.465    5.4766
   21.480    6.0453
   21.495    6.0032
   21.510    5.6661
   21.525    5.4660
   21.540    5.5608
   21.555    5.6872
   21.570    5.5924
   21.585    5.4344
   21.600    5.8347
   21.615    5.9400
   21.630    6.0979
   21.645    5.7820
   21.660    5.7715
   21.675    5.7188
   21.690    5.7925
   21.705    5.9926
   21.720    6.0664
   21.735    5.7504
   21.750    6.0242
   21.765    6.3086
   21.780    6.1085
   21.795    5.8031
   21.810    6.0979
   21.825    6.5824
   21.840    6.3823
   21.855    6.2243
   21.870    6.0979
   21.885    6.6140
   21.900    6.4876
   21.915    6.4139
   21.930    6.4350
   21.945    6.0979
   21.960    5.7820
   21.975    5.8136
   21.990    5.6661
   22.005    6.0453
   22.020    5.5714
   22.035    5.3818
   22.050    5.7715
   22.065    5.6661
   22.080    5.5714
   22.095    5.8452
   22.110    6.0032
   22.125    6.1717
   22.140    5.9294
   22.155    6.2349
   22.170    6.1506
   22.185    6.6667
   22.200    6.5824
   22.215    6.4771
   22.230    6.5508
   22.245    6.1506
   22.260    6.0453
   22.275    6.0979
   22.290    5.9400
   22.305    5.8873
   22.320    5.9189
   22.335    5.6135
   22.350    6.1295
   22.365    5.7293
   22.380    5.8978
   22.395    6.1506
   22.410    6.0769
   22.425    6.2981
   22.440    6.3718
   22.455    6.4982
   22.470    6.8036
   22.485    7.2354
   22.500    7.7199
   22.515    8.2254
   22.530    8.2780
   22.545    8.4781
   22.560    8.3518
   22.575    8.4044
   22.590    8.2991
   22.605    7.9937
   22.620    7.5935
   22.635    6.9194
   22.650    6.5824
   22.665    6.2665
   22.680    6.1401
   22.695    5.8347
   22.710    5.8662
   22.725    6.2875
   22.740    5.6872
   22.755    6.1085
   22.770    6.4034
   22.785    6.1717
   22.800    6.0348
   22.815    6.1401
   22.830    7.0669
   22.845    7.6883
   22.860    7.8041
   22.875    8.1938
   22.890    8.6783
   22.905    8.5203
   22.920    7.9200
   22.935    8.1095
   22.950    7.5619
   22.965    7.2775
   22.980    6.4876
   22.995    6.1927
   23.010    5.9610
   23.025    6.0137
   23.040    6.3086
   23.055    6.0664
   23.070    6.2559
   23.085    6.2243
   23.100    6.3086
   23.115    6.4666
   23.130    6.4876
   23.145    6.5192
   23.160    6.4350
   23.175    6.2559
   23.190    6.4982
   23.205    6.4455
   23.220    6.6140
   23.235    6.5824
   23.250    6.4560
   23.265    7.0669
   23.280    6.3507
   23.295    5.7083
   23.310    5.8136
   23.325    5.8662
   23.340    5.6977
   23.355    5.4766
   23.370    5.6029
   23.385    5.7188
   23.400    5.8662
   23.415    5.4766
   23.430    5.7399
   23.445    5.5503
   23.460    5.7820
   23.475    6.1506
   23.490    5.4555
   23.505    5.4028
   23.520    5.7399
   23.535    5.2870
   23.550    5.7083
   23.565    5.7925
   23.580    5.9610
   23.595    5.8978
   23.610    5.6345
   23.625    5.4028
   23.640    5.8873
   23.655    5.8873
   23.670    5.4028
   23.685    5.4450
   23.700    5.6135
   23.715    5.7399
   23.730    5.5187
   23.745    5.5503
   23.760    5.7083
   23.775    5.7399
   23.790    5.7715
   23.805    6.0453
   23.820    6.0032
   23.835    5.6451
   23.850    5.5503
   23.865    6.0979
   23.880    6.1401
   23.895    6.4034
   23.910    6.2138
   23.925    6.2770
   23.940    5.7925
   23.955    5.8662
   23.970    5.9084
   23.985    6.0137
   24.000    5.6977
   24.015    5.3607
   24.030    5.5819
   24.045    5.2659
   24.060    5.3923
   24.075    5.4344
   24.090    5.6451
   24.105    5.1185
   24.120    4.9710
   24.135    5.2554
   24.150    5.4555
   24.165    5.6556
   24.180    5.6872
   24.195    5.5608
   24.210    5.5608
   24.225    5.8662
   24.240    5.4239
   24.255    5.5608
   24.270    5.6029
   24.285    5.2238
   24.300    5.0764
   24.315    5.1290
   24.330    5.1290
   24.345    5.5819
   24.360    5.4555
   24.375    5.2975
   24.390    5.8136
   24.405    5.5608
   24.420    5.5608
   24.435    5.4134
   24.450    5.5503
   24.465    5.5714
   24.480    5.7715
   24.495    5.8136
   24.510    5.9716
   24.525    5.7399
   24.540    5.6451
   24.555    5.6029
   24.570    5.5398
   24.585    5.3081
   24.600    5.4450
   24.615    5.8557
   24.630    6.1611
   24.645    6.0664
   24.660    5.7715
   24.675    5.5924
   24.690    5.4766
   24.705    5.2554
   24.720    5.1606
   24.735    5.4344
   24.750    5.2659
   24.765    5.0764
   24.780    5.1922
   24.795    5.6556
   24.810    5.2975
   24.825    5.1395
   24.840    5.0658
   24.855    5.5714
   24.870    5.7820
   24.885    5.6977
   24.900    5.6451
   24.915    5.6135
   24.930    5.5398
   24.945    5.3607
   24.960    5.4976
   24.975    5.2238
   24.990    5.5398
   25.005    5.5714
   25.020    5.2238
   25.035    5.2554
   25.050    5.4555
   25.065    5.5082
   25.080    5.5608
   25.095    5.7715
   25.110    5.5819
   25.125    5.7609
   25.140    5.8873
   25.155    6.2875
   25.170    5.5503
   25.185    5.6135
   25.200    6.0453
   25.215    5.8978
   25.230    6.2033
   25.245    5.6451
   25.260    5.3502
   25.275    5.7399
   25.290    5.4871
   25.305    5.4450
   25.320    5.2238
   25.335    5.2238
   25.350    5.3923
   25.365    5.6661
   25.380    5.4028
   25.395    5.5292
   25.410    5.7609
   25.425    5.5082
   25.440    5.5187
   25.455    5.5082
   25.470    5.0342
   25.485    5.4344
   25.500    5.7083
   25.515    5.8662
   25.530    5.9294
   25.545    5.8241
   25.560    5.8557
   25.575    5.7188
   25.590    5.2238
   25.605    5.3291
   25.620    5.6345
   25.635    6.0137
   25.650    5.2659
   25.665    5.1501
   25.680    5.6451
   25.695    5.6135
   25.710    5.7715
   25.725    6.2875
   25.740    6.4244
   25.755    6.9405
   25.770    7.3302
   25.785    7.1301
   25.800    7.6040
   25.815    8.1095
   25.830    7.2459
   25.845    6.8668
   25.860    7.2038
   25.875    6.6561
   25.890    6.1085
   25.905    5.8136
   25.920    5.7293
   25.935    5.4555
   25.950    5.0974
   25.965    5.2343
   25.980    5.4555
   25.995    5.7293
   26.010    5.4555
   26.025    5.7820
   26.040    5.4028
   26.055    5.3081
   26.070    5.2133
   26.085    5.0974
   26.100    5.0237
   26.115    5.1711
   26.130    5.5924
   26.145    5.7609
   26.160    5.5082
   26.175    5.5608
   26.190    5.0026
   26.205    5.3607
   26.220    4.9605
   26.235    5.0658
   26.250    5.0342
   26.265    4.8131
   26.280    5.1395
   26.295    5.6345
   26.310    5.3818
   26.325    5.6135
   26.340    5.3818
   26.355    5.4660
   26.370    5.4766
   26.385    5.6029
   26.400    5.8452
   26.415    5.9294
   26.430    6.1717
   26.445    6.0453
   26.460    5.8347
   26.475    5.6767
   26.490    5.5819
   26.505    5.5398
   26.520    5.1711
   26.535    4.7604
   26.550    4.9289
   26.565    5.3291
   26.580    4.8868
   26.595    5.0237
   26.610    5.2975
   26.625    5.0342
   26.640    5.1290
   26.655    5.0764
   26.670    5.3186
   26.685    5.0658
   26.700    5.3291
   26.715    5.3397
   26.730    5.2133
   26.745    5.1922
   26.760    5.3712
   26.775    5.2659
   26.790    5.2449
   26.805    5.3397
   26.820    5.2449
   26.835    5.2027
   26.850    5.4239
   26.865    5.5398
   26.880    5.8452
   26.895    5.5714
   26.910    5.4555
   26.925    5.4239
   26.940    5.5924
   26.955    5.5819
   26.970    5.8662
   26.985    5.9189
   27.000    5.9084
   27.015    5.8031
   27.030    6.0979
   27.045    5.9926
   27.060    5.7820
   27.075    5.4976
   27.090    5.1501
   27.105    5.1817
   27.120    5.2870
   27.135    5.4766
   27.150    5.1817
   27.165    4.9184
   27.180    5.1290
   27.195    5.2554
   27.210    5.3397
   27.225    5.2027
   27.240    4.9289
   27.255    4.8868
   27.270    5.0342
   27.285    5.0342
   27.300    5.2133
   27.315    5.1395
   27.330    5.1395
   27.345    5.2765
   27.360    4.8973
   27.375    4.9605
   27.390    4.8763
   27.405    4.8341
   27.420    4.8341
   27.435    4.8868
   27.450    5.0448
   27.465    5.0237
   27.480    5.2027
   27.495    5.3607
   27.510    5.4344
   27.525    5.4134
   27.540    5.5187
   27.555    5.6872
   27.570    5.4976
   27.585    5.3291
   27.600    5.4660
   27.615    5.5924
   27.630    5.5924
   27.645    5.3502
   27.660    5.4028
   27.675    5.2238
   27.690    5.2870
   27.705    4.9816
   27.720    5.1080
   27.735    5.4555
   27.750    5.3818
   27.765    5.0237
   27.780    4.9816
   27.795    5.3081
   27.810    5.0764
   27.825    5.0342
   27.840    5.0448
   27.855    5.3818
   27.870    5.6240
   27.885    5.4134
   27.900    5.5292
   27.915    5.6451
   27.930    5.8031
   27.945    5.8241
   27.960    6.3191
   27.975    6.2243
   27.990    6.1927
   28.005    6.3191
   28.020    6.4034
   28.035    6.5403
   28.050    6.1401
   28.065    6.4350
   28.080    6.3191
   28.095    5.8136
   28.110    6.0137
   28.125    5.9610
   28.140    6.0032
   28.155    6.2033
   28.170    6.0137
   28.185    6.0242
   28.200    5.8662
   28.215    5.8347
   28.230    5.6977
   28.245    5.1817
   28.260    5.0658
   28.275    5.3923
   28.290    5.4660
   28.305    5.2133
   28.320    5.1185
   28.335    5.5187
   28.350    5.5398
   28.365    5.4660
   28.380    5.5187
   28.395    5.9505
   28.410    5.8557
   28.425    5.6872
   28.440    5.6135
   28.455    5.5924
   28.470    5.8873
   28.485    5.7820
   28.500    5.9294
   28.515    5.6872
   28.530    5.2975
   28.545    5.2659
   28.560    4.9500
   28.575    4.9394
   28.590    5.3712
   28.605    5.5503
   28.620    5.3186
   28.635    4.8657
   28.650    5.1290
   28.665    5.2870
   28.680    5.3502
   28.695    4.7183
   28.710    4.4971
   28.725    5.0448
   28.740    5.1185
   28.755    4.7815
   28.770    4.7604
   28.785    5.1711
   28.800    5.0974
   28.815    4.9921
   28.830    4.9605
   28.845    5.4239
   28.860    4.8025
   28.875    5.3923
   28.890    5.3818
   28.905    5.6767
   28.920    6.0558
   28.935    6.0137
   28.950    6.2243
   28.965    6.3296
   28.980    5.9610
   28.995    6.6983
   29.010    6.4455
   29.025    6.3402
   29.040    5.6767
   29.055    5.3186
   29.070    5.1922
   29.085    5.1290
   29.100    4.8657
   29.115    4.8447
   29.130    5.0026
   29.145    5.5608
   29.160    5.5292
   29.175    5.2975
   29.190    5.4344
   29.205    5.1606
   29.220    5.3502
   29.235    5.2343
   29.250    5.1817
   29.265    5.4555
   29.280    5.4239
   29.295    5.3502
   29.310    5.4660
   29.325    5.4239
   29.340    5.0448
   29.355    4.9184
   29.370    5.0974
   29.385    4.7815
   29.400    5.2343
   29.415    4.9710
   29.430    4.4971
   29.445    5.1290
   29.460    5.3502
   29.475    4.7393
   29.490    4.7604
   29.505    4.9710
   29.520    5.0658
   29.535    4.5076
   29.550    5.0553
   29.565    4.7604
   29.580    4.8236
   29.595    4.6340
   29.610    4.8657
   29.625    4.8447
   29.640    4.9710
   29.655    4.8447
   29.670    5.0658
   29.685    4.8341
   29.700    4.8763
   29.715    4.9816
   29.730    4.8447
   29.745    5.0342
   29.760    5.0658
   29.775    5.1395
   29.790    5.0026
   29.805    4.8868
   29.820    5.2765
   29.835    5.4134
   29.850    5.5608
   29.865    5.2133
   29.880    4.9710
   29.895    4.9500
   29.910    4.8763
   29.925    4.9921
   29.940    4.5814
   29.955    4.6867
   29.970    4.6551
   29.985    4.5392
   30.000    5.0448
   30.015    5.2449
   30.030    4.8131
   30.045    4.8868
   30.060    5.0132
   30.075    4.6761
   30.090    4.9184
   30.105    5.1185
   30.120    5.4450
   30.135    4.9710
   30.150    4.6340
   30.165    4.4760
   30.180    4.5603
   30.195    4.7709
   30.210    4.9078
   30.225    4.4023
   30.240    4.4971
   30.255    4.8763
   30.270    4.8973
   30.285    5.1395
   30.300    5.1922
   30.315    4.9394
   30.330    4.8447
   30.345    5.0342
   30.360    4.9921
   30.375    4.9816
   30.390    4.8447
   30.405    4.9289
   30.420    5.0132
   30.435    4.7815
   30.450    4.8025
   30.465    4.8763
   30.480    4.6340
   30.495    4.8657
   30.510    4.9184
   30.525    4.8868
   30.540    4.8657
   30.555    4.9078
   30.570    5.0553
   30.585    4.8868
   30.600    5.1711
   30.615    5.0974
   30.630    5.0658
   30.645    5.1922
   30.660    5.0448
   30.675    5.1080
   30.690    4.9078
   30.705    5.0342
   30.720    4.9184
   30.735    4.7288
   30.750    4.6024
   30.765    4.7393
   30.780    4.8131
   30.795    4.7709
   30.810    4.5603
   30.825    4.6445
   30.840    5.2027
   30.855    5.1922
   30.870    4.6235
   30.885    4.5919
   30.900    4.5708
   30.915    4.8131
   30.930    4.7393
   30.945    5.1817
   30.960    4.9184
   30.975    5.1395
   30.990    4.8236
   31.005    4.6024
   31.020    4.6972
   31.035    4.5814
   31.050    4.9394
   31.065    4.8657
   31.080    4.9710
   31.095    4.6130
   31.110    4.3602
   31.125    4.6024
   31.140    4.7183
   31.155    5.0132
   31.170    4.6867
   31.185    4.5708
   31.200    4.6130
   31.215    4.6235
   31.230    4.8131
   31.245    4.7920
   31.260    4.9078
   31.275    4.6656
   31.290    4.7815
   31.305    4.9394
   31.320    4.9500
   31.335    4.8447
   31.350    5.0974
   31.365    5.1922
   31.380    4.9289
   31.395    5.1290
   31.410    4.8657
   31.425    5.1080
   31.440    4.8131
   31.455    4.9289
   31.470    4.6656
   31.485    4.7499
   31.500    4.8447
   31.515    4.4339
   31.530    4.9394
   31.545    4.6445
   31.560    4.4866
   31.575    4.8236
   31.590    4.9289
   31.605    5.2765
   31.620    4.8657
   31.635    5.0132
   31.650    4.6235
   31.665    4.8025
   31.680    5.0658
   31.695    4.9500
   31.710    4.7288
   31.725    4.9289
   31.740    5.4871
   31.755    5.3923
   31.770    5.2765
   31.785    5.3818
   31.800    5.9084
   31.815    5.7399
   31.830    5.6451
   31.845    5.6240
   31.860    5.5714
   31.875    5.3291
   31.890    5.8136
   31.905    5.4134
   31.920    5.3081
   31.935    5.2975
   31.950    5.3712
   31.965    5.1606
   31.980    5.2027
   31.995    5.4871
   32.010    5.4660
   32.025    5.8031
   32.040    6.5929
   32.055    6.9194
   32.070    6.5719
   32.085    7.3828
   32.100    7.8252
   32.115    7.5092
   32.130    7.2038
   32.145    7.0563
   32.160    6.4666
   32.175    5.7083
   32.190    5.5714
   32.205    5.1606
   32.220    4.8447
   32.235    4.6867
   32.250    4.6130
   32.265    4.8236
   32.280    4.7499
   32.295    4.5182
   32.310    4.7183
   32.325    4.7077
   32.340    4.9078
   32.355    4.5814
   32.370    4.7288
   32.385    4.6130
   32.400    4.5287
   32.415    4.5919
   32.430    4.6235
   32.445    4.7920
   32.460    4.5919
   32.475    4.3707
   32.490    4.8552
   32.505    4.7499
   32.520    4.6130
   32.535    4.1706
   32.550    4.2970
   32.565    4.6024
   32.580    4.3075
   32.595    4.5076
   32.610    4.2233
   32.625    4.6761
   32.640    4.3918
   32.655    4.4971
   32.670    4.5603
   32.685    4.5919
   32.700    4.3075
   32.715    4.6761
   32.730    4.5182
   32.745    4.8131
   32.760    4.5814
   32.775    4.6656
   32.790    4.3497
   32.805    4.2233
   32.820    4.6445
   32.835    4.7393
   32.850    4.6867
   32.865    5.1606
   32.880    4.8973
   32.895    4.8552
   32.910    4.9816
   32.925    5.0132
   32.940    4.6972
   32.955    4.6024
   32.970    4.6024
   32.985    4.1180
   33.000    4.9078
   33.015    4.4760
   33.030    4.2549
   33.045    4.7077
   33.060    4.3181
   33.075    4.3497
   33.090    4.3181
   33.105    4.6656
   33.120    4.4444
   33.135    4.6340
   33.150    4.6867
   33.165    4.5076
   33.180    4.2759
   33.195    4.3602
   33.210    4.4234
   33.225    4.2865
   33.240    4.4128
   33.255    4.4128
   33.270    4.4234
   33.285    4.4444
   33.300    4.5603
   33.315    4.2338
   33.330    4.1706
   33.345    4.5182
   33.360    4.5287
   33.375    4.1811
   33.390    4.1811
   33.405    4.5498
   33.420    4.4866
   33.435    4.1917
   33.450    4.4866
   33.465    4.3602
   33.480    4.1811
   33.495    4.5392
   33.510    4.8763
   33.525    4.3918
   33.540    4.4023
   33.555    4.3286
   33.570    4.5076
   33.585    4.9078
   33.600    4.5708
   33.615    4.8025
   33.630    4.7920
   33.645    4.5603
   33.660    4.5814
   33.675    4.4023
   33.690    4.6972
   33.705    4.7920
   33.720    4.8025
   33.735    5.0342
   33.750    5.3607
   33.765    5.3081
   33.780    5.7609
   33.795    5.6240
   33.810    5.8768
   33.825    6.1717
   33.840    6.1822
   33.855    6.1506
   33.870    5.8136
   33.885    5.5924
   33.900    5.7188
   33.915    5.6872
   33.930    4.9500
   33.945    4.9816
   33.960    5.1606
   33.975    5.0342
   33.990    5.1501
   34.005    4.6551
   34.020    4.3602
   34.035    4.6867
   34.050    4.3075
   34.065    4.5498
   34.080    4.5919
   34.095    4.6235
   34.110    4.7815
   34.125    4.4971
   34.140    4.2443
   34.155    4.3602
   34.170    4.0864
   34.185    4.3918
   34.200    4.2759
   34.215    4.2022
   34.230    4.3918
   34.245    4.1811
   34.260    4.3391
   34.275    4.3707
   34.290    4.6235
   34.305    4.6761
   34.320    4.4444
   34.335    4.3707
   34.350    4.2443
   34.365    4.1917
   34.380    4.0337
   34.395    4.0864
   34.410    4.2127
   34.425    4.4655
   34.440    4.4971
   34.455    4.1917
   34.470    4.3286
   34.485    4.2970
   34.500    4.1917
   34.515    4.3602
   34.530    4.6235
   34.545    4.5919
   34.560    4.2443
   34.575    4.0653
   34.590    4.2233
   34.605    4.0758
   34.620    4.2865
   34.635    4.0232
   34.650    4.2654
   34.665    3.9916
   34.680    3.8441
   34.695    4.2443
   34.710    4.2865
   34.725    4.4339
   34.740    4.4234
   34.755    4.3602
   34.770    4.7288
   34.785    4.4023
   34.800    4.6761
   34.815    4.5708
   34.830    4.6340
   34.845    4.3075
   34.860    4.3286
   34.875    4.2654
   34.890    4.4128
   34.905    4.2338
   34.920    4.1390
   34.935    4.0653
   34.950    3.7599
   34.965    4.1601
   34.980    4.2443
   34.995    4.3707
   35.010    4.2022
   35.025    4.1390
   35.040    4.2654
   35.055    4.1180
   35.070    3.8652
   35.085    4.0969
   35.100    4.3707
   35.115    4.5392
   35.130    3.8968
   35.145    4.0864
   35.160    4.3391
   35.175    4.3497
   35.190    3.9179
   35.205    4.0758
   35.220    4.0864
   35.235    4.2022
   35.250    4.2654
   35.265    3.9389
   35.280    3.9600
   35.295    4.1496
   35.310    4.0126
   35.325    4.2549
   35.340    3.9810
   35.355    4.0442
   35.370    3.9073
   35.385    4.0021
   35.400    4.4234
   35.415    4.0653
   35.430    4.0021
   35.445    3.8547
   35.460    4.2654
   35.475    3.8863
   35.490    3.9389
   35.505    4.0021
   35.520    4.2865
   35.535    4.4234
   35.550    4.2970
   35.565    4.2759
   35.580    4.2654
   35.595    4.0548
   35.610    4.1811
   35.625    3.9600
   35.640    4.2549
   35.655    4.4444
   35.670    4.1706
   35.685    4.3286
   35.700    4.6130
   35.715    4.2759
   35.730    4.2443
   35.745    4.4550
   35.760    4.2865
   35.775    4.2443
   35.790    4.1601
   35.805    4.1496
   35.820    4.2654
   35.835    4.2549
   35.850    4.2338
   35.865    4.4444
   35.880    4.3918
   35.895    4.2970
   35.910    4.3391
   35.925    4.4339
   35.940    3.9284
   35.955    4.0232
   35.970    4.1496
   35.985    4.3497
   36.000    3.9073
   36.015    4.1074
   36.030    4.3602
   36.045    4.2759
   36.060    4.2022
   36.075    4.0232
   36.090    4.0969
   36.105    4.2443
   36.120    4.0969
   36.135    4.0758
   36.150    4.0758
   36.165    4.0337
   36.180    4.3391
   36.195    3.8125
   36.210    4.0337
   36.225    4.1706
   36.240    4.5287
   36.255    4.2233
   36.270    4.2443
   36.285    4.3813
   36.300    4.4339
   36.315    4.2654
   36.330    3.9389
   36.345    4.0337
   36.360    4.1496
   36.375    4.0337
   36.390    3.8863
   36.405    4.1917
   36.420    4.1917
   36.435    4.2338
   36.450    4.1601
   36.465    4.1180
   36.480    3.9389
   36.495    3.9073
   36.510    4.0864
   36.525    4.0653
   36.540    4.0126
   36.555    4.0653
   36.570    4.1917
   36.585    4.4655
   36.600    4.4444
   36.615    4.0232
   36.630    3.7493
   36.645    4.1496
   36.660    4.4339
   36.675    4.2865
   36.690    4.4234
   36.705    4.2654
   36.720    4.3707
   36.735    4.2549
   36.750    4.1811
   36.765    3.9705
   36.780    3.9179
   36.795    4.0021
   36.810    4.3707
   36.825    4.2338
   36.840    3.7809
   36.855    3.8547
   36.870    4.2549
   36.885    4.4760
   36.900    4.1180
   36.915    4.1390
   36.930    4.0653
   36.945    4.1390
   36.960    4.3286
   36.975    4.0653
   36.990    4.1180
   37.005    4.2022
   37.020    4.2549
   37.035    4.2233
   37.050    4.4234
   37.065    4.3391
   37.080    4.2549
   37.095    3.9179
   37.110    4.5603
   37.125    4.4550
   37.140    4.3181
   37.155    3.8336
   37.170    4.0758
   37.185    4.1811
   37.200    4.0864
   37.215    4.1706
   37.230    3.8757
   37.245    3.9810
   37.260    3.9179
   37.275    4.0653
   37.290    4.0337
   37.305    3.8336
   37.320    3.9284
   37.335    3.9494
   37.350    3.8020
   37.365    3.8652
   37.380    3.8020
   37.395    3.8441
   37.410    3.9916
   37.425    4.0864
   37.440    4.0232
   37.455    4.4444
   37.470    4.3075
   37.485    4.1496
   37.500    4.2654
   37.515    3.9705
   37.530    3.9810
   37.545    4.0548
   37.560    3.8125
   37.575    3.9494
   37.590    4.2127
   37.605    4.0653
   37.620    3.9916
   37.635    4.2127
   37.650    4.2865
   37.665    4.0758
   37.680    3.9810
   37.695    4.0864
   37.710    4.0758
   37.725    4.2865
   37.740    4.0758
   37.755    3.9810
   37.770    3.9179
   37.785    4.3497
   37.800    4.6130
   37.815    4.4444
   37.830    4.0021
   37.845    4.0653
   37.860    3.9073
   37.875    4.0758
   37.890    4.0337
   37.905    4.2443
   37.920    4.1706
   37.935    4.0653
   37.950    4.2970
   37.965    4.2654
   37.980    4.2443
   37.995    4.1180
   38.010    4.3075
   38.025    4.4550
   38.040    4.2865
   38.055    4.2654
   38.070    4.1811
   38.085    4.1917
   38.100    3.8863
   38.115    3.6756
   38.130    4.0758
   38.145    4.0232
   38.160    4.0337
   38.175    3.8863
   38.190    3.6230
   38.205    3.9494
   38.220    3.9073
   38.235    4.0126
   38.250    4.0126
   38.265    4.1917
   38.280    4.2865
   38.295    4.0969
   38.310    4.2233
   38.325    3.7915
   38.340    4.1390
   38.355    4.2443
   38.370    4.0126
   38.385    3.9600
   38.400    4.0442
   38.415    3.9494
   38.430    4.2443
   38.445    3.9179
   38.460    3.9389
   38.475    4.1285
   38.490    4.0653
   38.505    4.0864
   38.520    4.0969
   38.535    4.0548
   38.550    4.2338
   38.565    4.4760
   38.580    4.4023
   38.595    4.7815
   38.610    4.8131
   38.625    4.7815
   38.640    4.5498
   38.655    4.3391
   38.670    4.4128
   38.685    4.2338
   38.700    4.0232
   38.715    3.8757
   38.730    3.9284
   38.745    3.7809
   38.760    3.7599
   38.775    3.7915
   38.790    3.8757
   38.805    3.9600
   38.820    3.8968
   38.835    4.0653
   38.850    4.0337
   38.865    4.0548
   38.880    4.1390
   38.895    3.9073
   38.910    3.8020
   38.925    4.1074
   38.940    3.9179
   38.955    3.8757
   38.970    3.9810
   38.985    3.7599
   39.000    3.9810
   39.015    3.8863
   39.030    4.0021
   39.045    4.0969
   39.060    3.7915
   39.075    3.8441
   39.090    3.7493
   39.105    3.5598
   39.120    3.7283
   39.135    3.7072
   39.150    3.8652
   39.165    3.9179
   39.180    3.9705
   39.195    3.8125
   39.210    3.7809
   39.225    4.1496
   39.240    4.1811
   39.255    3.9389
   39.270    3.9389
   39.285    4.0126
   39.300    4.0232
   39.315    4.1390
   39.330    4.3813
   39.345    4.2549
   39.360    4.1390
   39.375    4.0548
   39.390    4.0232
   39.405    4.0548
   39.420    3.9494
   39.435    3.6862
   39.450    3.9600
   39.465    3.9073
   39.480    3.6967
   39.495    3.8441
   39.510    3.8968
   39.525    3.7388
   39.540    4.0548
   39.555    3.9179
   39.570    4.0021
   39.585    4.3286
   39.600    4.1601
   39.615    4.0758
   39.630    4.2549
   39.645    4.1811
   39.660    3.7809
   39.675    3.8125
   39.690    4.2233
   39.705    4.2022
   39.720    4.1496
   39.735    3.7283
   39.750    3.8757
   39.765    3.9600
   39.780    3.7704
   39.795    3.7072
   39.810    3.9073
   39.825    4.1390
   39.840    3.7915
   39.855    3.9494
   39.870    3.8652
   39.885    4.0758
   39.900    4.2654
   39.915    3.8757
   39.930    3.8757
   39.945    4.3075
   39.960    3.8336
   39.975    3.9073
   39.990    4.2865
