    1.500   17.6584
    1.515   17.7813
    1.530   17.5531
    1.545   16.5350
    1.560   16.3770
    1.575   16.2015
    1.590   15.8680
    1.605   15.3765
    1.620   15.4116
    1.635   15.2712
    1.650   15.2361
    1.665   15.2361
    1.680   14.6217
    1.695   14.5340
    1.710   15.5520
    1.725   14.6042
    1.740   13.4808
    1.755   14.3233
    1.770   14.2356
    1.785   14.1478
    1.800   14.0600
    1.815   13.3228
    1.830   13.4632
    1.845   13.4983
    1.860   13.1473
    1.875   13.3228
    1.890   13.0946
    1.905   12.4803
    1.920   11.9888
    1.935   12.9717
    1.950   13.0420
    1.965   12.9717
    1.980   11.8132
    1.995   12.1819
    2.010   12.2696
    2.025   11.3217
    2.040   11.4973
    2.055   11.9361
    2.070   11.9186
    2.085   11.3569
    2.100   12.0063
    2.115   11.4271
    2.130   11.2866
    2.145   11.5499
    2.160   11.2515
    2.175   10.4090
    2.190   10.5845
    2.205   10.8127
    2.220   10.8478
    2.235   11.3217
    2.250   11.0936
    2.265   11.4622
    2.280   10.5319
    2.295   11.1813
    2.310   10.9005
    2.325   10.6196
    2.340   10.6898
    2.355   10.1632
    2.370   10.4265
    2.385   10.8127
    2.400    9.8297
    2.415   10.5670
    2.430   10.5143
    2.445    9.9175
    2.460   10.2159
    2.475   10.0404
    2.490   10.0404
    2.505   10.4265
    2.520    9.9877
    2.535    9.5840
    2.550    9.8999
    2.565    9.8297
    2.580    9.3558
    2.595    9.6191
    2.610    9.7946
    2.625    9.9351
    2.640   10.1106
    2.655    9.3734
    2.670    9.6191
    2.685    9.6367
    2.700    9.6893
    2.715    9.3207
    2.730    9.3382
    2.745    9.3734
    2.760    8.9872
    2.775    9.1978
    2.790    9.4611
    2.805    8.8292
    2.820    9.1101
    2.835    8.9345
    2.850    8.9872
    2.865    8.8468
    2.880    8.9696
    2.895    9.5840
    2.910    9.2856
    2.925    8.8468
    2.940    9.6015
    2.955    8.7063
    2.970    9.6718
    2.985    9.3031
    3.000    9.0398
    3.015    9.2154
    3.030    9.7946
    3.045    9.2329
    3.060    9.4962
    3.075    8.7765
    3.090    8.8819
    3.105    8.8468
    3.120    9.2329
    3.135    9.6015
    3.150    9.3031
    3.165    9.4962
    3.180   10.0404
    3.195    9.9702
    3.210    9.9351
    3.225    9.9702
    3.240   10.1281
    3.255   10.3739
    3.270   10.5319
    3.285   11.2691
    3.300   10.5670
    3.315   10.9531
    3.330   11.7430
    3.345   11.8834
    3.360   11.7079
    3.375   12.0765
    3.390   12.5505
    3.405   13.1999
    3.420   12.9893
    3.435   13.7792
    3.450   13.9372
    3.465   14.6919
    3.480   14.9903
    3.495   15.5872
    3.510   15.5520
    3.525   17.1845
    3.540   18.5010
    3.555   19.6068
    3.570   19.3611
    3.585   19.6419
    3.600   21.3095
    3.615   23.3983
    3.630   25.0834
    3.645   26.4876
    3.660   27.8568
    3.675   30.1036
    3.690   32.2099
    3.705   35.1062
    3.720   37.3530
    3.735   40.9338
    3.750   44.6200
    3.765   48.5168
    3.780   54.5375
    3.795   61.4710
    3.810   71.3533
    3.825   82.1485
    3.840   92.4171
    3.855   93.0314
    3.870   86.2559
    3.885   75.4432
    3.900   58.8380
    3.915   42.4083
    3.930   27.3653
    3.945   18.8169
    3.960   14.3584
    3.975   11.6904
    3.990   10.8654
    4.005    9.5138
    4.020    9.7420
    4.035    9.0750
    4.050    8.9696
    4.065    8.0920
    4.080    8.4781
    4.095    8.6010
    4.110    8.5133
    4.125    8.5308
    4.140    8.0393
    4.155    8.2149
    4.170    8.0569
    4.185    7.8989
    4.200    7.8813
    4.215    7.8462
    4.230    7.9516
    4.245    7.4601
    4.260    8.1622
    4.275    8.3904
    4.290    7.8638
    4.305    7.5303
    4.320    7.8989
    4.335    8.2324
    4.350    7.7936
    4.365    7.4425
    4.380    8.2675
    4.395    7.7760
    4.410    7.6180
    4.425    7.7585
    4.440    7.5303
    4.455    8.1271
    4.470    8.1973
    4.485    8.3553
    4.500    7.8813
    4.515    7.4952
    4.530    7.7234
    4.545    7.4250
    4.560    7.4250
    4.575    7.9867
    4.590    7.8462
    4.605    7.6532
    4.620    7.8638
    4.635    7.9691
    4.650    7.9691
    4.665    8.0920
    4.680    7.8638
    4.695    7.5654
    4.710    8.2149
    4.725    7.6532
    4.740    8.3202
    4.755    8.3553
    4.770    8.0218
    4.785    8.0218
    4.800    8.0744
    4.815    8.1622
    4.830    8.5308
    4.845    7.8287
    4.860    8.1271
    4.875    7.7058
    4.890    8.2500
    4.905    8.1973
    4.920    7.6883
    4.935    8.1095
    4.950    7.9516
    4.965    8.1622
    4.980    8.7765
    4.995    8.4430
    5.010    8.4781
    5.025    8.6361
    5.040    8.6537
    5.055    8.6537
    5.070    8.6537
    5.085    9.0047
    5.100    8.4430
    5.115    9.3031
    5.130    9.6542
    5.145    9.3207
    5.160   10.0053
    5.175    9.8824
    5.190    9.9877
    5.205   10.3388
    5.220   10.1457
    5.235   10.5670
    5.250   10.5143
    5.265   11.0233
    5.280   11.5148
    5.295   11.6202
    5.310   11.7957
    5.325   12.7435
    5.340   13.2877
    5.355   13.9196
    5.370   15.2712
    5.385   15.5169
    5.400   16.4473
    5.415   18.0972
    5.430   19.3786
    5.445   20.8882
    5.460   22.3802
    5.475   23.9424
    5.490   22.7137
    5.505   20.9584
    5.520   19.4664
    5.535   16.0962
    5.550   12.9191
    5.565   11.7606
    5.580   10.8127
    5.595   10.3388
    5.610   10.9531
    5.625   10.0755
    5.640   10.1281
    5.655    9.5313
    5.670    9.7595
    5.685    9.8297
    5.700    9.1101
    5.715    9.3558
    5.730    9.7069
    5.745    9.4085
    5.760    8.9696
    5.775    8.9521
    5.790    8.4781
    5.805    9.1101
    5.820    8.5659
    5.835    8.3377
    5.850    8.5835
    5.865    9.1452
    5.880    9.1452
    5.895    8.6712
    5.910    8.4079
    5.925    8.6186
    5.940    8.8819
    5.955    8.1271
    5.970    8.0218
    5.985    7.7760
    6.000    7.8462
    6.015    7.5127
    6.030    8.0744
    6.045    8.0920
    6.060    7.8287
    6.075    7.8813
    6.090    8.0569
    6.105    7.7936
    6.120    7.2319
    6.135    7.7585
    6.150    7.7409
    6.165    8.0744
    6.180    7.6005
    6.195    7.6356
    6.210    7.1792
    6.225    7.8989
    6.240    7.4425
    6.255    7.6180
    6.270    7.3372
    6.285    7.4601
    6.300    7.5478
    6.315    7.4425
    6.330    7.4250
    6.345    7.0563
    6.360    7.5478
    6.375    7.3021
    6.390    7.4601
    6.405    7.9340
    6.420    7.7585
    6.435    6.8808
    6.450    6.7755
    6.465    7.3547
    6.480    7.4074
    6.495    6.8633
    6.510    7.2143
    6.525    7.0915
    6.540    7.3196
    6.555    6.7755
    6.570    7.6180
    6.585    7.4952
    6.600    7.5303
    6.615    7.6005
    6.630    7.5127
    6.645    8.1622
    6.660    8.4957
    6.675    8.2851
    6.690    8.6361
    6.705    9.2856
    6.720    9.6191
    6.735    9.3734
    6.750    8.6888
    6.765    8.6888
    6.780    7.9164
    6.795    7.5127
    6.810    7.3372
    6.825    6.8457
    6.840    7.0388
    6.855    6.9861
    6.870    6.8282
    6.885    6.7053
    6.900    6.4595
    6.915    6.6351
    6.930    6.5824
    6.945    6.7579
    6.960    6.7579
    6.975    6.6526
    6.990    6.1611
    7.005    6.3191
    7.020    5.9329
    7.035    6.2840
    7.050    6.0032
    7.065    6.5649
    7.080    6.2665
    7.095    6.3542
    7.110    6.3016
    7.125    6.0383
    7.140    6.6000
    7.155    6.5824
    7.170    6.2840
    7.185    6.3893
    7.200    6.4946
    7.215    6.0558
    7.230    6.1436
    7.245    6.1962
    7.260    6.1260
    7.275    6.0383
    7.290    5.7750
    7.305    6.3016
    7.320    5.7048
    7.335    5.8803
    7.350    5.6521
    7.365    5.8276
    7.380    5.8803
    7.395    5.3888
    7.410    5.7750
    7.425    6.0032
    7.440    5.8627
    7.455    5.8452
    7.470    5.7223
    7.485    5.3712
    7.500    5.5292
    7.515    6.2489
    7.530    6.1962
    7.545    5.5468
    7.560    6.0032
    7.575    6.0207
    7.590    6.4420
    7.605    6.0909
    7.620    5.9856
    7.635    6.3542
    7.650    6.5649
    7.665    6.8106
    7.680    6.8282
    7.695    6.8106
    7.710    6.8633
    7.725    7.6005
    7.740    8.3377
    7.755    8.3728
    7.770    8.8994
    7.785    8.4606
    7.800    8.7414
    7.815    8.6010
    7.830    7.6883
    7.845    7.0388
    7.860    5.7925
    7.875    5.7399
    7.890    5.7925
    7.905    5.8627
    7.920    5.7399
    7.935    5.3888
    7.950    5.5819
    7.965    5.3361
    7.980    5.2133
    7.995    5.1782
    8.010    5.1606
    8.025    5.4941
    8.040    5.5468
    8.055    5.4064
    8.070    5.4239
    8.085    5.3888
    8.100    5.4415
    8.115    5.4415
    8.130    5.2484
    8.145    5.4766
    8.160    5.0904
    8.175    5.4415
    8.190    5.3712
    8.205    5.3361
    8.220    5.0026
    8.235    5.0728
    8.250    5.1606
    8.265    5.0553
    8.280    5.0377
    8.295    5.6170
    8.310    5.1255
    8.325    5.0553
    8.340    5.1606
    8.355    5.2133
    8.370    5.2133
    8.385    5.0553
    8.400    4.9675
    8.415    5.2835
    8.430    5.3010
    8.445    5.2659
    8.460    5.2308
    8.475    5.0202
    8.490    5.0377
    8.505    5.1431
    8.520    4.8095
    8.535    5.3537
    8.550    5.4415
    8.565    5.5292
    8.580    4.7920
    8.595    5.0553
    8.610    4.8271
    8.625    5.3361
    8.640    5.2659
    8.655    4.9675
    8.670    4.7393
    8.685    5.0202
    8.700    5.2659
    8.715    5.1080
    8.730    4.8798
    8.745    5.2659
    8.760    5.3186
    8.775    5.2659
    8.790    4.8095
    8.805    4.7218
    8.820    5.0026
    8.835    4.8973
    8.850    5.3010
    8.865    5.0553
    8.880    5.2308
    8.895    5.3712
    8.910    5.2484
    8.925    5.0026
    8.940    5.0377
    8.955    5.1782
    8.970    4.7393
    8.985    4.9500
    9.000    4.5814
    9.015    4.3707
    9.030    4.6165
    9.045    4.3883
    9.060    4.9851
    9.075    4.8973
    9.090    4.8271
    9.105    5.0377
    9.120    5.1431
    9.135    4.9149
    9.150    4.6165
    9.165    5.2659
    9.180    5.0728
    9.195    5.1431
    9.210    4.5989
    9.225    5.0202
    9.240    5.1606
    9.255    5.0553
    9.270    4.8973
    9.285    5.2835
    9.300    5.3010
    9.315    4.9149
    9.330    5.1080
    9.345    5.6697
    9.360    5.1080
    9.375    5.1080
    9.390    5.5819
    9.405    6.0909
    9.420    6.0207
    9.435    6.3718
    9.450    7.4250
    9.465    7.6707
    9.480    8.8468
    9.495   10.1281
    9.510   11.0760
    9.525   11.8483
    9.540   12.1467
    9.555   11.9186
    9.570   11.0585
    9.585   10.2159
    9.600    8.4957
    9.615    7.0915
    9.630    5.7750
    9.645    5.7048
    9.660    5.4064
    9.675    5.5994
    9.690    5.2659
    9.705    5.4590
    9.720    5.0377
    9.735    4.8447
    9.750    4.4585
    9.765    5.0553
    9.780    4.7569
    9.795    4.3005
    9.810    4.3707
    9.825    4.6165
    9.840    5.0202
    9.855    4.8622
    9.870    5.3537
    9.885    4.8271
    9.900    4.9851
    9.915    5.0728
    9.930    4.7569
    9.945    4.6691
    9.960    4.8798
    9.975    4.7042
    9.990    4.5638
   10.005    4.6165
   10.020    4.7744
   10.035    5.0202
   10.050    4.9851
   10.065    4.5814
   10.080    4.8798
   10.095    5.0728
   10.110    4.8798
   10.125    5.1782
   10.140    4.7218
   10.155    5.2308
   10.170    5.3361
   10.185    5.0026
   10.200    5.3888
   10.215    5.4941
   10.230    5.5468
   10.245    5.5468
   10.260    5.6345
   10.275    6.4420
   10.290    6.8633
   10.305    7.0563
   10.320    7.1266
   10.335    7.3021
   10.350    6.8457
   10.365    6.3718
   10.380    5.9154
   10.395    5.4064
   10.410    5.3186
   10.425    4.6867
   10.440    4.2654
   10.455    4.7920
   10.470    4.9324
   10.485    4.7218
   10.500    4.7744
   10.515    5.0904
   10.530    5.4064
   10.545    5.0728
   10.560    5.1255
   10.575    5.1782
   10.590    5.2835
   10.605    5.4590
   10.620    5.1957
   10.635    4.9324
   10.650    5.0202
   10.665    4.9675
   10.680    5.0026
   10.695    4.9324
   10.710    5.0553
   10.725    5.0026
   10.740    5.2835
   10.755    4.9324
   10.770    4.9675
   10.785    4.8798
   10.800    5.3010
   10.815    5.0026
   10.830    5.1431
   10.845    5.0026
   10.860    5.0904
   10.875    5.0202
   10.890    4.8622
   10.905    4.9149
   10.920    5.8978
   10.935    5.6170
   10.950    5.8101
   10.965    5.9505
   10.980    6.4244
   10.995    6.8282
   11.010    6.7228
   11.025    7.4074
   11.040    7.7409
   11.055    7.3899
   11.070    6.4946
   11.085    5.2835
   11.100    5.0377
   11.115    5.2835
   11.130    5.7399
   11.145    5.3361
   11.160    5.1080
   11.175    5.0904
   11.190    5.0553
   11.205    4.8447
   11.220    5.3537
   11.235    5.2659
   11.250    5.0026
   11.265    4.6691
   11.280    5.2659
   11.295    5.1431
   11.310    5.1431
   11.325    4.6165
   11.340    5.2133
   11.355    4.9675
   11.370    4.7218
   11.385    5.0377
   11.400    5.3712
   11.415    4.6867
   11.430    4.5638
   11.445    5.0728
   11.460    5.3537
   11.475    4.9149
   11.490    5.1782
   11.505    4.8973
   11.520    5.0026
   11.535    5.2308
   11.550    4.7042
   11.565    5.1255
   11.580    5.0904
   11.595    5.3010
   11.610    5.7399
   11.625    5.4239
   11.640    5.3537
   11.655    6.5824
   11.670    7.2143
   11.685    7.1441
   11.700    7.2319
   11.715    7.5478
   11.730    7.0915
   11.745    6.8457
   11.760    5.6697
   11.775    5.6697
   11.790    5.5117
   11.805    4.8622
   11.820    4.8973
   11.835    4.3883
   11.850    4.7393
   11.865    4.9675
   11.880    4.7920
   11.895    4.5814
   11.910    4.6691
   11.925    4.9851
   11.940    4.7744
   11.955    4.8447
   11.970    4.9675
   11.985    4.7218
   12.000    4.7569
   12.015    4.5638
   12.030    4.4058
   12.045    4.6516
   12.060    4.5287
   12.075    4.7218
   12.090    5.0553
   12.105    4.7569
   12.120    5.1606
   12.135    4.8095
   12.150    3.8968
   12.165    4.5463
   12.180    5.1080
   12.195    4.8798
   12.210    4.4058
   12.225    4.9324
   12.240    5.2484
   12.255    4.6691
   12.270    4.4058
   12.285    4.8447
   12.300    4.7920
   12.315    5.1782
   12.330    4.9500
   12.345    5.1431
   12.360    4.8095
   12.375    5.1255
   12.390    5.1255
   12.405    4.7393
   12.420    4.7744
   12.435    4.6165
   12.450    4.4234
   12.465    4.8271
   12.480    4.5814
   12.495    4.7393
   12.510    4.9149
   12.525    4.8271
   12.540    4.7218
   12.555    4.8447
   12.570    5.1782
   12.585    4.5989
   12.600    4.5287
   12.615    5.2133
   12.630    4.9500
   12.645    4.7393
   12.660    4.5111
   12.675    4.5814
   12.690    4.7920
   12.705    4.6867
   12.720    4.6867
   12.735    4.7042
   12.750    4.7218
   12.765    4.6165
   12.780    4.6340
   12.795    4.7393
   12.810    4.8095
   12.825    4.6867
   12.840    5.0377
   12.855    5.1782
   12.870    5.0377
   12.885    5.2659
   12.900    5.1431
   12.915    6.2840
   12.930    6.4595
   12.945    6.0207
   12.960    6.3016
   12.975    6.4595
   12.990    6.3016
   13.005    5.1255
   13.020    4.7393
   13.035    4.6691
   13.050    4.8271
   13.065    5.0728
   13.080    4.5638
   13.095    4.6691
   13.110    4.5638
   13.125    3.8968
   13.140    4.5287
   13.155    4.4936
   13.170    4.5287
   13.185    3.9494
   13.200    4.3005
   13.215    4.5989
   13.230    4.4234
   13.245    4.8271
   13.260    4.8447
   13.275    4.9324
   13.290    4.8447
   13.305    4.8095
   13.320    4.5638
   13.335    4.6516
   13.350    4.4409
   13.365    4.3181
   13.380    4.2303
   13.395    4.7042
   13.410    4.5111
   13.425    4.5463
   13.440    4.6165
   13.455    4.8798
   13.470    4.8095
   13.485    5.0904
   13.500    5.4064
   13.515    5.8452
   13.530    5.8452
   13.545    5.5292
   13.560    5.0553
   13.575    4.7744
   13.590    4.4234
   13.605    5.0728
   13.620    4.8798
   13.635    5.0026
   13.650    4.9149
   13.665    4.7920
   13.680    4.3356
   13.695    4.5463
   13.710    4.8271
   13.725    4.1952
   13.740    4.4760
   13.755    4.5638
   13.770    5.0026
   13.785    4.5463
   13.800    4.5111
   13.815    4.9851
   13.830    4.8973
   13.845    4.7393
   13.860    4.5814
   13.875    4.4409
   13.890    4.1776
   13.905    4.3883
   13.920    4.5463
   13.935    4.3883
   13.950    4.9500
   13.965    4.7393
   13.980    4.9500
   13.995    5.0377
   14.010    4.7393
   14.025    5.2133
   14.040    5.7925
   14.055    5.4590
   14.070    5.9505
   14.085    6.2840
   14.100    6.7579
   14.115    5.9154
   14.130    5.3010
   14.145    5.3712
   14.160    5.2659
   14.175    5.0026
   14.190    4.8622
   14.205    4.7920
   14.220    4.8271
   14.235    5.0202
   14.250    4.7393
   14.265    4.7569
   14.280    4.7569
   14.295    4.6340
   14.310    4.9851
   14.325    4.8271
   14.340    4.7393
   14.355    4.8622
   14.370    4.9851
   14.385    4.8095
   14.400    4.9500
   14.415    4.6867
   14.430    4.6340
   14.445    4.9851
   14.460    5.0728
   14.475    4.9149
   14.490    4.7393
   14.505    4.9851
   14.520    5.0904
   14.535    4.2478
   14.550    4.7042
   14.565    5.4064
   14.580    5.0553
   14.595    4.5111
   14.610    5.2308
   14.625    4.8447
   14.640    5.1606
   14.655    4.9851
   14.670    4.3883
   14.685    5.0377
   14.700    5.1957
   14.715    5.0202
   14.730    4.8798
   14.745    4.9675
   14.760    4.8798
   14.775    4.7393
   14.790    5.0202
   14.805    4.6691
   14.820    4.8095
   14.835    4.8447
   14.850    4.7569
   14.865    4.6867
   14.880    4.1601
   14.895    4.6867
   14.910    4.3532
   14.925    4.1074
   14.940    4.9675
   14.955    5.1782
   14.970    4.8447
   14.985    4.3181
   15.000    3.9670
   15.015    4.4585
   15.030    4.5287
   15.045    4.5989
   15.060    4.2478
   15.075    4.6516
   15.090    4.5111
   15.105    4.6691
   15.120    4.8095
   15.135    5.0553
   15.150    5.0026
   15.165    4.5638
   15.180    4.3356
   15.195    4.3181
   15.210    4.5287
   15.225    4.1601
   15.240    4.5463
   15.255    4.6340
   15.270    4.6516
   15.285    5.0904
   15.300    4.7042
   15.315    4.2303
   15.330    4.1074
   15.345    4.2654
   15.360    4.3356
   15.375    4.2127
   15.390    4.6340
   15.405    4.3005
   15.420    4.5463
   15.435    4.3356
   15.450    4.2830
   15.465    4.2303
   15.480    3.9319
   15.495    4.5814
   15.510    4.4585
   15.525    4.2127
   15.540    4.5287
   15.555    4.8622
   15.570    4.2830
   15.585    4.1601
   15.600    4.7920
   15.615    4.5638
   15.630    4.6867
   15.645    4.3181
   15.660    4.6691
   15.675    4.9324
   15.690    4.6165
   15.705    4.7218
   15.720    4.3707
   15.735    4.1425
   15.750    4.4409
   15.765    5.2659
   15.780    4.7920
   15.795    4.5814
   15.810    4.4585
   15.825    4.8271
   15.840    4.5287
   15.855    4.3181
   15.870    3.8968
   15.885    4.3883
   15.900    4.7744
   15.915    4.5111
   15.930    4.8798
   15.945    4.4409
   15.960    4.6516
   15.975    4.2830
   15.990    4.3005
   16.005    4.6340
   16.020    4.7393
   16.035    4.5287
   16.050    4.6691
   16.065    4.8973
   16.080    4.5814
   16.095    4.8447
   16.110    4.9851
   16.125    4.6340
   16.140    4.9149
   16.155    4.6867
   16.170    4.3356
   16.185    4.5463
   16.200    4.9675
   16.215    4.5111
   16.230    4.4585
   16.245    4.5111
   16.260    4.5287
   16.275    4.8798
   16.290    4.6340
   16.305    4.5111
   16.320    4.2830
   16.335    4.5638
   16.350    4.7569
   16.365    4.6165
   16.380    4.5111
   16.395    4.5463
   16.410    4.6165
   16.425    3.8441
   16.440    4.1250
   16.455    4.8973
   16.470    4.7393
   16.485    4.8622
   16.500    4.3532
   16.515    4.7569
   16.530    4.4409
   16.545    4.9500
   16.560    4.7569
   16.575    4.5638
   16.590    4.8271
   16.605    4.5463
   16.620    5.2133
   16.635    4.9675
   16.650    4.2303
   16.665    4.7218
   16.680    4.7042
   16.695    4.4760
   16.710    4.2478
   16.725    4.2127
   16.740    4.1425
   16.755    4.3181
   16.770    4.4585
   16.785    4.2654
   16.800    4.5287
   16.815    4.7744
   16.830    4.9149
   16.845    4.2830
   16.860    4.3005
   16.875    4.3181
   16.890    4.1952
   16.905    4.7920
   16.920    4.6340
   16.935    4.2830
   16.950    4.3883
   16.965    4.4760
   16.980    4.8622
   16.995    4.9149
   17.010    4.7569
   17.025    4.7744
   17.040    4.8622
   17.055    5.4590
   17.070    5.7223
   17.085    5.7048
   17.100    5.3010
   17.115    5.1080
   17.130    5.1080
   17.145    4.7744
   17.160    4.8271
   17.175    4.8271
   17.190    4.4585
   17.205    4.5287
   17.220    4.5287
   17.235    4.6516
   17.250    4.6165
   17.265    4.5638
   17.280    4.6516
   17.295    4.3883
   17.310    3.8792
   17.325    4.1074
   17.340    4.1952
   17.355    4.1425
   17.370    4.2303
   17.385    4.1776
   17.400    4.1425
   17.415    4.2654
   17.430    4.1425
   17.445    4.4409
   17.460    4.8271
   17.475    4.5989
   17.490    4.8973
   17.505    4.9851
   17.520    4.7042
   17.535    5.0377
   17.550    4.6867
   17.565    5.2133
   17.580    4.7218
   17.595    4.3883
   17.610    4.1250
   17.625    4.1074
   17.640    4.3181
   17.655    4.5111
   17.670    4.7393
   17.685    4.6691
   17.700    4.7569
   17.715    4.0899
   17.730    4.2654
   17.745    4.5463
   17.760    4.1952
   17.775    4.6867
   17.790    4.2830
   17.805    4.7920
   17.820    4.4058
   17.835    4.4058
   17.850    4.5111
   17.865    4.5111
   17.880    5.0728
   17.895    4.7393
   17.910    4.4936
   17.925    4.4409
   17.940    4.5814
   17.955    4.9324
   17.970    4.6867
   17.985    3.9846
   18.000    4.3181
   18.015    4.4234
   18.030    4.4058
   18.045    4.5989
   18.060    4.5989
   18.075    4.5463
   18.090    4.4585
   18.105    4.2830
   18.120    4.4760
   18.135    4.5989
   18.150    4.8622
   18.165    4.5287
   18.180    4.2654
   18.195    4.1601
   18.210    4.3532
   18.225    4.7744
   18.240    4.5111
   18.255    4.1952
   18.270    4.1425
   18.285    3.9670
   18.300    4.3883
   18.315    4.5989
   18.330    4.5287
   18.345    4.3356
   18.360    4.7393
   18.375    4.6340
   18.390    4.9500
   18.405    4.8622
   18.420    4.6691
   18.435    4.5638
   18.450    4.4234
   18.465    4.6516
   18.480    4.4409
   18.495    4.3356
   18.510    4.3005
   18.525    4.3356
   18.540    4.3181
   18.555    4.1601
   18.570    4.4936
   18.585    4.2478
   18.600    4.4058
   18.615    4.4585
   18.630    4.5111
   18.645    4.7744
   18.660    4.7218
   18.675    4.3707
   18.690    4.6691
   18.705    4.2127
   18.720    3.9494
   18.735    3.8617
   18.750    4.3181
   18.765    4.6165
   18.780    4.5814
   18.795    4.5463
   18.810    4.3356
   18.825    4.2127
   18.840    4.7393
   18.855    4.3532
   18.870    4.1776
   18.885    3.9143
   18.900    4.1952
   18.915    4.2654
   18.930    4.3532
   18.945    4.0197
   18.960    4.4234
   18.975    4.2303
   18.990    4.3532
   19.005    4.3181
   19.020    4.5989
   19.035    4.3707
   19.050    4.5638
   19.065    4.2127
   19.080    4.1776
   19.095    4.2303
   19.110    4.2303
   19.125    4.6340
   19.140    4.2303
   19.155    3.9846
   19.170    4.0372
   19.185    4.1776
   19.200    4.4409
   19.215    4.0899
   19.230    4.0372
   19.245    4.2303
   19.260    4.3532
   19.275    4.0899
   19.290    4.1425
   19.305    4.2654
   19.320    4.0197
   19.335    4.0197
   19.350    3.9846
   19.365    3.9846
   19.380    4.3356
   19.395    4.1250
   19.410    3.9846
   19.425    4.0899
   19.440    4.2830
   19.455    4.4409
   19.470    4.3532
   19.485    4.4409
   19.500    4.3707
   19.515    3.9494
   19.530    4.5989
   19.545    4.4234
   19.560    4.1601
   19.575    4.3883
   19.590    4.3356
   19.605    4.7042
   19.620    4.9149
   19.635    4.5638
   19.650    4.5814
   19.665    4.5287
   19.680    4.5111
   19.695    3.8617
   19.710    4.2303
   19.725    4.4585
   19.740    4.2654
   19.755    4.0197
   19.770    4.1074
   19.785    3.8792
   19.800    3.6510
   19.815    3.8792
   19.830    3.6862
   19.845    3.9670
   19.860    4.3707
   19.875    4.2654
   19.890    4.4409
   19.905    4.1952
   19.920    3.7037
   19.935    4.1425
   19.950    4.0548
   19.965    4.2127
   19.980    4.4585
   19.995    4.4058
   20.010    4.1601
   20.025    4.3707
   20.040    4.5287
   20.055    4.2127
   20.070    4.2830
   20.085    4.0548
   20.100    3.9670
   20.115    4.1601
   20.130    4.4058
   20.145    3.9143
   20.160    4.0723
   20.175    3.9846
   20.190    3.6335
   20.205    4.1250
   20.220    3.9319
   20.235    4.2127
   20.250    4.4058
   20.265    4.1952
   20.280    4.1250
   20.295    3.8617
   20.310    3.8090
   20.325    3.9846
   20.340    4.4585
   20.355    4.5814
   20.370    4.8622
   20.385    4.7569
   20.400    5.1080
   20.415    5.0553
   20.430    5.0202
   20.445    5.0377
   20.460    4.6691
   20.475    4.4760
   20.490    3.8792
   20.505    3.9319
   20.520    4.2830
   20.535    4.3707
   20.550    4.0372
   20.565    4.1601
   20.580    4.0548
   20.595    4.1601
   20.610    4.2478
   20.625    4.0723
   20.640    4.1601
   20.655    4.1776
   20.670    4.0021
   20.685    4.4585
   20.700    3.7564
   20.715    4.0723
   20.730    4.2830
   20.745    4.0548
   20.760    4.1952
   20.775    4.0723
   20.790    4.3707
   20.805    4.1601
   20.820    3.7213
   20.835    4.3883
   20.850    4.0723
   20.865    4.1952
   20.880    4.0372
   20.895    3.9494
   20.910    3.7564
   20.925    3.8441
   20.940    3.8090
   20.955    3.7915
   20.970    4.0021
   20.985    4.0197
   21.000    3.9670
   21.015    3.7037
   21.030    3.8441
   21.045    3.7739
   21.060    3.7213
   21.075    3.9143
   21.090    4.0723
   21.105    3.8266
   21.120    3.5633
   21.135    4.0723
   21.150    3.6510
   21.165    3.4404
   21.180    3.8792
   21.195    4.3356
   21.210    4.0372
   21.225    3.4053
   21.240    3.6862
   21.255    3.9143
   21.270    3.6335
   21.285    3.8266
   21.300    3.8090
   21.315    3.6862
   21.330    4.1074
   21.345    3.6686
   21.360    3.9494
   21.375    4.0372
   21.390    4.0899
   21.405    4.4760
   21.420    4.0021
   21.435    3.8441
   21.450    4.0197
   21.465    4.1601
   21.480    3.7037
   21.495    3.7739
   21.510    4.0548
   21.525    4.2478
   21.540    3.9494
   21.555    4.1250
   21.570    3.8441
   21.585    4.1074
   21.600    4.1952
   21.615    4.1250
   21.630    4.0197
   21.645    4.3707
   21.660    3.9670
   21.675    3.8090
   21.690    3.8792
   21.705    3.8441
   21.720    4.3181
   21.735    4.2830
   21.750    4.2127
   21.765    4.2654
   21.780    3.8441
   21.795    4.0548
   21.810    4.7393
   21.825    4.0548
   21.840    3.8266
   21.855    4.3356
   21.870    4.5111
   21.885    4.5989
   21.900    4.2127
   21.915    3.7915
   21.930    4.1952
   21.945    4.2654
   21.960    4.2303
   21.975    4.2830
   21.990    4.1250
   22.005    4.0899
   22.020    3.8266
   22.035    3.9319
   22.050    3.9494
   22.065    3.9143
   22.080    3.6335
   22.095    3.7037
   22.110    3.9494
   22.125    3.6159
   22.140    3.7915
   22.155    4.0372
   22.170    4.1776
   22.185    3.8090
   22.200    3.8441
   22.215    3.7213
   22.230    3.7388
   22.245    4.0723
   22.260    4.2303
   22.275    4.3181
   22.290    4.6165
   22.305    4.3707
   22.320    3.7388
   22.335    3.8792
   22.350    3.8792
   22.365    3.8968
   22.380    3.7739
   22.395    3.8792
   22.410    3.5633
   22.425    3.6510
   22.440    3.7564
   22.455    4.0197
   22.470    3.5457
   22.485    3.8617
   22.500    4.0548
   22.515    4.1601
   22.530    4.1250
   22.545    4.5287
   22.560    4.6516
   22.575    4.8622
   22.590    4.7920
   22.605    4.6691
   22.620    4.6340
   22.635    4.4585
   22.650    4.2127
   22.665    4.0548
   22.680    3.8441
   22.695    3.9143
   22.710    3.7037
   22.725    3.8792
   22.740    3.6862
   22.755    3.7739
   22.770    4.0723
   22.785    3.8617
   22.800    4.0021
   22.815    3.7739
   22.830    3.8441
   22.845    3.8266
   22.860    3.9670
   22.875    4.3532
   22.890    4.9324
   22.905    4.7393
   22.920    4.8973
   22.935    5.1606
   22.950    5.0553
   22.965    4.7569
   22.980    4.7218
   22.995    3.9143
   23.010    4.1425
   23.025    3.6335
   23.040    3.7213
   23.055    3.5633
   23.070    3.5282
   23.085    4.1952
   23.100    3.7213
   23.115    3.6510
   23.130    3.6510
   23.145    3.7564
   23.160    3.8792
   23.175    3.8441
   23.190    3.6510
   23.205    3.5457
   23.220    4.0197
   23.235    4.0372
   23.250    3.6686
   23.265    3.5633
   23.280    3.5457
   23.295    4.0899
   23.310    4.0021
   23.325    3.6686
   23.340    3.6510
   23.355    3.5633
   23.370    3.5984
   23.385    3.7213
   23.400    3.7564
   23.415    3.8266
   23.430    3.5106
   23.445    3.5984
   23.460    3.5457
   23.475    3.8266
   23.490    3.3877
   23.505    3.5457
   23.520    3.8441
   23.535    3.7037
   23.550    3.7564
   23.565    3.8968
   23.580    4.1425
   23.595    3.7388
   23.610    3.6335
   23.625    3.6686
   23.640    3.4755
   23.655    3.7037
   23.670    3.4755
   23.685    3.4229
   23.700    3.1947
   23.715    3.4755
   23.730    3.7037
   23.745    3.7739
   23.760    3.7564
   23.775    3.6335
   23.790    3.7564
   23.805    3.4053
   23.820    3.5106
   23.835    3.7564
   23.850    3.7915
   23.865    3.6159
   23.880    4.0197
   23.895    4.0021
   23.910    3.8090
   23.925    4.0197
   23.940    4.0548
   23.955    3.8968
   23.970    3.7915
   23.985    3.7213
   24.000    3.3702
   24.015    3.1069
   24.030    3.5282
   24.045    3.4755
   24.060    3.3351
   24.075    3.6862
   24.090    3.3351
   24.105    3.2473
   24.120    3.0542
   24.135    3.3000
   24.150    3.3526
   24.165    3.5633
   24.180    3.6335
   24.195    3.7037
   24.210    3.5106
   24.225    3.2824
   24.240    3.6335
   24.255    4.1601
   24.270    3.5282
   24.285    3.3000
   24.300    3.6510
   24.315    3.5633
   24.330    3.4053
   24.345    3.8266
   24.360    3.4404
   24.375    3.1947
   24.390    3.2122
   24.405    3.4755
   24.420    3.6862
   24.435    3.6335
   24.450    3.7915
   24.465    3.4404
   24.480    3.3175
   24.495    3.4404
   24.510    3.1947
   24.525    3.4404
   24.540    3.7564
   24.555    3.6510
   24.570    3.4931
   24.585    3.3877
   24.600    3.5633
   24.615    3.3526
   24.630    3.3351
   24.645    3.3000
   24.660    3.5106
   24.675    3.4053
   24.690    3.5457
   24.705    3.4755
   24.720    3.5808
   24.735    3.5282
   24.750    3.6510
   24.765    3.5633
   24.780    3.3351
   24.795    3.3351
   24.810    3.3702
   24.825    3.2298
   24.840    3.4404
   24.855    3.4755
   24.870    3.4404
   24.885    3.3000
   24.900    3.6510
   24.915    3.3877
   24.930    3.3000
   24.945    3.7739
   24.960    3.1245
   24.975    3.2473
   24.990    3.5984
   25.005    3.5633
   25.020    3.4404
   25.035    3.2824
   25.050    3.5457
   25.065    3.4931
   25.080    3.4404
   25.095    3.2824
   25.110    3.3000
   25.125    3.4580
   25.140    3.5808
   25.155    3.4229
   25.170    3.3877
   25.185    3.7037
   25.200    3.6335
   25.215    3.6862
   25.230    3.7213
   25.245    3.8090
   25.260    3.5457
   25.275    3.7388
   25.290    3.3000
   25.305    3.4229
   25.320    3.5808
   25.335    3.2824
   25.350    2.9314
   25.365    3.5984
   25.380    3.8968
   25.395    3.7037
   25.410    3.5282
   25.425    3.3877
   25.440    3.4229
   25.455    3.1245
   25.470    3.2473
   25.485    3.2824
   25.500    3.4931
   25.515    3.4053
   25.530    3.5808
   25.545    3.7037
   25.560    3.4580
   25.575    3.8441
   25.590    3.3351
   25.605    3.1596
   25.620    3.2473
   25.635    3.4053
   25.650    3.0016
   25.665    3.3702
   25.680    3.3877
   25.695    3.3351
   25.710    3.0542
   25.725    3.2298
   25.740    3.4755
   25.755    3.3175
   25.770    3.5457
   25.785    3.8968
   25.800    3.7564
   25.815    3.8090
   25.830    4.0372
   25.845    4.2478
   25.860    3.9670
   25.875    3.8617
   25.890    3.5808
   25.905    4.0899
   25.920    3.6510
   25.935    3.3526
   25.950    3.4755
   25.965    3.1771
   25.980    3.5984
   25.995    3.2122
   26.010    3.0542
   26.025    3.5984
   26.040    3.6862
   26.055    3.3000
   26.070    3.1947
   26.085    3.3351
   26.100    3.1069
   26.115    2.8963
   26.130    3.0191
   26.145    3.1947
   26.160    3.2122
   26.175    2.9138
   26.190    3.4053
   26.205    3.3175
   26.220    3.4755
   26.235    3.1245
   26.250    3.4580
   26.265    3.2649
   26.280    3.4404
   26.295    3.4755
   26.310    3.2473
   26.325    3.3351
   26.340    3.1245
   26.355    3.4053
   26.370    3.3351
   26.385    3.0191
   26.400    3.1596
   26.415    3.5984
   26.430    4.0372
   26.445    3.8792
   26.460    3.4229
   26.475    3.7564
   26.490    3.2473
   26.505    3.4931
   26.520    3.0016
   26.535    3.1947
   26.550    3.4580
   26.565    3.1596
   26.580    3.2473
   26.595    3.3877
   26.610    3.5282
   26.625    3.1596
   26.640    2.8612
   26.655    3.1771
   26.670    3.0718
   26.685    3.2473
   26.700    3.0893
   26.715    3.1245
   26.730    3.3351
   26.745    2.7032
   26.760    3.3175
   26.775    3.1069
   26.790    2.9489
   26.805    2.8612
   26.820    3.2298
   26.835    2.9665
   26.850    3.4053
   26.865    3.1947
   26.880    2.8436
   26.895    3.4053
   26.910    3.5633
   26.925    3.2122
   26.940    3.0542
   26.955    2.9138
   26.970    3.1771
   26.985    3.3000
   27.000    3.4053
   27.015    3.3175
   27.030    3.4580
   27.045    3.5282
   27.060    3.4229
   27.075    3.0893
   27.090    3.6510
   27.105    3.3702
   27.120    3.0893
   27.135    3.2824
   27.150    3.2824
   27.165    2.8436
   27.180    3.0542
   27.195    3.2298
   27.210    2.9665
   27.225    3.0191
   27.240    3.1069
   27.255    3.1596
   27.270    2.9665
   27.285    3.0718
   27.300    3.0191
   27.315    2.9314
   27.330    3.1420
   27.345    3.3702
   27.360    3.0016
   27.375    3.2824
   27.390    3.0893
   27.405    3.0542
   27.420    3.1771
   27.435    3.0542
   27.450    2.9489
   27.465    3.1069
   27.480    2.9314
   27.495    3.2298
   27.510    2.9314
   27.525    3.1245
   27.540    3.0016
   27.555    2.9314
   27.570    2.8787
   27.585    2.7909
   27.600    2.8787
   27.615    3.3702
   27.630    3.4755
   27.645    3.4404
   27.660    3.4931
   27.675    3.3702
   27.690    2.9665
   27.705    2.8787
   27.720    3.1947
   27.735    3.0893
   27.750    2.9314
   27.765    3.0367
   27.780    2.9665
   27.795    3.3000
   27.810    3.1245
   27.825    2.9840
   27.840    3.1245
   27.855    3.1596
   27.870    2.8787
   27.885    2.9489
   27.900    2.9665
   27.915    2.9840
   27.930    3.0542
   27.945    2.9489
   27.960    2.7909
   27.975    2.5628
   27.990    2.9489
   28.005    3.4229
   28.020    2.9138
   28.035    2.8436
   28.050    2.9489
   28.065    3.1069
   28.080    2.8436
   28.095    3.0542
   28.110    3.4229
   28.125    3.4404
   28.140    3.2122
   28.155    3.4229
   28.170    3.2473
   28.185    3.1069
   28.200    3.5106
   28.215    3.3000
   28.230    3.3000
   28.245    3.4404
   28.260    3.1069
   28.275    3.1245
   28.290    3.0367
   28.305    3.2824
   28.320    3.1420
   28.335    3.0718
   28.350    3.0191
   28.365    3.2824
   28.380    3.2649
   28.395    3.0893
   28.410    3.1420
   28.425    3.4931
   28.440    3.7564
   28.455    3.7037
   28.470    3.2473
   28.485    3.3526
   28.500    3.3000
   28.515    3.0367
   28.530    3.2824
   28.545    3.2298
   28.560    3.0718
   28.575    3.1245
   28.590    3.0016
   28.605    3.0893
   28.620    2.9840
   28.635    2.9314
   28.650    3.1245
   28.665    3.1771
   28.680    2.8963
   28.695    3.0718
   28.710    2.8963
   28.725    2.8436
   28.740    3.0718
   28.755    3.1596
   28.770    3.3351
   28.785    2.9840
   28.800    2.9665
   28.815    3.1069
   28.830    3.1596
   28.845    3.2473
   28.860    3.3702
   28.875    2.9665
   28.890    3.1420
   28.905    3.3351
   28.920    3.1420
   28.935    3.0367
   28.950    3.1947
   28.965    2.8963
   28.980    3.3175
   28.995    3.0016
   29.010    2.8085
   29.025    3.1771
   29.040    3.2122
   29.055    3.0718
   29.070    3.1420
   29.085    3.0191
   29.100    3.1596
   29.115    2.9138
   29.130    3.2122
   29.145    2.8612
   29.160    3.1596
   29.175    3.0191
   29.190    2.8436
   29.205    2.9489
   29.220    2.9840
   29.235    3.0367
   29.250    2.6330
   29.265    3.0893
   29.280    3.1069
   29.295    3.2473
   29.310    3.1245
   29.325    2.7909
   29.340    3.0191
   29.355    2.7909
   29.370    2.7734
   29.385    2.5979
   29.400    2.8963
   29.415    2.7909
   29.430    2.5101
   29.445    2.6505
   29.460    3.0191
   29.475    2.6505
   29.490    2.8085
   29.505    2.6154
   29.520    2.6681
   29.535    2.7383
   29.550    2.8085
   29.565    2.7383
   29.580    2.8963
   29.595    2.7909
   29.610    2.4750
   29.625    2.6154
   29.640    2.5979
   29.655    2.5628
   29.670    2.8612
   29.685    2.7383
   29.700    2.7558
   29.715    2.4223
   29.730    2.8436
   29.745    2.6856
   29.760    3.0367
   29.775    3.0542
   29.790    2.4750
   29.805    2.9314
   29.820    3.0893
   29.835    2.9138
   29.850    2.6505
   29.865    3.0016
   29.880    3.1771
   29.895    2.8612
   29.910    2.8612
   29.925    2.6505
   29.940    2.4574
   29.955    2.4574
   29.970    2.5803
   29.985    2.5101
   30.000    2.6681
   30.015    2.5628
   30.030    2.6681
   30.045    2.8260
   30.060    2.6681
   30.075    2.5276
   30.090    2.6856
   30.105    2.5803
   30.120    2.7383
   30.135    2.8787
   30.150    2.5803
   30.165    2.9840
   30.180    2.9314
   30.195    2.4925
   30.210    2.5803
   30.225    2.5628
   30.240    2.2819
   30.255    2.4925
   30.270    2.7734
   30.285    2.9138
   30.300    2.6330
   30.315    2.5452
   30.330    2.4223
   30.345    2.5452
   30.360    2.4574
   30.375    2.5452
   30.390    2.1941
   30.405    2.5276
   30.420    2.6856
   30.435    2.8260
   30.450    2.8612
   30.465    2.8963
   30.480    2.7383
   30.495    2.7558
   30.510    2.6154
   30.525    2.5101
   30.540    2.4574
   30.555    2.7383
   30.570    2.4574
   30.585    2.4048
   30.600    2.4750
   30.615    2.6330
   30.630    2.8436
   30.645    2.7909
   30.660    2.9840
   30.675    2.8260
   30.690    2.4399
   30.705    2.7032
   30.720    2.4574
   30.735    2.5101
   30.750    2.7558
   30.765    2.7032
   30.780    2.4223
   30.795    2.5101
   30.810    2.3872
   30.825    2.4223
   30.840    2.4574
   30.855    2.3872
   30.870    2.3697
   30.885    2.5452
   30.900    2.5452
   30.915    2.6856
   30.930    2.6681
   30.945    2.3872
   30.960    2.6154
   30.975    2.3872
   30.990    2.5101
   31.005    2.3170
   31.020    2.3521
   31.035    2.4048
   31.050    2.6154
   31.065    2.7558
   31.080    2.5979
   31.095    2.4048
   31.110    2.1590
   31.125    2.3521
   31.140    2.4048
   31.155    2.5803
   31.170    2.5276
   31.185    2.7207
   31.200    2.1590
   31.215    2.5101
   31.230    2.3521
   31.245    2.2643
   31.260    2.5628
   31.275    2.4399
   31.290    2.4048
   31.305    2.4399
   31.320    2.5628
   31.335    2.7909
   31.350    2.6856
   31.365    2.2819
   31.380    2.0011
   31.395    2.3521
   31.410    2.5628
   31.425    2.8085
   31.440    2.9840
   31.455    2.6154
   31.470    2.8085
   31.485    2.6330
   31.500    2.2643
   31.515    2.2995
   31.530    2.1064
   31.545    2.3872
   31.560    2.2117
   31.575    2.5452
   31.590    2.5452
   31.605    2.2819
   31.620    2.2995
   31.635    2.3872
   31.650    2.4048
   31.665    2.4925
   31.680    2.7734
   31.695    2.7032
   31.710    2.4048
   31.725    2.3872
   31.740    2.5803
   31.755    2.5101
   31.770    2.5628
   31.785    2.5276
   31.800    2.5628
   31.815    2.4574
   31.830    2.6330
   31.845    2.4574
   31.860    2.3872
   31.875    2.3697
   31.890    2.4048
   31.905    2.3170
   31.920    2.6154
   31.935    2.8963
   31.950    2.3346
   31.965    2.3697
   31.980    2.4925
   31.995    2.4223
   32.010    2.2292
   32.025    2.1941
   32.040    1.8431
   32.055    2.4223
   32.070    2.5979
   32.085    2.5101
   32.100    2.4750
   32.115    2.2995
   32.130    2.3697
   32.145    2.4925
   32.160    2.4223
   32.175    2.3697
   32.190    2.2819
   32.205    2.2117
   32.220    2.3872
   32.235    2.2643
   32.250    2.1766
   32.265    2.3346
   32.280    2.2468
   32.295    2.4223
   32.310    2.4574
   32.325    2.5101
   32.340    2.5979
   32.355    2.5276
   32.370    1.8782
   32.385    2.4048
   32.400    2.1590
   32.415    2.3346
   32.430    2.2819
   32.445    2.1766
   32.460    2.0888
   32.475    2.2117
   32.490    2.2292
   32.505    2.1415
   32.520    2.4223
   32.535    2.1941
   32.550    2.5628
   32.565    2.4399
   32.580    2.1590
   32.595    2.3697
   32.610    2.0888
   32.625    2.0888
   32.640    2.2468
   32.655    2.1064
   32.670    2.0011
   32.685    2.1415
   32.700    2.2117
   32.715    2.2468
   32.730    2.1239
   32.745    2.2468
   32.760    2.0888
   32.775    2.6330
   32.790    2.1590
   32.805    2.0888
   32.820    2.4925
   32.835    2.4048
   32.850    2.2995
   32.865    2.3521
   32.880    2.6330
   32.895    2.2819
   32.910    2.2117
   32.925    2.2117
   32.940    2.4223
   32.955    2.7032
   32.970    2.2995
   32.985    2.1941
   33.000    2.1590
   33.015    2.1064
   33.030    2.1590
   33.045    2.2117
   33.060    2.4925
   33.075    2.0186
   33.090    2.2468
   33.105    2.3346
   33.120    2.5101
   33.135    2.2468
   33.150    2.0537
   33.165    2.3346
   33.180    2.4574
   33.195    2.0011
   33.210    2.2292
   33.225    2.1239
   33.240    2.3697
   33.255    2.5452
   33.270    2.2117
   33.285    2.2995
   33.300    2.4925
   33.315    2.3872
   33.330    1.9133
   33.345    2.0186
   33.360    2.2995
   33.375    2.1941
   33.390    2.2819
   33.405    2.4048
   33.420    2.2292
   33.435    2.1590
   33.450    2.3872
   33.465    2.4574
   33.480    2.1941
   33.495    2.0537
   33.510    1.9659
   33.525    1.9835
   33.540    2.1064
   33.555    2.0362
   33.570    2.2643
   33.585    2.0713
   33.600    1.9835
   33.615    2.0537
   33.630    2.6154
   33.645    2.2292
   33.660    2.5101
   33.675    2.2995
   33.690    2.1766
   33.705    2.2819
   33.720    2.1941
   33.735    2.4399
   33.750    2.4399
   33.765    2.1415
   33.780    2.3170
   33.795    2.1941
   33.810    2.4399
   33.825    2.1064
   33.840    2.2468
   33.855    2.3346
   33.870    2.1415
   33.885    2.5452
   33.900    2.1941
   33.915    1.9308
   33.930    2.1941
   33.945    2.3872
   33.960    2.4925
   33.975    2.1766
   33.990    2.0888
   34.005    2.1239
   34.020    2.0186
   34.035    2.4574
   34.050    2.3521
   34.065    2.1590
   34.080    2.1941
   34.095    1.8080
   34.110    2.0362
   34.125    2.1766
   34.140    2.2643
   34.155    2.2819
   34.170    2.1590
   34.185    2.2468
   34.200    2.2468
   34.215    1.9133
   34.230    2.2468
   34.245    2.0713
   34.260    2.1239
   34.275    2.0713
   34.290    1.9835
   34.305    2.0537
   34.320    2.3521
   34.335    2.5276
   34.350    2.1766
   34.365    2.0537
   34.380    2.1941
   34.395    2.2468
   34.410    2.1941
   34.425    2.0537
   34.440    1.8606
   34.455    2.3697
   34.470    2.2292
   34.485    2.1064
   34.500    2.1590
   34.515    2.1941
   34.530    2.1415
   34.545    2.3697
   34.560    2.3346
   34.575    2.1239
   34.590    1.9484
   34.605    2.1239
   34.620    2.1590
   34.635    2.4223
   34.650    2.1766
   34.665    2.0362
   34.680    2.0713
   34.695    2.1239
   34.710    2.2468
   34.725    2.2643
   34.740    2.0011
   34.755    2.1415
   34.770    2.2643
   34.785    2.1239
   34.800    2.2819
   34.815    2.3170
   34.830    2.1239
   34.845    2.4750
   34.860    2.4048
   34.875    2.2468
   34.890    2.1064
   34.905    2.2819
   34.920    2.2643
   34.935    2.1766
   34.950    2.0362
   34.965    1.9484
   34.980    2.3872
   34.995    2.2468
   35.010    2.0186
   35.025    2.0186
   35.040    2.2292
   35.055    2.3521
   35.070    2.4048
   35.085    2.2468
   35.100    2.0888
   35.115    2.2292
   35.130    2.4048
   35.145    2.1415
   35.160    2.0362
   35.175    2.0537
   35.190    2.0186
   35.205    2.1415
   35.220    2.0713
   35.235    2.0537
   35.250    1.8255
   35.265    2.1766
   35.280    2.1941
   35.295    2.0011
   35.310    2.1239
   35.325    2.2292
   35.340    2.3170
   35.355    2.2117
   35.370    2.1590
   35.385    2.1239
   35.400    1.9659
   35.415    2.1941
   35.430    2.2468
   35.445    1.8431
   35.460    1.8957
   35.475    2.0011
   35.490    2.0537
   35.505    2.0537
   35.520    2.2292
   35.535    2.3872
   35.550    2.3170
   35.565    2.2819
   35.580    2.3872
   35.595    2.2468
   35.610    2.2643
   35.625    2.1064
   35.640    1.9133
   35.655    2.1590
   35.670    2.1064
   35.685    1.9835
   35.700    2.3521
   35.715    2.2819
   35.730    2.0537
   35.745    2.1239
   35.760    2.2117
   35.775    2.1239
   35.790    1.9835
   35.805    2.0713
   35.820    2.0537
   35.835    2.2643
   35.850    2.1766
   35.865    1.9308
   35.880    2.3346
   35.895    2.3872
   35.910    2.2117
   35.925    1.9484
   35.940    2.0888
   35.955    2.1239
   35.970    1.9659
   35.985    2.2643
   36.000    2.2468
   36.015    2.2819
   36.030    2.5628
   36.045    2.4925
   36.060    2.3521
   36.075    2.1415
   36.090    1.8255
   36.105    2.1590
   36.120    2.4750
   36.135    2.1941
   36.150    2.2117
   36.165    2.2819
   36.180    2.2292
   36.195    1.9659
   36.210    2.0537
   36.225    1.8606
   36.240    2.0537
   36.255    2.0888
   36.270    1.8782
   36.285    2.1590
   36.300    2.1239
   36.315    2.1766
   36.330    2.0362
   36.345    2.1415
   36.360    2.2643
   36.375    2.2117
   36.390    1.9659
   36.405    2.0362
   36.420    1.8782
   36.435    2.1064
   36.450    2.1239
   36.465    2.1415
   36.480    2.2117
   36.495    1.7378
   36.510    1.5798
   36.525    2.2643
   36.540    2.2995
   36.555    2.0537
   36.570    2.2995
   36.585    1.9308
   36.600    2.3346
   36.615    2.0362
   36.630    2.2117
   36.645    2.2292
   36.660    2.1590
   36.675    2.3697
   36.690    2.4925
   36.705    2.4574
   36.720    2.4048
   36.735    2.3170
   36.750    2.1415
   36.765    2.1239
   36.780    2.1415
   36.795    2.2117
   36.810    2.3872
   36.825    2.2819
   36.840    1.9835
   36.855    1.9308
   36.870    2.0888
   36.885    2.1415
   36.900    2.1239
   36.915    2.2292
   36.930    1.9308
   36.945    2.0888
   36.960    1.7378
   36.975    2.1064
   36.990    2.2819
   37.005    1.8782
   37.020    1.9659
   37.035    1.8782
   37.050    1.9659
   37.065    2.0362
   37.080    2.1766
   37.095    1.9835
   37.110    2.0888
   37.125    2.3872
   37.140    2.0713
   37.155    1.9308
   37.170    2.0713
   37.185    2.0888
   37.200    2.1064
   37.215    2.0011
   37.230    1.7378
   37.245    2.1766
   37.260    1.7553
   37.275    2.1415
   37.290    2.0888
   37.305    2.0888
   37.320    2.1415
   37.335    2.1766
   37.350    2.1239
   37.365    2.0186
   37.380    1.9835
   37.395    2.2468
   37.410    2.0537
   37.425    2.0362
   37.440    1.8080
   37.455    1.8080
   37.470    1.8782
   37.485    2.0537
   37.500    2.1064
   37.515    2.0713
   37.530    2.0186
   37.545    1.7904
   37.560    2.2995
   37.575    2.0011
   37.590    2.2819
   37.605    2.1064
   37.620    2.2468
   37.635    2.0888
   37.650    1.9659
   37.665    2.1064
   37.680    2.1766
   37.695    2.1239
   37.710    2.0362
   37.725    1.9133
   37.740    1.8782
   37.755    2.0186
   37.770    2.1941
   37.785    1.8255
   37.800    2.1239
   37.815    2.3170
   37.830    2.1941
   37.845    1.8782
   37.860    1.8782
   37.875    2.1415
   37.890    2.1064
   37.905    2.1415
   37.920    1.9659
   37.935    2.1239
   37.950    1.8080
   37.965    2.2117
   37.980    2.1766
   37.995    2.2117
   38.010    2.3346
   38.025    2.3521
   38.040    2.1941
   38.055    2.2292
   38.070    2.0713
   38.085    2.0011
   38.100    2.2995
   38.115    2.1064
   38.130    2.0011
   38.145    1.8957
   38.160    1.7202
   38.175    1.8957
   38.190    2.1239
   38.205    2.2292
   38.220    2.2995
   38.235    1.8431
   38.250    1.8782
   38.265    2.1941
   38.280    2.0713
   38.295    2.1064
   38.310    1.9835
   38.325    1.5096
   38.340    1.7904
   38.355    2.1064
   38.370    2.0888
   38.385    2.2995
   38.400    1.7202
   38.415    2.1064
   38.430    1.9835
   38.445    2.0362
   38.460    2.1239
   38.475    2.1239
   38.490    2.1766
   38.505    2.4048
   38.520    2.2292
   38.535    1.9308
   38.550    2.0186
   38.565    2.1766
   38.580    2.2468
   38.595    1.8782
   38.610    1.9835
   38.625    2.0713
   38.640    1.9308
   38.655    2.1590
   38.670    1.8957
   38.685    2.1766
   38.700    2.1415
   38.715    2.1239
   38.730    2.2292
   38.745    1.8782
   38.760    1.9659
   38.775    1.7553
   38.790    1.8431
   38.805    1.9133
   38.820    2.2292
   38.835    2.1941
   38.850    1.9308
   38.865    1.9133
   38.880    1.7553
   38.895    2.0011
   38.910    2.2819
   38.925    2.0537
   38.940    2.0888
   38.955    2.2117
   38.970    1.7904
   38.985    1.9308
   39.000    1.8431
   39.015    1.6851
   39.030    1.8431
   39.045    2.0186
   39.060    1.8957
   39.075    1.8431
   39.090    1.7729
   39.105    1.8606
   39.120    2.1239
   39.135    2.3170
   39.150    2.1239
   39.165    2.0186
   39.180    1.8957
   39.195    2.0888
   39.210    1.9133
   39.225    2.0888
   39.240    2.2292
   39.255    2.0011
   39.270    2.1064
   39.285    2.2995
   39.300    2.0186
   39.315    2.0713
   39.330    1.9484
   39.345    1.9308
   39.360    2.0186
   39.375    2.1941
   39.390    1.8957
   39.405    1.8431
   39.420    1.7904
   39.435    1.9484
   39.450    2.0011
   39.465    2.0011
   39.480    1.9133
   39.495    1.8782
   39.510    2.1590
   39.525    1.9835
   39.540    2.0888
   39.555    2.1590
   39.570    2.1590
   39.585    2.0011
   39.600    2.0186
   39.615    2.1239
   39.630    2.0186
   39.645    1.9133
   39.660    2.0186
   39.675    1.8606
   39.690    1.9133
   39.705    2.0537
   39.720    1.6675
   39.735    1.7553
   39.750    1.8431
   39.765    2.0186
   39.780    2.0537
   39.795    2.0362
   39.810    1.6675
   39.825    1.8782
   39.840    1.7027
   39.855    1.9133
   39.870    1.8606
   39.885    1.9659
   39.900    1.8606
   39.915    1.8606
   39.930    2.0713
   39.945    2.0186
   39.960    2.0011
   39.975    2.0713
   39.990    2.0362
