    1.500   14.1829
    1.515   14.0425
    1.530   14.3233
    1.545   13.5159
    1.560   13.6563
    1.575   13.6388
    1.590   13.4281
    1.605   13.1824
    1.620   12.5154
    1.635   12.5856
    1.650   11.7079
    1.665   11.9010
    1.680   11.5499
    1.695   11.7079
    1.710   11.5499
    1.725   11.3744
    1.740   11.2164
    1.755   10.4616
    1.770   10.7425
    1.785   11.0233
    1.800   10.2861
    1.815   10.1457
    1.830    9.9526
    1.845    9.6015
    1.860    9.9526
    1.875   10.0930
    1.890    9.9175
    1.905    9.4962
    1.920    9.1276
    1.935    9.1101
    1.950    8.6888
    1.965    9.0750
    1.980    8.8468
    1.995    8.6361
    2.010    8.6712
    2.025    8.3202
    2.040    8.5835
    2.055    8.9872
    2.070    8.2851
    2.085    7.7058
    2.100    8.0393
    2.115    8.0920
    2.130    8.0218
    2.145    8.1622
    2.160    7.8989
    2.175    7.9164
    2.190    7.7760
    2.205    7.4601
    2.220    7.9691
    2.235    7.7234
    2.250    7.4601
    2.265    7.6180
    2.280    7.7760
    2.295    7.2494
    2.310    7.3021
    2.325    7.3196
    2.340    7.1792
    2.355    7.8462
    2.370    7.6005
    2.385    7.2494
    2.400    6.8457
    2.415    7.3723
    2.430    7.5303
    2.445    7.4776
    2.460    7.0915
    2.475    7.1968
    2.490    7.4776
    2.505    6.9335
    2.520    6.8282
    2.535    6.9861
    2.550    6.7228
    2.565    7.1441
    2.580    6.6000
    2.595    6.4946
    2.610    6.5473
    2.625    6.7755
    2.640    6.8633
    2.655    7.0212
    2.670    7.0915
    2.685    7.0563
    2.700    7.0037
    2.715    6.6000
    2.730    6.9686
    2.745    7.1792
    2.760    7.3723
    2.775    7.0563
    2.790    6.5824
    2.805    6.8984
    2.820    6.4771
    2.835    7.2494
    2.850    6.8984
    2.865    6.8984
    2.880    7.1266
    2.895    6.3016
    2.910    6.8282
    2.925    7.4425
    2.940    6.6000
    2.955    6.9335
    2.970    7.1441
    2.985    7.0037
    3.000    6.7053
    3.015    7.0915
    3.030    6.8457
    3.045    7.1090
    3.060    7.2494
    3.075    7.2845
    3.090    7.6005
    3.105    7.4250
    3.120    7.2494
    3.135    7.4601
    3.150    7.7234
    3.165    7.7760
    3.180    7.4776
    3.195    7.7058
    3.210    7.7936
    3.225    8.0393
    3.240    8.0569
    3.255    8.1271
    3.270    7.5829
    3.285    7.4952
    3.300    7.9164
    3.315    7.9691
    3.330    8.3904
    3.345    8.8292
    3.360    8.7239
    3.375    8.2675
    3.390    8.8292
    3.405    9.0574
    3.420    9.6015
    3.435    9.6191
    3.450    9.9702
    3.465   10.4265
    3.480   10.2335
    3.495    9.6718
    3.510   10.5670
    3.525   10.9005
    3.540   10.9707
    3.555   10.9882
    3.570   11.1111
    3.585   11.3217
    3.600   12.7611
    3.615   13.0068
    3.630   13.0244
    3.645   12.6382
    3.660   13.7441
    3.675   13.7616
    3.690   15.0957
    3.705   16.5701
    3.720   16.9036
    3.735   18.4834
    3.750   19.4664
    3.765   22.0818
    3.780   23.2052
    3.795   25.0658
    3.810   28.0674
    3.825   30.2615
    3.840   30.1913
    3.855   27.0844
    3.870   22.1345
    3.885   17.7111
    3.900   12.8138
    3.915   10.3563
    3.930    8.6888
    3.945    6.9861
    3.960    6.7228
    3.975    6.5649
    3.990    5.9329
    4.005    5.5643
    4.020    5.8101
    4.035    5.4590
    4.050    5.5994
    4.065    5.3712
    4.080    5.8452
    4.095    5.3010
    4.110    5.1606
    4.125    5.3010
    4.140    5.5994
    4.155    5.4064
    4.170    5.6697
    4.185    5.5643
    4.200    5.7223
    4.215    5.6345
    4.230    5.1957
    4.245    5.3010
    4.260    5.4064
    4.275    5.1431
    4.290    5.5117
    4.305    5.4941
    4.320    5.6697
    4.335    5.5468
    4.350    5.4590
    4.365    5.9505
    4.380    5.6170
    4.395    5.2484
    4.410    5.5643
    4.425    5.2308
    4.440    5.5819
    4.455    5.5292
    4.470    5.2835
    4.485    5.4941
    4.500    5.4415
    4.515    5.5819
    4.530    5.5117
    4.545    5.6872
    4.560    5.2835
    4.575    5.4941
    4.590    5.3712
    4.605    5.5468
    4.620    5.4941
    4.635    5.3537
    4.650    5.6872
    4.665    5.3186
    4.680    5.3010
    4.695    5.7048
    4.710    5.5643
    4.725    5.3537
    4.740    5.7574
    4.755    5.4941
    4.770    5.6521
    4.785    5.3361
    4.800    5.3537
    4.815    5.5117
    4.830    5.3361
    4.845    5.7399
    4.860    5.5819
    4.875    5.4941
    4.890    5.8627
    4.905    6.1787
    4.920    5.5994
    4.935    6.1787
    4.950    6.0558
    4.965    6.2313
    4.980    5.9505
    4.995    6.0558
    5.010    6.0032
    5.025    6.3718
    5.040    6.2313
    5.055    6.1436
    5.070    6.4069
    5.085    6.9861
    5.100    6.7755
    5.115    6.5824
    5.130    6.9686
    5.145    7.1090
    5.160    6.8808
    5.175    7.0915
    5.190    7.5478
    5.205    7.0563
    5.220    7.9691
    5.235    8.2851
    5.250    8.1622
    5.265    8.1797
    5.280    8.4781
    5.295    8.9170
    5.310    9.0398
    5.325    9.6718
    5.340    9.4436
    5.355   10.3037
    5.370   11.4271
    5.385   12.1819
    5.400   12.5154
    5.415   13.6037
    5.430   15.0957
    5.445   15.4643
    5.460   15.7627
    5.475   13.9898
    5.490   11.7079
    5.505    9.6718
    5.520    8.3026
    5.535    7.2670
    5.550    6.2489
    5.565    5.5819
    5.580    6.1260
    5.595    5.7574
    5.610    5.3010
    5.625    5.1431
    5.640    5.3186
    5.655    5.5643
    5.670    5.1431
    5.685    5.2308
    5.700    5.2835
    5.715    5.3712
    5.730    5.3010
    5.745    4.8798
    5.760    5.4590
    5.775    5.4941
    5.790    4.7920
    5.805    5.0026
    5.820    4.9500
    5.835    5.0728
    5.850    4.7744
    5.865    5.5117
    5.880    5.5292
    5.895    5.2659
    5.910    5.3186
    5.925    4.7042
    5.940    4.7042
    5.955    5.1255
    5.970    4.8447
    5.985    5.0904
    6.000    5.1431
    6.015    5.1431
    6.030    4.7218
    6.045    5.2659
    6.060    5.0553
    6.075    5.2484
    6.090    5.1606
    6.105    5.2835
    6.120    4.9851
    6.135    5.4239
    6.150    5.6345
    6.165    5.5819
    6.180    5.2308
    6.195    5.0377
    6.210    5.6872
    6.225    5.7048
    6.240    5.3361
    6.255    5.5468
    6.270    5.5292
    6.285    5.2308
    6.300    5.4590
    6.315    5.5468
    6.330    5.8803
    6.345    5.7223
    6.360    5.2659
    6.375    5.5994
    6.390    5.7574
    6.405    6.1611
    6.420    5.5117
    6.435    5.6170
    6.450    5.4590
    6.465    5.7399
    6.480    5.9856
    6.495    6.3718
    6.510    6.6351
    6.525    6.8282
    6.540    6.6351
    6.555    6.1085
    6.570    6.6702
    6.585    6.6526
    6.600    6.7053
    6.615    6.7930
    6.630    7.1792
    6.645    8.0920
    6.660    8.6186
    6.675    8.4606
    6.690    9.4436
    6.705    9.6718
    6.720    8.4430
    6.735    7.8813
    6.750    6.8457
    6.765    6.0207
    6.780    5.7750
    6.795    5.7399
    6.810    5.4064
    6.825    5.4766
    6.840    5.5819
    6.855    5.8101
    6.870    4.9675
    6.885    4.8095
    6.900    5.4590
    6.915    5.1606
    6.930    5.2659
    6.945    4.8095
    6.960    5.5643
    6.975    5.4766
    6.990    5.2835
    7.005    5.2835
    7.020    5.1957
    7.035    5.0904
    7.050    5.6170
    7.065    4.9149
    7.080    5.2659
    7.095    5.0728
    7.110    5.4590
    7.125    4.8798
    7.140    5.5292
    7.155    5.4239
    7.170    5.0728
    7.185    5.4239
    7.200    5.1255
    7.215    4.8447
    7.230    5.3888
    7.245    5.4064
    7.260    5.4766
    7.275    5.6170
    7.290    5.5994
    7.305    5.7574
    7.320    5.5994
    7.335    5.5468
    7.350    5.1782
    7.365    5.0904
    7.380    5.3186
    7.395    5.1255
    7.410    5.7574
    7.425    5.8452
    7.440    5.5117
    7.455    5.6170
    7.470    5.6697
    7.485    5.4415
    7.500    5.3186
    7.515    5.8101
    7.530    5.4064
    7.545    6.0383
    7.560    5.6521
    7.575    5.7574
    7.590    6.0909
    7.605    6.0383
    7.620    5.5819
    7.635    6.5298
    7.650    6.2489
    7.665    6.0383
    7.680    6.6526
    7.695    6.6000
    7.710    6.6526
    7.725    7.3723
    7.740    7.6707
    7.755    6.9510
    7.770    6.5122
    7.785    6.1436
    7.800    6.1611
    7.815    6.2313
    7.830    5.8803
    7.845    5.8803
    7.860    5.4064
    7.875    5.8452
    7.890    5.5819
    7.905    5.4590
    7.920    5.5819
    7.935    5.7048
    7.950    5.4239
    7.965    5.5994
    7.980    5.6170
    7.995    5.5819
    8.010    5.3537
    8.025    5.7925
    8.040    5.1782
    8.055    5.4239
    8.070    5.7048
    8.085    5.8627
    8.100    5.5643
    8.115    5.0728
    8.130    4.7920
    8.145    5.2659
    8.160    4.8973
    8.175    5.1080
    8.190    5.5819
    8.205    5.1255
    8.220    5.3010
    8.235    5.7574
    8.250    6.0032
    8.265    5.7223
    8.280    5.9856
    8.295    6.1436
    8.310    5.8101
    8.325    5.2835
    8.340    5.7399
    8.355    5.2484
    8.370    5.6170
    8.385    5.5643
    8.400    5.5643
    8.415    5.4941
    8.430    5.4590
    8.445    5.5468
    8.460    5.6521
    8.475    5.9329
    8.490    6.2138
    8.505    5.9505
    8.520    5.7048
    8.535    5.8101
    8.550    5.8101
    8.565    6.0558
    8.580    6.0383
    8.595    5.9505
    8.610    6.1436
    8.625    5.7399
    8.640    6.1085
    8.655    5.9329
    8.670    6.0032
    8.685    5.8978
    8.700    5.7223
    8.715    5.4590
    8.730    5.4415
    8.745    5.5117
    8.760    5.6521
    8.775    5.6521
    8.790    6.0383
    8.805    5.5117
    8.820    5.7750
    8.835    5.7750
    8.850    6.5122
    8.865    6.1611
    8.880    5.6697
    8.895    5.6872
    8.910    5.6872
    8.925    5.3712
    8.940    5.6345
    8.955    5.4941
    8.970    5.2659
    8.985    6.2665
    9.000    5.6872
    9.015    5.4064
    9.030    5.5643
    9.045    6.0558
    9.060    5.8101
    9.075    5.7750
    9.090    6.1085
    9.105    5.7048
    9.120    6.2665
    9.135    6.1962
    9.150    6.2489
    9.165    5.7574
    9.180    6.2313
    9.195    6.3191
    9.210    6.2665
    9.225    6.3718
    9.240    5.9154
    9.255    5.9154
    9.270    6.1260
    9.285    6.2840
    9.300    6.3893
    9.315    6.6351
    9.330    6.7228
    9.345    6.9159
    9.360    7.1968
    9.375    7.2494
    9.390    7.4425
    9.405    8.0042
    9.420    8.0920
    9.435    8.1446
    9.450    8.2149
    9.465    9.0398
    9.480    9.4085
    9.495    9.9351
    9.510   10.2686
    9.525    9.7595
    9.540    8.7941
    9.555    8.1271
    9.570    7.4601
    9.585    6.6175
    9.600    6.6000
    9.615    6.1962
    9.630    6.4946
    9.645    5.9154
    9.660    6.0207
    9.675    5.6521
    9.690    5.9856
    9.705    6.3016
    9.720    5.9154
    9.735    6.1085
    9.750    6.1436
    9.765    5.4064
    9.780    5.5468
    9.795    5.9856
    9.810    5.8978
    9.825    6.1962
    9.840    5.8803
    9.855    5.6697
    9.870    5.7399
    9.885    5.8276
    9.900    5.5643
    9.915    5.8101
    9.930    5.8978
    9.945    5.7048
    9.960    6.0558
    9.975    6.4595
    9.990    6.0558
   10.005    6.0032
   10.020    5.4064
   10.035    5.6697
   10.050    6.3542
   10.065    6.2489
   10.080    6.0207
   10.095    5.9505
   10.110    5.9505
   10.125    5.7223
   10.140    6.1085
   10.155    6.1260
   10.170    6.2489
   10.185    6.1611
   10.200    6.2665
   10.215    6.8106
   10.230    7.1090
   10.245    6.9686
   10.260    7.1792
   10.275    6.9335
   10.290    6.7404
   10.305    6.6877
   10.320    7.2319
   10.335    6.5649
   10.350    6.6000
   10.365    5.7048
   10.380    5.7223
   10.395    6.0734
   10.410    5.9681
   10.425    6.0032
   10.440    5.4766
   10.455    5.9681
   10.470    5.8276
   10.485    5.7750
   10.500    5.7399
   10.515    5.8101
   10.530    5.6521
   10.545    5.8101
   10.560    6.1962
   10.575    5.7223
   10.590    5.5468
   10.605    5.9329
   10.620    5.4766
   10.635    5.5117
   10.650    5.6521
   10.665    5.4590
   10.680    5.7925
   10.695    6.0207
   10.710    5.5117
   10.725    5.5819
   10.740    5.8803
   10.755    5.7925
   10.770    5.9329
   10.785    5.4590
   10.800    5.7574
   10.815    5.3537
   10.830    5.9681
   10.845    6.1787
   10.860    6.1962
   10.875    6.0383
   10.890    5.8803
   10.905    5.9681
   10.920    5.9681
   10.935    6.7228
   10.950    6.5824
   10.965    7.2494
   10.980    7.4952
   10.995    7.4074
   11.010    6.9861
   11.025    6.7930
   11.040    6.3542
   11.055    5.7223
   11.070    5.4590
   11.085    5.2484
   11.100    5.8101
   11.115    5.6521
   11.130    5.4239
   11.145    5.5994
   11.160    5.9329
   11.175    5.3010
   11.190    5.4239
   11.205    5.7048
   11.220    5.4239
   11.235    5.1606
   11.250    5.3361
   11.265    5.6345
   11.280    5.7925
   11.295    5.2308
   11.310    5.7048
   11.325    5.5117
   11.340    6.1611
   11.355    6.0032
   11.370    6.1436
   11.385    5.7750
   11.400    5.6872
   11.415    5.7223
   11.430    5.6697
   11.445    5.4941
   11.460    5.6697
   11.475    5.4766
   11.490    5.8627
   11.505    5.6345
   11.520    5.6170
   11.535    6.0734
   11.550    6.3893
   11.565    6.1962
   11.580    5.5468
   11.595    5.7925
   11.610    6.6351
   11.625    7.0563
   11.640    6.0734
   11.655    7.0037
   11.670    6.9159
   11.685    6.4069
   11.700    6.7404
   11.715    6.2840
   11.730    6.1962
   11.745    5.7574
   11.760    5.4941
   11.775    5.1957
   11.790    5.4590
   11.805    5.4590
   11.820    5.2484
   11.835    5.1080
   11.850    5.0553
   11.865    5.2308
   11.880    5.3186
   11.895    5.5643
   11.910    4.9675
   11.925    5.1431
   11.940    5.5643
   11.955    5.3010
   11.970    5.4064
   11.985    5.0026
   12.000    4.8095
   12.015    4.8622
   12.030    5.3888
   12.045    5.4415
   12.060    5.2133
   12.075    5.3010
   12.090    5.4766
   12.105    5.0202
   12.120    5.0377
   12.135    5.2659
   12.150    5.2835
   12.165    5.2308
   12.180    5.3010
   12.195    5.4766
   12.210    5.5468
   12.225    4.8622
   12.240    5.0904
   12.255    5.1782
   12.270    5.1957
   12.285    5.1957
   12.300    5.0904
   12.315    4.9851
   12.330    5.1606
   12.345    5.1431
   12.360    4.9324
   12.375    5.2835
   12.390    5.2308
   12.405    5.3186
   12.420    5.6872
   12.435    5.6170
   12.450    4.8447
   12.465    4.9851
   12.480    5.1431
   12.495    5.0377
   12.510    5.1957
   12.525    5.2659
   12.540    5.3186
   12.555    5.3888
   12.570    4.9149
   12.585    5.3186
   12.600    5.0026
   12.615    4.8798
   12.630    4.9851
   12.645    5.1957
   12.660    5.2659
   12.675    5.1782
   12.690    5.0904
   12.705    5.6170
   12.720    5.1782
   12.735    5.5117
   12.750    5.5468
   12.765    5.2308
   12.780    5.4590
   12.795    5.7750
   12.810    5.6170
   12.825    4.9149
   12.840    5.1782
   12.855    5.5643
   12.870    5.7399
   12.885    5.6345
   12.900    5.5292
   12.915    6.0032
   12.930    6.3367
   12.945    5.7399
   12.960    5.4239
   12.975    5.0026
   12.990    5.0728
   13.005    5.1255
   13.020    4.8095
   13.035    5.1606
   13.050    4.7920
   13.065    5.0553
   13.080    5.0377
   13.095    4.7393
   13.110    4.5463
   13.125    5.0904
   13.140    5.0202
   13.155    4.9500
   13.170    5.1606
   13.185    5.3186
   13.200    5.0377
   13.215    5.2484
   13.230    4.9851
   13.245    5.3186
   13.260    5.2835
   13.275    5.0202
   13.290    4.8622
   13.305    5.1080
   13.320    5.3537
   13.335    4.7744
   13.350    4.9675
   13.365    5.7223
   13.380    5.0728
   13.395    5.1255
   13.410    5.0377
   13.425    5.1957
   13.440    5.5117
   13.455    5.3010
   13.470    5.5819
   13.485    5.2133
   13.500    4.8973
   13.515    5.0728
   13.530    5.0202
   13.545    5.1957
   13.560    5.4239
   13.575    4.8447
   13.590    5.0728
   13.605    4.6867
   13.620    4.8271
   13.635    5.3537
   13.650    5.1606
   13.665    4.9500
   13.680    5.1957
   13.695    4.6165
   13.710    4.8095
   13.725    5.3186
   13.740    4.5638
   13.755    4.9500
   13.770    5.2835
   13.785    5.0728
   13.800    4.9675
   13.815    5.0202
   13.830    5.6521
   13.845    4.9149
   13.860    5.5819
   13.875    4.9500
   13.890    5.2835
   13.905    5.3537
   13.920    4.9675
   13.935    5.1606
   13.950    5.4415
   13.965    5.7399
   13.980    5.7925
   13.995    5.6521
   14.010    5.6521
   14.025    5.6697
   14.040    5.9505
   14.055    6.0207
   14.070    5.9505
   14.085    5.4239
   14.100    5.0728
   14.115    5.0377
   14.130    5.3361
   14.145    5.0904
   14.160    4.9675
   14.175    4.8447
   14.190    4.8973
   14.205    5.1957
   14.220    5.2835
   14.235    5.3010
   14.250    4.8095
   14.265    5.1957
   14.280    5.1782
   14.295    5.0904
   14.310    5.1782
   14.325    4.6691
   14.340    4.9851
   14.355    5.6170
   14.370    5.1431
   14.385    4.8973
   14.400    4.6691
   14.415    5.2659
   14.430    5.3537
   14.445    5.1080
   14.460    5.0377
   14.475    4.6165
   14.490    5.0904
   14.505    4.9324
   14.520    4.7218
   14.535    4.9149
   14.550    4.6340
   14.565    4.8973
   14.580    4.8095
   14.595    4.5638
   14.610    4.9675
   14.625    5.1782
   14.640    5.1255
   14.655    4.8095
   14.670    4.8973
   14.685    4.8095
   14.700    4.8798
   14.715    5.0377
   14.730    4.8447
   14.745    4.4936
   14.760    5.0728
   14.775    5.1255
   14.790    5.3361
   14.805    5.0728
   14.820    4.8798
   14.835    4.7744
   14.850    4.4409
   14.865    5.0377
   14.880    4.9324
   14.895    4.8622
   14.910    5.0904
   14.925    4.8798
   14.940    4.7042
   14.955    4.5111
   14.970    4.8622
   14.985    5.1255
   15.000    5.3712
   15.015    5.2835
   15.030    4.9324
   15.045    5.1957
   15.060    4.8271
   15.075    5.0202
   15.090    4.5287
   15.105    4.6867
   15.120    5.0026
   15.135    4.6165
   15.150    5.0553
   15.165    4.9500
   15.180    5.1782
   15.195    4.9851
   15.210    4.8271
   15.225    5.1431
   15.240    4.8271
   15.255    4.7218
   15.270    4.9324
   15.285    5.0026
   15.300    5.1782
   15.315    5.1431
   15.330    5.1255
   15.345    5.4064
   15.360    4.9324
   15.375    4.8271
   15.390    4.9149
   15.405    4.8973
   15.420    4.7218
   15.435    5.3361
   15.450    4.8798
   15.465    5.0904
   15.480    4.7569
   15.495    4.6340
   15.510    4.8271
   15.525    5.0202
   15.540    4.6340
   15.555    4.7393
   15.570    5.2659
   15.585    4.9500
   15.600    5.0026
   15.615    4.9500
   15.630    4.6516
   15.645    4.8798
   15.660    5.2133
   15.675    4.8447
   15.690    5.0377
   15.705    5.1080
   15.720    4.6867
   15.735    4.5111
   15.750    5.2308
   15.765    5.2484
   15.780    5.3361
   15.795    5.0904
   15.810    4.6516
   15.825    5.1255
   15.840    4.8271
   15.855    4.9149
   15.870    5.4766
   15.885    4.9675
   15.900    4.7042
   15.915    5.2659
   15.930    4.8622
   15.945    5.2308
   15.960    4.6867
   15.975    4.9675
   15.990    4.9324
   16.005    5.2133
   16.020    5.2133
   16.035    5.5468
   16.050    5.2835
   16.065    5.4590
   16.080    5.4064
   16.095    5.0377
   16.110    5.3712
   16.125    5.0026
   16.140    5.0904
   16.155    4.8095
   16.170    5.0553
   16.185    4.9149
   16.200    5.1431
   16.215    5.3712
   16.230    5.4064
   16.245    4.9149
   16.260    5.0026
   16.275    5.5819
   16.290    4.7744
   16.305    4.8798
   16.320    4.6340
   16.335    4.7042
   16.350    4.5463
   16.365    4.8271
   16.380    4.6340
   16.395    4.5989
   16.410    4.8973
   16.425    4.9500
   16.440    5.1782
   16.455    4.9500
   16.470    5.0202
   16.485    4.9851
   16.500    5.3537
   16.515    4.9324
   16.530    5.0026
   16.545    5.2308
   16.560    4.7393
   16.575    4.5463
   16.590    4.5989
   16.605    4.2830
   16.620    4.6867
   16.635    4.6340
   16.650    4.8095
   16.665    4.8973
   16.680    4.8622
   16.695    5.1255
   16.710    4.8095
   16.725    4.7920
   16.740    4.7393
   16.755    4.9324
   16.770    5.1255
   16.785    4.5989
   16.800    4.9851
   16.815    5.1957
   16.830    5.0377
   16.845    5.0553
   16.860    4.6691
   16.875    5.0026
   16.890    5.2659
   16.905    5.1431
   16.920    5.5468
   16.935    5.3888
   16.950    4.9149
   16.965    4.9149
   16.980    5.0202
   16.995    5.4064
   17.010    5.1431
   17.025    5.4590
   17.040    5.7399
   17.055    5.6697
   17.070    4.9675
   17.085    5.1606
   17.100    5.1606
   17.115    4.8095
   17.130    5.2308
   17.145    5.0728
   17.160    4.6867
   17.175    5.0026
   17.190    5.1957
   17.205    5.0728
   17.220    4.8271
   17.235    5.0904
   17.250    4.8271
   17.265    4.6691
   17.280    4.7042
   17.295    4.8622
   17.310    4.8271
   17.325    4.6340
   17.340    5.0553
   17.355    4.4409
   17.370    4.5989
   17.385    4.7569
   17.400    5.0377
   17.415    5.1431
   17.430    5.1431
   17.445    5.6170
   17.460    5.4590
   17.475    5.1606
   17.490    5.5643
   17.505    5.1782
   17.520    5.0377
   17.535    5.1431
   17.550    4.7042
   17.565    5.0728
   17.580    4.8095
   17.595    5.1957
   17.610    4.7569
   17.625    4.8447
   17.640    4.8798
   17.655    4.7744
   17.670    4.7744
   17.685    4.7744
   17.700    4.9851
   17.715    4.7569
   17.730    4.8447
   17.745    4.8095
   17.760    4.8271
   17.775    5.0026
   17.790    4.6691
   17.805    4.7744
   17.820    5.0377
   17.835    5.1957
   17.850    4.7920
   17.865    5.2835
   17.880    4.7744
   17.895    4.8095
   17.910    4.8447
   17.925    4.9500
   17.940    5.0202
   17.955    4.7042
   17.970    4.7744
   17.985    5.1431
   18.000    4.7042
   18.015    5.0553
   18.030    5.2835
   18.045    5.0202
   18.060    4.7569
   18.075    4.9149
   18.090    5.1957
   18.105    4.8798
   18.120    5.0904
   18.135    4.3356
   18.150    4.6867
   18.165    5.0202
   18.180    4.8622
   18.195    4.9149
   18.210    5.0553
   18.225    4.9149
   18.240    4.3532
   18.255    4.8271
   18.270    5.1431
   18.285    4.8271
   18.300    4.6516
   18.315    5.2659
   18.330    4.9675
   18.345    4.6691
   18.360    4.8973
   18.375    4.7042
   18.390    5.1431
   18.405    4.7920
   18.420    4.8798
   18.435    4.9851
   18.450    4.7920
   18.465    5.0728
   18.480    4.7920
   18.495    4.7744
   18.510    4.9675
   18.525    5.0728
   18.540    4.8622
   18.555    4.6340
   18.570    4.8798
   18.585    4.9324
   18.600    5.0377
   18.615    4.6691
   18.630    4.4585
   18.645    5.0377
   18.660    5.1080
   18.675    4.9675
   18.690    5.2484
   18.705    4.8095
   18.720    4.9149
   18.735    4.9149
   18.750    5.0026
   18.765    4.8973
   18.780    5.4239
   18.795    5.3361
   18.810    4.9149
   18.825    5.2484
   18.840    5.4415
   18.855    5.1080
   18.870    5.4941
   18.885    4.9675
   18.900    4.5989
   18.915    4.7744
   18.930    5.1255
   18.945    4.8973
   18.960    4.6516
   18.975    5.3010
   18.990    5.4941
   19.005    4.9324
   19.020    4.9149
   19.035    4.9851
   19.050    5.0202
   19.065    5.1080
   19.080    4.8973
   19.095    4.9324
   19.110    4.9500
   19.125    5.1957
   19.140    4.9851
   19.155    4.9149
   19.170    5.2308
   19.185    5.0553
   19.200    4.8447
   19.215    4.8447
   19.230    4.9500
   19.245    4.7393
   19.260    5.0202
   19.275    4.9149
   19.290    4.3005
   19.305    4.5638
   19.320    4.7042
   19.335    4.3883
   19.350    4.5638
   19.365    4.8798
   19.380    4.8271
   19.395    4.9149
   19.410    4.7218
   19.425    4.7042
   19.440    5.0202
   19.455    5.1080
   19.470    4.6867
   19.485    5.3712
   19.500    5.3186
   19.515    4.9149
   19.530    5.0553
   19.545    4.8095
   19.560    4.7218
   19.575    5.0202
   19.590    5.0553
   19.605    4.5814
   19.620    4.7744
   19.635    5.0728
   19.650    4.8271
   19.665    4.9675
   19.680    4.9149
   19.695    4.9851
   19.710    5.3010
   19.725    4.7920
   19.740    5.1782
   19.755    4.9675
   19.770    4.7218
   19.785    4.9675
   19.800    4.8973
   19.815    4.8622
   19.830    5.2835
   19.845    4.7569
   19.860    4.6340
   19.875    4.9851
   19.890    5.2133
   19.905    5.3712
   19.920    5.2659
   19.935    5.3186
   19.950    5.4766
   19.965    5.1782
   19.980    4.8798
   19.995    4.8622
   20.010    4.8622
   20.025    5.3537
   20.040    4.8271
   20.055    4.9149
   20.070    4.7920
   20.085    5.3537
   20.100    5.3888
   20.115    4.8095
   20.130    4.7920
   20.145    5.1255
   20.160    5.0377
   20.175    5.0904
   20.190    5.5292
   20.205    5.0904
   20.220    5.4064
   20.235    5.1606
   20.250    5.3010
   20.265    5.3361
   20.280    5.8452
   20.295    5.1957
   20.310    5.1080
   20.325    5.1255
   20.340    5.2133
   20.355    5.0202
   20.370    5.3361
   20.385    5.2835
   20.400    5.0202
   20.415    5.3361
   20.430    4.8973
   20.445    5.3186
   20.460    4.8622
   20.475    5.2484
   20.490    4.6691
   20.505    4.8973
   20.520    5.1431
   20.535    5.0026
   20.550    5.4766
   20.565    5.3712
   20.580    5.0202
   20.595    5.3010
   20.610    4.9851
   20.625    5.3010
   20.640    5.2835
   20.655    5.2308
   20.670    4.9851
   20.685    5.1957
   20.700    5.3010
   20.715    5.1431
   20.730    5.0553
   20.745    5.2835
   20.760    4.9500
   20.775    5.1606
   20.790    4.3707
   20.805    4.5287
   20.820    4.7920
   20.835    5.0026
   20.850    5.1957
   20.865    4.8447
   20.880    5.1431
   20.895    5.4064
   20.910    5.0553
   20.925    5.0377
   20.940    4.8447
   20.955    5.1255
   20.970    5.3888
   20.985    5.3537
   21.000    4.8798
   21.015    4.9500
   21.030    5.3537
   21.045    4.9324
   21.060    4.4760
   21.075    4.8271
   21.090    5.2484
   21.105    5.2133
   21.120    5.2659
   21.135    5.4064
   21.150    4.9675
   21.165    5.0202
   21.180    4.8973
   21.195    5.1080
   21.210    5.4766
   21.225    4.9149
   21.240    5.0728
   21.255    4.8622
   21.270    4.7569
   21.285    4.7569
   21.300    5.1080
   21.315    5.4590
   21.330    5.1957
   21.345    4.7569
   21.360    4.5989
   21.375    4.5111
   21.390    5.2133
   21.405    4.9675
   21.420    5.0202
   21.435    5.1606
   21.450    4.8798
   21.465    5.4766
   21.480    5.0026
   21.495    5.1255
   21.510    5.5994
   21.525    5.2308
   21.540    5.1080
   21.555    4.9149
   21.570    5.3712
   21.585    4.9675
   21.600    5.2659
   21.615    4.4760
   21.630    5.0026
   21.645    5.1431
   21.660    5.1431
   21.675    5.3361
   21.690    5.1255
   21.705    4.5989
   21.720    4.8798
   21.735    4.8095
   21.750    5.3186
   21.765    5.1255
   21.780    4.8973
   21.795    5.1255
   21.810    5.1080
   21.825    5.0904
   21.840    5.2659
   21.855    5.1431
   21.870    5.3361
   21.885    5.1080
   21.900    5.3537
   21.915    5.0377
   21.930    4.8622
   21.945    5.1782
   21.960    5.2308
   21.975    5.6345
   21.990    5.1606
   22.005    5.7750
   22.020    5.5468
   22.035    4.9675
   22.050    4.8447
   22.065    5.0904
   22.080    5.2835
   22.095    5.2308
   22.110    4.9324
   22.125    4.9851
   22.140    4.9500
   22.155    4.8798
   22.170    5.2308
   22.185    5.4590
   22.200    4.7569
   22.215    5.1255
   22.230    5.4064
   22.245    5.3888
   22.260    5.0553
   22.275    5.2484
   22.290    5.0377
   22.305    5.0026
   22.320    5.0202
   22.335    5.2308
   22.350    5.3712
   22.365    5.3186
   22.380    5.9154
   22.395    5.4415
   22.410    5.2308
   22.425    5.2659
   22.440    5.0202
   22.455    5.6697
   22.470    5.8452
   22.485    5.6521
   22.500    5.7925
   22.515    5.4415
   22.530    5.7399
   22.545    5.5643
   22.560    5.2835
   22.575    5.5819
   22.590    5.5117
   22.605    5.5994
   22.620    5.1606
   22.635    5.0553
   22.650    5.0026
   22.665    5.1606
   22.680    5.1080
   22.695    5.0377
   22.710    5.1606
   22.725    5.4941
   22.740    5.3010
   22.755    5.2308
   22.770    5.0202
   22.785    5.5819
   22.800    5.9329
   22.815    5.4941
   22.830    5.4590
   22.845    5.4239
   22.860    5.8276
   22.875    5.6872
   22.890    5.5643
   22.905    5.5117
   22.920    5.5292
   22.935    5.0553
   22.950    4.7744
   22.965    5.0553
   22.980    5.3537
   22.995    4.6165
   23.010    4.6691
   23.025    5.1782
   23.040    4.7042
   23.055    5.3186
   23.070    4.9851
   23.085    5.2308
   23.100    4.6165
   23.115    4.8622
   23.130    4.9149
   23.145    5.1606
   23.160    5.1782
   23.175    5.1606
   23.190    5.7223
   23.205    5.4239
   23.220    5.1957
   23.235    5.5117
   23.250    5.4239
   23.265    5.6170
   23.280    5.8803
   23.295    5.2484
   23.310    5.0553
   23.325    4.9149
   23.340    4.8622
   23.355    4.7569
   23.370    5.0553
   23.385    5.0904
   23.400    5.4415
   23.415    5.4766
   23.430    5.0553
   23.445    5.2133
   23.460    5.2484
   23.475    5.2133
   23.490    4.9324
   23.505    4.9675
   23.520    5.2484
   23.535    5.4239
   23.550    5.0728
   23.565    4.8973
   23.580    4.6165
   23.595    4.8622
   23.610    5.2835
   23.625    4.8973
   23.640    5.0377
   23.655    5.5994
   23.670    5.1957
   23.685    4.8271
   23.700    5.1080
   23.715    5.3010
   23.730    5.0553
   23.745    5.1431
   23.760    5.1255
   23.775    5.3537
   23.790    4.8622
   23.805    5.0202
   23.820    4.9149
   23.835    5.1431
   23.850    4.9324
   23.865    4.6516
   23.880    5.0202
   23.895    5.1957
   23.910    4.8447
   23.925    4.8973
   23.940    5.3712
   23.955    5.0377
   23.970    4.8622
   23.985    5.4239
   24.000    5.1080
   24.015    5.0377
   24.030    4.5989
   24.045    4.9675
   24.060    5.0202
   24.075    4.9500
   24.090    4.6340
   24.105    5.1957
   24.120    4.6867
   24.135    5.3186
   24.150    5.3888
   24.165    4.8798
   24.180    4.4234
   24.195    4.9149
   24.210    4.7920
   24.225    5.1957
   24.240    4.9675
   24.255    4.8271
   24.270    4.9851
   24.285    5.1080
   24.300    5.4415
   24.315    5.3186
   24.330    4.9149
   24.345    4.3707
   24.360    4.8447
   24.375    5.1957
   24.390    5.4941
   24.405    5.2133
   24.420    5.3361
   24.435    5.0377
   24.450    5.1957
   24.465    4.6691
   24.480    4.8622
   24.495    4.8447
   24.510    5.1782
   24.525    4.7569
   24.540    4.7920
   24.555    4.7393
   24.570    5.2308
   24.585    4.6691
   24.600    5.1431
   24.615    4.6516
   24.630    4.9324
   24.645    4.9149
   24.660    4.8798
   24.675    4.5638
   24.690    5.0026
   24.705    5.4239
   24.720    4.9675
   24.735    4.7744
   24.750    5.2484
   24.765    4.9851
   24.780    4.9324
   24.795    4.5989
   24.810    4.7569
   24.825    4.7218
   24.840    4.7744
   24.855    5.1255
   24.870    4.9324
   24.885    4.8798
   24.900    5.1782
   24.915    5.1957
   24.930    5.3186
   24.945    5.2133
   24.960    4.8798
   24.975    4.9149
   24.990    4.9324
   25.005    4.6165
   25.020    4.7569
   25.035    4.9851
   25.050    5.1782
   25.065    4.5814
   25.080    4.7744
   25.095    4.5814
   25.110    4.8622
   25.125    4.9675
   25.140    4.9324
   25.155    4.9500
   25.170    4.4234
   25.185    4.5463
   25.200    4.8798
   25.215    4.7042
   25.230    4.8798
   25.245    4.6691
   25.260    5.0553
   25.275    4.8622
   25.290    4.5638
   25.305    4.5111
   25.320    4.3532
   25.335    5.1080
   25.350    4.8973
   25.365    5.1431
   25.380    5.0377
   25.395    4.5287
   25.410    4.9851
   25.425    4.9324
   25.440    4.9324
   25.455    4.5463
   25.470    4.9675
   25.485    4.7393
   25.500    4.9675
   25.515    4.8973
   25.530    4.7218
   25.545    4.8271
   25.560    4.8798
   25.575    4.9851
   25.590    4.7393
   25.605    5.0377
   25.620    4.6516
   25.635    4.8271
   25.650    4.9851
   25.665    5.0377
   25.680    4.9675
   25.695    5.1782
   25.710    5.6872
   25.725    5.4064
   25.740    5.1782
   25.755    4.7920
   25.770    4.9500
   25.785    5.1782
   25.800    5.5643
   25.815    5.7399
   25.830    4.6691
   25.845    4.7042
   25.860    4.8973
   25.875    4.9149
   25.890    4.8095
   25.905    4.7393
   25.920    4.7042
   25.935    4.6867
   25.950    4.7744
   25.965    4.6691
   25.980    4.8798
   25.995    5.0377
   26.010    4.9851
   26.025    4.8798
   26.040    5.2484
   26.055    4.6691
   26.070    4.8271
   26.085    5.1606
   26.100    4.9500
   26.115    4.7744
   26.130    4.4585
   26.145    4.5463
   26.160    4.3532
   26.175    4.5814
   26.190    4.8447
   26.205    4.8973
   26.220    4.8622
   26.235    4.7042
   26.250    4.5287
   26.265    4.5989
   26.280    4.7218
   26.295    4.8447
   26.310    4.7744
   26.325    5.0553
   26.340    4.8622
   26.355    5.1606
   26.370    4.9851
   26.385    4.9851
   26.400    4.9149
   26.415    5.1606
   26.430    5.1782
   26.445    4.9500
   26.460    4.5638
   26.475    4.5111
   26.490    5.0377
   26.505    4.4936
   26.520    4.5463
   26.535    4.4936
   26.550    4.5463
   26.565    4.1074
   26.580    4.9675
   26.595    4.9149
   26.610    4.4936
   26.625    4.7218
   26.640    5.0026
   26.655    4.5814
   26.670    4.1952
   26.685    4.4058
   26.700    4.7042
   26.715    4.6165
   26.730    4.8798
   26.745    4.4058
   26.760    4.3883
   26.775    4.5638
   26.790    4.4585
   26.805    4.8622
   26.820    4.9851
   26.835    4.6516
   26.850    4.3181
   26.865    4.3883
   26.880    4.9324
   26.895    4.8271
   26.910    5.1431
   26.925    4.8447
   26.940    4.7218
   26.955    4.6691
   26.970    5.1606
   26.985    4.7569
   27.000    5.0904
   27.015    4.8622
   27.030    4.7393
   27.045    4.7569
   27.060    4.6867
   27.075    4.4936
   27.090    4.5638
   27.105    4.6867
   27.120    4.6340
   27.135    4.6516
   27.150    4.5111
   27.165    5.0904
   27.180    4.7920
   27.195    4.4760
   27.210    4.9851
   27.225    4.8095
   27.240    4.4585
   27.255    4.1074
   27.270    4.4585
   27.285    4.9324
   27.300    4.1952
   27.315    4.1250
   27.330    4.7569
   27.345    4.6340
   27.360    5.0553
   27.375    4.5111
   27.390    4.1776
   27.405    4.6691
   27.420    4.7218
   27.435    4.3356
   27.450    4.2478
   27.465    4.7569
   27.480    4.8622
   27.495    4.5638
   27.510    4.5287
   27.525    4.6516
   27.540    5.1080
   27.555    4.5989
   27.570    4.6691
   27.585    4.8798
   27.600    5.2484
   27.615    4.5814
   27.630    4.3707
   27.645    4.8622
   27.660    4.8095
   27.675    4.6516
   27.690    5.0728
   27.705    4.5814
   27.720    4.6340
   27.735    4.3005
   27.750    4.5463
   27.765    4.5814
   27.780    4.7042
   27.795    5.1080
   27.810    4.8798
   27.825    4.6340
   27.840    4.8622
   27.855    4.5287
   27.870    4.3356
   27.885    4.4058
   27.900    4.6867
   27.915    4.7393
   27.930    4.7920
   27.945    4.5287
   27.960    4.5989
   27.975    5.1255
   27.990    4.7744
   28.005    4.2654
   28.020    4.4409
   28.035    4.4760
   28.050    4.7744
   28.065    4.6867
   28.080    4.7569
   28.095    5.0728
   28.110    4.7393
   28.125    4.5814
   28.140    5.2484
   28.155    5.0553
   28.170    4.7218
   28.185    4.7920
   28.200    4.4234
   28.215    4.4760
   28.230    4.4585
   28.245    5.0377
   28.260    4.6165
   28.275    4.4585
   28.290    4.6516
   28.305    4.7744
   28.320    4.5814
   28.335    4.5989
   28.350    4.8798
   28.365    5.0026
   28.380    4.7569
   28.395    4.6516
   28.410    4.6691
   28.425    4.4585
   28.440    4.9149
   28.455    4.7042
   28.470    4.6867
   28.485    4.2830
   28.500    4.3883
   28.515    4.4058
   28.530    4.9149
   28.545    4.7218
   28.560    4.1776
   28.575    4.2127
   28.590    4.1601
   28.605    4.3707
   28.620    4.6165
   28.635    4.7920
   28.650    4.3707
   28.665    4.3181
   28.680    4.4585
   28.695    4.5111
   28.710    4.1952
   28.725    4.3181
   28.740    4.6867
   28.755    4.3707
   28.770    4.3356
   28.785    4.5814
   28.800    4.7920
   28.815    4.6165
   28.830    4.8622
   28.845    4.5463
   28.860    4.5814
   28.875    4.8973
   28.890    4.6867
   28.905    4.3707
   28.920    4.3005
   28.935    4.8973
   28.950    4.6165
   28.965    4.9500
   28.980    4.6867
   28.995    4.8798
   29.010    4.7569
   29.025    4.4234
   29.040    4.5463
   29.055    4.3883
   29.070    4.3181
   29.085    4.2478
   29.100    4.1250
   29.115    4.5989
   29.130    4.4234
   29.145    4.1776
   29.160    4.3707
   29.175    4.4760
   29.190    4.7393
   29.205    4.7042
   29.220    4.4409
   29.235    4.6691
   29.250    4.5287
   29.265    4.4058
   29.280    4.4585
   29.295    4.5463
   29.310    4.2654
   29.325    4.0899
   29.340    4.8095
   29.355    4.7920
   29.370    4.3005
   29.385    4.3707
   29.400    4.3356
   29.415    4.6340
   29.430    4.8447
   29.445    4.7042
   29.460    4.6867
   29.475    4.3883
   29.490    4.3356
   29.505    4.3005
   29.520    4.4409
   29.535    4.2830
   29.550    4.5287
   29.565    4.6165
   29.580    4.1776
   29.595    4.1952
   29.610    4.4936
   29.625    4.5638
   29.640    4.6867
   29.655    5.1255
   29.670    4.2830
   29.685    4.2127
   29.700    4.3707
   29.715    4.5989
   29.730    4.5463
   29.745    4.7920
   29.760    4.3532
   29.775    4.4058
   29.790    4.6691
   29.805    4.5111
   29.820    4.2830
   29.835    4.6691
   29.850    4.6867
   29.865    4.8447
   29.880    4.5638
   29.895    4.5638
   29.910    4.5638
   29.925    4.5814
   29.940    4.7393
   29.955    4.4409
   29.970    4.8271
   29.985    4.7393
   30.000    4.3356
   30.015    4.0372
   30.030    4.0899
   30.045    3.9846
   30.060    4.0899
   30.075    4.3005
   30.090    4.0723
   30.105    4.1074
   30.120    4.7042
   30.135    4.1776
   30.150    4.4058
   30.165    4.5638
   30.180    4.1776
   30.195    4.5111
   30.210    4.4760
   30.225    4.3707
   30.240    3.9846
   30.255    4.3707
   30.270    4.1425
   30.285    4.0197
   30.300    4.2303
   30.315    4.0021
   30.330    4.5989
   30.345    4.2478
   30.360    4.1776
   30.375    4.3532
   30.390    4.4585
   30.405    4.1250
   30.420    4.3005
   30.435    4.6165
   30.450    4.3181
   30.465    4.4058
   30.480    4.5111
   30.495    4.4585
   30.510    4.0899
   30.525    4.2654
   30.540    4.0372
   30.555    4.3707
   30.570    4.3707
   30.585    4.1776
   30.600    4.4058
   30.615    4.3707
   30.630    4.7393
   30.645    4.3707
   30.660    4.1952
   30.675    4.2303
   30.690    4.3181
   30.705    4.0021
   30.720    3.8968
   30.735    4.3181
   30.750    4.1250
   30.765    4.3356
   30.780    4.1601
   30.795    4.3356
   30.810    4.3883
   30.825    4.0197
   30.840    4.4936
   30.855    4.1776
   30.870    4.3181
   30.885    4.3181
   30.900    4.3532
   30.915    4.0899
   30.930    4.6691
   30.945    4.4760
   30.960    4.2654
   30.975    4.1776
   30.990    4.3005
   31.005    3.8792
   31.020    3.8792
   31.035    3.9670
   31.050    3.9670
   31.065    4.0548
   31.080    4.3356
   31.095    4.3005
   31.110    4.3181
   31.125    4.3181
   31.140    4.3005
   31.155    3.9143
   31.170    4.0548
   31.185    4.0899
   31.200    4.0372
   31.215    4.1601
   31.230    4.1074
   31.245    4.4936
   31.260    4.3181
   31.275    3.7915
   31.290    4.0548
   31.305    3.8792
   31.320    4.4058
   31.335    4.7393
   31.350    4.4760
   31.365    3.8266
   31.380    4.1250
   31.395    4.4234
   31.410    4.2830
   31.425    4.2303
   31.440    3.6686
   31.455    4.0372
   31.470    4.5989
   31.485    4.4058
   31.500    4.2478
   31.515    4.3883
   31.530    4.1250
   31.545    4.3181
   31.560    4.3532
   31.575    4.5287
   31.590    4.2127
   31.605    4.3707
   31.620    4.3883
   31.635    4.3532
   31.650    4.0899
   31.665    4.0021
   31.680    4.4409
   31.695    4.1425
   31.710    3.8792
   31.725    4.3883
   31.740    4.7042
   31.755    4.3532
   31.770    4.1601
   31.785    3.9846
   31.800    4.1776
   31.815    4.2830
   31.830    3.9143
   31.845    3.8266
   31.860    4.3707
   31.875    4.0548
   31.890    3.7564
   31.905    4.2830
   31.920    4.3356
   31.935    4.1776
   31.950    4.0197
   31.965    4.3005
   31.980    4.3356
   31.995    4.1601
   32.010    3.9670
   32.025    4.2127
   32.040    4.0197
   32.055    4.0197
   32.070    4.0548
   32.085    3.8266
   32.100    4.1601
   32.115    4.1952
   32.130    4.4936
   32.145    4.3356
   32.160    4.0197
   32.175    4.1601
   32.190    4.1601
   32.205    4.1425
   32.220    3.9494
   32.235    4.3883
   32.250    4.0723
   32.265    4.1425
   32.280    3.8441
   32.295    4.1601
   32.310    4.2830
   32.325    4.0021
   32.340    4.3005
   32.355    4.0372
   32.370    3.6510
   32.385    4.0372
   32.400    4.0372
   32.415    4.0197
   32.430    3.9670
   32.445    4.0899
   32.460    3.7564
   32.475    4.1250
   32.490    4.3181
   32.505    3.9143
   32.520    3.9494
   32.535    4.0899
   32.550    4.1425
   32.565    3.8090
   32.580    3.8792
   32.595    3.8617
   32.610    3.9494
   32.625    4.0548
   32.640    3.8441
   32.655    3.7564
   32.670    4.0548
   32.685    3.8090
   32.700    4.2127
   32.715    4.0197
   32.730    3.8090
   32.745    4.0372
   32.760    3.7037
   32.775    4.0197
   32.790    3.8968
   32.805    4.0197
   32.820    3.7564
   32.835    3.8441
   32.850    3.8441
   32.865    4.2654
   32.880    4.2830
   32.895    4.3532
   32.910    4.2303
   32.925    4.2303
   32.940    4.1776
   32.955    4.0548
   32.970    3.9670
   32.985    4.1776
   33.000    3.8968
   33.015    3.9319
   33.030    3.7915
   33.045    4.0548
   33.060    4.1074
   33.075    4.3181
   33.090    4.0021
   33.105    3.8090
   33.120    3.8441
   33.135    3.8090
   33.150    4.1074
   33.165    3.8441
   33.180    3.3877
   33.195    3.5633
   33.210    3.8266
   33.225    3.6686
   33.240    3.7037
   33.255    3.8968
   33.270    3.8617
   33.285    3.5808
   33.300    4.2478
   33.315    4.0372
   33.330    3.7388
   33.345    3.7564
   33.360    3.8792
   33.375    4.0548
   33.390    3.9670
   33.405    4.0197
   33.420    4.0548
   33.435    3.8441
   33.450    4.0548
   33.465    4.0723
   33.480    4.1250
   33.495    3.7388
   33.510    4.0021
   33.525    3.7213
   33.540    3.5633
   33.555    3.9319
   33.570    3.6686
   33.585    3.8090
   33.600    3.7388
   33.615    4.3181
   33.630    3.9846
   33.645    4.0372
   33.660    4.4234
   33.675    3.9670
   33.690    4.0197
   33.705    3.6335
   33.720    3.9846
   33.735    3.9319
   33.750    3.9846
   33.765    3.9143
   33.780    4.2127
   33.795    3.7915
   33.810    3.7915
   33.825    4.0021
   33.840    3.8617
   33.855    4.2478
   33.870    4.2303
   33.885    4.2303
   33.900    4.0548
   33.915    4.0021
   33.930    4.2478
   33.945    4.1776
   33.960    4.6340
   33.975    4.0899
   33.990    4.0548
   34.005    4.1074
   34.020    4.0723
   34.035    4.3181
   34.050    3.8441
   34.065    3.4755
   34.080    3.5808
   34.095    3.8441
   34.110    4.0723
   34.125    3.5633
   34.140    3.5984
   34.155    3.7564
   34.170    4.0548
   34.185    3.8441
   34.200    3.6862
   34.215    3.9143
   34.230    3.9670
   34.245    3.9494
   34.260    3.8441
   34.275    4.1250
   34.290    3.6862
   34.305    3.7915
   34.320    3.8266
   34.335    4.0197
   34.350    4.0021
   34.365    3.9670
   34.380    4.0197
   34.395    4.0021
   34.410    3.6159
   34.425    3.8441
   34.440    4.0197
   34.455    4.0899
   34.470    3.8266
   34.485    3.7388
   34.500    3.4580
   34.515    3.7037
   34.530    3.8090
   34.545    3.9143
   34.560    3.7739
   34.575    3.7915
   34.590    3.8090
   34.605    3.6510
   34.620    3.4580
   34.635    3.6510
   34.650    3.7388
   34.665    4.0372
   34.680    3.7915
   34.695    3.4580
   34.710    3.6159
   34.725    3.5984
   34.740    3.5633
   34.755    3.8792
   34.770    4.0197
   34.785    4.2654
   34.800    4.0372
   34.815    4.0021
   34.830    3.8968
   34.845    4.0197
   34.860    3.8266
   34.875    3.9494
   34.890    3.7213
   34.905    3.7564
   34.920    3.5282
   34.935    3.8090
   34.950    3.7564
   34.965    3.7915
   34.980    3.5808
   34.995    3.6335
   35.010    3.7037
   35.025    3.8441
   35.040    3.7915
   35.055    3.8968
   35.070    4.3005
   35.085    4.2478
   35.100    3.9494
   35.115    4.0197
   35.130    3.5984
   35.145    3.7388
   35.160    3.7564
   35.175    4.0021
   35.190    4.0021
   35.205    3.7564
   35.220    3.6686
   35.235    3.6862
   35.250    4.0197
   35.265    3.6159
   35.280    3.2824
   35.295    3.7564
   35.310    3.7388
   35.325    3.9846
   35.340    3.8441
   35.355    3.6159
   35.370    3.8792
   35.385    4.0899
   35.400    4.1074
   35.415    3.6686
   35.430    3.6862
   35.445    3.6335
   35.460    3.5633
   35.475    3.4229
   35.490    4.0197
   35.505    3.8792
   35.520    4.2303
   35.535    4.0548
   35.550    3.9494
   35.565    3.6862
   35.580    3.5984
   35.595    3.9846
   35.610    3.5282
   35.625    3.8968
   35.640    3.9670
   35.655    4.1776
   35.670    3.9143
   35.685    3.8266
   35.700    3.9319
   35.715    3.2649
   35.730    3.4755
   35.745    3.6510
   35.760    3.7564
   35.775    3.5106
   35.790    3.7213
   35.805    3.6862
   35.820    3.6862
   35.835    3.6335
   35.850    3.7037
   35.865    3.8266
   35.880    3.9494
   35.895    4.3532
   35.910    3.8441
   35.925    3.9494
   35.940    3.7739
   35.955    3.8968
   35.970    4.0197
   35.985    4.0021
   36.000    3.9670
   36.015    4.1952
   36.030    3.6159
   36.045    3.5808
   36.060    3.5106
   36.075    3.5457
   36.090    3.7915
   36.105    3.8792
   36.120    3.8792
   36.135    4.0021
   36.150    3.7213
   36.165    3.8617
   36.180    4.1601
   36.195    3.6335
   36.210    3.5984
   36.225    3.5106
   36.240    3.6335
   36.255    3.9143
   36.270    3.7037
   36.285    3.9494
   36.300    3.8090
   36.315    3.4229
   36.330    3.7564
   36.345    3.3526
   36.360    3.2298
   36.375    3.7213
   36.390    3.7915
   36.405    3.7915
   36.420    3.9670
   36.435    3.8968
   36.450    3.7213
   36.465    3.3175
   36.480    3.5282
   36.495    3.6510
   36.510    3.6686
   36.525    3.3526
   36.540    3.5282
   36.555    3.6510
   36.570    3.4755
   36.585    3.9319
   36.600    3.7739
   36.615    3.5808
   36.630    3.6686
   36.645    4.0021
   36.660    3.7213
   36.675    3.4053
   36.690    3.5984
   36.705    3.6510
   36.720    3.5808
   36.735    3.6510
   36.750    3.6335
   36.765    3.8968
   36.780    3.7213
   36.795    3.5984
   36.810    3.5984
   36.825    3.5633
   36.840    3.7388
   36.855    3.4404
   36.870    3.5106
   36.885    3.8090
   36.900    3.5984
   36.915    3.3175
   36.930    3.9319
   36.945    4.0372
   36.960    3.6686
   36.975    3.8090
   36.990    3.8968
   37.005    3.7739
   37.020    3.9494
   37.035    3.9143
   37.050    3.7037
   37.065    4.1601
   37.080    3.7388
   37.095    3.9494
   37.110    4.0899
   37.125    3.4053
   37.140    3.4580
   37.155    4.1425
   37.170    3.7564
   37.185    3.6510
   37.200    3.7037
   37.215    3.8441
   37.230    3.9319
   37.245    3.6335
   37.260    3.4229
   37.275    3.2473
   37.290    3.7213
   37.305    3.8441
   37.320    3.8090
   37.335    3.6510
   37.350    3.3000
   37.365    3.4229
   37.380    3.6159
   37.395    3.8090
   37.410    3.8441
   37.425    3.5457
   37.440    3.5808
   37.455    3.6686
   37.470    3.4755
   37.485    3.1947
   37.500    3.5984
   37.515    3.6862
   37.530    3.8266
   37.545    3.5984
   37.560    3.3877
   37.575    3.8792
   37.590    3.8090
   37.605    3.7915
   37.620    3.9846
   37.635    3.3351
   37.650    3.6159
   37.665    3.8090
   37.680    3.6335
   37.695    3.8090
   37.710    3.8266
   37.725    3.6335
   37.740    3.5457
   37.755    3.4229
   37.770    3.6159
   37.785    3.9494
   37.800    3.8968
   37.815    3.8617
   37.830    3.6686
   37.845    3.5808
   37.860    3.4755
   37.875    3.8266
   37.890    3.9319
   37.905    3.9143
   37.920    3.6862
   37.935    3.4931
   37.950    3.7564
   37.965    3.4580
   37.980    3.1947
   37.995    3.4229
   38.010    4.0197
   38.025    3.3877
   38.040    3.9494
   38.055    4.0372
   38.070    3.7739
   38.085    3.7739
   38.100    3.6159
   38.115    3.3877
   38.130    3.6335
   38.145    3.7739
   38.160    3.7564
   38.175    3.5984
   38.190    3.5282
   38.205    3.9670
   38.220    3.8266
   38.235    3.6335
   38.250    3.4931
   38.265    3.4931
   38.280    3.9670
   38.295    3.7213
   38.310    3.7037
   38.325    3.6862
   38.340    3.4755
   38.355    3.8266
   38.370    3.7213
   38.385    4.3356
   38.400    3.8266
   38.415    3.8090
   38.430    3.7739
   38.445    3.8617
   38.460    3.8968
   38.475    3.7037
   38.490    3.4229
   38.505    3.8090
   38.520    3.6335
   38.535    3.7739
   38.550    3.3000
   38.565    3.8441
   38.580    3.7915
   38.595    4.0197
   38.610    3.5984
   38.625    3.9846
   38.640    3.4580
   38.655    3.5457
   38.670    3.0542
   38.685    3.5282
   38.700    3.5457
   38.715    3.3702
   38.730    3.5457
   38.745    3.8090
   38.760    3.7213
   38.775    3.4755
   38.790    3.7213
   38.805    3.8266
   38.820    3.9143
   38.835    3.6510
   38.850    3.6686
   38.865    3.8792
   38.880    3.4580
   38.895    3.4404
   38.910    3.5457
   38.925    3.4931
   38.940    3.4053
   38.955    3.2824
   38.970    3.7037
   38.985    3.7037
   39.000    3.5633
   39.015    3.5808
   39.030    3.4053
   39.045    3.5808
   39.060    3.5633
   39.075    3.6510
   39.090    3.7037
   39.105    3.3351
   39.120    3.4755
   39.135    3.6862
   39.150    3.5106
   39.165    3.7739
   39.180    3.9143
   39.195    3.6510
   39.210    3.7564
   39.225    3.8266
   39.240    3.7564
   39.255    3.7388
   39.270    3.7213
   39.285    3.4404
   39.300    3.5808
   39.315    3.5106
   39.330    3.5457
   39.345    3.4580
   39.360    3.3351
   39.375    3.5282
   39.390    3.5808
   39.405    3.7037
   39.420    3.7213
   39.435    4.0021
   39.450    3.6159
   39.465    3.8266
   39.480    3.4931
   39.495    3.7213
   39.510    3.7388
   39.525    3.7915
   39.540    3.9143
   39.555    3.7213
   39.570    3.9846
   39.585    3.9846
   39.600    3.7388
   39.615    3.4931
   39.630    3.3175
   39.645    3.6862
   39.660    3.6335
   39.675    3.8090
   39.690    3.5106
   39.705    4.0372
   39.720    3.9494
   39.735    3.9143
   39.750    3.4053
   39.765    3.7915
   39.780    3.5282
   39.795    3.6686
   39.810    3.8441
   39.825    3.9494
   39.840    4.2478
   39.855    3.7037
   39.870    3.6686
   39.885    3.7037
   39.900    3.5808
   39.915    3.9319
   39.930    4.0548
   39.945    4.0723
   39.960    3.8266
   39.975    3.7213
   39.990    3.5984
   40.005    3.4053
   40.020    3.4580
   40.035    3.9143
   40.050    3.4229
   40.065    3.4755
   40.080    3.4755
   40.095    3.2649
   40.110    3.4755
   40.125    3.5106
   40.140    3.5633
   40.155    3.3877
   40.170    3.7213
   40.185    3.7739
   40.200    3.9846
   40.215    3.7739
   40.230    4.0372
   40.245    3.5106
   40.260    3.5808
   40.275    3.4931
   40.290    3.5106
   40.305    3.8441
   40.320    3.8090
   40.335    3.5633
   40.350    3.7739
   40.365    3.9143
   40.380    3.5633
   40.395    3.5633
   40.410    3.7915
   40.425    4.0021
   40.440    3.6335
   40.455    3.6686
   40.470    3.4229
   40.485    3.7915
   40.500    3.8266
   40.515    3.9319
   40.530    3.5282
   40.545    3.3877
   40.560    3.6686
   40.575    3.8617
   40.590    3.9143
   40.605    3.6159
   40.620    3.7037
   40.635    3.7564
   40.650    3.7915
   40.665    3.2298
   40.680    3.2473
   40.695    3.6510
   40.710    3.4229
   40.725    3.7739
   40.740    3.7388
   40.755    4.0723
   40.770    3.8792
   40.785    3.7213
   40.800    3.5106
   40.815    3.7388
   40.830    3.4229
   40.845    3.5282
   40.860    3.3702
   40.875    3.5633
   40.890    3.8090
   40.905    3.7739
   40.920    3.9143
   40.935    3.7915
   40.950    3.7037
   40.965    3.6510
   40.980    3.3351
   40.995    3.5282
   41.010    3.7388
   41.025    3.6862
   41.040    3.7037
   41.055    3.5282
   41.070    3.6510
   41.085    3.6862
   41.100    3.7564
   41.115    3.6862
   41.130    3.4931
   41.145    3.7915
   41.160    3.2824
   41.175    3.2649
   41.190    3.8266
   41.205    3.6686
   41.220    3.5106
   41.235    3.4229
   41.250    3.4580
   41.265    3.6510
   41.280    3.4931
   41.295    3.6159
   41.310    3.4755
   41.325    3.2122
   41.340    3.5984
   41.355    3.8617
   41.370    3.6686
   41.385    3.7037
   41.400    3.3877
   41.415    3.7388
   41.430    3.7037
   41.445    3.6510
   41.460    3.7037
   41.475    3.6159
   41.490    3.4931
   41.505    3.5282
   41.520    3.3526
   41.535    3.7739
   41.550    4.0021
   41.565    3.8617
   41.580    3.8266
   41.595    3.6862
   41.610    3.7388
   41.625    3.2649
   41.640    3.0542
   41.655    3.4755
   41.670    3.5984
   41.685    3.5457
   41.700    3.7388
   41.715    3.4580
   41.730    3.3526
   41.745    3.4053
   41.760    3.6510
   41.775    3.6862
   41.790    3.7037
   41.805    3.2824
   41.820    3.6159
   41.835    3.5808
   41.850    3.8792
   41.865    3.5633
   41.880    3.7739
   41.895    3.4580
   41.910    3.5984
   41.925    3.5808
   41.940    3.5282
   41.955    3.9494
   41.970    3.1771
   41.985    3.8090
   42.000    3.7037
   42.015    3.6510
   42.030    3.5808
   42.045    4.0021
   42.060    3.6862
   42.075    3.8090
   42.090    3.4931
   42.105    3.4931
   42.120    3.5808
   42.135    3.8617
   42.150    3.5282
   42.165    3.8441
   42.180    4.1952
   42.195    3.9846
   42.210    3.2824
   42.225    3.6862
   42.240    3.3000
   42.255    3.5808
   42.270    3.4580
   42.285    3.5106
   42.300    3.6510
   42.315    3.6335
   42.330    3.4053
   42.345    3.4404
   42.360    3.5633
   42.375    3.5633
   42.390    3.4931
   42.405    3.7564
   42.420    3.5633
   42.435    3.5282
   42.450    3.2298
   42.465    3.6335
   42.480    3.4229
   42.495    3.3351
   42.510    3.4229
   42.525    3.5808
   42.540    3.5457
   42.555    3.7213
   42.570    3.2649
   42.585    3.3702
   42.600    3.4580
   42.615    3.7213
   42.630    3.7564
   42.645    3.7388
   42.660    3.3351
   42.675    3.9143
   42.690    3.7213
   42.705    3.7037
   42.720    3.3526
   42.735    3.4404
   42.750    3.8090
   42.765    3.8441
   42.780    3.4053
   42.795    3.6335
   42.810    3.4053
   42.825    3.6862
   42.840    4.0197
   42.855    3.7213
   42.870    3.5984
   42.885    4.1074
   42.900    3.4755
   42.915    3.7037
   42.930    3.1771
   42.945    3.7388
   42.960    3.4404
   42.975    3.4755
   42.990    3.7564
   43.005    3.6335
   43.020    3.5457
   43.035    3.7037
   43.050    3.5282
   43.065    3.5984
   43.080    3.5984
   43.095    3.4053
   43.110    3.5282
   43.125    3.4229
   43.140    3.6335
   43.155    3.3526
   43.170    3.4404
   43.185    3.4755
   43.200    3.6510
   43.215    3.5808
   43.230    3.6686
   43.245    3.6862
   43.260    3.9319
   43.275    3.4229
   43.290    3.4580
   43.305    3.5984
   43.320    3.5984
   43.335    3.4580
   43.350    3.5457
   43.365    3.5633
   43.380    3.9143
   43.395    3.4404
   43.410    3.5808
   43.425    3.4755
   43.440    3.4053
   43.455    3.4755
   43.470    3.4053
   43.485    3.6335
   43.500    3.3702
   43.515    3.3351
   43.530    3.3000
   43.545    3.2649
   43.560    3.9846
   43.575    3.3351
   43.590    3.6159
   43.605    3.7213
   43.620    3.2824
   43.635    3.1771
   43.650    3.6510
   43.665    4.0723
   43.680    3.9670
   43.695    3.3351
   43.710    3.5808
   43.725    3.4580
   43.740    3.6335
   43.755    3.9143
   43.770    3.4931
   43.785    3.3877
   43.800    3.2649
   43.815    3.2473
   43.830    3.4931
   43.845    3.4755
   43.860    3.6862
   43.875    3.8968
   43.890    3.6862
   43.905    3.8441
   43.920    3.5457
   43.935    3.5808
   43.950    3.4580
   43.965    3.4053
   43.980    3.4229
   43.995    3.5282
   44.010    3.2824
   44.025    3.7037
   44.040    3.9319
   44.055    3.4931
   44.070    3.6862
   44.085    3.6510
   44.100    3.6159
   44.115    3.4229
   44.130    3.6862
   44.145    3.5633
   44.160    3.6686
   44.175    3.7213
   44.190    3.9319
   44.205    3.6862
   44.220    3.3175
   44.235    3.6335
   44.250    3.2473
   44.265    3.3175
   44.280    4.0021
   44.295    3.3175
   44.310    3.7037
   44.325    3.7037
   44.340    3.8441
   44.355    3.1069
   44.370    3.0718
   44.385    3.1771
   44.400    3.4580
   44.415    3.5457
   44.430    3.5457
   44.445    3.3175
   44.460    3.4053
   44.475    3.4404
   44.490    3.2298
   44.505    3.4755
   44.520    3.2824
   44.535    3.5633
   44.550    3.5984
   44.565    3.4229
   44.580    3.7564
   44.595    3.5633
   44.610    3.5106
   44.625    3.5984
   44.640    3.6510
   44.655    3.7388
   44.670    3.4755
   44.685    3.7564
   44.700    3.6686
   44.715    3.7915
   44.730    3.7915
   44.745    3.8792
   44.760    3.7739
   44.775    3.3877
   44.790    3.7564
   44.805    2.9840
   44.820    3.6686
   44.835    3.2824
   44.850    3.5106
   44.865    3.1771
   44.880    3.3351
   44.895    3.2649
   44.910    3.4053
   44.925    3.5633
   44.940    3.7564
   44.955    3.7037
   44.970    3.7037
   44.985    3.4053
   45.000    3.1069
   45.015    3.2473
   45.030    3.6335
   45.045    3.6686
   45.060    3.7388
   45.075    3.4404
   45.090    3.2298
   45.105    3.3000
   45.120    3.7037
   45.135    3.7739
   45.150    3.4053
   45.165    3.3702
   45.180    3.4404
   45.195    3.3000
   45.210    3.4404
   45.225    3.5106
   45.240    3.5984
   45.255    3.9494
   45.270    3.6510
   45.285    3.5808
   45.300    3.4580
   45.315    3.5808
   45.330    3.5106
   45.345    3.5633
   45.360    3.5984
   45.375    3.7564
   45.390    3.3877
   45.405    3.0367
   45.420    3.7213
   45.435    3.7037
   45.450    3.4580
   45.465    3.4755
   45.480    3.3702
   45.495    3.5457
   45.510    3.3702
   45.525    3.3702
   45.540    3.2298
   45.555    3.3000
   45.570    3.4053
   45.585    3.7213
   45.600    3.1420
   45.615    3.1947
   45.630    3.0542
   45.645    3.3702
   45.660    3.4053
   45.675    3.2122
   45.690    3.2649
   45.705    3.7739
   45.720    3.4229
   45.735    3.7388
   45.750    3.5633
   45.765    3.5457
   45.780    3.5106
   45.795    3.2473
   45.810    3.1771
   45.825    3.1771
   45.840    3.2473
   45.855    3.7213
   45.870    3.4580
   45.885    3.4755
   45.900    3.7037
   45.915    3.5457
   45.930    3.3877
   45.945    3.6159
   45.960    3.5633
   45.975    3.4931
   45.990    3.2824
   46.005    3.3877
   46.020    3.3877
   46.035    3.3175
   46.050    3.5106
   46.065    3.4755
   46.080    3.3351
   46.095    3.1596
   46.110    3.5282
   46.125    3.3702
   46.140    3.4755
   46.155    3.5808
   46.170    3.7564
   46.185    3.5106
   46.200    3.6335
   46.215    3.5633
   46.230    3.4931
   46.245    3.3000
   46.260    3.1771
   46.275    3.2649
   46.290    3.7388
   46.305    3.5984
   46.320    3.4229
   46.335    3.4580
   46.350    3.6335
   46.365    3.6862
   46.380    3.4404
   46.395    3.1596
   46.410    3.3000
   46.425    3.4580
   46.440    3.6862
   46.455    3.3000
   46.470    3.2824
   46.485    3.4931
   46.500    3.2298
   46.515    3.3526
   46.530    3.6159
   46.545    3.3351
   46.560    3.3000
   46.575    3.3702
   46.590    3.3175
   46.605    3.0542
   46.620    3.7915
   46.635    3.6159
   46.650    3.6159
   46.665    3.6335
   46.680    3.4755
   46.695    3.6510
   46.710    3.2649
   46.725    3.5106
   46.740    3.2824
   46.755    3.4755
   46.770    3.4931
   46.785    3.5106
   46.800    3.3000
   46.815    3.4580
   46.830    3.7388
   46.845    3.4580
   46.860    3.2122
   46.875    3.1947
   46.890    3.3702
   46.905    3.3702
   46.920    3.3702
   46.935    3.4053
   46.950    3.7915
   46.965    3.2473
   46.980    3.3877
   46.995    3.4755
   47.010    3.3526
   47.025    3.3702
   47.040    3.4229
   47.055    3.0893
   47.070    3.5633
   47.085    3.5106
   47.100    3.7037
   47.115    3.5282
   47.130    3.3526
   47.145    3.5106
   47.160    3.3351
   47.175    3.2122
   47.190    3.5457
   47.205    3.3000
   47.220    3.2649
   47.235    3.0893
   47.250    3.3000
   47.265    3.0542
   47.280    3.3351
   47.295    3.4755
   47.310    3.2824
   47.325    3.6159
   47.340    3.4755
   47.355    3.9143
   47.370    3.4580
   47.385    3.3877
   47.400    3.7213
   47.415    3.7213
   47.430    3.5457
   47.445    3.8968
   47.460    3.3351
   47.475    3.4404
   47.490    3.5106
   47.505    3.1596
   47.520    3.0542
   47.535    3.2649
   47.550    3.3351
   47.565    3.3175
   47.580    3.4931
   47.595    3.7037
   47.610    3.0367
   47.625    3.0718
   47.640    3.4580
   47.655    3.5457
   47.670    3.1596
   47.685    3.4580
   47.700    3.3526
   47.715    3.3175
   47.730    3.4053
   47.745    3.5106
   47.760    3.3351
   47.775    3.2298
   47.790    3.3351
   47.805    3.5282
   47.820    3.1771
   47.835    3.6335
   47.850    3.4053
   47.865    3.8441
   47.880    3.2473
   47.895    3.2298
   47.910    3.2122
   47.925    3.5282
   47.940    3.5984
   47.955    3.3000
   47.970    3.1947
   47.985    3.4229
   48.000    3.3877
   48.015    3.3877
   48.030    3.4931
   48.045    3.4229
   48.060    3.4053
   48.075    3.8090
   48.090    3.4931
   48.105    3.6510
   48.120    3.5106
   48.135    3.5633
   48.150    3.6510
   48.165    3.3175
   48.180    3.4404
   48.195    3.3000
   48.210    3.1069
   48.225    3.2122
   48.240    3.3877
   48.255    3.5106
   48.270    3.6159
   48.285    3.3351
   48.300    3.1420
   48.315    3.2122
   48.330    3.2473
   48.345    3.7213
   48.360    3.8968
   48.375    3.3351
   48.390    3.7037
   48.405    3.3175
   48.420    3.1596
   48.435    3.1596
   48.450    3.3877
   48.465    3.6159
   48.480    3.6686
   48.495    3.5457
   48.510    3.4580
   48.525    3.6335
   48.540    3.2473
   48.555    3.2824
   48.570    3.6686
   48.585    3.4053
   48.600    3.6159
   48.615    3.8090
   48.630    3.3526
   48.645    3.1771
   48.660    3.4404
   48.675    3.3000
   48.690    3.0016
   48.705    3.4053
   48.720    3.1771
   48.735    3.1245
   48.750    3.0367
   48.765    3.2298
   48.780    3.2122
   48.795    3.4404
   48.810    3.2649
   48.825    3.0893
   48.840    3.1596
   48.855    3.2649
   48.870    3.5633
   48.885    3.2649
   48.900    3.4580
   48.915    3.3351
   48.930    3.7739
   48.945    3.5808
   48.960    3.4053
   48.975    3.6335
   48.990    3.3351
   49.005    3.3351
   49.020    3.5633
   49.035    3.5106
   49.050    3.3175
   49.065    3.4229
   49.080    3.1245
   49.095    3.6159
   49.110    3.6862
   49.125    3.3877
   49.140    3.7564
   49.155    3.6159
   49.170    3.4755
   49.185    3.1771
   49.200    3.4755
   49.215    3.3702
   49.230    3.4404
   49.245    3.0367
   49.260    3.5106
   49.275    3.6510
   49.290    3.4404
   49.305    3.5984
   49.320    3.4580
   49.335    3.7037
   49.350    3.4580
   49.365    3.6159
   49.380    3.4931
   49.395    3.1771
   49.410    3.0367
   49.425    3.6159
   49.440    3.6159
   49.455    3.4229
   49.470    3.6862
   49.485    3.3877
   49.500    3.5808
   49.515    3.7037
   49.530    3.8968
   49.545    3.3000
   49.560    3.2473
   49.575    3.3526
   49.590    3.3351
   49.605    3.5106
   49.620    3.5457
   49.635    3.3175
   49.650    3.2473
   49.665    3.4053
   49.680    3.8266
   49.695    3.6335
   49.710    3.0367
   49.725    3.3877
   49.740    3.4580
   49.755    3.5633
   49.770    3.5984
   49.785    3.0718
   49.800    3.2473
   49.815    3.3351
   49.830    3.6159
   49.845    3.4053
   49.860    3.3877
   49.875    3.2473
   49.890    3.4580
   49.905    3.3000
   49.920    3.5457
   49.935    3.5106
   49.950    3.4229
   49.965    3.6335
   49.980    3.2824
