    1.500   24.8903
    1.515   25.4520
    1.530   24.3286
    1.545   24.1706
    1.560   23.5387
    1.575   22.5908
    1.590   22.6084
    1.605   22.5206
    1.620   21.9765
    1.635   21.3270
    1.650   20.3616
    1.665   19.9754
    1.680   20.2387
    1.695   19.5542
    1.710   19.1153
    1.725   19.8877
    1.740   19.9930
    1.755   19.1855
    1.770   18.7292
    1.785   18.7643
    1.800   18.3430
    1.815   18.0797
    1.830   17.6935
    1.845   17.3776
    1.860   18.5887
    1.875   17.4302
    1.890   17.2020
    1.905   17.8691
    1.920   17.7462
    1.935   17.0441
    1.950   17.0090
    1.965   17.8691
    1.980   16.5701
    1.995   16.7983
    2.010   16.7457
    2.025   17.1669
    2.040   16.4473
    2.055   15.5696
    2.070   15.2712
    2.085   15.8680
    2.100   15.3239
    2.115   14.9201
    2.130   16.4824
    2.145   15.3765
    2.160   14.8324
    2.175   15.3063
    2.190   15.3414
    2.205   15.6749
    2.220   15.1659
    2.235   15.3590
    2.250   15.7451
    2.265   15.1132
    2.280   15.7978
    2.295   14.4286
    2.310   14.7622
    2.325   14.9201
    2.340   14.5164
    2.355   14.4638
    2.370   14.9903
    2.385   14.2180
    2.400   14.8148
    2.415   14.2531
    2.430   15.1308
    2.445   15.1483
    2.460   15.1483
    2.475   15.2010
    2.490   14.5866
    2.505   15.0606
    2.520   15.5169
    2.535   15.1834
    2.550   15.0781
    2.565   15.3239
    2.580   15.4467
    2.595   14.7446
    2.610   14.9026
    2.625   15.6749
    2.640   16.3068
    2.655   15.7627
    2.670   15.3239
    2.685   15.8680
    2.700   16.4648
    2.715   16.4297
    2.730   16.0962
    2.745   15.9558
    2.760   16.5526
    2.775   16.5877
    2.790   16.6228
    2.805   17.0967
    2.820   17.1318
    2.835   17.1669
    2.850   17.6233
    2.865   18.0270
    2.880   17.9393
    2.895   17.9919
    2.910   17.9919
    2.925   17.8515
    2.940   18.8871
    2.955   19.1855
    2.970   19.0100
    2.985   19.8350
    3.000   20.3616
    3.015   20.5020
    3.030   20.2212
    3.045   19.6244
    3.060   20.5547
    3.075   21.0111
    3.090   22.2222
    3.105   22.3626
    3.120   23.8196
    3.135   22.6611
    3.150   24.1882
    3.165   24.1004
    3.180   24.8727
    3.195   25.3642
    3.210   25.9259
    3.225   26.7860
    3.240   26.8211
    3.255   27.0142
    3.270   27.6812
    3.285   29.7701
    3.300   30.6477
    3.315   30.9286
    3.330   32.2099
    3.345   31.9642
    3.360   33.8775
    3.375   34.2110
    3.390   35.5099
    3.405   36.8440
    3.420   39.2663
    3.435   38.8275
    3.450   40.8110
    3.465   42.3907
    3.480   42.8822
    3.495   45.1641
    3.510   45.8662
    3.525   48.5519
    3.540   51.4481
    3.555   54.2566
    3.570   56.1524
    3.585   59.2944
    3.600   61.0848
    3.615   64.7885
    3.630   67.6145
    3.645   70.9847
    3.660   75.3379
    3.675   80.7969
    3.690   87.1687
    3.705   91.8905
    3.720  100.5793
    3.735  109.8648
    3.750  118.5536
    3.765  131.3498
    3.780  147.3758
    3.795  168.8608
    3.810  194.4357
    3.825  222.8893
    3.840  233.0876
    3.855  220.6073
    3.870  186.3086
    3.885  139.8280
    3.900   90.5213
    3.915   52.2205
    3.930   28.5413
    3.945   19.1153
    3.960   15.5345
    3.975   12.6733
    3.990   12.1467
    4.005   11.3920
    4.020   11.2340
    4.035   10.7600
    4.050   10.1983
    4.065   10.1106
    4.080    9.6367
    4.095    9.1276
    4.110    8.4430
    4.125    9.2329
    4.140    8.9696
    4.155    8.7414
    4.170    8.8819
    4.185    8.6888
    4.200    8.8468
    4.215    8.8819
    4.230    8.5133
    4.245    8.5835
    4.260    8.5659
    4.275    8.3377
    4.290    8.7590
    4.305    8.1973
    4.320    8.1622
    4.335    7.9340
    4.350    7.9164
    4.365    8.1973
    4.380    7.7234
    4.395    8.4606
    4.410    8.5133
    4.425    8.0920
    4.440    8.2851
    4.455    7.7585
    4.470    8.2500
    4.485    8.0569
    4.500    8.2500
    4.515    8.6010
    4.530    8.0744
    4.545    7.9691
    4.560    7.3899
    4.575    7.4074
    4.590    7.4074
    4.605    7.8638
    4.620    7.9164
    4.635    8.4079
    4.650    8.4606
    4.665    8.2500
    4.680    8.5484
    4.695    8.1271
    4.710    8.1095
    4.725    8.1797
    4.740    8.4957
    4.755    8.2851
    4.770    7.3372
    4.785    8.2675
    4.800    8.0393
    4.815    8.3904
    4.830    8.2675
    4.845    8.4606
    4.860    8.1271
    4.875    8.6537
    4.890    9.0750
    4.905    9.1452
    4.920    8.5308
    4.935    8.6888
    4.950    8.8117
    4.965    9.6015
    4.980    9.6893
    4.995    8.9521
    5.010    9.2680
    5.025   10.0053
    5.040    9.7771
    5.055    9.8473
    5.070   10.1457
    5.085   10.4265
    5.100   10.8478
    5.115   10.9531
    5.130   10.8654
    5.145   10.9005
    5.160   11.2515
    5.175   11.5675
    5.190   11.7255
    5.205   12.3574
    5.220   12.1116
    5.235   13.1473
    5.250   13.6914
    5.265   13.8318
    5.280   14.3058
    5.295   15.0781
    5.310   16.2366
    5.325   16.5175
    5.340   17.8164
    5.355   18.8520
    5.370   20.4494
    5.385   21.7483
    5.400   23.9600
    5.415   26.9616
    5.430   31.2621
    5.445   35.7030
    5.460   37.3530
    5.475   36.3876
    5.490   32.8770
    5.505   26.3999
    5.520   19.0978
    5.535   14.0776
    5.550   10.4792
    5.565    8.6186
    5.580    7.7936
    5.595    7.2143
    5.610    7.3723
    5.625    7.3899
    5.640    6.3893
    5.655    7.1090
    5.670    6.6000
    5.685    6.9510
    5.700    6.8808
    5.715    6.9159
    5.730    6.9159
    5.745    6.6877
    5.760    6.8106
    5.775    7.0563
    5.790    7.0388
    5.805    7.0212
    5.820    7.0212
    5.835    6.7053
    5.850    7.1090
    5.865    7.0212
    5.880    6.7404
    5.895    6.7228
    5.910    6.0207
    5.925    6.7228
    5.940    6.6175
    5.955    6.7404
    5.970    6.8457
    5.985    6.8457
    6.000    6.4946
    6.015    6.6175
    6.030    7.2670
    6.045    6.6702
    6.060    7.0212
    6.075    6.7053
    6.090    6.7228
    6.105    6.8808
    6.120    6.5824
    6.135    6.8808
    6.150    6.6351
    6.165    6.2138
    6.180    6.7053
    6.195    7.3547
    6.210    7.2143
    6.225    6.9861
    6.240    6.8106
    6.255    6.8984
    6.270    7.0388
    6.285    6.9861
    6.300    7.4425
    6.315    7.5654
    6.330    7.1441
    6.345    7.0739
    6.360    7.2319
    6.375    7.4601
    6.390    7.2670
    6.405    7.8462
    6.420    6.9861
    6.435    7.5127
    6.450    7.6883
    6.465    7.8287
    6.480    7.8638
    6.495    8.3202
    6.510    8.4079
    6.525    7.8111
    6.540    8.3377
    6.555    8.2324
    6.570    9.3031
    6.585    9.1276
    6.600    9.3031
    6.615    9.5840
    6.630   10.1808
    6.645   10.1632
    6.660   11.1462
    6.675   11.3920
    6.690   13.0244
    6.705   13.6739
    6.720   12.9893
    6.735   12.7084
    6.750   11.9712
    6.765   10.0930
    6.780    7.9516
    6.795    7.6356
    6.810    7.4425
    6.825    7.2494
    6.840    6.9861
    6.855    6.7755
    6.870    6.4946
    6.885    6.6175
    6.900    6.9686
    6.915    6.5122
    6.930    6.4420
    6.945    6.7930
    6.960    6.5122
    6.975    6.0032
    6.990    6.8106
    7.005    6.3191
    7.020    6.2840
    7.035    6.4069
    7.050    6.4069
    7.065    6.5122
    7.080    6.6351
    7.095    6.2489
    7.110    6.6877
    7.125    6.7053
    7.140    6.9335
    7.155    6.8106
    7.170    7.2494
    7.185    6.6526
    7.200    6.7053
    7.215    6.2489
    7.230    6.3016
    7.245    6.4771
    7.260    6.5298
    7.275    6.6526
    7.290    6.4595
    7.305    6.7755
    7.320    6.5824
    7.335    7.1441
    7.350    6.5824
    7.365    7.0037
    7.380    6.7579
    7.395    6.9510
    7.410    6.8633
    7.425    6.3367
    7.440    7.1617
    7.455    7.1968
    7.470    7.1266
    7.485    7.5829
    7.500    7.4074
    7.515    7.0037
    7.530    6.9686
    7.545    7.4074
    7.560    7.6180
    7.575    8.1271
    7.590    7.8989
    7.605    7.6532
    7.620    8.9521
    7.635    9.1627
    7.650    9.0398
    7.665   10.0228
    7.680   10.9707
    7.695   11.2164
    7.710   11.9361
    7.725   12.3574
    7.740   13.7090
    7.755   14.4286
    7.770   13.1824
    7.785   12.8840
    7.800   12.2696
    7.815    9.9175
    7.830    8.3377
    7.845    7.0212
    7.860    6.4595
    7.875    6.0207
    7.890    6.4069
    7.905    5.8627
    7.920    5.8276
    7.935    6.1260
    7.950    6.1436
    7.965    5.9505
    7.980    6.2665
    7.995    6.6175
    8.010    6.0558
    8.025    6.2138
    8.040    6.0383
    8.055    6.1787
    8.070    5.8101
    8.085    6.2665
    8.100    6.5298
    8.115    5.9856
    8.130    6.0032
    8.145    6.6175
    8.160    5.9154
    8.175    5.8978
    8.190    5.6170
    8.205    5.8803
    8.220    6.3893
    8.235    6.2138
    8.250    6.0909
    8.265    5.8978
    8.280    6.1962
    8.295    6.6000
    8.310    6.5473
    8.325    6.9159
    8.340    6.5298
    8.355    6.3542
    8.370    6.4244
    8.385    6.0909
    8.400    6.2489
    8.415    6.1085
    8.430    6.4244
    8.445    6.2313
    8.460    6.2489
    8.475    6.8106
    8.490    6.8457
    8.505    6.6526
    8.520    6.2489
    8.535    6.1962
    8.550    6.5122
    8.565    6.4420
    8.580    6.8808
    8.595    6.8457
    8.610    6.1436
    8.625    6.4420
    8.640    7.7234
    8.655    7.1792
    8.670    7.1441
    8.685    7.2319
    8.700    7.4425
    8.715    7.0037
    8.730    6.5298
    8.745    6.5824
    8.760    6.6351
    8.775    6.3893
    8.790    6.6877
    8.805    6.4946
    8.820    6.0032
    8.835    5.7223
    8.850    6.2313
    8.865    6.1260
    8.880    6.5122
    8.895    6.3893
    8.910    6.3542
    8.925    6.2840
    8.940    6.4771
    8.955    6.1962
    8.970    5.8452
    8.985    5.9681
    9.000    6.2313
    9.015    6.5298
    9.030    6.4244
    9.045    6.6351
    9.060    7.1441
    9.075    6.9159
    9.090    6.6877
    9.105    6.8106
    9.120    7.1968
    9.135    7.1090
    9.150    6.6175
    9.165    6.9159
    9.180    7.5127
    9.195    7.5478
    9.210    8.2500
    9.225    7.8111
    9.240    7.8638
    9.255    7.8989
    9.270    8.0218
    9.285    8.7414
    9.300    9.4436
    9.315    9.8824
    9.330   10.2335
    9.345   10.5143
    9.360   11.2340
    9.375   11.3393
    9.390   12.1643
    9.405   13.4983
    9.420   14.7446
    9.435   15.8680
    9.450   17.4653
    9.465   19.9228
    9.480   22.3802
    9.495   25.9259
    9.510   27.3477
    9.525   28.1727
    9.540   27.6988
    9.555   24.4866
    9.570   19.9228
    9.585   14.4813
    9.600   11.8308
    9.615    9.6718
    9.630    8.2149
    9.645    6.6000
    9.660    6.4771
    9.675    6.2313
    9.690    6.5473
    9.705    6.5649
    9.720    6.1085
    9.735    6.1787
    9.750    6.3542
    9.765    6.1085
    9.780    6.4771
    9.795    6.6000
    9.810    6.4244
    9.825    6.4244
    9.840    6.0032
    9.855    6.3893
    9.870    6.7579
    9.885    6.3191
    9.900    6.2840
    9.915    6.7930
    9.930    6.5649
    9.945    6.0909
    9.960    6.3893
    9.975    7.0915
    9.990    6.7755
   10.005    6.9510
   10.020    6.7930
   10.035    6.8282
   10.050    7.0563
   10.065    7.6532
   10.080    7.3547
   10.095    7.6180
   10.110    8.2500
   10.125    8.1271
   10.140    8.0042
   10.155    8.9872
   10.170    9.4085
   10.185   10.0053
   10.200    9.6893
   10.215   10.4792
   10.230   11.6202
   10.245   12.5154
   10.260   13.8318
   10.275   15.5345
   10.290   15.7802
   10.305   16.0260
   10.320   14.4462
   10.335   13.1297
   10.350   11.3217
   10.365    9.0047
   10.380    7.5303
   10.395    7.0915
   10.410    6.0383
   10.425    6.0734
   10.440    6.4420
   10.455    6.4069
   10.470    6.3542
   10.485    5.8452
   10.500    6.0558
   10.515    6.0032
   10.530    5.7048
   10.545    5.9329
   10.560    6.0032
   10.575    6.2313
   10.590    6.1962
   10.605    6.1787
   10.620    6.4595
   10.635    6.3191
   10.650    6.2489
   10.665    5.7223
   10.680    6.1436
   10.695    6.5122
   10.710    6.3718
   10.725    6.7053
   10.740    7.0739
   10.755    6.0207
   10.770    6.2313
   10.785    6.8282
   10.800    7.0212
   10.815    6.8633
   10.830    6.8106
   10.845    6.4946
   10.860    7.0212
   10.875    7.2494
   10.890    7.3899
   10.905    8.0042
   10.920    7.8287
   10.935    8.6537
   10.950    9.7771
   10.965   10.7249
   10.980   11.9537
   10.995   12.4627
   11.010   12.1292
   11.025   12.5329
   11.040   11.8483
   11.055   10.8654
   11.070    9.0750
   11.085    7.9340
   11.100    6.6877
   11.115    6.6175
   11.130    6.2665
   11.145    5.9681
   11.160    6.3191
   11.175    6.3016
   11.190    6.0207
   11.205    6.0207
   11.220    5.9681
   11.235    5.8627
   11.250    5.9681
   11.265    5.9505
   11.280    5.7048
   11.295    5.5643
   11.310    5.7223
   11.325    5.7223
   11.340    5.7223
   11.355    6.1787
   11.370    6.1611
   11.385    6.0207
   11.400    6.6526
   11.415    6.5649
   11.430    6.0734
   11.445    6.1085
   11.460    6.5473
   11.475    7.1441
   11.490    6.8984
   11.505    6.7053
   11.520    7.4776
   11.535    7.3723
   11.550    7.7585
   11.565    8.2324
   11.580    8.0218
   11.595    8.7063
   11.610    8.7941
   11.625   10.0404
   11.640   11.0760
   11.655   12.0063
   11.670   12.9366
   11.685   13.7441
   11.700   12.2696
   11.715   12.1643
   11.730   11.4973
   11.745    9.4962
   11.760    8.7590
   11.775    6.8808
   11.790    6.2665
   11.805    6.0909
   11.820    6.6000
   11.835    6.5473
   11.850    6.1787
   11.865    5.8276
   11.880    5.6872
   11.895    5.8627
   11.910    5.5292
   11.925    5.8978
   11.940    5.6521
   11.955    5.4590
   11.970    5.5468
   11.985    5.2835
   12.000    5.4590
   12.015    5.9505
   12.030    5.7223
   12.045    5.7574
   12.060    6.1436
   12.075    5.7925
   12.090    6.0032
   12.105    6.0032
   12.120    6.1962
   12.135    6.1085
   12.150    6.2840
   12.165    6.2665
   12.180    6.0207
   12.195    6.0383
   12.210    5.7048
   12.225    5.8803
   12.240    5.9681
   12.255    6.5298
   12.270    6.7404
   12.285    6.8282
   12.300    6.4946
   12.315    6.9861
   12.330    7.0037
   12.345    6.9159
   12.360    6.8984
   12.375    6.5122
   12.390    6.3016
   12.405    6.2138
   12.420    6.1611
   12.435    5.3010
   12.450    5.1957
   12.465    5.7925
   12.480    5.7223
   12.495    5.3361
   12.510    5.5819
   12.525    5.8803
   12.540    5.5819
   12.555    5.8452
   12.570    5.3010
   12.585    5.3186
   12.600    5.7399
   12.615    6.2665
   12.630    6.0909
   12.645    5.8978
   12.660    5.7048
   12.675    6.0383
   12.690    6.1260
   12.705    6.4420
   12.720    6.6877
   12.735    7.0915
   12.750    6.8808
   12.765    6.7053
   12.780    6.6351
   12.795    6.8808
   12.810    7.3723
   12.825    8.0920
   12.840    8.1797
   12.855    9.0925
   12.870    9.4436
   12.885   10.4792
   12.900   11.1638
   12.915   11.9361
   12.930   13.4457
   12.945   12.8489
   12.960   11.5148
   12.975   11.1462
   12.990    9.6191
   13.005    7.6707
   13.020    7.1090
   13.035    6.4244
   13.050    6.4595
   13.065    6.2138
   13.080    5.8803
   13.095    6.1085
   13.110    5.7399
   13.125    5.7223
   13.140    5.7925
   13.155    5.6170
   13.170    6.0383
   13.185    6.0207
   13.200    5.4941
   13.215    5.9856
   13.230    5.7048
   13.245    5.8978
   13.260    5.5292
   13.275    5.8101
   13.290    6.1085
   13.305    6.4595
   13.320    5.7399
   13.335    6.2665
   13.350    6.2665
   13.365    6.5122
   13.380    6.2313
   13.395    6.6526
   13.410    6.5824
   13.425    6.9510
   13.440    7.3899
   13.455    7.2319
   13.470    7.5654
   13.485    8.3904
   13.500    8.8468
   13.515    8.7063
   13.530    8.6010
   13.545    8.6712
   13.560    7.6180
   13.575    7.1968
   13.590    6.7755
   13.605    5.8276
   13.620    5.4766
   13.635    5.9856
   13.650    5.7223
   13.665    6.3367
   13.680    6.1085
   13.695    5.6872
   13.710    6.0032
   13.725    5.9505
   13.740    5.4590
   13.755    5.5117
   13.770    5.7399
   13.785    5.5468
   13.800    5.7750
   13.815    6.3016
   13.830    5.8627
   13.845    6.1611
   13.860    6.1611
   13.875    6.3893
   13.890    5.7223
   13.905    6.3542
   13.920    5.8627
   13.935    6.6877
   13.950    6.4771
   13.965    6.3367
   13.980    6.7930
   13.995    7.0037
   14.010    7.0388
   14.025    7.5127
   14.040    8.7765
   14.055    9.1803
   14.070    8.4781
   14.085    8.9696
   14.100    8.9872
   14.115    7.5303
   14.130    7.0563
   14.145    7.1792
   14.160    6.4595
   14.175    6.3016
   14.190    5.6697
   14.205    5.7048
   14.220    6.0207
   14.235    5.7223
   14.250    5.9154
   14.265    5.6345
   14.280    5.7925
   14.295    5.4766
   14.310    5.3537
   14.325    5.7048
   14.340    5.4239
   14.355    5.5643
   14.370    6.1260
   14.385    5.9329
   14.400    5.6697
   14.415    5.6170
   14.430    5.8276
   14.445    5.7399
   14.460    5.6872
   14.475    6.0032
   14.490    5.7750
   14.505    5.5468
   14.520    5.7048
   14.535    5.7399
   14.550    5.9681
   14.565    5.7574
   14.580    5.4941
   14.595    6.3367
   14.610    5.6697
   14.625    5.9681
   14.640    5.5819
   14.655    5.8803
   14.670    6.3718
   14.685    6.3893
   14.700    5.7223
   14.715    5.5994
   14.730    5.4590
   14.745    5.6170
   14.760    6.0032
   14.775    6.0558
   14.790    5.5643
   14.805    5.5819
   14.820    5.5117
   14.835    5.5292
   14.850    6.2138
   14.865    5.7048
   14.880    6.0734
   14.895    5.6697
   14.910    5.3537
   14.925    5.9681
   14.940    5.7223
   14.955    5.5643
   14.970    5.6521
   14.985    6.4771
   15.000    6.1787
   15.015    6.1085
   15.030    6.8633
   15.045    6.2665
   15.060    6.4244
   15.075    6.7755
   15.090    7.0388
   15.105    6.7053
   15.120    6.6175
   15.135    7.1792
   15.150    6.9159
   15.165    6.8808
   15.180    6.1962
   15.195    6.3016
   15.210    5.8978
   15.225    6.1436
   15.240    5.7574
   15.255    5.6170
   15.270    5.9154
   15.285    5.6345
   15.300    5.8978
   15.315    6.0032
   15.330    5.9329
   15.345    5.0904
   15.360    5.5292
   15.375    5.3537
   15.390    5.6345
   15.405    5.7223
   15.420    5.5117
   15.435    5.5468
   15.450    5.2484
   15.465    5.0904
   15.480    5.7925
   15.495    5.8627
   15.510    5.3712
   15.525    5.4766
   15.540    5.3537
   15.555    5.5819
   15.570    6.1962
   15.585    6.0207
   15.600    5.6170
   15.615    5.9329
   15.630    5.9856
   15.645    6.0207
   15.660    5.7574
   15.675    5.3888
   15.690    5.5643
   15.705    5.7574
   15.720    5.8452
   15.735    6.1085
   15.750    5.5994
   15.765    5.4590
   15.780    5.5819
   15.795    5.5117
   15.810    5.7223
   15.825    5.4941
   15.840    5.7399
   15.855    6.1611
   15.870    6.0734
   15.885    5.8803
   15.900    5.6521
   15.915    6.1085
   15.930    5.9681
   15.945    5.8452
   15.960    5.9329
   15.975    5.9681
   15.990    5.8627
   16.005    6.1085
   16.020    6.3893
   16.035    6.0734
   16.050    6.1085
   16.065    7.0739
   16.080    7.0915
   16.095    7.9164
   16.110    8.2851
   16.125    7.8462
   16.140    7.2670
   16.155    6.9510
   16.170    7.0037
   16.185    6.7930
   16.200    5.6872
   16.215    6.2489
   16.230    6.0558
   16.245    6.1611
   16.260    5.9329
   16.275    6.2489
   16.290    6.0734
   16.305    6.1436
   16.320    6.4771
   16.335    6.0032
   16.350    5.4239
   16.365    5.3537
   16.380    6.1962
   16.395    6.2489
   16.410    5.8978
   16.425    5.7750
   16.440    6.2489
   16.455    6.2489
   16.470    6.2665
   16.485    6.2840
   16.500    7.1090
   16.515    7.7936
   16.530    6.9510
   16.545    7.1266
   16.560    7.6532
   16.575    8.5835
   16.590    8.2675
   16.605    8.4255
   16.620    7.7936
   16.635    7.7936
   16.650    7.3021
   16.665    6.5473
   16.680    6.4420
   16.695    5.9154
   16.710    5.9154
   16.725    5.9681
   16.740    5.5643
   16.755    5.7399
   16.770    6.4946
   16.785    5.7574
   16.800    5.9856
   16.815    6.2138
   16.830    6.2138
   16.845    6.1962
   16.860    5.9154
   16.875    6.1436
   16.890    6.4595
   16.905    6.3893
   16.920    6.6877
   16.935    7.5829
   16.950    8.0744
   16.965    8.0569
   16.980    8.1622
   16.995    8.8994
   17.010    9.5840
   17.025    9.7420
   17.040    9.5313
   17.055   10.0228
   17.070   10.0579
   17.085    9.0398
   17.100    8.6712
   17.115    7.9516
   17.130    6.8808
   17.145    6.2138
   17.160    6.2665
   17.175    5.7574
   17.190    5.8101
   17.205    6.1260
   17.220    5.9681
   17.235    6.0032
   17.250    5.3712
   17.265    5.7750
   17.280    6.1436
   17.295    5.9154
   17.310    5.9681
   17.325    5.7925
   17.340    5.9856
   17.355    6.0207
   17.370    6.1787
   17.385    6.2313
   17.400    6.2313
   17.415    6.1085
   17.430    6.3191
   17.445    6.1260
   17.460    5.7399
   17.475    6.3367
   17.490    6.6702
   17.505    6.2665
   17.520    5.9856
   17.535    5.9856
   17.550    5.7574
   17.565    6.2138
   17.580    6.1436
   17.595    6.1611
   17.610    5.8452
   17.625    5.7574
   17.640    6.2138
   17.655    5.8978
   17.670    5.6872
   17.685    5.8627
   17.700    5.9856
   17.715    5.5994
   17.730    5.9681
   17.745    5.7925
   17.760    5.5643
   17.775    5.9154
   17.790    6.2840
   17.805    6.1260
   17.820    5.8978
   17.835    6.2138
   17.850    6.0909
   17.865    6.4946
   17.880    6.7053
   17.895    6.6175
   17.910    6.6351
   17.925    6.8633
   17.940    6.8106
   17.955    7.1266
   17.970    6.1962
   17.985    5.9154
   18.000    6.1436
   18.015    6.0734
   18.030    6.0909
   18.045    6.0734
   18.060    6.1260
   18.075    5.9154
   18.090    5.7925
   18.105    5.7223
   18.120    5.4415
   18.135    5.7574
   18.150    6.1260
   18.165    6.0207
   18.180    5.6872
   18.195    6.5824
   18.210    6.6175
   18.225    6.1436
   18.240    6.6702
   18.255    6.2840
   18.270    6.4771
   18.285    6.6351
   18.300    7.4952
   18.315    7.1617
   18.330    7.1792
   18.345    7.4250
   18.360    7.3021
   18.375    7.3372
   18.390    7.2845
   18.405    6.8808
   18.420    7.1441
   18.435    6.3893
   18.450    6.6526
   18.465    6.2138
   18.480    5.6170
   18.495    5.9154
   18.510    6.1260
   18.525    5.8803
   18.540    6.0383
   18.555    5.8276
   18.570    5.7223
   18.585    6.1611
   18.600    5.9856
   18.615    6.1260
   18.630    6.3893
   18.645    6.0383
   18.660    6.1436
   18.675    5.9681
   18.690    6.1085
   18.705    5.7750
   18.720    5.7399
   18.735    6.2489
   18.750    6.6702
   18.765    6.2489
   18.780    6.3893
   18.795    6.1787
   18.810    6.5298
   18.825    6.5122
   18.840    6.1611
   18.855    6.2138
   18.870    5.8803
   18.885    5.6697
   18.900    6.0558
   18.915    5.7223
   18.930    6.1260
   18.945    5.7048
   18.960    5.7223
   18.975    5.9505
   18.990    5.6170
   19.005    5.9681
   19.020    5.9856
   19.035    6.0909
   19.050    6.2489
   19.065    6.2665
   19.080    6.3016
   19.095    6.1436
   19.110    6.1787
   19.125    6.5122
   19.140    6.2313
   19.155    6.7404
   19.170    6.3016
   19.185    6.3016
   19.200    6.2840
   19.215    5.9856
   19.230    6.6526
   19.245    6.5824
   19.260    6.2840
   19.275    5.7223
   19.290    6.0558
   19.305    6.0383
   19.320    5.8978
   19.335    5.7223
   19.350    6.0032
   19.365    6.0383
   19.380    6.6877
   19.395    6.0558
   19.410    6.0734
   19.425    5.8276
   19.440    6.3542
   19.455    6.1962
   19.470    6.5473
   19.485    6.4244
   19.500    6.3893
   19.515    7.3021
   19.530    7.2845
   19.545    7.8989
   19.560    7.7234
   19.575    7.8287
   19.590    7.3547
   19.605    7.6883
   19.620    7.7936
   19.635    7.3547
   19.650    7.0739
   19.665    7.1617
   19.680    6.6351
   19.695    6.5824
   19.710    6.0207
   19.725    6.0734
   19.740    5.8276
   19.755    5.7048
   19.770    5.3361
   19.785    5.6170
   19.800    5.5117
   19.815    6.1260
   19.830    6.1260
   19.845    5.6170
   19.860    5.5994
   19.875    6.1962
   19.890    5.8627
   19.905    5.9856
   19.920    5.8101
   19.935    6.0207
   19.950    6.3718
   19.965    6.0734
   19.980    6.3191
   19.995    6.3718
   20.010    6.0207
   20.025    5.9154
   20.040    6.6702
   20.055    6.1085
   20.070    5.7925
   20.085    5.5292
   20.100    5.3537
   20.115    5.6697
   20.130    6.0734
   20.145    5.7925
   20.160    6.3718
   20.175    6.0734
   20.190    6.0909
   20.205    6.4420
   20.220    6.6877
   20.235    6.7228
   20.250    6.7930
   20.265    7.2143
   20.280    6.9686
   20.295    7.8813
   20.310    8.4079
   20.325    9.1803
   20.340    9.1452
   20.355    9.4260
   20.370    9.7595
   20.385    9.9702
   20.400    9.5489
   20.415    8.3553
   20.430    7.8638
   20.445    7.4776
   20.460    7.7058
   20.475    6.1962
   20.490    6.0207
   20.505    5.9154
   20.520    5.6521
   20.535    5.8803
   20.550    6.2313
   20.565    5.9154
   20.580    5.9505
   20.595    6.0207
   20.610    6.1787
   20.625    5.5994
   20.640    6.3191
   20.655    6.2840
   20.670    6.2313
   20.685    6.3542
   20.700    5.9681
   20.715    6.1085
   20.730    6.1962
   20.745    6.4595
   20.760    6.2313
   20.775    6.4771
   20.790    6.9335
   20.805    6.6175
   20.820    6.4946
   20.835    6.4946
   20.850    5.9681
   20.865    5.8978
   20.880    6.0207
   20.895    5.9154
   20.910    5.8276
   20.925    6.1962
   20.940    6.4244
   20.955    6.0383
   20.970    6.0909
   20.985    6.0558
   21.000    5.7048
   21.015    5.7925
   21.030    6.0558
   21.045    6.3016
   21.060    6.1962
   21.075    6.0558
   21.090    6.1787
   21.105    5.5994
   21.120    5.9329
   21.135    6.1611
   21.150    5.8276
   21.165    6.2138
   21.180    5.5292
   21.195    5.5819
   21.210    5.8452
   21.225    6.2313
   21.240    5.7750
   21.255    5.7574
   21.270    5.6697
   21.285    6.2665
   21.300    6.5824
   21.315    6.0207
   21.330    6.1260
   21.345    5.8803
   21.360    5.9856
   21.375    5.7750
   21.390    5.7223
   21.405    6.0909
   21.420    6.4244
   21.435    6.4420
   21.450    6.3016
   21.465    6.4595
   21.480    5.8101
   21.495    6.1260
   21.510    5.5292
   21.525    5.5468
   21.540    5.5468
   21.555    5.7223
   21.570    6.3718
   21.585    6.6351
   21.600    6.2138
   21.615    6.3191
   21.630    6.1787
   21.645    5.5643
   21.660    6.1787
   21.675    5.8803
   21.690    6.4771
   21.705    6.2313
   21.720    6.2489
   21.735    6.2840
   21.750    6.3542
   21.765    6.7228
   21.780    6.9686
   21.795    7.4250
   21.810    7.8111
   21.825    7.8287
   21.840    7.3021
   21.855    7.6005
   21.870    8.0393
   21.885    7.5478
   21.900    6.8633
   21.915    7.0739
   21.930    6.6000
   21.945    6.7404
   21.960    6.6877
   21.975    6.5824
   21.990    6.1260
   22.005    6.3191
   22.020    6.0032
   22.035    6.1962
   22.050    6.5122
   22.065    6.4069
   22.080    6.0558
   22.095    6.8633
   22.110    6.6526
   22.125    6.9686
   22.140    7.2494
   22.155    7.4074
   22.170    8.0744
   22.185    7.6707
   22.200    7.9867
   22.215    7.5654
   22.230    7.7585
   22.245    7.3021
   22.260    7.7234
   22.275    7.2143
   22.290    7.0563
   22.305    6.3718
   22.320    6.8282
   22.335    6.7053
   22.350    6.8984
   22.365    6.4069
   22.380    6.5122
   22.395    7.1090
   22.410    6.8808
   22.425    6.5649
   22.440    7.2670
   22.455    7.4952
   22.470    8.0569
   22.485    8.9521
   22.500    9.8648
   22.515   10.4792
   22.530   10.3388
   22.545   11.4797
   22.560   11.4973
   22.575   10.8829
   22.590   10.8303
   22.605    9.5138
   22.620    8.5659
   22.635    7.8989
   22.650    7.7409
   22.665    7.1441
   22.680    6.8808
   22.695    7.0388
   22.710    6.5649
   22.725    6.6526
   22.740    7.1441
   22.755    7.4601
   22.770    7.3723
   22.785    7.2845
   22.800    7.8462
   22.815    8.2324
   22.830    8.7239
   22.845    9.5313
   22.860   10.7600
   22.875   10.7249
   22.890   12.1116
   22.905   11.3920
   22.920   11.2691
   22.935   10.8478
   22.950    9.9351
   22.965    9.0223
   22.980    8.3026
   22.995    7.7058
   23.010    7.0388
   23.025    6.7930
   23.040    6.5298
   23.055    6.5122
   23.070    6.5824
   23.085    6.4771
   23.100    6.6000
   23.115    6.6877
   23.130    6.3542
   23.145    7.3547
   23.160    7.8111
   23.175    7.5654
   23.190    7.8638
   23.205    8.3728
   23.220    7.6356
   23.235    8.1271
   23.250    7.6707
   23.265    7.8813
   23.280    7.4776
   23.295    7.3372
   23.310    7.6180
   23.325    6.9861
   23.340    6.7053
   23.355    6.3718
   23.370    6.2665
   23.385    5.8101
   23.400    6.1611
   23.415    6.6526
   23.430    6.4771
   23.445    6.2840
   23.460    6.5649
   23.475    6.1260
   23.490    6.1787
   23.505    6.8106
   23.520    6.6526
   23.535    7.0739
   23.550    6.4244
   23.565    6.4420
   23.580    6.1787
   23.595    6.3191
   23.610    6.4946
   23.625    7.0915
   23.640    6.2138
   23.655    6.6877
   23.670    6.8633
   23.685    7.2494
   23.700    6.8282
   23.715    6.4244
   23.730    6.0032
   23.745    6.5298
   23.760    7.0563
   23.775    6.4420
   23.790    6.3191
   23.805    6.7930
   23.820    6.8457
   23.835    7.5303
   23.850    7.7409
   23.865    7.8111
   23.880    7.8462
   23.895    8.3202
   23.910    8.4079
   23.925    8.3553
   23.940    7.3372
   23.955    7.2143
   23.970    7.4425
   23.985    7.0563
   24.000    6.4771
   24.015    6.7228
   24.030    6.8984
   24.045    6.6702
   24.060    6.1260
   24.075    6.0207
   24.090    6.2665
   24.105    6.4420
   24.120    6.3893
   24.135    6.2489
   24.150    5.8452
   24.165    6.0032
   24.180    6.1787
   24.195    5.8978
   24.210    6.1787
   24.225    6.1787
   24.240    6.5298
   24.255    6.5649
   24.270    6.2665
   24.285    6.1436
   24.300    6.3191
   24.315    5.8627
   24.330    5.6872
   24.345    6.4244
   24.360    5.9856
   24.375    6.1260
   24.390    6.7228
   24.405    6.6526
   24.420    6.3542
   24.435    5.8803
   24.450    6.0207
   24.465    6.1962
   24.480    6.4069
   24.495    6.3191
   24.510    6.8457
   24.525    6.6175
   24.540    6.5298
   24.555    6.6526
   24.570    7.1792
   24.585    6.7404
   24.600    6.0909
   24.615    6.5824
   24.630    6.8282
   24.645    6.7930
   24.660    6.3718
   24.675    6.2665
   24.690    5.8276
   24.705    6.1962
   24.720    5.8627
   24.735    6.4244
   24.750    6.1962
   24.765    6.0558
   24.780    6.2665
   24.795    6.3718
   24.810    6.7053
   24.825    6.3191
   24.840    6.4069
   24.855    6.3542
   24.870    6.4946
   24.885    6.3367
   24.900    6.0909
   24.915    6.3367
   24.930    6.6877
   24.945    5.8627
   24.960    5.8276
   24.975    6.2840
   24.990    6.0734
   25.005    6.1260
   25.020    6.7228
   25.035    6.4244
   25.050    6.2665
   25.065    6.4595
   25.080    6.4244
   25.095    6.3191
   25.110    6.2840
   25.125    6.6702
   25.140    6.8633
   25.155    6.7755
   25.170    6.8808
   25.185    6.6175
   25.200    7.1792
   25.215    7.0037
   25.230    6.7755
   25.245    6.9686
   25.260    7.1617
   25.275    6.6877
   25.290    6.0207
   25.305    5.7399
   25.320    6.1260
   25.335    6.5122
   25.350    6.7053
   25.365    5.8803
   25.380    5.7574
   25.395    6.6351
   25.410    6.1260
   25.425    6.6526
   25.440    6.3893
   25.455    6.5649
   25.470    6.9335
   25.485    7.1441
   25.500    7.1792
   25.515    6.8633
   25.530    6.9861
   25.545    6.6351
   25.560    7.0739
   25.575    6.8457
   25.590    6.8106
   25.605    6.4595
   25.620    6.1962
   25.635    6.2840
   25.650    6.0909
   25.665    6.3191
   25.680    6.6000
   25.695    6.8457
   25.710    7.3021
   25.725    7.7409
   25.740    8.0920
   25.755    8.6537
   25.770    9.3558
   25.785    9.6367
   25.800   10.1106
   25.815   10.2510
   25.830    9.6015
   25.845    9.4962
   25.860    8.6712
   25.875    8.2675
   25.890    7.8989
   25.905    6.4420
   25.920    6.5473
   25.935    6.5122
   25.950    6.5649
   25.965    6.1085
   25.980    6.4420
   25.995    6.3542
   26.010    6.0558
   26.025    6.1611
   26.040    6.1962
   26.055    5.8452
   26.070    5.9505
   26.085    6.2313
   26.100    6.2665
   26.115    6.2138
   26.130    6.2489
   26.145    6.3367
   26.160    6.1962
   26.175    6.0734
   26.190    6.0558
   26.205    5.9505
   26.220    6.1962
   26.235    5.6872
   26.250    5.8101
   26.265    5.9329
   26.280    5.9505
   26.295    6.0207
   26.310    6.5122
   26.325    6.8808
   26.340    6.0207
   26.355    6.2665
   26.370    6.8984
   26.385    7.4250
   26.400    7.0915
   26.415    6.7755
   26.430    7.4425
   26.445    7.4250
   26.460    7.3547
   26.475    6.7404
   26.490    6.2840
   26.505    6.2489
   26.520    5.8978
   26.535    6.0734
   26.550    6.0909
   26.565    6.3718
   26.580    6.5122
   26.595    6.3893
   26.610    6.0032
   26.625    6.0207
   26.640    6.1962
   26.655    6.1260
   26.670    6.2489
   26.685    5.8978
   26.700    6.0558
   26.715    6.0558
   26.730    5.9856
   26.745    5.9856
   26.760    5.7223
   26.775    6.0734
   26.790    5.9681
   26.805    5.8978
   26.820    6.0909
   26.835    6.1436
   26.850    6.1962
   26.865    6.5649
   26.880    6.3191
   26.895    6.3016
   26.910    6.6351
   26.925    7.1441
   26.940    7.3021
   26.955    7.5654
   26.970    7.7760
   26.985    8.2500
   27.000    8.3202
   27.015    8.1446
   27.030    7.2845
   27.045    7.6883
   27.060    7.5478
   27.075    6.7579
   27.090    6.9510
   27.105    6.4244
   27.120    6.1085
   27.135    6.1436
   27.150    6.0207
   27.165    6.5649
   27.180    6.2840
   27.195    5.8101
   27.210    5.8452
   27.225    5.5468
   27.240    5.9505
   27.255    6.1260
   27.270    6.0383
   27.285    5.6697
   27.300    5.8978
   27.315    5.8978
   27.330    6.3367
   27.345    5.9329
   27.360    5.7048
   27.375    5.3361
   27.390    5.2133
   27.405    5.7574
   27.420    5.8452
   27.435    5.9856
   27.450    5.9505
   27.465    5.7399
   27.480    5.9681
   27.495    6.6175
   27.510    6.4069
   27.525    6.0383
   27.540    6.6000
   27.555    6.7228
   27.570    6.8106
   27.585    7.1441
   27.600    7.5478
   27.615    7.7936
   27.630    7.2494
   27.645    7.4601
   27.660    6.9686
   27.675    6.4420
   27.690    6.2840
   27.705    5.6345
   27.720    5.8276
   27.735    5.8276
   27.750    5.5994
   27.765    5.7750
   27.780    6.0207
   27.795    6.2489
   27.810    6.1085
   27.825    6.3893
   27.840    5.9681
   27.855    6.2138
   27.870    6.8808
   27.885    6.7930
   27.900    6.3718
   27.915    5.9154
   27.930    6.1436
   27.945    6.3718
   27.960    6.0383
   27.975    6.1787
   27.990    6.4595
   28.005    5.9505
   28.020    6.2313
   28.035    5.9505
   28.050    6.1085
   28.065    6.6175
   28.080    6.4420
   28.095    6.8106
   28.110    6.6175
   28.125    7.3547
   28.140    7.6180
   28.155    6.9861
   28.170    6.7579
   28.185    7.0915
   28.200    7.1792
   28.215    7.0563
   28.230    6.9159
   28.245    6.5298
   28.260    6.7579
   28.275    6.4420
   28.290    6.0032
   28.305    5.7925
   28.320    5.9681
   28.335    5.8101
   28.350    6.1260
   28.365    5.9329
   28.380    6.0558
   28.395    6.6351
   28.410    6.8633
   28.425    7.1792
   28.440    7.2494
   28.455    7.3547
   28.470    6.6702
   28.485    6.4595
   28.500    6.6000
   28.515    6.5298
   28.530    6.2313
   28.545    5.8101
   28.560    6.0909
   28.575    5.9505
   28.590    5.7574
   28.605    6.0558
   28.620    5.8978
   28.635    5.9505
   28.650    5.5292
   28.665    5.6697
   28.680    6.0734
   28.695    5.8627
   28.710    6.3718
   28.725    6.1611
   28.740    5.5994
   28.755    6.0383
   28.770    6.1436
   28.785    5.7574
   28.800    5.8101
   28.815    5.6697
   28.830    5.7048
   28.845    6.0558
   28.860    5.7223
   28.875    5.9681
   28.890    5.9505
   28.905    5.9329
   28.920    6.0734
   28.935    6.2489
   28.950    6.1260
   28.965    6.3718
   28.980    5.9505
   28.995    5.5643
   29.010    5.7750
   29.025    5.7750
   29.040    5.4941
   29.055    5.9154
   29.070    5.4766
   29.085    5.9681
   29.100    5.4064
   29.115    5.2133
   29.130    5.1080
   29.145    6.1962
   29.160    5.7574
   29.175    5.7399
   29.190    5.8452
   29.205    6.0734
   29.220    5.9681
   29.235    6.2665
   29.250    6.1611
   29.265    6.8106
   29.280    7.1090
   29.295    6.6000
   29.310    6.8106
   29.325    6.6175
   29.340    6.3191
   29.355    6.2665
   29.370    5.9681
   29.385    6.0032
   29.400    6.4069
   29.415    5.9681
   29.430    5.6872
   29.445    5.7750
   29.460    5.1957
   29.475    5.8276
   29.490    6.0383
   29.505    5.4590
   29.520    5.3361
   29.535    5.7750
   29.550    5.4415
   29.565    5.2133
   29.580    5.3712
   29.595    5.5468
   29.610    5.1782
   29.625    5.4064
   29.640    5.3010
   29.655    6.0207
   29.670    5.7223
   29.685    5.2308
   29.700    6.1611
   29.715    6.0207
   29.730    6.0383
   29.745    6.3016
   29.760    6.0383
   29.775    6.0558
   29.790    6.2138
   29.805    6.0909
   29.820    5.8452
   29.835    5.9856
   29.850    5.9329
   29.865    6.0909
   29.880    5.6345
   29.895    5.8452
   29.910    6.2138
   29.925    5.5819
   29.940    5.5994
   29.955    5.2835
   29.970    5.5643
   29.985    5.7223
   30.000    5.8978
   30.015    5.7750
   30.030    6.0032
   30.045    5.9329
   30.060    5.4766
   30.075    5.4239
   30.090    5.7223
   30.105    6.0207
   30.120    5.6521
   30.135    5.3888
   30.150    5.8101
   30.165    5.6697
   30.180    5.9154
   30.195    5.6170
   30.210    5.5643
   30.225    5.6345
   30.240    5.3712
   30.255    5.4415
   30.270    5.3888
   30.285    5.3186
   30.300    5.5994
   30.315    5.8101
   30.330    5.8452
   30.345    5.8276
   30.360    5.9505
   30.375    5.7574
   30.390    5.3186
   30.405    5.2308
   30.420    5.7048
   30.435    5.1431
   30.450    5.5292
   30.465    5.4239
   30.480    5.5292
   30.495    6.0032
   30.510    5.8803
   30.525    6.1085
   30.540    5.8627
   30.555    5.8803
   30.570    5.5819
   30.585    5.6170
   30.600    5.5468
   30.615    5.9856
   30.630    5.9505
   30.645    5.9856
   30.660    6.0383
   30.675    5.6345
   30.690    5.4415
   30.705    5.7750
   30.720    5.5819
   30.735    5.5117
   30.750    5.1957
   30.765    5.1255
   30.780    5.4239
   30.795    5.3361
   30.810    5.3010
   30.825    4.8622
   30.840    5.2659
   30.855    5.3361
   30.870    5.2133
   30.885    5.8276
   30.900    5.4941
   30.915    5.3712
   30.930    5.2659
   30.945    5.3888
   30.960    5.2133
   30.975    5.5643
   30.990    5.5819
   31.005    5.0026
   31.020    5.5117
   31.035    4.8973
   31.050    5.3010
   31.065    5.4941
   31.080    5.1255
   31.095    5.1431
   31.110    5.2659
   31.125    5.2484
   31.140    5.0904
   31.155    5.1957
   31.170    5.2308
   31.185    4.9500
   31.200    5.4941
   31.215    5.6697
   31.230    5.5292
   31.245    5.6872
   31.260    5.1606
   31.275    5.2484
   31.290    5.1957
   31.305    5.4415
   31.320    5.9154
   31.335    6.0558
   31.350    5.9681
   31.365    5.6521
   31.380    5.5819
   31.395    5.7048
   31.410    6.1436
   31.425    5.6872
   31.440    5.9329
   31.455    5.5643
   31.470    5.8452
   31.485    5.8978
   31.500    5.9856
   31.515    5.4766
   31.530    5.2835
   31.545    5.5117
   31.560    4.8798
   31.575    5.3010
   31.590    5.1957
   31.605    5.0728
   31.620    4.8798
   31.635    4.8798
   31.650    5.1957
   31.665    5.4766
   31.680    5.5292
   31.695    5.4766
   31.710    5.3186
   31.725    5.6170
   31.740    5.6872
   31.755    5.8627
   31.770    5.9154
   31.785    5.7750
   31.800    5.4590
   31.815    5.7574
   31.830    5.9329
   31.845    5.5994
   31.860    6.0909
   31.875    5.7925
   31.890    5.5117
   31.905    5.7750
   31.920    5.3712
   31.935    5.3537
   31.950    5.3361
   31.965    5.3361
   31.980    5.4239
   31.995    5.1080
   32.010    4.7042
   32.025    4.6691
   32.040    4.4760
   32.055    5.0202
   32.070    5.4239
   32.085    5.7574
   32.100    5.5117
   32.115    5.5117
   32.130    5.3010
   32.145    5.1431
   32.160    5.3712
   32.175    5.3888
   32.190    5.4590
   32.205    5.2308
   32.220    5.4766
   32.235    5.0026
   32.250    5.1255
   32.265    4.8447
   32.280    4.9851
   32.295    4.7744
   32.310    5.2308
   32.325    5.2133
   32.340    5.0202
   32.355    5.0728
   32.370    5.0728
   32.385    4.7920
   32.400    5.0202
   32.415    5.1080
   32.430    5.1431
   32.445    4.7042
   32.460    5.0904
   32.475    5.2484
   32.490    4.9851
   32.505    5.1431
   32.520    4.7042
   32.535    4.9149
   32.550    4.7920
   32.565    4.9851
   32.580    5.4590
   32.595    5.2835
   32.610    5.3186
   32.625    5.0553
   32.640    5.3888
   32.655    5.1957
   32.670    4.7042
   32.685    4.7920
   32.700    4.8622
   32.715    4.9500
   32.730    5.4239
   32.745    5.1255
   32.760    5.1255
   32.775    5.1255
   32.790    4.8447
   32.805    4.7218
   32.820    4.9500
   32.835    5.7048
   32.850    5.2835
   32.865    5.2484
   32.880    5.7750
   32.895    5.4415
   32.910    5.4766
   32.925    5.5994
   32.940    5.2659
   32.955    4.9851
   32.970    4.8622
   32.985    5.5994
   33.000    4.9324
   33.015    4.8271
   33.030    5.1255
   33.045    4.9324
   33.060    4.5814
   33.075    4.8447
   33.090    4.5638
   33.105    4.8095
   33.120    4.8447
   33.135    4.8271
   33.150    4.6691
   33.165    4.6516
   33.180    5.0026
   33.195    4.8447
   33.210    4.5814
   33.225    4.5814
   33.240    4.2303
   33.255    5.0553
   33.270    5.0728
   33.285    5.1255
   33.300    5.2835
   33.315    5.0728
   33.330    5.2659
   33.345    5.2308
   33.360    5.2308
   33.375    4.6340
   33.390    5.0377
   33.405    5.2308
   33.420    4.6691
   33.435    4.8622
   33.450    4.8447
   33.465    4.6340
   33.480    4.8095
   33.495    4.6165
   33.510    5.0026
   33.525    4.8622
   33.540    5.0377
   33.555    5.0553
   33.570    5.0553
   33.585    5.1957
   33.600    5.0202
   33.615    4.8095
   33.630    4.8973
   33.645    4.9500
   33.660    5.0202
   33.675    5.0553
   33.690    4.7569
   33.705    4.7920
   33.720    4.7393
   33.735    4.7920
   33.750    4.7042
   33.765    5.1957
   33.780    5.2659
   33.795    4.9149
   33.810    4.9851
   33.825    5.2659
   33.840    5.3888
   33.855    5.6345
   33.870    5.7574
   33.885    5.5819
   33.900    5.5994
   33.915    5.2133
   33.930    4.8622
   33.945    5.1957
   33.960    5.3361
   33.975    5.5994
   33.990    5.4766
   34.005    5.0904
   34.020    5.1255
   34.035    5.3361
   34.050    5.3888
   34.065    4.9500
   34.080    4.8447
   34.095    4.8622
   34.110    4.8095
   34.125    5.0553
   34.140    5.3186
   34.155    5.1080
   34.170    4.6340
   34.185    4.4234
   34.200    4.5989
   34.215    4.5463
   34.230    4.5111
   34.245    4.5463
   34.260    4.7042
   34.275    5.2659
   34.290    4.8095
   34.305    4.4409
   34.320    4.7920
   34.335    4.9324
   34.350    5.1431
   34.365    4.5638
   34.380    4.5989
   34.395    4.7393
   34.410    4.7569
   34.425    5.0026
   34.440    4.8271
   34.455    4.5287
   34.470    4.4760
   34.485    4.7218
   34.500    4.6516
   34.515    5.0728
   34.530    4.8271
   34.545    4.9851
   34.560    4.3883
   34.575    4.5463
   34.590    4.8798
   34.605    4.5287
   34.620    4.4058
   34.635    4.6867
   34.650    4.8271
   34.665    4.6867
   34.680    4.8095
   34.695    5.0026
   34.710    4.8095
   34.725    4.8798
   34.740    4.7920
   34.755    4.6516
   34.770    4.8095
   34.785    5.0202
   34.800    4.9500
   34.815    4.9675
   34.830    4.8798
   34.845    4.8973
   34.860    4.8095
   34.875    4.8798
   34.890    4.7920
   34.905    4.5814
   34.920    4.7920
   34.935    4.6165
   34.950    4.3707
   34.965    4.6516
   34.980    4.6691
   34.995    4.5287
   35.010    4.2478
   35.025    4.4409
   35.040    4.3532
   35.055    4.3356
   35.070    4.4760
   35.085    4.7744
   35.100    4.3532
   35.115    4.6516
   35.130    4.5814
   35.145    4.7393
   35.160    4.7393
   35.175    4.5111
   35.190    4.2654
   35.205    4.5814
   35.220    4.9149
   35.235    4.4760
   35.250    4.4585
   35.265    4.3883
   35.280    4.4409
   35.295    4.7042
   35.310    4.8973
   35.325    4.5989
   35.340    4.5463
   35.355    4.9675
   35.370    4.5814
   35.385    4.6867
   35.400    4.7042
   35.415    4.3883
   35.430    4.4585
   35.445    4.6340
   35.460    4.4760
   35.475    4.5638
   35.490    4.4585
   35.505    4.2830
   35.520    4.4760
   35.535    4.1425
   35.550    4.3883
   35.565    4.7218
   35.580    4.1425
   35.595    4.3005
   35.610    4.9324
   35.625    4.8271
   35.640    4.5111
   35.655    4.3005
   35.670    4.3532
   35.685    4.4409
   35.700    4.8447
   35.715    4.3707
   35.730    4.7569
   35.745    4.4585
   35.760    4.7920
   35.775    4.7569
   35.790    4.8798
   35.805    4.6165
   35.820    4.5287
   35.835    4.7042
   35.850    4.3707
   35.865    4.5111
   35.880    4.5989
   35.895    4.4936
   35.910    4.7393
   35.925    4.5814
   35.940    4.4936
   35.955    4.8973
   35.970    5.0202
   35.985    4.5111
   36.000    5.1782
   36.015    4.6516
   36.030    4.3532
   36.045    4.8447
   36.060    4.4936
   36.075    4.3181
   36.090    4.7744
   36.105    4.1952
   36.120    4.5111
   36.135    4.7042
   36.150    4.6165
   36.165    4.4585
   36.180    4.5287
   36.195    4.7744
   36.210    4.8095
   36.225    4.7218
   36.240    4.7569
   36.255    4.6867
   36.270    4.6867
   36.285    4.6867
   36.300    4.4936
   36.315    4.5111
   36.330    4.7744
   36.345    4.6867
   36.360    4.5287
   36.375    4.4409
   36.390    4.4936
   36.405    4.7393
   36.420    4.4058
   36.435    4.6867
   36.450    4.8798
   36.465    4.5638
   36.480    4.5638
   36.495    4.8798
   36.510    4.7042
   36.525    4.4585
   36.540    4.5463
   36.555    4.6516
   36.570    5.2133
   36.585    4.7393
   36.600    4.6165
   36.615    4.7042
   36.630    4.4409
   36.645    4.1776
   36.660    4.6340
   36.675    5.0904
   36.690    4.8095
   36.705    4.6165
   36.720    4.3181
   36.735    4.7218
   36.750    4.8622
   36.765    4.5463
   36.780    4.8973
   36.795    4.0899
   36.810    4.4760
   36.825    4.3532
   36.840    4.5814
   36.855    4.5814
   36.870    4.5989
   36.885    4.4234
   36.900    4.3707
   36.915    4.2654
   36.930    3.9143
   36.945    3.9670
   36.960    4.1601
   36.975    4.0021
   36.990    4.4058
   37.005    4.3532
   37.020    4.6867
   37.035    4.3356
   37.050    4.6340
   37.065    5.1255
   37.080    4.9149
   37.095    4.6867
   37.110    4.9500
   37.125    4.8622
   37.140    4.7569
   37.155    4.5463
   37.170    4.8095
   37.185    4.7920
   37.200    4.6165
   37.215    4.3883
   37.230    4.1776
   37.245    4.5111
   37.260    4.2303
   37.275    4.3005
   37.290    3.9846
   37.305    4.3707
   37.320    4.1601
   37.335    4.2478
   37.350    4.4936
   37.365    4.2830
   37.380    4.5814
   37.395    4.4409
   37.410    4.3707
   37.425    4.1425
   37.440    4.6867
   37.455    4.3532
   37.470    4.3707
   37.485    4.5463
   37.500    4.0723
   37.515    4.4936
   37.530    4.5989
   37.545    4.4409
   37.560    4.0372
   37.575    4.3181
   37.590    4.7920
   37.605    4.7569
   37.620    4.1425
   37.635    4.8798
   37.650    4.4760
   37.665    4.1601
   37.680    4.5287
   37.695    4.6516
   37.710    4.5111
   37.725    4.6516
   37.740    4.5111
   37.755    4.7920
   37.770    4.3883
   37.785    4.5814
   37.800    4.5287
   37.815    4.6340
   37.830    4.6165
   37.845    4.7569
   37.860    4.1601
   37.875    4.3532
   37.890    4.5638
   37.905    4.5287
   37.920    4.6516
   37.935    4.4234
   37.950    4.5814
   37.965    4.4058
   37.980    4.8622
   37.995    4.5463
   38.010    4.1425
   38.025    4.3005
   38.040    4.3532
   38.055    4.3005
   38.070    4.1952
   38.085    4.3356
   38.100    4.2478
   38.115    4.5287
   38.130    4.4760
   38.145    4.4760
   38.160    4.4585
   38.175    4.0899
   38.190    4.0899
   38.205    4.1952
   38.220    4.3532
   38.235    4.1601
   38.250    4.3707
   38.265    4.2830
   38.280    4.0548
   38.295    4.1425
   38.310    4.1776
   38.325    4.0899
   38.340    4.0548
   38.355    4.7218
   38.370    4.4234
   38.385    4.3181
   38.400    4.1425
   38.415    4.5287
   38.430    4.6867
   38.445    4.0548
   38.460    4.3356
   38.475    4.8095
   38.490    4.6867
   38.505    4.2303
   38.520    4.4234
   38.535    4.4585
   38.550    4.0372
   38.565    4.2478
   38.580    4.0899
   38.595    4.5287
   38.610    4.8973
   38.625    4.3707
   38.640    4.4585
   38.655    4.6516
   38.670    4.3005
   38.685    4.1250
   38.700    3.9319
   38.715    4.1776
   38.730    4.0899
   38.745    4.2478
   38.760    4.3181
   38.775    4.1425
   38.790    4.3707
   38.805    4.5287
   38.820    4.2127
   38.835    3.9846
   38.850    4.5287
   38.865    4.4058
   38.880    4.6516
   38.895    4.1601
   38.910    4.8798
   38.925    4.1074
   38.940    4.1250
   38.955    4.5463
   38.970    4.4760
   38.985    4.5638
   39.000    4.0197
   39.015    4.3005
   39.030    4.1601
   39.045    3.8792
   39.060    4.2478
   39.075    4.1776
   39.090    4.1952
   39.105    4.0899
   39.120    3.5106
   39.135    4.2127
   39.150    4.1776
   39.165    4.0372
   39.180    4.3883
   39.195    4.2830
   39.210    4.4058
   39.225    4.4058
   39.240    4.3356
   39.255    4.3532
   39.270    4.7393
   39.285    4.7042
   39.300    4.3356
   39.315    4.0723
   39.330    4.1074
   39.345    4.4409
   39.360    4.2478
   39.375    4.2654
   39.390    4.4760
   39.405    4.4936
   39.420    4.3005
   39.435    4.7393
   39.450    4.4760
   39.465    4.4409
   39.480    4.1425
   39.495    4.2830
   39.510    4.4058
   39.525    4.1601
   39.540    4.3181
   39.555    4.2303
   39.570    4.2654
   39.585    4.0723
   39.600    4.1601
   39.615    4.1601
   39.630    4.3356
   39.645    4.3707
   39.660    4.1425
   39.675    4.3356
   39.690    4.1425
   39.705    4.5111
   39.720    4.5111
   39.735    4.3883
   39.750    4.5463
   39.765    4.5463
   39.780    4.3883
   39.795    4.6165
   39.810    4.6867
   39.825    4.6691
   39.840    4.2127
   39.855    4.4760
   39.870    4.1250
   39.885    4.0021
   39.900    4.2127
   39.915    4.0372
   39.930    4.0723
   39.945    4.1425
   39.960    4.2654
   39.975    4.2127
   39.990    4.2127
