    1.500   27.7409
    1.515   27.9200
    1.530   27.5619
    1.545   26.8246
    1.560   26.4244
    1.575   26.1085
    1.590   26.4244
    1.605   25.6135
    1.620   25.1922
    1.635   24.9078
    1.650   24.1496
    1.665   24.7288
    1.680   23.8652
    1.695   23.9600
    1.710   23.2754
    1.725   22.9489
    1.740   23.1806
    1.755   22.6119
    1.770   22.6330
    1.785   23.1490
    1.800   22.2854
    1.815   21.9273
    1.830   20.9795
    1.845   20.9163
    1.860   21.4323
    1.875   21.1058
    1.890   21.4113
    1.905   21.1690
    1.920   21.7272
    1.935   21.5271
    1.950   20.7162
    1.965   20.2844
    1.980   19.9263
    1.995   19.8420
    2.010   19.6840
    2.025   19.7262
    2.040   19.8842
    2.055   19.7156
    2.070   19.6314
    2.085   19.3154
    2.100   19.2944
    2.115   19.1469
    2.130   19.0732
    2.145   18.8099
    2.160   19.3470
    2.175   19.0943
    2.190   19.0627
    2.205   18.5255
    2.220   17.9463
    2.235   18.0621
    2.250   18.6414
    2.265   17.9989
    2.280   18.0200
    2.295   18.5361
    2.310   19.1048
    2.325   18.8204
    2.340   18.4518
    2.355   18.5466
    2.370   18.3886
    2.385   18.4729
    2.400   18.1991
    2.415   18.4518
    2.430   17.7988
    2.445   18.1043
    2.460   18.4097
    2.475   17.9042
    2.490   18.0937
    2.505   17.9042
    2.520   18.3254
    2.535   18.4518
    2.550   18.2412
    2.565   18.5782
    2.580   18.3254
    2.595   18.0411
    2.610   18.5045
    2.625   18.8942
    2.640   18.4413
    2.655   18.5045
    2.670   19.4629
    2.685   19.7999
    2.700   19.6419
    2.715   19.4734
    2.730   19.2944
    2.745   19.3576
    2.760   19.7051
    2.775   20.6951
    2.790   20.2422
    2.805   19.7683
    2.820   20.3686
    2.835   20.3160
    2.850   20.9268
    2.865   21.0111
    2.880   21.9168
    2.895   22.3697
    2.910   22.5382
    2.925   22.1169
    2.940   22.2854
    2.955   22.4539
    2.970   22.2012
    2.985   22.9805
    3.000   23.6967
    3.015   23.4755
    3.030   23.9916
    3.045   24.5182
    3.060   25.0026
    3.075   25.6977
    3.090   26.1295
    3.105   25.9400
    3.120   26.7088
    3.135   27.1827
    3.150   27.0142
    3.165   28.2570
    3.180   28.5203
    3.195   28.4676
    3.210   29.3418
    3.225   30.4897
    3.240   31.4481
    3.255   32.7330
    3.270   32.5118
    3.285   32.4381
    3.300   34.3233
    3.315   35.2396
    3.330   35.7451
    3.345   36.4192
    3.360   37.3881
    3.375   37.9779
    3.390   39.1259
    3.405   40.8741
    3.420   42.0748
    3.435   43.7599
    3.450   43.8652
    3.465   45.1817
    3.480   47.1722
    3.495   49.0679
    3.510   50.7952
    3.525   52.6593
    3.540   53.7125
    3.555   56.5245
    3.570   58.9468
    3.585   60.8215
    3.600   62.1274
    3.615   64.8341
    3.630   68.3202
    3.645   70.4160
    3.660   73.9442
    3.675   76.0190
    3.690   80.4213
    3.705   83.9705
    3.720   89.1311
    3.735   94.3865
    3.750  100.1896
    3.765  108.0674
    3.780  113.7336
    3.795  122.7699
    3.810  132.0063
    3.825  142.9384
    3.840  158.7256
    3.855  177.8094
    3.870  200.5371
    3.885  225.3923
    3.900  236.7983
    3.915  232.7646
    3.930  213.0701
    3.945  174.4392
    3.960  119.4629
    3.975   71.8167
    3.990   41.5061
    4.005   28.3834
    4.020   22.2433
    4.035   19.5050
    4.050   17.0405
    4.065   14.6603
    4.080   13.6177
    4.095   13.2280
    4.110   12.7541
    4.125   12.0169
    4.140   11.8483
    4.155   11.8483
    4.170   11.1216
    4.185   10.5635
    4.200   10.7741
    4.215   10.4160
    4.230   10.2580
    4.245   10.1843
    4.260   10.2686
    4.275   10.7109
    4.290    9.9421
    4.305   10.1422
    4.320   10.1422
    4.335    9.4892
    4.350    9.8157
    4.365    9.8052
    4.380    9.9421
    4.395    9.8999
    4.410    9.4997
    4.425   10.0053
    4.440    9.8368
    4.455    9.8789
    4.470    9.8368
    4.485    9.5629
    4.500    9.9210
    4.515    9.8473
    4.530    9.4681
    4.545    9.5629
    4.560    9.9210
    4.575    9.6156
    4.590    9.6367
    4.605    9.8262
    4.620   10.0369
    4.635   10.2054
    4.650   10.1948
    4.665   10.6688
    4.680   10.6056
    4.695   10.5845
    4.710   10.7320
    4.725   10.3107
    4.740   10.3739
    4.755   10.6266
    4.770   10.7214
    4.785   11.1848
    4.800   10.8057
    4.815   11.4587
    4.830   11.8378
    4.845   11.9115
    4.860   11.9221
    4.875   11.8062
    4.890   12.0484
    4.905   12.5118
    4.920   12.3117
    4.935   12.4803
    4.950   13.1438
    4.965   13.4176
    4.980   14.7341
    4.995   14.3865
    5.010   14.2391
    5.025   14.3339
    5.040   15.2923
    5.055   15.2712
    5.070   15.1553
    5.085   16.6193
    5.100   16.5350
    5.115   17.1880
    5.130   17.7462
    5.145   17.4724
    5.160   18.9995
    5.175   19.5261
    5.190   21.2322
    5.205   21.0637
    5.220   21.3797
    5.235   22.1274
    5.250   23.5598
    5.265   25.2659
    5.280   25.4134
    5.295   26.4455
    5.310   28.4044
    5.325   30.0053
    5.340   31.8799
    5.355   33.8283
    5.370   35.2080
    5.385   37.6198
    5.400   40.7056
    5.415   43.7283
    5.430   47.0774
    5.445   51.2270
    5.460   56.8510
    5.475   62.5803
    5.490   72.1327
    5.505   79.7156
    5.520   82.7383
    5.535   81.7799
    5.550   73.1964
    5.565   59.7262
    5.580   43.1280
    5.595   28.2780
    5.610   19.1890
    5.625   14.1443
    5.640   12.5118
    5.655   10.8478
    5.670   10.2791
    5.685    9.7314
    5.700    8.8678
    5.715    8.7520
    5.730    8.8784
    5.745    8.4992
    5.760    7.7409
    5.775    7.9726
    5.790    8.1622
    5.805    8.2675
    5.820    8.1517
    5.835    7.9516
    5.850    7.7514
    5.865    8.0253
    5.880    8.5835
    5.895    8.2570
    5.910    7.9726
    5.925    8.3518
    5.940    7.9831
    5.955    7.8462
    5.970    7.7620
    5.985    8.1095
    6.000    8.2254
    6.015    8.1938
    6.030    8.1095
    6.045    7.7093
    6.060    7.7199
    6.075    8.1727
    6.090    8.1411
    6.105    8.1411
    6.120    7.6777
    6.135    7.9831
    6.150    8.2149
    6.165    8.0990
    6.180    8.0042
    6.195    7.9305
    6.210    8.4781
    6.225    8.4044
    6.240    8.2464
    6.255    8.5519
    6.270    8.1622
    6.285    8.3412
    6.300    8.6045
    6.315    8.6467
    6.330    9.1417
    6.345    9.2470
    6.360    8.8046
    6.375    8.8468
    6.390    9.0258
    6.405    9.6788
    6.420    9.7420
    6.435    9.5735
    6.450   10.1211
    6.465   10.5213
    6.480   10.1316
    6.495   11.0585
    6.510   10.6477
    6.525   10.6477
    6.540   11.3428
    6.555   11.9853
    6.570   12.5224
    6.585   13.0174
    6.600   13.3965
    6.615   14.1864
    6.630   14.5761
    6.645   15.1975
    6.660   15.7030
    6.675   17.7146
    6.690   18.5045
    6.705   19.7472
    6.720   22.2222
    6.735   24.1390
    6.750   25.6872
    6.765   26.7299
    6.780   27.3407
    6.795   25.4766
    6.810   21.5692
    6.825   17.6093
    6.840   13.3123
    6.855   10.3633
    6.870    8.8784
    6.885    8.8362
    6.900    8.6677
    6.915    8.5835
    6.930    7.8252
    6.945    7.7093
    6.960    7.6883
    6.975    7.7304
    6.990    7.5935
    7.005    8.0042
    7.020    8.1938
    7.035    7.8673
    7.050    7.9516
    7.065    7.7936
    7.080    7.7830
    7.095    7.3828
    7.110    7.7093
    7.125    7.5513
    7.140    7.2565
    7.155    7.8041
    7.170    7.3407
    7.185    7.4144
    7.200    7.5092
    7.215    7.6883
    7.230    7.8778
    7.245    7.5724
    7.260    7.7199
    7.275    7.2565
    7.290    7.7936
    7.305    8.0990
    7.320    7.9621
    7.335    7.6988
    7.350    7.9094
    7.365    7.6356
    7.380    8.0358
    7.395    7.7199
    7.410    8.3412
    7.425    8.3728
    7.440    8.2780
    7.455    8.6361
    7.470    8.5097
    7.485    8.5940
    7.500    8.5729
    7.515    9.3207
    7.530    9.0785
    7.545    9.9315
    7.560    9.9526
    7.575    9.6261
    7.590    9.8894
    7.605   10.3002
    7.620   10.7846
    7.635   10.2791
    7.650   11.4797
    7.665   11.9431
    7.680   12.6593
    7.695   12.8910
    7.710   13.6072
    7.725   13.9863
    7.740   15.6714
    7.755   16.2717
    7.770   17.2196
    7.785   20.0948
    7.800   20.8531
    7.815   21.6535
    7.830   21.3691
    7.845   20.2528
    7.860   18.1885
    7.875   14.6498
    7.890   11.8694
    7.905    9.3944
    7.920    8.4044
    7.935    8.0885
    7.950    7.6356
    7.965    7.5303
    7.980    7.5619
    7.995    7.7304
    8.010    7.2775
    8.025    6.9616
    8.040    7.2143
    8.055    7.2038
    8.070    7.1301
    8.085    6.6772
    8.100    7.2670
    8.115    6.9721
    8.130    7.0985
    8.145    7.1090
    8.160    6.6877
    8.175    7.4355
    8.190    7.3618
    8.205    7.0563
    8.220    7.1827
    8.235    6.8141
    8.250    7.1617
    8.265    7.2775
    8.280    6.6772
    8.295    7.0353
    8.310    7.1301
    8.325    6.9932
    8.340    7.2670
    8.355    7.0458
    8.370    6.9089
    8.385    7.2459
    8.400    7.2459
    8.415    7.0458
    8.430    7.0037
    8.445    7.0248
    8.460    7.4250
    8.475    7.1617
    8.490    7.2986
    8.505    6.8668
    8.520    7.2459
    8.535    7.5303
    8.550    7.4987
    8.565    7.9726
    8.580    8.0253
    8.595    7.8673
    8.610    7.8252
    8.625    7.8989
    8.640    7.7304
    8.655    8.1833
    8.670    8.0885
    8.685    8.5097
    8.700    8.4150
    8.715    8.2359
    8.730    8.9521
    8.745    9.2786
    8.760    8.8784
    8.775    8.8257
    8.790    9.0890
    8.805    7.6988
    8.820    7.4671
    8.835    7.2459
    8.850    7.1511
    8.865    7.4250
    8.880    7.0353
    8.895    7.4144
    8.910    7.0353
    8.925    7.1933
    8.940    7.3407
    8.955    7.4882
    8.970    7.4776
    8.985    7.4460
    9.000    7.2038
    9.015    7.5619
    9.030    7.4987
    9.045    7.6672
    9.060    7.5829
    9.075    7.4671
    9.090    7.7620
    9.105    7.7093
    9.120    8.3623
    9.135    9.0047
    9.150    8.4255
    9.165    7.8568
    9.180    8.3623
    9.195    8.7520
    9.210    9.0258
    9.225    9.1627
    9.240    9.7841
    9.255    9.8894
    9.270   10.3633
    9.285   10.1316
    9.300   10.6688
    9.315   11.1743
    9.330   11.2902
    9.345   11.6904
    9.360   12.7646
    9.375   12.7751
    9.390   13.6914
    9.405   13.7019
    9.420   14.9974
    9.435   15.5872
    9.450   16.6930
    9.465   18.0727
    9.480   19.7051
    9.495   20.7794
    9.510   23.6651
    9.525   26.4876
    9.540   29.1311
    9.555   31.7220
    9.570   34.5550
    9.585   35.6187
    9.600   33.9547
    9.615   30.9426
    9.630   26.0453
    9.645   18.9995
    9.660   14.4392
    9.675   11.2164
    9.690    9.6472
    9.705    8.7204
    9.720    7.8673
    9.735    7.7304
    9.750    7.0458
    9.765    7.4250
    9.780    7.3407
    9.795    7.5092
    9.810    7.2880
    9.825    7.0458
    9.840    7.3302
    9.855    7.1617
    9.870    7.4882
    9.885    7.5935
    9.900    7.4355
    9.915    7.4250
    9.930    7.1933
    9.945    7.2670
    9.960    7.1090
    9.975    7.6251
    9.990    7.4882
   10.005    7.6251
   10.020    8.0147
   10.035    7.7620
   10.050    7.5197
   10.065    7.5619
   10.080    7.8146
   10.095    8.6361
   10.110    8.4466
   10.125    8.5835
   10.140    8.9731
   10.155    8.6993
   10.170    8.6572
   10.185    9.0679
   10.200    9.8578
   10.215   10.1632
   10.230   10.0474
   10.245   10.6161
   10.260   11.1427
   10.275   11.5534
   10.290   13.0595
   10.305   14.3865
   10.320   15.3028
   10.335   16.0506
   10.350   16.5561
   10.365   16.5666
   10.380   15.9136
   10.395   13.9758
   10.410   11.9958
   10.425   10.0790
   10.440    8.9942
   10.455    8.1306
   10.470    7.5408
   10.485    6.9932
   10.500    7.0879
   10.515    7.1722
   10.530    7.1301
   10.545    6.7825
   10.560    6.8036
   10.575    6.7615
   10.590    7.2143
   10.605    7.1301
   10.620    7.1301
   10.635    6.9826
   10.650    6.9300
   10.665    7.2354
   10.680    6.7299
   10.695    6.6877
   10.710    7.1090
   10.725    7.2459
   10.740    6.9721
   10.755    7.0669
   10.770    7.2249
   10.785    7.7304
   10.800    7.7830
   10.815    7.3723
   10.830    7.6356
   10.845    8.1201
   10.860    8.2886
   10.875    8.4255
   10.890    8.8257
   10.905    8.9837
   10.920    9.2364
   10.935    9.6156
   10.950   10.3423
   10.965   11.1427
   10.980   11.4376
   10.995   11.8799
   11.010   12.6277
   11.025   13.9547
   11.040   14.9974
   11.055   15.9874
   11.070   16.4402
   11.085   15.7978
   11.100   15.0606
   11.115   13.7230
   11.130   11.8483
   11.145   10.3002
   11.160    8.6783
   11.175    7.4776
   11.190    7.2354
   11.205    7.0985
   11.220    6.6983
   11.235    6.8878
   11.250    6.9721
   11.265    7.0774
   11.280    6.7193
   11.295    6.8457
   11.310    7.1406
   11.325    6.9405
   11.340    6.7615
   11.355    6.8562
   11.370    6.5087
   11.385    6.7720
   11.400    7.0669
   11.415    7.3196
   11.430    7.1511
   11.445    7.0985
   11.460    7.2249
   11.475    7.8146
   11.490    7.8884
   11.505    7.9094
   11.520    8.3834
   11.535    8.2886
   11.550    8.4571
   11.565    8.3834
   11.580    8.7204
   11.595    9.7630
   11.610    9.8578
   11.625   10.1106
   11.640   10.5635
   11.655   11.9642
   11.670   12.3223
   11.685   13.3228
   11.700   14.2496
   11.715   15.7346
   11.730   16.2507
   11.745   16.8088
   11.760   16.4929
   11.775   15.5134
   11.790   13.5545
   11.805   11.2270
   11.820    9.6472
   11.835    8.2780
   11.850    7.3723
   11.865    6.9721
   11.880    6.8352
   11.895    7.1301
   11.910    6.9826
   11.925    6.3718
   11.940    6.2559
   11.955    6.2981
   11.970    6.2981
   11.985    6.5403
   12.000    6.3718
   12.015    6.4455
   12.030    6.6877
   12.045    6.6035
   12.060    6.4666
   12.075    6.2033
   12.090    6.4350
   12.105    6.4982
   12.120    6.6983
   12.135    6.8352
   12.150    6.5403
   12.165    6.5824
   12.180    6.6561
   12.195    6.5613
   12.210    6.7720
   12.225    6.8984
   12.240    6.7930
   12.255    7.2038
   12.270    7.1090
   12.285    7.0985
   12.300    7.1406
   12.315    7.4355
   12.330    7.7514
   12.345    7.6356
   12.360    8.0569
   12.375    8.1833
   12.390    7.9621
   12.405    7.4355
   12.420    7.7199
   12.435    7.2143
   12.450    7.0142
   12.465    6.6351
   12.480    6.5929
   12.495    6.9721
   12.510    6.5613
   12.525    6.5403
   12.540    6.4455
   12.555    6.4034
   12.570    6.5087
   12.585    6.3718
   12.600    6.6245
   12.615    6.3612
   12.630    6.6456
   12.645    6.4139
   12.660    6.3402
   12.675    6.7825
   12.690    6.8036
   12.705    6.5087
   12.720    7.1301
   12.735    7.2880
   12.750    7.0985
   12.765    7.3302
   12.780    7.3302
   12.795    7.4882
   12.810    7.5303
   12.825    7.9831
   12.840    8.7625
   12.855    8.3518
   12.870    8.3939
   12.885    8.7309
   12.900    9.1417
   12.915    9.7314
   12.930   10.1632
   12.945   11.5534
   12.960   11.5008
   12.975   12.5434
   12.990   12.3012
   13.005   12.2907
   13.020   11.8589
   13.035   11.0058
   13.050    9.7525
   13.065    8.7309
   13.080    7.5829
   13.095    7.0669
   13.110    7.0037
   13.125    6.8352
   13.140    6.7088
   13.155    6.6456
   13.170    6.4982
   13.185    6.2981
   13.200    6.5508
   13.215    6.2138
   13.230    6.5929
   13.245    6.4244
   13.260    6.1927
   13.275    6.4560
   13.290    6.5508
   13.305    6.3086
   13.320    6.6351
   13.335    6.7930
   13.350    6.7299
   13.365    6.8773
   13.380    6.4982
   13.395    6.8352
   13.410    7.1090
   13.425    7.1827
   13.440    7.5513
   13.455    7.4987
   13.470    7.6040
   13.485    7.6777
   13.500    7.5408
   13.515    7.5303
   13.530    8.4992
   13.545    9.1522
   13.560    9.0153
   13.575    8.9942
   13.590    8.8046
   13.605    8.3939
   13.620    7.8568
   13.635    7.6356
   13.650    6.8984
   13.665    6.4244
   13.680    6.3507
   13.695    6.4666
   13.710    6.5192
   13.725    6.5192
   13.740    6.4876
   13.755    6.2349
   13.770    5.9926
   13.785    6.4455
   13.800    6.6983
   13.815    6.6351
   13.830    6.8352
   13.845    6.7299
   13.860    6.8141
   13.875    7.3828
   13.890    7.1933
   13.905    7.0985
   13.920    6.9932
   13.935    7.4882
   13.950    7.1301
   13.965    7.6145
   13.980    7.5935
   13.995    7.9621
   14.010    8.7730
   14.025    8.4992
   14.040    9.2575
   14.055    9.5735
   14.070    9.9210
   14.085   10.5635
   14.100   11.1006
   14.115   11.6482
   14.130   11.3112
   14.145   11.5850
   14.160   11.3112
   14.175    9.7736
   14.190    8.8362
   14.205    8.4360
   14.220    8.0253
   14.235    6.9826
   14.250    6.5719
   14.265    6.3928
   14.280    6.5824
   14.295    6.6456
   14.310    6.3191
   14.325    6.2243
   14.340    6.2665
   14.355    5.9821
   14.370    5.9610
   14.385    6.1190
   14.400    5.9294
   14.415    6.0242
   14.430    6.3296
   14.445    6.2138
   14.460    6.0242
   14.475    5.9610
   14.490    6.3507
   14.505    6.1822
   14.520    6.2559
   14.535    6.1085
   14.550    5.9821
   14.565    5.9400
   14.580    5.9505
   14.595    5.9926
   14.610    6.0242
   14.625    5.6872
   14.640    6.6035
   14.655    6.2138
   14.670    6.3612
   14.685    6.4666
   14.700    6.1927
   14.715    6.1190
   14.730    5.9716
   14.745    6.1295
   14.760    6.2454
   14.775    6.0558
   14.790    6.0558
   14.805    5.9716
   14.820    6.0242
   14.835    6.0769
   14.850    6.2138
   14.865    6.3823
   14.880    6.0769
   14.895    6.1295
   14.910    6.0558
   14.925    6.2981
   14.940    5.8136
   14.955    6.0453
   14.970    6.2981
   14.985    6.2875
   15.000    6.0874
   15.015    6.1927
   15.030    6.6140
   15.045    6.9300
   15.060    6.7825
   15.075    6.8878
   15.090    6.8878
   15.105    6.6351
   15.120    6.8668
   15.135    7.1827
   15.150    7.4039
   15.165    7.1406
   15.180    8.0147
   15.195    7.7514
   15.210    7.4460
   15.225    7.4039
   15.240    6.9510
   15.255    6.8036
   15.270    6.6561
   15.285    6.3402
   15.300    6.1611
   15.315    6.1927
   15.330    6.4244
   15.345    6.3402
   15.360    6.4139
   15.375    6.2559
   15.390    6.0558
   15.405    5.8978
   15.420    6.3191
   15.435    6.3296
   15.450    6.1927
   15.465    6.1927
   15.480    6.2770
   15.495    6.3296
   15.510    6.1611
   15.525    6.2033
   15.540    6.4455
   15.555    6.2138
   15.570    5.7504
   15.585    6.1822
   15.600    5.8557
   15.615    6.1401
   15.630    5.6135
   15.645    6.1085
   15.660    6.1190
   15.675    5.9821
   15.690    6.1190
   15.705    6.0137
   15.720    6.0664
   15.735    6.0453
   15.750    6.5403
   15.765    6.2033
   15.780    6.2770
   15.795    5.7188
   15.810    6.0032
   15.825    5.9610
   15.840    5.8136
   15.855    5.9716
   15.870    6.2559
   15.885    6.0874
   15.900    6.0032
   15.915    6.3402
   15.930    6.1822
   15.945    6.1506
   15.960    5.8031
   15.975    6.0348
   15.990    6.3296
   16.005    6.1295
   16.020    6.3402
   16.035    6.6035
   16.050    6.3928
   16.065    6.4771
   16.080    6.5719
   16.095    6.7615
   16.110    6.7299
   16.125    6.9932
   16.140    7.4250
   16.155    7.4776
   16.170    7.2670
   16.185    7.0985
   16.200    7.5513
   16.215    7.2986
   16.230    6.6035
   16.245    6.4034
   16.260    6.4455
   16.275    6.3296
   16.290    6.2349
   16.305    6.0453
   16.320    6.3191
   16.335    6.3296
   16.350    6.8668
   16.365    6.6877
   16.380    6.8036
   16.395    6.2033
   16.410    6.1401
   16.425    6.4244
   16.440    6.1822
   16.455    6.1927
   16.470    6.3086
   16.485    6.4876
   16.500    6.8457
   16.515    6.9405
   16.530    6.4666
   16.545    6.8352
   16.560    6.7720
   16.575    7.1090
   16.590    7.2459
   16.605    7.2775
   16.620    7.3828
   16.635    7.3723
   16.650    7.7093
   16.665    7.6251
   16.680    6.7509
   16.695    6.7615
   16.710    6.9510
   16.725    6.4876
   16.740    6.5824
   16.755    6.3507
   16.770    6.4350
   16.785    6.4560
   16.800    6.3296
   16.815    6.3507
   16.830    6.4560
   16.845    6.4350
   16.860    6.3296
   16.875    6.1822
   16.890    6.7299
   16.905    6.8457
   16.920    6.8562
   16.935    7.0248
   16.950    7.1301
   16.965    7.4566
   16.980    7.9200
   16.995    7.7409
   17.010    8.5097
   17.025    8.8046
   17.040    9.0363
   17.055    9.7314
   17.070   10.1738
   17.085   10.4581
   17.100   10.3212
   17.115    9.9842
   17.130    9.8578
   17.145    9.6367
   17.160    8.8468
   17.175    8.2254
   17.190    6.9721
   17.205    6.5824
   17.220    6.5719
   17.235    6.7509
   17.250    6.7299
   17.265    6.2454
   17.280    6.1822
   17.295    6.4771
   17.310    6.4455
   17.325    6.4350
   17.340    6.4244
   17.355    6.5192
   17.370    6.3191
   17.385    6.4876
   17.400    6.5824
   17.415    6.2138
   17.430    6.3928
   17.445    6.2770
   17.460    6.4139
   17.475    6.7930
   17.490    7.1195
   17.505    7.0142
   17.520    6.8457
   17.535    6.5719
   17.550    6.8878
   17.565    6.9932
   17.580    6.9616
   17.595    6.9932
   17.610    6.6351
   17.625    6.5192
   17.640    6.1295
   17.655    6.4139
   17.670    6.2875
   17.685    5.8662
   17.700    6.1295
   17.715    6.0137
   17.730    5.9505
   17.745    6.2665
   17.760    6.4876
   17.775    6.3402
   17.790    6.5087
   17.805    6.0979
   17.820    6.0664
   17.835    6.1717
   17.850    6.2665
   17.865    6.6035
   17.880    6.4666
   17.895    6.2559
   17.910    6.5298
   17.925    6.7930
   17.940    6.9616
   17.955    6.8668
   17.970    6.7299
   17.985    6.8562
   18.000    7.1090
   18.015    7.0563
   18.030    6.9194
   18.045    6.7088
   18.060    6.4455
   18.075    6.7088
   18.090    6.0348
   18.105    6.4666
   18.120    6.3296
   18.135    6.2349
   18.150    6.3928
   18.165    6.1295
   18.180    6.4666
   18.195    6.4034
   18.210    6.2875
   18.225    6.4666
   18.240    6.5613
   18.255    6.3191
   18.270    6.2559
   18.285    6.6667
   18.300    6.5403
   18.315    6.5719
   18.330    6.7193
   18.345    6.8036
   18.360    6.9510
   18.375    7.1195
   18.390    7.1406
   18.405    7.0458
   18.420    7.0142
   18.435    6.7404
   18.450    6.6561
   18.465    6.7930
   18.480    6.8878
   18.495    6.5719
   18.510    6.3086
   18.525    6.3928
   18.540    6.3296
   18.555    6.1927
   18.570    5.8557
   18.585    5.9084
   18.600    6.2665
   18.615    6.2665
   18.630    6.2981
   18.645    6.4350
   18.660    6.4455
   18.675    6.2770
   18.690    5.8557
   18.705    6.5824
   18.720    6.4771
   18.735    6.2875
   18.750    6.6456
   18.765    6.4876
   18.780    6.5298
   18.795    6.2454
   18.810    6.8352
   18.825    6.6772
   18.840    7.2249
   18.855    6.9616
   18.870    6.6245
   18.885    6.3718
   18.900    6.1611
   18.915    6.4350
   18.930    6.8878
   18.945    6.3507
   18.960    6.3191
   18.975    6.4350
   18.990    7.0985
   19.005    6.8141
   19.020    6.5298
   19.035    6.1611
   19.050    6.4982
   19.065    6.4771
   19.080    6.6983
   19.095    6.0874
   19.110    6.3296
   19.125    6.2033
   19.140    6.5929
   19.155    6.4244
   19.170    6.4244
   19.185    6.2981
   19.200    6.0558
   19.215    6.2981
   19.230    6.3507
   19.245    6.3402
   19.260    6.1927
   19.275    5.9084
   19.290    6.5719
   19.305    6.5508
   19.320    6.6561
   19.335    6.3191
   19.350    6.2138
   19.365    6.1717
   19.380    6.2665
   19.395    6.3823
   19.410    6.4666
   19.425    6.2665
   19.440    6.4350
   19.455    6.2033
   19.470    6.3612
   19.485    6.6035
   19.500    6.8246
   19.515    6.4034
   19.530    6.0769
   19.545    6.5719
   19.560    6.7825
   19.575    6.6983
   19.590    7.4671
   19.605    7.6356
   19.620    7.4460
   19.635    7.5619
   19.650    7.1933
   19.665    7.4776
   19.680    6.9405
   19.695    6.8457
   19.710    7.0458
   19.725    6.5087
   19.740    6.0453
   19.755    6.2454
   19.770    6.2559
   19.785    6.3928
   19.800    6.2138
   19.815    6.3296
   19.830    6.0664
   19.845    6.4560
   19.860    6.7509
   19.875    6.1085
   19.890    6.3718
   19.905    6.4139
   19.920    6.1927
   19.935    6.6245
   19.950    6.4244
   19.965    6.3296
   19.980    6.0979
   19.995    6.2243
   20.010    6.2770
   20.025    6.4350
   20.040    6.3507
   20.055    6.1295
   20.070    6.5192
   20.085    6.3718
   20.100    6.4350
   20.115    6.9089
   20.130    6.8878
   20.145    6.2665
   20.160    6.4560
   20.175    6.2665
   20.190    6.1717
   20.205    6.3086
   20.220    6.5929
   20.235    6.3296
   20.250    6.7825
   20.265    6.7825
   20.280    6.7615
   20.295    7.0458
   20.310    7.3512
   20.325    8.4571
   20.340    8.1201
   20.355    8.4360
   20.370    8.7625
   20.385    8.9942
   20.400    8.8152
   20.415    9.4155
   20.430    9.2259
   20.445    9.2259
   20.460    9.4050
   20.475    8.5203
   20.490    7.5197
   20.505    7.1722
   20.520    6.8562
   20.535    6.7299
   20.550    6.6772
   20.565    6.8562
   20.580    6.5403
   20.595    6.2454
   20.610    6.2243
   20.625    6.2349
   20.640    6.1717
   20.655    6.1717
   20.670    6.5192
   20.685    6.1295
   20.700    5.9610
   20.715    6.1401
   20.730    6.3402
   20.745    6.3086
   20.760    6.5613
   20.775    6.4560
   20.790    6.4455
   20.805    5.9716
   20.820    6.0664
   20.835    6.2559
   20.850    6.3296
   20.865    6.7299
   20.880    6.5403
   20.895    6.0137
   20.910    5.8557
   20.925    6.0979
   20.940    6.2033
   20.955    6.3718
   20.970    5.8768
   20.985    5.9400
   21.000    6.2665
   21.015    6.2349
   21.030    6.2770
   21.045    6.1085
   21.060    6.0242
   21.075    6.1822
   21.090    6.5192
   21.105    6.6245
   21.120    6.2243
   21.135    6.7404
   21.150    6.4876
   21.165    6.3296
   21.180    6.2981
   21.195    6.2665
   21.210    6.3191
   21.225    6.0874
   21.240    6.1822
   21.255    5.8662
   21.270    6.4666
   21.285    6.5298
   21.300    6.3086
   21.315    6.5613
   21.330    6.3507
   21.345    6.4034
   21.360    6.0874
   21.375    6.1401
   21.390    6.2981
   21.405    6.3823
   21.420    6.4982
   21.435    6.9510
   21.450    6.1295
   21.465    5.8768
   21.480    6.0453
   21.495    6.5087
   21.510    6.4666
   21.525    6.1717
   21.540    6.3823
   21.555    6.3086
   21.570    6.1611
   21.585    6.3507
   21.600    6.1085
   21.615    6.2033
   21.630    6.1401
   21.645    6.3402
   21.660    6.5192
   21.675    6.2559
   21.690    5.9821
   21.705    6.8246
   21.720    6.7615
   21.735    6.4244
   21.750    6.7720
   21.765    6.8141
   21.780    6.7930
   21.795    6.8457
   21.810    7.0142
   21.825    7.1195
   21.840    7.1933
   21.855    7.3407
   21.870    7.4144
   21.885    7.5829
   21.900    7.3196
   21.915    7.5092
   21.930    7.5408
   21.945    7.2459
   21.960    6.9826
   21.975    6.6140
   21.990    6.7720
   22.005    6.7509
   22.020    6.7088
   22.035    6.2138
   22.050    6.2349
   22.065    6.4139
   22.080    6.4876
   22.095    6.2559
   22.110    6.2875
   22.125    6.6035
   22.140    6.8352
   22.155    6.9405
   22.170    7.2459
   22.185    7.0879
   22.200    7.0563
   22.215    7.2249
   22.230    7.4987
   22.245    7.1827
   22.260    7.1827
   22.275    7.1511
   22.290    6.9089
   22.305    6.8246
   22.320    6.8246
   22.335    6.8562
   22.350    6.9194
   22.365    6.7299
   22.380    6.5508
   22.395    6.5719
   22.410    6.3612
   22.425    7.1195
   22.440    6.7509
   22.455    6.5929
   22.470    7.1406
   22.485    7.7936
   22.500    7.5829
   22.515    8.2359
   22.530    8.5624
   22.545    8.6467
   22.560    9.1943
   22.575    9.7314
   22.590   10.4371
   22.605    9.8262
   22.620   10.0158
   22.635    9.6156
   22.650    9.1627
   22.665    8.8678
   22.680    8.5624
   22.695    7.9516
   22.710    7.2880
   22.725    7.1195
   22.740    7.0879
   22.755    7.0563
   22.770    7.2880
   22.785    7.1090
   22.800    7.1617
   22.815    7.7093
   22.830    7.7830
   22.845    7.8989
   22.860    8.4255
   22.875    8.5835
   22.890    9.1522
   22.905    9.7209
   22.920    9.9842
   22.935   10.1211
   22.950    9.5419
   22.965    9.4787
   22.980    9.6472
   22.995    9.5945
   23.010    8.7414
   23.025    8.1833
   23.040    7.5197
   23.055    7.3407
   23.070    7.4039
   23.085    6.8878
   23.100    6.7930
   23.115    6.9300
   23.130    6.9616
   23.145    6.6351
   23.160    7.0248
   23.175    7.1827
   23.190    7.2459
   23.205    6.6456
   23.220    7.3618
   23.235    7.2880
   23.250    7.2880
   23.265    7.4776
   23.280    7.3407
   23.295    8.0885
   23.310    7.4144
   23.325    7.2459
   23.340    7.3512
   23.355    7.1511
   23.370    7.0985
   23.385    6.9194
   23.400    6.4876
   23.415    6.6877
   23.430    6.4771
   23.445    6.5192
   23.460    6.5087
   23.475    6.1822
   23.490    6.4982
   23.505    6.2770
   23.520    6.4139
   23.535    6.4982
   23.550    6.4350
   23.565    6.4666
   23.580    6.2138
   23.595    6.7193
   23.610    6.4350
   23.625    6.2138
   23.640    6.1401
   23.655    6.4876
   23.670    6.3086
   23.685    6.4350
   23.700    6.4034
   23.715    6.4455
   23.730    6.6877
   23.745    6.1506
   23.760    6.4139
   23.775    6.4876
   23.790    6.2770
   23.805    6.2243
   23.820    6.3823
   23.835    6.6877
   23.850    6.6983
   23.865    6.6667
   23.880    6.8246
   23.895    6.6772
   23.910    6.4982
   23.925    6.6772
   23.940    6.8562
   23.955    7.3091
   23.970    7.2143
   23.985    6.7404
   24.000    6.7930
   24.015    6.6245
   24.030    6.6245
   24.045    6.8457
   24.060    7.0669
   24.075    6.3718
   24.090    6.3402
   24.105    6.2875
   24.120    6.0979
   24.135    6.0769
   24.150    6.3296
   24.165    6.0558
   24.180    6.5192
   24.195    6.3402
   24.210    6.6035
   24.225    6.4771
   24.240    6.3507
   24.255    5.8662
   24.270    6.7930
   24.285    6.2875
   24.300    6.4350
   24.315    6.2138
   24.330    6.3928
   24.345    6.6561
   24.360    6.6456
   24.375    6.1085
   24.390    5.7925
   24.405    6.1611
   24.420    6.4350
   24.435    6.5508
   24.450    6.3296
   24.465    6.5298
   24.480    6.3823
   24.495    6.3823
   24.510    6.2138
   24.525    6.6456
   24.540    6.6983
   24.555    6.8246
   24.570    6.4982
   24.585    6.1085
   24.600    6.4139
   24.615    6.4982
   24.630    6.5613
   24.645    6.3402
   24.660    6.2875
   24.675    5.8241
   24.690    6.2454
   24.705    6.1506
   24.720    6.3612
   24.735    6.1927
   24.750    5.8136
   24.765    6.2665
   24.780    6.1190
   24.795    5.9821
   24.810    6.1085
   24.825    6.0874
   24.840    6.3191
   24.855    6.2138
   24.870    5.9610
   24.885    6.4034
   24.900    6.1401
   24.915    6.3191
   24.930    6.4139
   24.945    6.3823
   24.960    6.2033
   24.975    6.0769
   24.990    6.1506
   25.005    5.9505
   25.020    6.2454
   25.035    5.8557
   25.050    6.0242
   25.065    6.0874
   25.080    6.2559
   25.095    6.1190
   25.110    6.4455
   25.125    6.3086
   25.140    6.3928
   25.155    6.1401
   25.170    6.0453
   25.185    6.4244
   25.200    6.6772
   25.215    6.6035
   25.230    6.6561
   25.245    6.4982
   25.260    6.2665
   25.275    6.2454
   25.290    6.4139
   25.305    6.3191
   25.320    6.3191
   25.335    6.3296
   25.350    6.1927
   25.365    6.3612
   25.380    6.3086
   25.395    6.2981
   25.410    6.5403
   25.425    6.6245
   25.440    6.0032
   25.455    6.3402
   25.470    6.5824
   25.485    6.8141
   25.500    6.5087
   25.515    6.3507
   25.530    6.4666
   25.545    6.5929
   25.560    6.8141
   25.575    6.4771
   25.590    6.6877
   25.605    6.5192
   25.620    6.4244
   25.635    6.1927
   25.650    6.0664
   25.665    6.3823
   25.680    6.8141
   25.695    6.3823
   25.710    6.0769
   25.725    6.7825
   25.740    7.0353
   25.755    7.3302
   25.770    7.3828
   25.785    7.8884
   25.800    7.8568
   25.815    8.3202
   25.830    8.6677
   25.845    8.3412
   25.860    8.2886
   25.875    8.4044
   25.890    8.4781
   25.905    7.6883
   25.920    7.8568
   25.935    7.2249
   25.950    7.1722
   25.965    6.9300
   25.980    6.9405
   25.995    6.2349
   26.010    6.2349
   26.025    6.4455
   26.040    5.9610
   26.055    5.9716
   26.070    6.1506
   26.085    5.9610
   26.100    5.7504
   26.115    6.2138
   26.130    5.8662
   26.145    5.8978
   26.160    6.1611
   26.175    6.3086
   26.190    6.5298
   26.205    6.2138
   26.220    5.8452
   26.235    6.0348
   26.250    5.9400
   26.265    6.3823
   26.280    6.2770
   26.295    5.9926
   26.310    6.3718
   26.325    6.3191
   26.340    6.2665
   26.355    6.2454
   26.370    6.1295
   26.385    6.5613
   26.400    6.2665
   26.415    6.3191
   26.430    6.6351
   26.445    6.5403
   26.460    6.5824
   26.475    6.9932
   26.490    6.6561
   26.505    6.5403
   26.520    6.4982
   26.535    6.4034
   26.550    6.8036
   26.565    6.1295
   26.580    6.2243
   26.595    6.1190
   26.610    6.0558
   26.625    6.0664
   26.640    5.9294
   26.655    6.0348
   26.670    5.9400
   26.685    6.0664
   26.700    5.9610
   26.715    5.7715
   26.730    5.6556
   26.745    5.8662
   26.760    5.7925
   26.775    5.8873
   26.790    5.7820
   26.805    5.6767
   26.820    5.8031
   26.835    6.0664
   26.850    6.3296
   26.865    5.6661
   26.880    6.0664
   26.895    6.2665
   26.910    5.9716
   26.925    6.5087
   26.940    6.3507
   26.955    6.0348
   26.970    6.5613
   26.985    6.7193
   27.000    6.9089
   27.015    6.9405
   27.030    6.8352
   27.045    6.9089
   27.060    7.0142
   27.075    6.4982
   27.090    6.7088
   27.105    6.8141
   27.120    6.4771
   27.135    6.5298
   27.150    5.8241
   27.165    6.2559
   27.180    5.9084
   27.195    5.7188
   27.210    6.0348
   27.225    6.1085
   27.240    5.8136
   27.255    6.0558
   27.270    6.1295
   27.285    5.8978
   27.300    5.8873
   27.315    5.8452
   27.330    5.9821
   27.345    5.4766
   27.360    5.3818
   27.375    5.9189
   27.390    5.9610
   27.405    5.8978
   27.420    5.8978
   27.435    5.9084
   27.450    5.9716
   27.465    6.0348
   27.480    5.9084
   27.495    5.9610
   27.510    5.6135
   27.525    5.8873
   27.540    6.0979
   27.555    6.3507
   27.570    6.3823
   27.585    6.6245
   27.600    6.5719
   27.615    6.7720
   27.630    6.3823
   27.645    6.2770
   27.660    6.5087
   27.675    6.1927
   27.690    5.9821
   27.705    6.1190
   27.720    6.4139
   27.735    6.0558
   27.750    6.4876
   27.765    6.0242
   27.780    5.5819
   27.795    5.9926
   27.810    6.1506
   27.825    6.0032
   27.840    6.3086
   27.855    6.1295
   27.870    6.4876
   27.885    6.4244
   27.900    6.1190
   27.915    6.2770
   27.930    6.1190
   27.945    6.0558
   27.960    6.1295
   27.975    6.2981
   27.990    6.2454
   28.005    5.9505
   28.020    6.3402
   28.035    6.3296
   28.050    6.4666
   28.065    6.0453
   28.080    6.2243
   28.095    6.6140
   28.110    6.6035
   28.125    6.7299
   28.140    6.7720
   28.155    6.6035
   28.170    6.7509
   28.185    6.9194
   28.200    7.6461
   28.215    7.0669
   28.230    6.4982
   28.245    6.8457
   28.260    6.4982
   28.275    6.4666
   28.290    6.2875
   28.305    6.4350
   28.320    6.5719
   28.335    6.2770
   28.350    6.0874
   28.365    6.2349
   28.380    6.1611
   28.395    6.2243
   28.410    6.2033
   28.425    6.4771
   28.440    6.4771
   28.455    6.3402
   28.470    6.6245
   28.485    6.3718
   28.500    6.3823
   28.515    6.4982
   28.530    6.4139
   28.545    6.7930
   28.560    6.3086
   28.575    6.6035
   28.590    6.4666
   28.605    6.0558
   28.620    5.8031
   28.635    5.5924
   28.650    5.4239
   28.665    5.5819
   28.680    5.9400
   28.695    6.3402
   28.710    6.3191
   28.725    6.2454
   28.740    6.0558
   28.755    5.7188
   28.770    5.9505
   28.785    5.7609
   28.800    5.9716
   28.815    5.5924
   28.830    5.7925
   28.845    6.1611
   28.860    6.0558
   28.875    5.7820
   28.890    5.9294
   28.905    5.8136
   28.920    5.8452
   28.935    5.8347
   28.950    5.8662
   28.965    6.4771
   28.980    6.4455
   28.995    6.3507
   29.010    5.8978
   29.025    5.7399
   29.040    6.0664
   29.055    6.0558
   29.070    5.8031
   29.085    6.0664
   29.100    5.9926
   29.115    6.0558
   29.130    6.1717
   29.145    5.9610
   29.160    5.7820
   29.175    5.7188
   29.190    6.0032
   29.205    5.7820
   29.220    6.0348
   29.235    6.0558
   29.250    6.3823
   29.265    6.1611
   29.280    6.1190
   29.295    6.4560
   29.310    6.4666
   29.325    6.7193
   29.340    6.4666
   29.355    6.3718
   29.370    6.1401
   29.385    6.2349
   29.400    6.2033
   29.415    5.8452
   29.430    5.8452
   29.445    6.1190
   29.460    5.8768
   29.475    6.0453
   29.490    6.0032
   29.505    6.1085
   29.520    5.8347
   29.535    5.5187
   29.550    5.7925
   29.565    5.9400
   29.580    5.6977
   29.595    5.7293
   29.610    5.9926
   29.625    5.5398
   29.640    5.7293
   29.655    5.6872
   29.670    5.4766
   29.685    5.3607
   29.700    5.7293
   29.715    5.7399
   29.730    5.6661
   29.745    5.9084
   29.760    5.6977
   29.775    5.7715
   29.790    5.7925
   29.805    5.8452
   29.820    5.8347
   29.835    5.8452
   29.850    6.0558
   29.865    5.6977
   29.880    6.1085
   29.895    6.0348
   29.910    5.8557
   29.925    5.9610
   29.940    5.5398
   29.955    5.7820
   29.970    6.0242
   29.985    5.6451
   30.000    5.4766
   30.015    5.7504
   30.030    5.7925
   30.045    6.0032
   30.060    5.8662
   30.075    5.8347
   30.090    5.6872
   30.105    5.7293
   30.120    5.9084
   30.135    5.5608
   30.150    5.3081
   30.165    5.5924
   30.180    5.7083
   30.195    5.6240
   30.210    5.3607
   30.225    5.5187
   30.240    5.5819
   30.255    5.6345
   30.270    5.7188
   30.285    6.0242
   30.300    5.9294
   30.315    5.7504
   30.330    5.8768
   30.345    5.6451
   30.360    5.6451
   30.375    5.5924
   30.390    5.8768
   30.405    6.0032
   30.420    5.5292
   30.435    5.4660
   30.450    5.4239
   30.465    5.5398
   30.480    5.7188
   30.495    5.5819
   30.510    5.5924
   30.525    5.8452
   30.540    5.5924
   30.555    5.4134
   30.570    6.0242
   30.585    5.5819
   30.600    5.9400
   30.615    5.7399
   30.630    5.7188
   30.645    5.6661
   30.660    5.6661
   30.675    5.6345
   30.690    5.5924
   30.705    5.5819
   30.720    5.7293
   30.735    5.7609
   30.750    5.6661
   30.765    5.9505
   30.780    6.0137
   30.795    5.7188
   30.810    5.3502
   30.825    5.5187
   30.840    5.6661
   30.855    5.7399
   30.870    5.7820
   30.885    5.8978
   30.900    5.6451
   30.915    5.5819
   30.930    5.5503
   30.945    5.6240
   30.960    5.7925
   30.975    5.6661
   30.990    5.4871
   31.005    5.4450
   31.020    5.3081
   31.035    5.2659
   31.050    5.6135
   31.065    5.4239
   31.080    5.7293
   31.095    5.2659
   31.110    5.3397
   31.125    5.2765
   31.140    5.2870
   31.155    5.5714
   31.170    5.6029
   31.185    5.4555
   31.200    5.6977
   31.215    5.6451
   31.230    5.2659
   31.245    5.2659
   31.260    5.5187
   31.275    5.6240
   31.290    5.4134
   31.305    5.5187
   31.320    5.8241
   31.335    5.5082
   31.350    5.4239
   31.365    5.9610
   31.380    5.7820
   31.395    6.1190
   31.410    5.9926
   31.425    5.9610
   31.440    5.9505
   31.455    5.6556
   31.470    5.6135
   31.485    5.7504
   31.500    5.6029
   31.515    5.5292
   31.530    5.7399
   31.545    5.1185
   31.560    5.5187
   31.575    5.9189
   31.590    5.4660
   31.605    5.5819
   31.620    5.9400
   31.635    5.5292
   31.650    5.0764
   31.665    5.3081
   31.680    5.4555
   31.695    5.6661
   31.710    5.7925
   31.725    5.6029
   31.740    5.4134
   31.755    5.7925
   31.770    5.4871
   31.785    5.7504
   31.800    5.6661
   31.815    5.4239
   31.830    5.8452
   31.845    5.8031
   31.860    5.9084
   31.875    5.6661
   31.890    5.8978
   31.905    6.1927
   31.920    5.6661
   31.935    5.5819
   31.950    5.7188
   31.965    5.8662
   31.980    5.8978
   31.995    5.7293
   32.010    5.8241
   32.025    6.0664
   32.040    5.7399
   32.055    5.7293
   32.070    6.0348
   32.085    5.5292
   32.100    5.9926
   32.115    5.7925
   32.130    5.6767
   32.145    5.9926
   32.160    6.1295
   32.175    6.2981
   32.190    6.0874
   32.205    5.8557
   32.220    5.5187
   32.235    5.6767
   32.250    5.9505
   32.265    5.4976
   32.280    5.5608
   32.295    5.3818
   32.310    5.4871
   32.325    5.1606
   32.340    5.4450
   32.355    5.7504
   32.370    5.7188
   32.385    5.5187
   32.400    5.3502
   32.415    5.3712
   32.430    5.4555
   32.445    5.5503
   32.460    5.3081
   32.475    5.3186
   32.490    5.1922
   32.505    5.3502
   32.520    5.6451
   32.535    5.3397
   32.550    5.1290
   32.565    4.8447
   32.580    5.3502
   32.595    5.2659
   32.610    5.2238
   32.625    5.1185
   32.640    5.3818
   32.655    5.3186
   32.670    5.3712
   32.685    5.4134
   32.700    5.4976
   32.715    5.2554
   32.730    5.0553
   32.745    5.2975
   32.760    5.1395
   32.775    5.4344
   32.790    5.3818
   32.805    5.6029
   32.820    5.7399
   32.835    5.8031
   32.850    5.4134
   32.865    5.5292
   32.880    5.5714
   32.895    5.3607
   32.910    5.6240
   32.925    5.3923
   32.940    5.2659
   32.955    5.5924
   32.970    5.9610
   32.985    5.6767
   33.000    5.4555
   33.015    5.5924
   33.030    5.4344
   33.045    5.5819
   33.060    5.8978
   33.075    5.4871
   33.090    5.3607
   33.105    5.2027
   33.120    5.4239
   33.135    5.3923
   33.150    5.4766
   33.165    5.2238
   33.180    5.2975
   33.195    5.1817
   33.210    5.1606
   33.225    5.3712
   33.240    5.1606
   33.255    4.9921
   33.270    5.2659
   33.285    5.1501
   33.300    5.2238
   33.315    4.7077
   33.330    4.7709
   33.345    5.2870
   33.360    5.0342
   33.375    5.1606
   33.390    5.4344
   33.405    5.1922
   33.420    4.8447
   33.435    5.0026
   33.450    5.0974
   33.465    4.9816
   33.480    5.3712
   33.495    4.9184
   33.510    5.3502
   33.525    5.0342
   33.540    4.9394
   33.555    5.2765
   33.570    5.0869
   33.585    5.3291
   33.600    5.2870
   33.615    5.3607
   33.630    5.3291
   33.645    5.4660
   33.660    5.0448
   33.675    5.2765
   33.690    5.1185
   33.705    5.4660
   33.720    5.3081
   33.735    5.4450
   33.750    5.3081
   33.765    5.6240
   33.780    5.4450
   33.795    5.4660
   33.810    5.4766
   33.825    5.1922
   33.840    5.6661
   33.855    5.8136
   33.870    5.9084
   33.885    6.0558
   33.900    6.0453
   33.915    5.9821
   33.930    5.9084
   33.945    5.8031
   33.960    5.6345
   33.975    5.6872
   33.990    5.6029
   34.005    5.4134
   34.020    4.9816
   34.035    5.2238
   34.050    5.6029
   34.065    5.4976
   34.080    5.5398
   34.095    5.3397
   34.110    4.9816
   34.125    5.1922
   34.140    5.2133
   34.155    5.4555
   34.170    5.7715
   34.185    5.1922
   34.200    5.1395
   34.215    5.4555
   34.230    5.3186
   34.245    5.0974
   34.260    4.9394
   34.275    5.2133
   34.290    5.0658
   34.305    5.1290
   34.320    4.9816
   34.335    4.9921
   34.350    5.0869
   34.365    5.2449
   34.380    5.2975
   34.395    5.0553
   34.410    5.0237
   34.425    5.0553
   34.440    5.2449
   34.455    5.0553
   34.470    4.8025
   34.485    4.8868
   34.500    4.5919
   34.515    4.9184
   34.530    5.2027
   34.545    4.9289
   34.560    5.1080
   34.575    5.1185
   34.590    5.0869
   34.605    5.0342
   34.620    5.1290
   34.635    4.8447
   34.650    4.9921
   34.665    4.9710
   34.680    4.7288
   34.695    4.8763
   34.710    4.9921
   34.725    5.1817
   34.740    4.9184
   34.755    5.0658
   34.770    5.5503
   34.785    5.1711
   34.800    5.0026
   34.815    4.8025
   34.830    4.9289
   34.845    5.3081
   34.860    5.0974
   34.875    5.3502
   34.890    4.6445
   34.905    5.0026
   34.920    5.1606
   34.935    4.9289
   34.950    5.1395
   34.965    5.1501
   34.980    5.4028
   34.995    5.0869
   35.010    5.0342
   35.025    4.9500
   35.040    4.9710
   35.055    5.0658
   35.070    4.9816
   35.085    5.2343
   35.100    4.9710
   35.115    5.0448
   35.130    4.7815
   35.145    4.8973
   35.160    5.1185
   35.175    4.8552
   35.190    4.7183
   35.205    4.9394
   35.220    4.9289
   35.235    4.6656
   35.250    5.0237
   35.265    5.0026
   35.280    4.8657
   35.295    4.7920
   35.310    4.5287
   35.325    4.6235
   35.340    4.9500
   35.355    4.5498
   35.370    5.0764
   35.385    4.8868
   35.400    5.2133
   35.415    5.1922
   35.430    5.2659
   35.445    4.7288
   35.460    4.8868
   35.475    4.9289
   35.490    4.7077
   35.505    4.9184
   35.520    4.5708
   35.535    4.9500
   35.550    5.1080
   35.565    5.2133
   35.580    4.9289
   35.595    4.9289
   35.610    4.6972
   35.625    5.1606
   35.640    4.9500
   35.655    5.1395
   35.670    5.5187
   35.685    5.1185
   35.700    5.2554
   35.715    5.5819
   35.730    5.2343
   35.745    4.9184
   35.760    4.9394
   35.775    4.7499
   35.790    4.9710
   35.805    4.8552
   35.820    4.9816
   35.835    5.3397
   35.850    4.8763
   35.865    4.7499
   35.880    4.8025
   35.895    4.6551
   35.910    4.9921
   35.925    5.0869
   35.940    4.8236
   35.955    4.7288
   35.970    4.9394
   35.985    5.1606
   36.000    5.2975
   36.015    5.1501
   36.030    5.1080
   36.045    5.2765
   36.060    4.4655
   36.075    4.7183
   36.090    5.1501
   36.105    5.0869
   36.120    4.9289
   36.135    4.9816
   36.150    4.6445
   36.165    4.7077
   36.180    4.8763
   36.195    4.9289
   36.210    4.8657
   36.225    5.2554
   36.240    5.1185
   36.255    4.9184
   36.270    5.2659
   36.285    5.2027
   36.300    5.1185
   36.315    4.4444
   36.330    4.4655
   36.345    4.6024
   36.360    4.4971
   36.375    4.3813
   36.390    4.7815
   36.405    5.0342
   36.420    4.8868
   36.435    4.7288
   36.450    4.7288
   36.465    4.9289
   36.480    4.9816
   36.495    4.8868
   36.510    4.5708
   36.525    4.7604
   36.540    4.6867
   36.555    4.9605
   36.570    4.7815
   36.585    4.8236
   36.600    5.0342
   36.615    5.0448
   36.630    4.8236
   36.645    5.1185
   36.660    5.0658
   36.675    4.7604
   36.690    4.8131
   36.705    5.0448
   36.720    4.8763
   36.735    5.0764
   36.750    4.9184
   36.765    5.1185
   36.780    5.1817
   36.795    5.0764
   36.810    5.2765
   36.825    4.9184
   36.840    4.6972
   36.855    5.3081
   36.870    4.9500
   36.885    4.7288
   36.900    4.2970
   36.915    4.4339
   36.930    4.9289
   36.945    4.9078
   36.960    4.5498
   36.975    4.5814
   36.990    4.8131
   37.005    4.8763
   37.020    4.8447
   37.035    5.0658
   37.050    5.3502
   37.065    4.9816
   37.080    4.8025
   37.095    4.9921
   37.110    5.0237
   37.125    4.8763
   37.140    5.3818
   37.155    5.0553
   37.170    4.8447
   37.185    5.0342
   37.200    5.0026
   37.215    5.0764
   37.230    4.9500
   37.245    5.0869
   37.260    4.6551
   37.275    4.7709
   37.290    4.9710
   37.305    4.3286
   37.320    4.4234
   37.335    4.6340
   37.350    4.6235
   37.365    4.2233
   37.380    4.7183
   37.395    5.1606
   37.410    4.8868
   37.425    4.7077
   37.440    4.6972
   37.455    4.7709
   37.470    4.7815
   37.485    4.6656
   37.500    4.5392
   37.515    4.7604
   37.530    4.8447
   37.545    4.7288
   37.560    5.0658
   37.575    5.0974
   37.590    4.7183
   37.605    4.7920
   37.620    4.7709
   37.635    5.0448
   37.650    5.1080
   37.665    4.6761
   37.680    4.9184
   37.695    5.0764
   37.710    4.9394
   37.725    4.6024
   37.740    4.6340
   37.755    4.5919
   37.770    4.5814
   37.785    4.9921
   37.800    5.0764
   37.815    4.8552
   37.830    4.6761
   37.845    4.7183
   37.860    4.8973
   37.875    4.5814
   37.890    4.8657
   37.905    5.0026
   37.920    5.1290
   37.935    4.9184
   37.950    4.7815
   37.965    5.0553
   37.980    5.0448
   37.995    4.9605
   38.010    4.9605
   38.025    4.5076
   38.040    4.5919
   38.055    4.7920
   38.070    4.7815
   38.085    4.7920
   38.100    4.9500
   38.115    4.9710
   38.130    4.9816
   38.145    5.0237
   38.160    4.8657
   38.175    4.5287
   38.190    4.3391
   38.205    4.6867
   38.220    4.7183
   38.235    4.6551
   38.250    4.7288
   38.265    4.6235
   38.280    4.7288
   38.295    4.7815
   38.310    5.1185
   38.325    4.6656
   38.340    4.6761
   38.355    4.8131
   38.370    4.8025
   38.385    4.8973
   38.400    4.9921
   38.415    4.7393
   38.430    4.8973
   38.445    4.8868
   38.460    4.4866
   38.475    4.4234
   38.490    4.6235
   38.505    4.6761
   38.520    4.9605
   38.535    5.1922
   38.550    4.7499
   38.565    4.5919
   38.580    4.8973
   38.595    5.0342
   38.610    4.9184
   38.625    4.5708
   38.640    4.7604
   38.655    4.5919
   38.670    4.9500
   38.685    4.6340
   38.700    4.6445
   38.715    4.8657
   38.730    5.0342
   38.745    4.8447
   38.760    4.7183
   38.775    4.6656
   38.790    4.6445
   38.805    4.5919
   38.820    4.6656
   38.835    4.8447
   38.850    4.7709
   38.865    4.7604
   38.880    4.7709
   38.895    4.6761
   38.910    4.5814
   38.925    4.8236
   38.940    4.6130
   38.955    4.7499
   38.970    4.8131
   38.985    4.7077
   39.000    4.2865
   39.015    4.5708
   39.030    4.8025
   39.045    4.4444
   39.060    4.2865
   39.075    4.5392
   39.090    4.7393
   39.105    4.8131
   39.120    5.2027
   39.135    4.6761
   39.150    4.6340
   39.165    4.8868
   39.180    4.5708
   39.195    4.4760
   39.210    4.8025
   39.225    4.8552
   39.240    4.7920
   39.255    4.8447
   39.270    4.7183
   39.285    4.8763
   39.300    4.9289
   39.315    4.6867
   39.330    4.9710
   39.345    4.8236
   39.360    4.5182
   39.375    4.4128
   39.390    4.4866
   39.405    4.4128
   39.420    4.5919
   39.435    4.7183
   39.450    4.2759
   39.465    4.5287
   39.480    4.5603
   39.495    4.3181
   39.510    4.5919
   39.525    4.7920
   39.540    4.5392
   39.555    4.6551
   39.570    4.5498
   39.585    4.7077
   39.600    4.5076
   39.615    4.5392
   39.630    4.5287
   39.645    4.4655
   39.660    4.6972
   39.675    4.6130
   39.690    4.8025
   39.705    4.8025
   39.720    4.9816
   39.735    4.8341
   39.750    4.6024
   39.765    4.5708
   39.780    4.7920
   39.795    4.6130
   39.810    4.5814
   39.825    4.5814
   39.840    4.7393
   39.855    4.6656
   39.870    4.6130
   39.885    4.6972
   39.900    4.5287
   39.915    4.3391
   39.930    4.8447
   39.945    4.7288
   39.960    4.5392
   39.975    4.5919
   39.990    4.6024
