    1.500    9.4892
    1.515    9.7736
    1.530    9.1943
    1.545    9.0679
    1.560    9.1838
    1.575    8.9310
    1.590    8.4150
    1.605    8.3518
    1.620    8.3834
    1.635    8.4887
    1.650    8.4044
    1.665    8.5203
    1.680    8.4887
    1.695    8.0147
    1.710    7.6356
    1.725    7.5513
    1.740    7.5303
    1.755    7.3407
    1.770    7.5619
    1.785    7.6145
    1.800    6.9510
    1.815    6.9616
    1.830    7.2670
    1.845    7.1301
    1.860    7.1090
    1.875    7.1301
    1.890    6.8562
    1.905    6.7825
    1.920    6.5613
    1.935    6.5508
    1.950    6.3086
    1.965    6.8878
    1.980    7.1301
    1.995    6.7299
    2.010    6.7299
    2.025    6.7404
    2.040    6.4876
    2.055    6.1401
    2.070    6.1927
    2.085    6.0874
    2.100    6.0664
    2.115    6.2559
    2.130    6.2665
    2.145    5.9610
    2.160    6.1295
    2.175    6.4666
    2.190    6.4876
    2.205    6.1401
    2.220    5.9505
    2.235    5.5924
    2.250    6.0769
    2.265    6.0242
    2.280    6.0137
    2.295    6.0769
    2.310    6.3296
    2.325    6.2875
    2.340    6.0453
    2.355    5.8347
    2.370    5.7399
    2.385    5.9189
    2.400    6.0558
    2.415    6.3612
    2.430    6.3402
    2.445    6.3402
    2.460    5.8978
    2.475    5.9926
    2.490    6.0874
    2.505    5.7293
    2.520    6.0453
    2.535    6.1295
    2.550    5.9716
    2.565    5.7820
    2.580    6.1822
    2.595    5.6345
    2.610    5.8347
    2.625    6.2559
    2.640    5.7820
    2.655    6.0979
    2.670    6.0242
    2.685    6.1085
    2.700    6.3823
    2.715    6.3086
    2.730    6.6983
    2.745    6.0979
    2.760    6.4244
    2.775    6.1611
    2.790    6.5192
    2.805    6.6456
    2.820    6.6983
    2.835    6.3928
    2.850    6.3612
    2.865    6.3928
    2.880    6.3296
    2.895    6.9616
    2.910    7.1511
    2.925    6.7720
    2.940    6.5298
    2.955    6.7615
    2.970    6.4455
    2.985    6.5929
    3.000    7.1617
    3.015    7.0248
    3.030    7.2459
    3.045    7.4882
    3.060    7.3196
    3.075    7.3618
    3.090    7.5303
    3.105    7.2775
    3.120    7.3302
    3.135    7.7514
    3.150    7.6461
    3.165    8.0358
    3.180    8.4255
    3.195    8.2043
    3.210    8.1727
    3.225    8.5308
    3.240    9.1101
    3.255    8.7730
    3.270    9.2048
    3.285    9.0574
    3.300    9.2575
    3.315    9.6682
    3.330    9.9421
    3.345   10.2686
    3.360   10.6266
    3.375   10.4687
    3.390   10.3423
    3.405   11.3007
    3.420   11.4165
    3.435   11.7325
    3.450   12.0379
    3.465   12.1748
    3.480   11.8378
    3.495   13.2280
    3.510   13.2807
    3.525   13.7651
    3.540   13.5861
    3.555   13.0068
    3.570   13.6177
    3.585   13.9021
    3.600   13.6914
    3.615   13.4387
    3.630   13.3228
    3.645   13.6704
    3.660   12.4171
    3.675   12.0590
    3.690   11.5429
    3.705   11.6272
    3.720   10.7004
    3.735   10.5319
    3.750   10.0263
    3.765   10.0895
    3.780    9.5419
    3.795    9.8578
    3.810    9.3839
    3.825    9.4260
    3.840    8.7730
    3.855    8.9521
    3.870    8.5308
    3.885    8.8362
    3.900    8.9942
    3.915    8.3939
    3.930    8.2149
    3.945    7.6251
    3.960    7.8568
    3.975    7.9831
    3.990    7.6777
    4.005    7.7725
    4.020    7.3618
    4.035    7.2986
    4.050    7.6145
    4.065    7.4987
    4.080    7.2038
    4.095    7.0985
    4.110    7.2670
    4.125    7.2880
    4.140    7.0669
    4.155    7.3934
    4.170    7.0985
    4.185    6.8457
    4.200    6.7299
    4.215    6.5929
    4.230    6.7615
    4.245    6.4350
    4.260    6.8246
    4.275    6.7509
    4.290    6.7193
    4.305    6.8562
    4.320    6.6456
    4.335    6.8668
    4.350    6.8773
    4.365    6.3402
    4.380    6.4560
    4.395    6.5087
    4.410    6.6772
    4.425    6.7720
    4.440    6.4982
    4.455    6.4455
    4.470    6.5929
    4.485    6.6561
    4.500    6.6351
    4.515    6.2770
    4.530    6.2454
    4.545    6.3612
    4.560    5.7820
    4.575    6.1085
    4.590    6.5929
    4.605    6.4139
    4.620    6.3928
    4.635    6.8036
    4.650    6.4350
    4.665    6.4771
    4.680    6.4560
    4.695    6.3823
    4.710    6.6561
    4.725    6.5403
    4.740    6.2770
    4.755    6.7720
    4.770    6.8562
    4.785    6.5403
    4.800    6.4982
    4.815    6.5403
    4.830    6.4982
    4.845    6.4244
    4.860    6.2349
    4.875    6.3402
    4.890    6.1611
    4.905    6.8141
    4.920    6.4139
    4.935    6.6456
    4.950    6.7615
    4.965    6.5192
    4.980    6.4666
    4.995    6.9405
    5.010    6.6877
    5.025    6.6245
    5.040    6.8562
    5.055    6.1190
    5.070    6.4244
    5.085    6.4244
    5.100    6.2243
    5.115    6.3402
    5.130    6.7509
    5.145    6.4034
    5.160    6.0558
    5.175    6.1927
    5.190    6.2559
    5.205    6.4350
    5.220    6.2349
    5.235    6.4455
    5.250    6.2665
    5.265    6.1822
    5.280    6.2033
    5.295    6.1085
    5.310    6.5192
    5.325    6.3928
    5.340    6.2770
    5.355    6.7088
    5.370    6.5298
    5.385    6.4560
    5.400    6.9089
    5.415    6.1401
    5.430    6.0137
    5.445    5.7609
    5.460    6.4771
    5.475    6.6351
    5.490    6.2981
    5.505    6.3191
    5.520    6.1401
    5.535    6.1401
    5.550    6.1717
    5.565    6.4560
    5.580    6.3402
    5.595    6.3507
    5.610    6.3718
    5.625    6.3402
    5.640    6.2243
    5.655    6.2349
    5.670    6.0979
    5.685    5.6872
    5.700    5.6451
    5.715    6.0242
    5.730    5.7820
    5.745    5.7293
    5.760    5.9294
    5.775    5.9716
    5.790    5.7609
    5.805    5.9294
    5.820    5.5819
    5.835    5.4871
    5.850    5.7609
    5.865    5.6556
    5.880    5.6240
    5.895    5.7293
    5.910    5.3923
    5.925    5.4134
    5.940    5.3607
    5.955    5.7083
    5.970    5.4871
    5.985    5.4766
    6.000    5.6767
    6.015    5.4976
    6.030    5.1290
    6.045    5.4344
    6.060    5.2765
    6.075    5.0026
    6.090    5.2659
    6.105    5.3712
    6.120    5.4976
    6.135    5.0869
    6.150    5.1711
    6.165    5.3607
    6.180    4.8763
    6.195    4.9710
    6.210    4.9921
    6.225    5.0974
    6.240    5.1501
    6.255    5.0448
    6.270    5.0658
    6.285    5.1395
    6.300    5.0658
    6.315    4.9289
    6.330    5.0869
    6.345    4.8236
    6.360    4.8973
    6.375    5.0658
    6.390    4.9500
    6.405    5.2238
    6.420    5.0553
    6.435    5.1501
    6.450    4.7815
    6.465    5.2449
    6.480    5.1711
    6.495    4.8657
    6.510    5.0658
    6.525    4.8763
    6.540    5.2554
    6.555    5.5398
    6.570    4.9921
    6.585    4.9078
    6.600    4.9816
    6.615    5.0237
    6.630    5.2238
    6.645    5.0026
    6.660    5.0764
    6.675    4.8447
    6.690    5.0237
    6.705    5.1501
    6.720    4.9710
    6.735    5.0974
    6.750    5.4239
    6.765    5.4871
    6.780    5.1080
    6.795    5.1606
    6.810    5.5082
    6.825    5.3502
    6.840    5.3291
    6.855    5.2975
    6.870    5.6135
    6.885    5.2449
    6.900    5.6345
    6.915    5.7715
    6.930    5.6029
    6.945    5.5503
    6.960    5.6977
    6.975    5.5819
    6.990    5.6661
    7.005    5.9400
    7.020    6.0874
    7.035    5.8662
    7.050    6.0242
    7.065    5.9084
    7.080    6.3086
    7.095    6.3507
    7.110    6.0874
    7.125    5.8662
    7.140    6.0137
    7.155    6.2665
    7.170    5.9716
    7.185    6.1927
    7.200    6.2243
    7.215    5.9084
    7.230    5.5924
    7.245    6.2770
    7.260    5.8768
    7.275    5.7399
    7.290    5.6135
    7.305    5.7188
    7.320    5.6240
    7.335    5.4976
    7.350    5.6029
    7.365    5.6977
    7.380    5.2027
    7.395    5.1185
    7.410    5.1922
    7.425    5.0237
    7.440    4.9921
    7.455    4.8657
    7.470    4.9921
    7.485    4.9605
    7.500    4.6445
    7.515    4.6235
    7.530    4.4444
    7.545    4.4971
    7.560    4.6551
    7.575    4.4023
    7.590    4.9078
    7.605    4.5919
    7.620    4.5708
    7.635    4.5919
    7.650    4.1917
    7.665    4.3813
    7.680    4.4234
    7.695    4.2233
    7.710    4.2338
    7.725    4.2233
    7.740    4.3075
    7.755    4.3497
    7.770    4.1180
    7.785    4.3286
    7.800    4.4234
    7.815    4.4971
    7.830    4.1390
    7.845    3.9600
    7.860    4.0126
    7.875    3.8757
    7.890    3.9284
    7.905    4.1811
    7.920    4.0653
    7.935    4.0653
    7.950    3.8547
    7.965    3.8020
    7.980    3.8652
    7.995    3.8125
    8.010    4.3497
    8.025    4.2865
    8.040    4.1706
    8.055    4.0337
    8.070    3.9705
    8.085    3.8336
    8.100    4.1601
    8.115    4.1601
    8.130    3.8863
    8.145    3.9284
    8.160    4.1180
    8.175    4.1285
    8.190    3.7388
    8.205    4.0548
    8.220    3.6651
    8.235    3.5703
    8.250    3.9389
    8.265    3.9600
    8.280    3.8547
    8.295    3.6967
    8.310    3.6440
    8.325    3.7283
    8.340    3.6651
    8.355    3.7704
    8.370    3.4860
    8.385    3.6546
    8.400    4.0864
    8.415    3.8231
    8.430    3.9494
    8.445    3.5282
    8.460    3.8441
    8.475    3.7915
    8.490    3.7072
    8.505    3.6756
    8.520    3.7283
    8.535    3.8020
    8.550    3.7388
    8.565    3.5282
    8.580    3.4650
    8.595    3.6862
    8.610    3.9389
    8.625    3.6230
    8.640    3.7388
    8.655    3.6124
    8.670    4.0021
    8.685    4.0021
    8.700    3.6230
    8.715    3.6862
    8.730    3.6862
    8.745    3.4650
    8.760    3.4755
    8.775    3.8336
    8.790    4.0021
    8.805    3.7704
    8.820    3.8547
    8.835    3.9389
    8.850    3.4860
    8.865    3.9073
    8.880    3.6756
    8.895    3.5703
    8.910    3.5808
    8.925    3.6440
    8.940    3.4439
    8.955    3.9916
    8.970    3.6967
    8.985    3.6440
    9.000    3.5387
    9.015    3.2122
    9.030    3.5703
    9.045    3.7072
    9.060    3.7704
    9.075    3.6440
    9.090    3.4334
    9.105    3.3281
    9.120    3.6230
    9.135    3.5387
    9.150    3.3597
    9.165    3.3913
    9.180    3.4018
    9.195    3.7915
    9.210    3.8863
    9.225    3.6967
    9.240    3.3491
    9.255    3.4966
    9.270    3.1912
    9.285    3.6019
    9.300    3.7493
    9.315    3.7388
    9.330    3.5598
    9.345    3.3070
    9.360    3.4334
    9.375    3.3281
    9.390    3.5387
    9.405    3.5914
    9.420    3.8020
    9.435    3.3913
    9.450    3.4439
    9.465    3.3807
    9.480    3.5492
    9.495    3.6440
    9.510    3.7072
    9.525    3.5071
    9.540    3.4544
    9.555    3.7599
    9.570    3.2122
    9.585    3.4439
    9.600    3.4544
    9.615    3.4966
    9.630    3.7177
    9.645    3.5703
    9.660    3.6756
    9.675    3.5071
    9.690    3.4439
    9.705    3.7177
    9.720    3.5492
    9.735    3.7283
    9.750    3.7704
    9.765    3.7072
    9.780    3.7809
    9.795    3.4755
    9.810    3.6230
    9.825    3.3386
    9.840    3.5071
    9.855    3.7493
    9.870    3.7493
    9.885    3.7177
    9.900    3.5703
    9.915    3.7599
    9.930    3.4544
    9.945    3.6862
    9.960    3.4229
    9.975    3.6124
    9.990    3.5387
   10.005    3.6230
   10.020    3.4650
   10.035    3.8125
   10.050    3.5703
   10.065    3.8125
   10.080    3.5492
   10.095    3.7704
   10.110    3.8125
   10.125    3.4966
   10.140    3.2438
   10.155    3.3807
   10.170    3.4966
   10.185    3.4018
   10.200    3.4334
   10.215    3.5176
   10.230    3.6019
   10.245    3.4650
   10.260    3.5176
   10.275    3.4860
   10.290    3.6230
   10.305    3.6124
   10.320    3.7809
   10.335    3.4018
   10.350    3.7177
   10.365    3.5176
   10.380    3.6440
   10.395    3.7493
   10.410    3.6862
   10.425    3.5598
   10.440    3.3807
   10.455    3.5282
   10.470    3.6862
   10.485    3.5914
   10.500    3.2438
   10.515    3.3702
   10.530    3.5914
   10.545    3.6967
   10.560    3.8336
   10.575    3.7177
   10.590    3.6651
   10.605    3.8336
   10.620    3.7283
   10.635    3.4860
   10.650    3.5071
   10.665    3.6756
   10.680    3.7809
   10.695    3.2859
   10.710    3.5492
   10.725    4.0337
   10.740    3.6651
   10.755    3.6651
   10.770    3.4650
   10.785    3.5914
   10.800    3.6440
   10.815    3.6651
   10.830    3.7388
   10.845    3.7283
   10.860    3.4229
   10.875    3.7177
   10.890    3.5914
   10.905    3.7704
   10.920    4.0021
   10.935    3.6862
   10.950    3.5492
   10.965    3.5282
   10.980    3.9600
   10.995    3.8441
   11.010    4.0337
   11.025    3.6335
   11.040    3.4123
   11.055    3.7915
   11.070    3.7072
   11.085    3.7599
   11.100    3.6230
   11.115    3.4755
   11.130    3.5282
   11.145    3.5176
   11.160    3.5914
   11.175    3.9284
   11.190    3.6124
   11.205    3.8231
   11.220    3.7283
   11.235    3.7493
   11.250    4.1811
   11.265    3.7493
   11.280    3.6862
   11.295    4.0337
   11.310    3.6019
   11.325    3.6124
   11.340    3.5071
   11.355    3.6440
   11.370    3.6440
   11.385    3.6756
   11.400    3.9389
   11.415    3.6019
   11.430    3.7704
   11.445    3.5492
   11.460    3.7915
   11.475    3.7283
   11.490    3.4439
   11.505    3.6651
   11.520    3.6651
   11.535    3.6230
   11.550    3.6756
   11.565    4.0337
   11.580    3.8231
   11.595    3.7177
   11.610    3.7072
   11.625    3.9284
   11.640    3.7283
   11.655    3.7493
   11.670    3.8757
   11.685    3.9073
   11.700    3.6651
   11.715    3.4229
   11.730    3.5808
   11.745    3.8020
   11.760    3.7704
   11.775    3.8231
   11.790    3.7283
   11.805    3.3807
   11.820    3.8652
   11.835    3.7809
   11.850    3.5492
   11.865    3.5808
   11.880    3.6019
   11.895    3.6546
   11.910    3.8441
   11.925    3.5598
   11.940    3.3386
   11.955    3.7493
   11.970    3.5703
   11.985    3.5282
   12.000    3.8441
   12.015    3.9284
   12.030    3.9179
   12.045    3.7177
   12.060    3.6862
   12.075    3.5703
   12.090    3.6230
   12.105    3.6019
   12.120    3.6124
   12.135    3.4860
   12.150    3.4544
   12.165    3.7493
   12.180    3.3491
   12.195    3.5598
   12.210    3.6019
   12.225    3.6756
   12.240    3.6440
   12.255    3.4650
   12.270    3.7388
   12.285    3.6546
   12.300    3.3281
   12.315    3.5703
   12.330    3.5387
   12.345    3.6862
   12.360    3.6230
   12.375    3.6651
   12.390    3.5703
   12.405    3.5282
   12.420    3.4123
   12.435    3.8336
   12.450    3.5598
   12.465    3.4018
   12.480    3.9179
   12.495    3.5914
   12.510    3.5914
   12.525    3.7072
   12.540    3.6651
   12.555    3.5387
   12.570    3.3597
   12.585    3.6440
   12.600    3.7388
   12.615    3.4018
   12.630    3.6019
   12.645    3.6230
   12.660    3.5387
   12.675    3.4439
   12.690    3.3491
   12.705    3.7704
   12.720    3.5598
   12.735    3.4123
   12.750    3.2965
   12.765    3.5914
   12.780    3.6019
   12.795    3.7177
   12.810    3.8231
   12.825    3.5387
   12.840    3.2649
   12.855    3.4544
   12.870    3.4439
   12.885    3.4123
   12.900    3.3807
   12.915    3.5282
   12.930    3.5176
   12.945    3.3597
   12.960    3.2543
   12.975    3.1806
   12.990    3.1596
   13.005    3.4229
   13.020    3.2543
   13.035    3.4229
   13.050    3.5282
   13.065    3.4229
   13.080    3.3702
   13.095    3.3597
   13.110    3.4229
   13.125    3.5387
   13.140    3.7177
   13.155    3.6124
   13.170    3.4544
   13.185    3.4966
   13.200    3.5492
   13.215    3.4860
   13.230    3.5808
   13.245    3.4544
   13.260    3.3386
   13.275    3.4123
   13.290    3.4439
   13.305    3.1701
   13.320    3.5808
   13.335    3.4755
   13.350    3.6756
   13.365    3.6019
   13.380    3.6124
   13.395    3.2543
   13.410    3.3807
   13.425    3.5703
   13.440    3.4650
   13.455    3.3597
   13.470    3.4439
   13.485    3.2333
   13.500    3.3807
   13.515    3.3597
   13.530    3.3597
   13.545    3.5703
   13.560    3.5598
   13.575    3.4229
   13.590    3.3702
   13.605    3.4860
   13.620    3.4439
   13.635    3.4544
   13.650    3.5176
   13.665    3.6019
   13.680    3.4439
   13.695    3.3913
   13.710    3.3702
   13.725    3.3807
   13.740    3.3386
   13.755    3.4229
   13.770    3.2122
   13.785    3.2122
   13.800    3.4860
   13.815    3.4123
   13.830    3.3702
   13.845    3.3913
   13.860    3.4860
   13.875    3.9916
   13.890    3.6440
   13.905    3.7493
   13.920    3.5176
   13.935    3.5914
   13.950    3.3281
   13.965    3.7388
   13.980    3.7072
   13.995    3.5492
   14.010    3.6335
   14.025    3.8125
   14.040    3.6756
   14.055    3.4018
   14.070    3.2543
   14.085    3.7072
   14.100    3.5914
   14.115    3.8231
   14.130    3.7072
   14.145    3.4860
   14.160    3.3386
   14.175    3.3386
   14.190    3.4544
   14.205    3.5071
   14.220    3.6862
   14.235    3.6651
   14.250    3.6756
   14.265    3.7704
   14.280    3.5914
   14.295    3.3175
   14.310    3.6440
   14.325    3.6967
   14.340    3.6756
   14.355    3.5914
   14.370    3.3807
   14.385    3.6230
   14.400    3.4018
   14.415    3.6124
   14.430    3.6967
   14.445    3.3386
   14.460    3.3070
   14.475    3.9179
   14.490    3.7704
   14.505    3.5703
   14.520    3.4123
   14.535    3.7388
   14.550    3.7493
   14.565    3.7809
   14.580    3.6967
   14.595    4.0969
   14.610    3.6756
   14.625    3.7072
   14.640    3.7283
   14.655    3.6651
   14.670    3.5808
   14.685    3.9073
   14.700    3.6124
   14.715    3.4860
   14.730    3.4334
   14.745    3.7072
   14.760    3.5914
   14.775    3.5176
   14.790    3.3281
   14.805    3.4650
   14.820    3.4966
   14.835    3.3070
   14.850    3.5492
   14.865    3.7177
   14.880    3.7388
   14.895    3.6756
   14.910    3.5914
   14.925    3.5071
   14.940    3.7599
   14.955    3.5914
   14.970    3.6124
   14.985    3.4860
   15.000    3.3175
   15.015    3.4439
   15.030    3.6440
   15.045    3.6019
   15.060    3.5071
   15.075    3.3281
   15.090    3.4229
   15.105    3.5282
   15.120    3.9389
   15.135    3.8547
   15.150    3.7493
   15.165    3.3386
   15.180    3.5387
   15.195    3.4229
   15.210    3.5914
   15.225    3.5492
   15.240    3.4018
   15.255    3.6124
   15.270    3.6440
   15.285    3.5914
   15.300    3.5914
   15.315    3.4334
   15.330    3.5598
   15.345    3.6335
   15.360    3.3597
   15.375    3.8020
   15.390    3.9389
   15.405    3.6651
   15.420    3.5914
   15.435    3.3281
   15.450    3.3913
   15.465    3.2438
   15.480    3.3702
   15.495    3.4966
   15.510    3.6335
   15.525    3.6546
   15.540    3.4544
   15.555    3.5808
   15.570    3.5598
   15.585    3.4018
   15.600    3.6230
   15.615    3.6019
   15.630    3.4966
   15.645    3.4544
   15.660    3.6230
   15.675    3.8231
   15.690    3.5914
   15.705    3.5387
   15.720    3.5914
   15.735    3.4650
   15.750    3.5387
   15.765    3.6019
   15.780    3.5808
   15.795    3.5387
   15.810    3.7072
   15.825    3.5598
   15.840    3.3913
   15.855    3.5703
   15.870    3.7809
   15.885    3.7072
   15.900    3.4229
   15.915    3.4018
   15.930    3.6230
   15.945    3.8547
   15.960    3.7072
   15.975    3.7809
   15.990    3.6440
   16.005    3.6124
   16.020    3.6440
   16.035    3.5808
   16.050    3.5387
   16.065    3.8757
   16.080    3.6124
   16.095    3.4439
   16.110    3.7177
   16.125    3.6651
   16.140    3.7599
   16.155    3.7915
   16.170    3.4755
   16.185    3.8020
   16.200    3.7704
   16.215    3.6019
   16.230    3.7599
   16.245    3.5914
   16.260    3.7809
   16.275    3.4018
   16.290    3.7177
   16.305    3.8125
   16.320    3.9494
   16.335    3.6862
   16.350    3.6967
   16.365    3.6230
   16.380    3.7493
   16.395    3.5703
   16.410    3.6019
   16.425    3.4439
   16.440    3.8336
   16.455    4.0126
   16.470    3.7072
   16.485    3.5071
   16.500    3.4544
   16.515    3.4755
   16.530    3.7915
   16.545    3.7599
   16.560    3.7177
   16.575    3.8336
   16.590    3.4755
   16.605    3.6651
   16.620    3.6862
   16.635    3.6967
   16.650    3.7809
   16.665    3.8757
   16.680    3.6335
   16.695    3.7599
   16.710    3.4650
   16.725    3.4544
   16.740    3.4860
   16.755    3.8231
   16.770    3.7493
   16.785    3.5914
   16.800    3.9600
   16.815    3.9600
   16.830    4.0548
   16.845    3.8231
   16.860    3.5071
   16.875    3.6335
   16.890    3.8441
   16.905    3.8231
   16.920    3.7915
   16.935    3.5492
   16.950    3.5598
   16.965    3.5703
   16.980    3.7388
   16.995    3.8020
   17.010    3.7704
   17.025    4.0232
   17.040    3.8441
   17.055    3.5492
   17.070    3.5808
   17.085    3.4123
   17.100    3.5914
   17.115    3.8020
   17.130    3.5598
   17.145    3.8652
   17.160    3.5914
   17.175    3.3702
   17.190    3.5598
   17.205    3.7809
   17.220    3.7704
   17.235    4.0548
   17.250    3.7177
   17.265    3.7704
   17.280    3.7809
   17.295    3.7809
   17.310    3.6651
   17.325    3.4755
   17.340    3.7072
   17.355    3.8020
   17.370    3.8125
   17.385    3.8125
   17.400    3.6862
   17.415    3.8336
   17.430    4.0126
   17.445    3.6967
   17.460    3.5914
   17.475    3.6967
   17.490    3.7072
   17.505    3.7915
   17.520    3.8863
   17.535    4.0864
   17.550    3.8863
   17.565    4.0232
   17.580    3.8020
   17.595    3.9073
   17.610    3.8547
   17.625    3.9916
   17.640    4.1601
   17.655    3.7704
   17.670    4.1180
   17.685    4.0864
   17.700    4.0337
   17.715    3.6651
   17.730    4.0442
   17.745    4.2654
   17.760    3.9810
   17.775    3.9284
   17.790    3.8231
   17.805    3.9073
   17.820    3.8547
   17.835    4.1074
   17.850    4.0758
   17.865    4.4550
   17.880    4.2127
   17.895    4.0126
   17.910    4.2233
   17.925    4.0969
   17.940    4.0232
   17.955    4.0021
   17.970    4.2443
   17.985    3.9073
   18.000    4.1601
   18.015    4.0548
   18.030    3.9916
   18.045    3.8757
   18.060    4.1285
   18.075    4.2443
   18.090    4.2865
   18.105    4.0337
   18.120    4.0442
   18.135    4.3707
   18.150    4.6551
   18.165    4.0126
   18.180    4.0864
   18.195    4.4655
   18.210    4.1390
   18.225    4.3707
   18.240    4.5603
   18.255    4.3813
   18.270    4.3075
   18.285    4.3075
   18.300    4.0864
   18.315    3.9810
   18.330    4.0653
   18.345    3.9705
   18.360    4.0758
   18.375    3.8441
   18.390    4.0442
   18.405    4.1390
   18.420    4.2233
   18.435    4.0653
   18.450    4.0232
   18.465    4.2549
   18.480    4.1390
   18.495    4.2022
   18.510    4.2338
   18.525    4.6972
   18.540    4.1917
   18.555    4.1601
   18.570    4.1706
   18.585    4.2233
   18.600    4.3707
   18.615    4.2443
   18.630    4.4760
   18.645    4.2233
   18.660    4.1074
   18.675    4.2233
   18.690    4.1811
   18.705    4.1180
   18.720    4.0969
   18.735    4.3918
   18.750    4.7709
   18.765    4.5708
   18.780    4.2127
   18.795    4.1180
   18.810    4.1706
   18.825    4.3286
   18.840    4.3813
   18.855    4.2970
   18.870    4.5392
   18.885    4.1601
   18.900    4.3286
   18.915    4.3918
   18.930    4.3391
   18.945    4.2127
   18.960    4.4550
   18.975    4.6761
   18.990    4.5603
   19.005    4.1285
   19.020    4.0548
   19.035    4.3075
   19.050    4.3813
   19.065    4.5392
   19.080    4.2970
   19.095    4.2970
   19.110    4.3813
   19.125    4.3286
   19.140    4.2127
   19.155    3.8441
   19.170    3.9389
   19.185    4.2338
   19.200    4.2022
   19.215    3.9810
   19.230    4.1706
   19.245    4.3707
   19.260    4.3286
   19.275    4.3391
   19.290    4.1706
   19.305    4.3497
   19.320    4.1180
   19.335    4.5498
   19.350    4.4760
   19.365    4.0969
   19.380    4.1811
   19.395    4.0653
   19.410    4.1706
   19.425    4.2022
   19.440    4.2022
   19.455    4.3075
   19.470    4.2654
   19.485    4.4866
   19.500    3.9705
   19.515    4.0653
   19.530    3.9494
   19.545    3.8968
   19.560    4.2022
   19.575    4.3075
   19.590    4.0653
   19.605    4.2127
   19.620    4.0864
   19.635    3.8441
   19.650    4.0232
   19.665    3.9600
   19.680    3.7915
   19.695    3.8968
   19.710    3.8652
   19.725    3.9705
   19.740    4.1180
   19.755    4.0442
   19.770    3.9389
   19.785    4.1285
   19.800    3.9284
   19.815    4.0232
   19.830    4.0548
   19.845    4.0021
   19.860    3.7283
   19.875    3.7704
   19.890    3.9494
   19.905    4.0126
   19.920    4.2338
   19.935    3.7177
   19.950    4.1285
   19.965    3.9600
   19.980    3.9073
   19.995    4.0126
   20.010    3.9494
   20.025    3.8547
   20.040    4.0337
   20.055    4.4023
   20.070    4.1811
   20.085    3.8652
   20.100    3.6967
   20.115    4.1811
   20.130    4.0442
   20.145    4.2338
   20.160    4.1180
   20.175    4.0021
   20.190    4.0126
   20.205    3.9705
   20.220    4.1285
   20.235    4.2338
   20.250    3.9284
   20.265    4.0442
   20.280    4.1496
   20.295    3.9284
   20.310    3.8968
   20.325    3.9284
   20.340    3.9810
   20.355    3.8863
   20.370    4.0337
   20.385    4.0442
   20.400    3.9284
   20.415    3.8020
   20.430    3.8125
   20.445    3.8020
   20.460    3.8547
   20.475    3.7493
   20.490    3.8336
   20.505    4.2865
   20.520    4.2338
   20.535    4.0969
   20.550    3.9600
   20.565    3.9810
   20.580    4.0548
   20.595    3.7599
   20.610    4.0442
   20.625    4.2338
   20.640    4.0337
   20.655    3.9810
   20.670    4.1496
   20.685    4.3286
   20.700    4.1811
   20.715    4.2654
   20.730    4.2549
   20.745    4.2022
   20.760    3.8020
   20.775    3.6546
   20.790    4.1074
   20.805    3.9600
   20.820    3.7177
   20.835    3.7072
   20.850    3.9284
   20.865    3.8125
   20.880    3.9073
   20.895    3.8231
   20.910    3.8336
   20.925    3.9810
   20.940    4.1601
   20.955    4.3813
   20.970    4.1601
   20.985    4.0126
   21.000    4.0232
   21.015    4.1601
   21.030    4.2549
   21.045    4.1074
   21.060    4.0969
   21.075    3.8336
   21.090    4.0758
   21.105    3.9179
   21.120    4.0232
   21.135    3.8231
   21.150    4.1706
   21.165    3.8968
   21.180    3.6862
   21.195    3.8441
   21.210    3.9073
   21.225    3.9810
   21.240    3.8231
   21.255    4.2654
   21.270    4.1180
   21.285    4.0442
   21.300    3.8441
   21.315    3.8652
   21.330    3.9810
   21.345    4.3707
   21.360    4.3707
   21.375    4.3391
   21.390    4.0864
   21.405    4.2654
   21.420    4.0864
   21.435    4.0969
   21.450    4.2970
   21.465    3.9284
   21.480    3.7493
   21.495    3.9810
   21.510    3.9494
   21.525    4.0864
   21.540    4.1706
   21.555    4.0758
   21.570    4.3813
   21.585    4.0337
   21.600    3.9494
   21.615    4.0969
   21.630    4.0653
   21.645    4.1917
   21.660    4.2654
   21.675    4.1496
   21.690    4.1074
   21.705    4.4023
   21.720    4.0442
   21.735    4.1601
   21.750    3.9284
   21.765    3.8547
   21.780    3.9179
   21.795    4.0021
   21.810    3.9810
   21.825    3.8757
   21.840    4.1074
   21.855    3.9600
   21.870    3.9284
   21.885    4.0232
   21.900    4.0548
   21.915    4.2654
   21.930    4.0126
   21.945    3.9494
   21.960    3.8336
   21.975    4.3286
   21.990    4.2654
   22.005    4.1811
   22.020    4.0548
   22.035    4.3813
   22.050    4.1811
   22.065    4.1811
   22.080    4.2338
   22.095    3.9705
   22.110    3.9600
   22.125    4.1180
   22.140    3.9494
   22.155    4.1285
   22.170    4.2759
   22.185    3.9705
   22.200    4.2443
   22.215    4.0337
   22.230    4.1917
   22.245    3.9494
   22.260    3.8336
   22.275    3.9179
   22.290    4.1074
   22.305    4.1706
   22.320    3.8231
   22.335    3.6230
   22.350    4.0126
   22.365    4.2233
   22.380    4.1706
   22.395    4.2549
   22.410    4.1601
   22.425    4.1180
   22.440    3.8757
   22.455    4.2338
   22.470    3.8441
   22.485    3.9916
   22.500    4.1074
   22.515    3.9284
   22.530    4.2022
   22.545    4.0758
   22.560    4.0337
   22.575    3.7177
   22.590    4.0021
   22.605    3.7177
   22.620    3.8863
   22.635    4.0653
   22.650    3.9073
   22.665    4.1917
   22.680    3.8652
   22.695    3.7915
   22.710    4.1811
   22.725    4.0758
   22.740    3.9600
   22.755    4.2549
   22.770    4.1285
   22.785    4.0337
   22.800    4.0969
   22.815    4.0021
   22.830    3.9810
   22.845    3.8441
   22.860    4.2127
   22.875    4.1917
   22.890    4.0758
   22.905    3.9600
   22.920    4.1180
   22.935    4.1074
   22.950    4.0653
   22.965    3.7177
   22.980    3.8757
   22.995    4.0758
   23.010    3.9810
   23.025    4.0442
   23.040    4.0232
   23.055    3.8441
   23.070    4.1390
   23.085    4.2338
   23.100    4.1285
   23.115    4.1180
   23.130    4.0653
   23.145    4.1180
   23.160    4.0864
   23.175    4.1811
   23.190    4.1285
   23.205    3.9600
   23.220    3.7072
   23.235    4.0864
   23.250    3.9073
   23.265    3.7177
   23.280    4.1180
   23.295    3.9600
   23.310    4.0442
   23.325    3.9389
   23.340    3.8757
   23.355    3.8441
   23.370    3.8125
   23.385    4.0969
   23.400    3.7388
   23.415    3.9389
   23.430    4.2127
   23.445    4.1601
   23.460    3.9494
   23.475    3.8547
   23.490    3.7915
   23.505    3.8020
   23.520    4.2338
   23.535    4.0864
   23.550    4.0969
   23.565    4.0442
   23.580    4.1811
   23.595    4.0337
   23.610    4.2970
   23.625    4.0442
   23.640    4.1496
   23.655    3.9810
   23.670    3.9600
   23.685    3.7283
   23.700    3.9389
   23.715    3.9705
   23.730    3.6756
   23.745    3.8652
   23.760    3.9916
   23.775    4.1601
   23.790    4.0021
   23.805    3.9810
   23.820    4.0126
   23.835    4.1390
   23.850    3.9600
   23.865    3.8125
   23.880    3.8441
   23.895    3.6124
   23.910    4.1180
   23.925    4.0337
   23.940    3.8968
   23.955    3.8863
   23.970    3.8231
   23.985    3.6651
   24.000    3.6546
   24.015    3.8125
   24.030    4.0758
   24.045    3.5914
   24.060    3.6756
   24.075    3.9705
   24.090    4.0969
   24.105    3.8441
   24.120    3.8125
   24.135    3.9705
   24.150    3.6967
   24.165    3.6546
   24.180    4.1285
   24.195    3.9389
   24.210    4.0021
   24.225    3.9073
   24.240    3.6756
   24.255    3.8125
   24.270    3.9389
   24.285    3.7283
   24.300    3.8968
   24.315    3.8125
   24.330    4.1811
   24.345    3.6967
   24.360    3.7388
   24.375    3.9073
   24.390    3.9916
   24.405    3.9600
   24.420    3.8125
   24.435    3.9494
   24.450    4.0548
   24.465    4.0442
   24.480    3.8441
   24.495    3.9494
   24.510    3.9600
   24.525    3.8968
   24.540    3.7388
   24.555    3.6440
   24.570    3.5703
   24.585    3.7283
   24.600    3.8757
   24.615    4.0442
   24.630    3.8968
   24.645    3.9705
   24.660    3.9073
   24.675    3.9389
   24.690    3.9600
   24.705    3.6862
   24.720    3.9073
   24.735    3.6019
   24.750    3.8863
   24.765    3.8231
   24.780    3.8231
   24.795    3.5176
   24.810    3.7283
   24.825    3.6756
   24.840    3.7704
   24.855    3.5914
   24.870    3.5071
   24.885    3.7704
   24.900    3.8863
   24.915    3.6124
   24.930    3.6862
   24.945    3.5492
   24.960    3.7072
   24.975    3.6019
   24.990    3.7809
   25.005    3.8547
   25.020    3.6335
   25.035    3.6440
   25.050    3.8020
   25.065    3.7915
   25.080    3.5598
   25.095    3.4439
   25.110    3.9073
   25.125    3.9389
   25.140    3.7915
   25.155    3.9284
   25.170    3.7704
   25.185    4.0442
   25.200    3.8757
   25.215    3.7493
   25.230    3.9284
   25.245    3.6019
   25.260    3.3597
   25.275    3.6124
   25.290    3.7177
   25.305    3.8336
   25.320    3.8020
   25.335    3.8757
   25.350    3.9179
   25.365    3.8547
   25.380    3.4966
   25.395    3.4860
   25.410    3.8125
   25.425    3.5492
   25.440    3.6019
   25.455    3.7915
   25.470    3.5492
   25.485    3.6230
   25.500    3.6862
   25.515    3.6124
   25.530    3.6440
   25.545    3.6440
   25.560    3.7283
   25.575    3.3175
   25.590    3.4439
   25.605    3.6651
   25.620    3.5176
   25.635    3.4334
   25.650    3.6335
   25.665    3.8757
   25.680    3.8020
   25.695    3.7072
   25.710    3.7177
   25.725    3.6756
   25.740    3.4860
   25.755    3.5914
   25.770    3.4018
   25.785    3.6230
   25.800    3.3597
   25.815    3.7283
   25.830    3.3281
   25.845    3.4966
   25.860    3.5387
   25.875    3.6967
   25.890    3.5282
   25.905    3.4544
   25.920    3.5598
   25.935    3.5703
   25.950    3.4018
   25.965    3.6019
   25.980    3.7388
   25.995    3.5282
   26.010    3.7704
   26.025    3.6756
   26.040    3.3913
   26.055    3.4439
   26.070    3.5808
   26.085    3.4755
   26.100    3.2965
   26.115    3.1596
   26.130    3.3175
   26.145    3.5914
   26.160    3.1912
   26.175    3.4650
   26.190    3.6756
   26.205    3.4018
   26.220    3.4966
   26.235    3.4229
   26.250    3.5282
   26.265    3.5703
   26.280    3.3807
   26.295    3.3070
   26.310    3.2543
   26.325    3.2333
   26.340    3.3070
   26.355    3.4544
   26.370    3.4650
   26.385    3.4123
   26.400    3.2649
   26.415    3.2965
   26.430    3.6440
   26.445    3.4123
   26.460    3.7809
   26.475    3.6651
   26.490    3.4123
   26.505    3.4860
   26.520    3.3386
   26.535    3.3807
   26.550    3.3913
   26.565    3.2438
   26.580    3.4123
   26.595    3.3807
   26.610    3.4334
   26.625    3.4334
   26.640    3.5176
   26.655    3.5387
   26.670    3.4860
   26.685    3.1701
   26.700    3.2438
   26.715    3.5071
   26.730    3.4018
   26.745    3.1912
   26.760    3.2017
   26.775    3.2227
   26.790    3.2438
   26.805    3.3070
   26.820    3.1912
   26.835    3.2754
   26.850    3.2227
   26.865    2.7593
   26.880    2.9173
   26.895    3.1069
   26.910    3.3807
   26.925    3.1596
   26.940    3.1596
   26.955    3.3070
   26.970    3.2859
   26.985    3.1385
   27.000    2.9595
   27.015    3.2965
   27.030    3.2333
   27.045    3.3386
   27.060    3.1912
   27.075    3.1490
   27.090    3.0332
   27.105    3.2965
   27.120    3.0858
   27.135    3.0964
   27.150    3.2333
   27.165    3.2859
   27.180    2.8647
   27.195    3.2227
   27.210    3.1490
   27.225    3.2122
   27.240    3.4544
   27.255    3.3070
   27.270    3.3597
   27.285    3.2333
   27.300    3.2227
   27.315    3.0437
   27.330    3.0542
   27.345    3.5387
   27.360    3.1385
   27.375    3.0858
   27.390    3.1490
   27.405    3.2859
   27.420    3.3702
   27.435    3.0332
   27.450    3.1596
   27.465    3.0542
   27.480    3.0964
   27.495    3.0332
   27.510    3.2859
   27.525    3.3597
   27.540    3.1174
   27.555    2.8331
   27.570    3.0753
   27.585    3.3597
   27.600    3.0226
   27.615    3.0542
   27.630    3.2438
   27.645    3.1385
   27.660    2.9489
   27.675    3.2754
   27.690    2.9068
   27.705    2.8120
   27.720    3.1912
   27.735    3.0648
   27.750    3.0753
   27.765    2.9489
   27.780    3.0437
   27.795    3.2438
   27.810    3.0437
   27.825    2.9910
   27.840    2.9595
   27.855    2.8963
   27.870    3.1174
   27.885    3.1806
   27.900    2.9595
   27.915    3.1912
   27.930    3.2965
   27.945    3.2649
   27.960    3.2438
   27.975    3.0016
   27.990    2.8331
   28.005    3.0437
   28.020    3.2017
   28.035    3.2333
   28.050    3.0226
   28.065    3.0964
   28.080    3.0332
   28.095    2.9595
   28.110    2.8436
   28.125    2.6856
   28.140    3.0121
   28.155    3.1806
   28.170    3.2017
   28.185    3.3175
   28.200    2.8541
   28.215    2.8752
   28.230    3.0964
   28.245    2.7909
   28.260    2.8857
   28.275    2.9805
   28.290    3.0332
   28.305    3.0226
   28.320    3.4018
   28.335    3.1174
   28.350    2.9173
   28.365    2.9700
   28.380    3.1806
   28.395    3.0226
   28.410    2.7804
   28.425    3.0332
   28.440    3.0437
   28.455    2.8647
   28.470    2.9910
   28.485    2.9068
   28.500    2.7278
   28.515    3.0542
   28.530    2.8436
   28.545    3.0226
   28.560    2.8331
   28.575    2.7593
   28.590    2.8225
   28.605    2.8752
   28.620    3.0858
   28.635    2.9595
   28.650    3.0858
   28.665    3.0437
   28.680    2.8963
   28.695    3.0542
   28.710    3.1280
   28.725    3.2438
   28.740    2.9279
   28.755    3.0226
   28.770    2.9910
   28.785    3.0648
   28.800    2.9068
   28.815    2.8647
   28.830    2.8541
   28.845    3.0648
   28.860    2.7172
   28.875    3.2333
   28.890    3.0332
   28.905    3.0648
   28.920    2.9279
   28.935    2.9805
   28.950    3.0016
   28.965    2.8225
   28.980    2.6646
   28.995    2.7383
   29.010    2.9700
   29.025    2.8331
   29.040    2.8857
   29.055    3.0858
   29.070    2.8541
   29.085    2.8857
   29.100    2.8647
   29.115    2.7909
   29.130    3.0858
   29.145    3.0437
   29.160    2.8015
   29.175    3.2543
   29.190    2.5698
   29.205    2.8857
   29.220    3.0648
   29.235    2.9595
   29.250    2.7593
   29.265    2.7172
   29.280    2.5487
   29.295    2.7488
   29.310    2.9068
   29.325    2.6856
   29.340    2.8647
   29.355    2.8752
   29.370    2.9595
   29.385    2.8752
   29.400    3.0332
   29.415    3.1280
   29.430    2.8857
   29.445    2.8225
   29.460    2.9068
   29.475    2.9068
   29.490    2.6751
   29.505    2.7172
   29.520    2.8963
   29.535    2.8963
   29.550    2.7699
   29.565    2.8015
   29.580    3.0121
   29.595    2.8857
   29.610    2.8857
   29.625    2.7804
   29.640    2.9068
   29.655    2.9068
   29.670    2.8436
   29.685    3.0121
   29.700    2.6751
   29.715    2.6856
   29.730    3.1385
   29.745    2.8752
   29.760    2.9279
   29.775    2.8331
   29.790    2.5276
   29.805    2.7172
   29.820    2.6856
   29.835    2.5908
   29.850    2.7488
   29.865    2.8120
   29.880    2.6962
   29.895    2.8857
   29.910    2.7172
   29.925    2.8436
   29.940    2.5382
   29.955    2.6962
   29.970    2.6014
   29.985    2.7909
   30.000    2.8647
   30.015    2.8647
   30.030    2.5803
   30.045    2.7383
   30.060    2.7172
   30.075    2.8963
   30.090    2.8752
   30.105    2.8857
   30.120    2.8225
   30.135    2.5171
   30.150    2.8225
   30.165    2.9384
   30.180    2.8120
   30.195    2.6856
   30.210    2.6751
   30.225    2.6751
   30.240    2.6014
   30.255    2.4434
   30.270    2.6751
   30.285    2.7699
   30.300    2.8331
   30.315    2.9384
   30.330    2.9068
   30.345    2.7383
   30.360    2.9173
   30.375    2.6646
   30.390    2.4223
   30.405    2.7067
   30.420    2.4750
   30.435    2.6540
   30.450    2.7804
   30.465    2.6014
   30.480    2.5698
   30.495    2.5698
   30.510    2.4645
   30.525    2.7278
   30.540    2.6540
   30.555    2.7067
   30.570    2.7488
   30.585    2.4961
   30.600    2.7593
   30.615    2.6224
   30.630    2.4223
   30.645    2.4750
   30.660    2.7383
   30.675    2.7278
   30.690    2.6646
   30.705    2.9068
   30.720    2.8436
   30.735    2.8120
   30.750    2.5066
   30.765    2.8015
   30.780    2.7699
   30.795    2.7067
   30.810    2.5487
   30.825    2.8120
   30.840    2.8225
   30.855    2.7172
   30.870    2.5066
   30.885    2.6646
   30.900    2.6856
   30.915    2.6119
   30.930    2.6330
   30.945    2.1485
   30.960    2.5803
   30.975    2.6014
   30.990    2.4118
   31.005    2.5066
   31.020    2.8436
   31.035    2.4750
   31.050    2.7383
   31.065    2.4855
   31.080    2.4329
   31.095    2.5276
   31.110    2.5171
   31.125    2.5803
   31.140    2.8015
   31.155    2.6646
   31.170    2.3697
   31.185    2.5803
   31.200    2.3170
   31.215    2.3591
   31.230    2.4855
   31.245    2.4539
   31.260    2.2749
   31.275    2.5698
   31.290    2.8541
   31.305    2.6119
   31.320    2.6119
   31.335    2.3591
   31.350    2.4750
   31.365    2.6540
   31.380    2.5803
   31.395    2.6014
   31.410    2.3170
   31.425    2.4855
   31.440    2.5592
   31.455    2.4434
   31.470    2.6540
   31.485    2.3802
   31.500    2.3065
   31.515    2.3275
   31.530    2.2643
   31.545    2.6014
   31.560    2.3591
   31.575    2.4539
   31.590    2.4750
   31.605    2.5276
   31.620    2.4013
   31.635    2.5803
   31.650    2.4539
   31.665    2.3802
   31.680    2.4118
   31.695    2.6014
   31.710    2.4750
   31.725    2.5276
   31.740    2.5066
   31.755    2.3802
   31.770    2.5171
   31.785    2.6224
   31.800    2.4750
   31.815    2.4329
   31.830    2.2854
   31.845    2.5908
   31.860    2.1801
   31.875    2.5382
   31.890    2.4961
   31.905    2.2959
   31.920    2.3697
   31.935    2.4329
   31.950    2.4013
   31.965    2.5171
   31.980    2.4118
   31.995    2.1380
   32.010    2.4223
   32.025    2.3697
   32.040    2.4539
   32.055    2.4434
   32.070    2.2959
   32.085    2.2538
   32.100    2.3802
   32.115    2.4118
   32.130    2.1380
   32.145    2.2222
   32.160    2.2328
   32.175    2.0537
   32.190    2.4013
   32.205    2.6014
   32.220    2.3065
   32.235    2.2117
   32.250    2.3591
   32.265    2.2538
   32.280    2.3486
   32.295    2.2222
   32.310    2.3697
   32.325    2.4645
   32.340    2.3065
   32.355    2.2643
   32.370    2.1485
   32.385    2.3697
   32.400    2.3802
   32.415    2.3170
   32.430    2.2328
   32.445    2.1485
   32.460    2.1590
   32.475    2.2538
   32.490    2.3065
   32.505    2.4855
   32.520    2.3170
   32.535    2.4223
   32.550    2.3591
   32.565    2.2012
   32.580    2.2328
   32.595    2.4013
   32.610    2.3275
   32.625    2.1906
   32.640    2.1274
   32.655    2.2643
   32.670    2.1485
   32.685    2.2643
   32.700    2.1801
   32.715    2.1696
   32.730    2.4118
   32.745    2.2012
   32.760    2.2012
   32.775    2.1590
   32.790    1.9589
   32.805    2.2012
   32.820    2.1696
   32.835    2.1380
   32.850    2.1169
   32.865    2.0642
   32.880    2.2012
   32.895    2.0326
   32.910    2.0537
   32.925    2.3170
   32.940    2.4329
   32.955    1.9800
   32.970    1.9800
   32.985    1.9379
   33.000    2.0326
   33.015    2.1906
   33.030    2.0748
   33.045    2.1485
   33.060    2.1696
   33.075    2.1380
   33.090    2.1274
   33.105    2.0221
   33.120    2.0642
   33.135    2.0221
   33.150    2.0326
   33.165    2.0116
   33.180    1.9063
   33.195    2.1380
   33.210    2.2854
   33.225    2.2117
   33.240    2.1906
   33.255    2.1169
   33.270    2.2328
   33.285    2.3381
   33.300    2.1696
   33.315    2.2012
   33.330    2.2117
   33.345    2.1064
   33.360    2.1064
   33.375    2.0748
   33.390    2.2222
   33.405    2.1696
   33.420    2.3170
   33.435    2.1696
   33.450    2.0642
   33.465    2.0116
   33.480    2.2328
   33.495    2.1380
   33.510    2.4013
   33.525    2.4329
   33.540    2.2222
   33.555    2.2012
   33.570    2.2222
   33.585    2.1274
   33.600    2.1696
   33.615    2.1380
   33.630    2.1064
   33.645    2.3275
   33.660    2.0748
   33.675    2.1064
   33.690    2.0326
   33.705    2.1274
   33.720    2.0537
   33.735    2.1801
   33.750    2.1485
   33.765    2.1906
   33.780    2.1485
   33.795    2.1906
   33.810    2.2749
   33.825    2.1064
   33.840    2.0642
   33.855    1.9379
   33.870    1.8747
   33.885    2.0748
   33.900    1.9589
   33.915    1.8957
   33.930    1.9695
   33.945    2.0432
   33.960    2.0011
   33.975    2.0011
   33.990    1.9589
   34.005    2.0221
   34.020    2.1380
   34.035    2.0748
   34.050    2.0116
   34.065    1.9168
   34.080    1.7588
   34.095    1.9273
   34.110    1.9695
   34.125    1.9379
   34.140    2.1696
   34.155    1.9800
   34.170    2.0432
   34.185    1.9063
   34.200    1.8220
   34.215    2.0011
   34.230    2.0958
   34.245    1.9695
   34.260    2.0537
   34.275    1.9168
   34.290    1.8009
   34.305    1.9695
   34.320    1.7799
   34.335    1.8747
   34.350    1.8747
   34.365    2.1274
   34.380    1.8325
   34.395    1.8220
   34.410    2.0221
   34.425    2.1380
   34.440    1.8536
   34.455    1.6640
   34.470    1.8009
   34.485    2.0011
   34.500    2.0221
   34.515    2.0748
   34.530    2.0642
   34.545    2.0116
   34.560    2.0011
   34.575    2.2222
   34.590    1.8431
   34.605    1.8536
   34.620    1.9063
   34.635    1.6324
   34.650    1.8220
   34.665    1.9379
   34.680    1.8852
   34.695    1.9379
   34.710    1.8009
   34.725    2.0642
   34.740    1.9589
   34.755    1.8536
   34.770    1.7904
   34.785    1.9800
   34.800    1.8431
   34.815    1.9484
   34.830    1.8009
   34.845    1.8009
   34.860    1.8115
   34.875    1.9379
   34.890    1.7799
   34.905    1.6535
   34.920    1.8220
   34.935    1.9168
   34.950    1.8431
   34.965    1.7799
   34.980    1.8957
   34.995    1.8852
   35.010    1.8220
   35.025    1.9800
   35.040    1.7904
   35.055    1.8641
   35.070    1.8220
   35.085    1.9273
   35.100    1.7167
   35.115    1.9905
   35.130    2.1380
   35.145    1.8325
   35.160    1.6851
   35.175    1.6640
   35.190    1.8009
   35.205    1.7483
   35.220    1.8325
   35.235    1.6324
   35.250    1.8325
   35.265    1.6851
   35.280    1.8536
   35.295    1.7588
   35.310    1.7799
   35.325    1.8747
   35.340    1.7167
   35.355    1.6746
   35.370    1.7799
   35.385    1.7062
   35.400    1.5798
   35.415    1.7483
   35.430    1.9695
   35.445    1.7062
   35.460    1.7272
   35.475    1.7378
   35.490    1.7483
   35.505    1.7272
   35.520    1.8009
   35.535    1.7588
   35.550    1.7694
   35.565    1.5271
   35.580    1.6430
   35.595    1.7272
   35.610    1.8431
   35.625    1.8747
   35.640    1.8009
   35.655    1.8009
   35.670    1.8009
   35.685    1.8957
   35.700    1.7167
   35.715    1.7378
   35.730    1.7167
   35.745    1.7483
   35.760    1.8641
   35.775    1.8220
   35.790    1.6430
   35.805    1.6324
   35.820    1.8536
   35.835    1.5587
   35.850    1.6640
   35.865    1.6535
   35.880    1.7062
   35.895    1.7167
   35.910    1.7483
   35.925    1.5798
   35.940    1.6535
   35.955    1.8325
   35.970    1.7588
   35.985    1.6640
   36.000    1.7799
   36.015    1.8009
   36.030    1.6640
   36.045    1.6956
   36.060    1.7904
   36.075    1.8536
   36.090    1.5377
   36.105    1.7272
   36.120    1.8009
   36.135    1.6956
   36.150    1.5587
   36.165    1.6746
   36.180    1.4639
   36.195    1.4639
   36.210    1.5166
   36.225    1.7378
   36.240    1.8009
   36.255    1.8220
   36.270    1.5271
   36.285    1.7167
   36.300    1.9800
   36.315    1.6851
   36.330    1.4639
   36.345    1.6851
   36.360    1.7483
   36.375    1.7483
   36.390    1.7904
   36.405    1.5377
   36.420    1.5166
   36.435    1.5271
   36.450    1.6640
   36.465    1.6114
   36.480    1.7062
   36.495    1.6746
   36.510    1.6956
   36.525    1.4639
   36.540    1.5587
   36.555    1.7272
   36.570    1.5692
   36.585    1.6324
   36.600    1.5903
   36.615    1.4534
   36.630    1.5271
   36.645    1.6851
   36.660    1.8009
   36.675    1.6324
   36.690    1.7062
   36.705    1.5166
   36.720    1.4745
   36.735    1.4955
   36.750    1.5166
   36.765    1.3797
   36.780    1.6746
   36.795    1.6430
   36.810    1.6430
   36.825    1.5903
   36.840    1.8220
   36.855    1.8220
   36.870    1.5903
   36.885    1.6008
   36.900    1.6851
   36.915    1.6746
   36.930    1.7588
   36.945    1.6535
   36.960    1.6008
   36.975    1.6219
   36.990    1.6008
   37.005    1.5798
   37.020    1.6430
   37.035    1.4429
   37.050    1.6640
   37.065    1.5903
   37.080    1.8431
   37.095    1.7062
   37.110    1.5482
   37.125    1.5798
   37.140    1.6324
   37.155    1.6008
   37.170    1.7588
   37.185    1.4218
   37.200    1.7378
   37.215    1.5482
   37.230    1.4955
   37.245    1.5798
   37.260    1.5482
   37.275    1.4113
   37.290    1.3375
   37.305    1.4113
   37.320    1.4323
   37.335    1.4429
   37.350    1.6640
   37.365    1.6008
   37.380    1.4955
   37.395    1.4745
   37.410    1.3902
   37.425    1.3481
   37.440    1.5271
   37.455    1.5587
   37.470    1.7062
   37.485    1.3902
   37.500    1.4955
   37.515    1.5482
   37.530    1.7272
   37.545    1.5377
   37.560    1.5587
   37.575    1.4534
   37.590    1.3691
   37.605    1.4007
   37.620    1.4113
   37.635    1.4113
   37.650    1.4534
   37.665    1.5692
   37.680    1.4745
   37.695    1.6008
   37.710    1.5377
   37.725    1.5377
   37.740    1.4429
   37.755    1.4429
   37.770    1.4955
   37.785    1.6640
   37.800    1.6851
   37.815    1.5587
   37.830    1.7272
   37.845    1.5587
   37.860    1.4955
   37.875    1.6324
   37.890    1.6008
   37.905    1.4429
   37.920    1.5903
   37.935    1.6114
   37.950    1.4323
   37.965    1.6430
   37.980    1.7062
   37.995    1.5482
   38.010    1.4639
   38.025    1.4007
   38.040    1.4850
   38.055    1.4850
   38.070    1.6114
   38.085    1.5271
   38.100    1.3375
   38.115    1.4323
   38.130    1.4534
   38.145    1.3586
   38.160    1.3165
   38.175    1.3797
   38.190    1.4955
   38.205    1.3691
   38.220    1.3060
   38.235    1.4218
   38.250    1.4113
   38.265    1.5377
   38.280    1.4639
   38.295    1.5692
   38.310    1.4534
   38.325    1.4639
   38.340    1.5061
   38.355    1.5166
   38.370    1.4639
   38.385    1.4745
   38.400    1.4323
   38.415    1.5061
   38.430    1.5377
   38.445    1.5482
   38.460    1.4955
   38.475    1.6535
   38.490    1.6746
   38.505    1.5587
   38.520    1.4534
   38.535    1.4113
   38.550    1.6114
   38.565    1.3902
   38.580    1.4007
   38.595    1.3902
   38.610    1.2006
   38.625    1.4429
   38.640    1.7378
   38.655    1.4534
   38.670    1.4534
   38.685    1.4007
   38.700    1.4113
   38.715    1.3165
   38.730    1.3902
   38.745    1.5061
   38.760    1.4534
   38.775    1.4534
   38.790    1.5271
   38.805    1.3165
   38.820    1.4534
   38.835    1.4113
   38.850    1.5587
   38.865    1.4007
   38.880    1.2217
   38.895    1.4113
   38.910    1.4955
   38.925    1.4429
   38.940    1.4850
   38.955    1.4534
   38.970    1.4113
   38.985    1.5166
   39.000    1.4534
   39.015    1.5377
   39.030    1.4850
   39.045    1.3586
   39.060    1.3902
   39.075    1.4113
   39.090    1.4429
   39.105    1.3691
   39.120    1.3797
   39.135    1.4534
   39.150    1.3902
   39.165    1.5061
   39.180    1.4113
   39.195    1.4007
   39.210    1.2638
   39.225    1.3902
   39.240    1.4113
   39.255    1.3481
   39.270    1.3165
   39.285    1.4007
   39.300    1.6008
   39.315    1.4429
   39.330    1.4323
   39.345    1.3586
   39.360    1.3797
   39.375    1.4007
   39.390    1.3586
   39.405    1.2006
   39.420    1.4113
   39.435    1.2744
   39.450    1.4007
   39.465    1.3165
   39.480    1.3060
   39.495    1.3375
   39.510    1.4850
   39.525    1.3270
   39.540    1.4007
   39.555    1.3481
   39.570    1.3691
   39.585    1.4113
   39.600    1.4745
   39.615    1.4534
   39.630    1.4429
   39.645    1.3797
   39.660    1.3060
   39.675    1.4113
   39.690    1.4007
   39.705    1.4323
   39.720    1.4323
   39.735    1.3902
   39.750    1.2638
   39.765    1.4218
   39.780    1.4218
   39.795    1.3060
   39.810    1.3270
   39.825    1.3691
   39.840    1.3060
   39.855    1.4113
   39.870    1.3691
   39.885    1.3691
   39.900    1.3797
   39.915    1.3797
   39.930    1.3481
   39.945    1.4429
   39.960    1.4850
   39.975    1.3691
   39.990    1.2849
