    1.500   16.3454
    1.515   16.2191
    1.530   16.4824
    1.545   16.3770
    1.560   16.1348
    1.575   15.8083
    1.590   15.8820
    1.605   15.4502
    1.620   14.9342
    1.635   15.2080
    1.650   15.4713
    1.665   15.1764
    1.680   15.0606
    1.695   14.6814
    1.710   14.7551
    1.725   14.7235
    1.740   14.6814
    1.755   15.0500
    1.770   14.8078
    1.785   14.8289
    1.800   15.2080
    1.815   14.6814
    1.830   13.7862
    1.845   13.8599
    1.860   14.0284
    1.875   14.0179
    1.890   13.6809
    1.905   13.9126
    1.920   13.5650
    1.935   12.7330
    1.950   13.0384
    1.965   13.2596
    1.980   13.0595
    1.995   13.0174
    2.010   12.6804
    2.025   12.6593
    2.040   12.4908
    2.055   12.3328
    2.070   12.7330
    2.085   12.5434
    2.100   12.3223
    2.115   12.3433
    2.130   12.4381
    2.145   12.1011
    2.160   12.5118
    2.175   12.3433
    2.190   12.0590
    2.205   12.3539
    2.220   12.0274
    2.235   11.9747
    2.250   12.3855
    2.265   11.9115
    2.280   11.3217
    2.295   11.5850
    2.310   11.6693
    2.325   11.5745
    2.340   11.6482
    2.355   11.2586
    2.370   10.9953
    2.385   11.0795
    2.400   11.1743
    2.415   11.5113
    2.430   11.2691
    2.445   11.1216
    2.460   11.2270
    2.475   10.7530
    2.490   10.8689
    2.505   10.9215
    2.520   10.7636
    2.535   11.3639
    2.550   11.2270
    2.565   11.0058
    2.580   11.3007
    2.595   10.7741
    2.610   10.8478
    2.625   10.3633
    2.640   10.5635
    2.655   11.0585
    2.670   10.8162
    2.685   10.2791
    2.700   10.5424
    2.715   10.7109
    2.730   10.8794
    2.745   11.1111
    2.760   10.2475
    2.775    9.7525
    2.790   10.2580
    2.805   10.1948
    2.820   10.8689
    2.835   10.7109
    2.850   10.4055
    2.865    9.9315
    2.880   10.4476
    2.895   10.7530
    2.910   10.1106
    2.925   10.4687
    2.940    9.9210
    2.955    9.9842
    2.970   10.3739
    2.985   10.5740
    3.000    9.7630
    3.015    9.8789
    3.030    9.9421
    3.045   10.3318
    3.060   10.0790
    3.075   10.3844
    3.090    9.8473
    3.105   10.1843
    3.120   10.4160
    3.135   10.2370
    3.150   10.3844
    3.165   10.2264
    3.180    9.9947
    3.195   10.8162
    3.210   10.6477
    3.225   10.2580
    3.240   10.7425
    3.255   10.7109
    3.270   10.5213
    3.285   10.6582
    3.300   10.3844
    3.315   10.9110
    3.330   10.9953
    3.345   10.7530
    3.360   10.8057
    3.375   11.3428
    3.390   11.3428
    3.405   11.5534
    3.420   11.5745
    3.435   12.2696
    3.450   11.7852
    3.465   11.6588
    3.480   11.4271
    3.495   10.8583
    3.510   11.1216
    3.525   10.8268
    3.540   10.3212
    3.555   10.1843
    3.570    9.5840
    3.585    9.4365
    3.600    9.8473
    3.615   10.1632
    3.630    9.8789
    3.645    9.1522
    3.660    9.2996
    3.675    9.2786
    3.690    9.6261
    3.705    8.9205
    3.720    9.0047
    3.735    8.6256
    3.750    8.9100
    3.765    9.2891
    3.780    9.0363
    3.795    8.8257
    3.810    9.1943
    3.825    8.9731
    3.840    9.0363
    3.855    8.5413
    3.870    8.9626
    3.885    9.1101
    3.900    8.8362
    3.915    8.8784
    3.930    9.1522
    3.945    8.9626
    3.960    8.6256
    3.975    9.1943
    3.990    9.2680
    4.005    8.7730
    4.020    8.7520
    4.035    9.3944
    4.050    9.0785
    4.065    8.9310
    4.080    8.7520
    4.095    8.7520
    4.110    8.9731
    4.125    9.0574
    4.140    8.3728
    4.155    8.5940
    4.170    8.8362
    4.185    8.8152
    4.200    8.4360
    4.215    7.9831
    4.230    7.7093
    4.245    8.0253
    4.260    8.0147
    4.275    8.2464
    4.290    7.6777
    4.305    7.6567
    4.320    7.3618
    4.335    7.4671
    4.350    7.7409
    4.365    7.1933
    4.380    7.2775
    4.395    6.9089
    4.410    7.2670
    4.425    7.3091
    4.440    7.2986
    4.455    7.6567
    4.470    7.3512
    4.485    7.5829
    4.500    7.4776
    4.515    7.5619
    4.530    7.5408
    4.545    6.9616
    4.560    7.3196
    4.575    7.5619
    4.590    7.2354
    4.605    7.2459
    4.620    7.0248
    4.635    7.4039
    4.650    6.8352
    4.665    6.9616
    4.680    7.2459
    4.695    6.9300
    4.710    6.9616
    4.725    6.9300
    4.740    7.2354
    4.755    6.9510
    4.770    7.0879
    4.785    7.0879
    4.800    6.9616
    4.815    6.9194
    4.830    7.5408
    4.845    7.1827
    4.860    6.8246
    4.875    7.0248
    4.890    6.6140
    4.905    6.5298
    4.920    7.0142
    4.935    6.9405
    4.950    7.2459
    4.965    6.8878
    4.980    6.5824
    4.995    6.2559
    5.010    6.5192
    5.025    6.8352
    5.040    7.3302
    5.055    6.3823
    5.070    6.5613
    5.085    6.9405
    5.100    6.6561
    5.115    6.9089
    5.130    7.0248
    5.145    6.9089
    5.160    6.4666
    5.175    6.4244
    5.190    6.3823
    5.205    6.7404
    5.220    6.4350
    5.235    6.2349
    5.250    6.3086
    5.265    7.0563
    5.280    6.6983
    5.295    6.3612
    5.310    6.5298
    5.325    6.8141
    5.340    6.0664
    5.355    6.2981
    5.370    6.9194
    5.385    6.6772
    5.400    6.4034
    5.415    6.2454
    5.430    6.3718
    5.445    6.2243
    5.460    6.1085
    5.475    6.2981
    5.490    6.2454
    5.505    6.4034
    5.520    6.4139
    5.535    6.3718
    5.550    6.3612
    5.565    6.6667
    5.580    6.3718
    5.595    6.5087
    5.610    6.3823
    5.625    6.2981
    5.640    6.5192
    5.655    6.3612
    5.670    6.1717
    5.685    6.3928
    5.700    6.3191
    5.715    6.0558
    5.730    6.1190
    5.745    6.2349
    5.760    5.8768
    5.775    6.0348
    5.790    6.2349
    5.805    6.3191
    5.820    6.2770
    5.835    6.1401
    5.850    6.3612
    5.865    6.3191
    5.880    6.4982
    5.895    6.3718
    5.910    6.2559
    5.925    6.4034
    5.940    6.1822
    5.955    6.3928
    5.970    6.2875
    5.985    6.4455
    6.000    5.8873
    6.015    6.4034
    6.030    6.5508
    6.045    6.4666
    6.060    6.5719
    6.075    5.8978
    6.090    5.7715
    6.105    6.2349
    6.120    6.7404
    6.135    6.4455
    6.150    6.4982
    6.165    6.1506
    6.180    6.3191
    6.195    6.5613
    6.210    6.1717
    6.225    5.9716
    6.240    6.0137
    6.255    6.4771
    6.270    6.3507
    6.285    6.3402
    6.300    6.0664
    6.315    6.5613
    6.330    6.4034
    6.345    6.2559
    6.360    5.8662
    6.375    6.5613
    6.390    6.2349
    6.405    6.1717
    6.420    6.0664
    6.435    5.8978
    6.450    6.0242
    6.465    6.1190
    6.480    6.4560
    6.495    6.3928
    6.510    6.2138
    6.525    6.4244
    6.540    6.4771
    6.555    6.1295
    6.570    6.1190
    6.585    6.2981
    6.600    6.4982
    6.615    6.5929
    6.630    6.2033
    6.645    6.2559
    6.660    6.1717
    6.675    6.0137
    6.690    6.4139
    6.705    6.0979
    6.720    6.3928
    6.735    6.2981
    6.750    6.2243
    6.765    6.3507
    6.780    6.4560
    6.795    6.3718
    6.810    6.5298
    6.825    6.6772
    6.840    6.5719
    6.855    6.4876
    6.870    6.6456
    6.885    6.5824
    6.900    6.6140
    6.915    6.2875
    6.930    6.5298
    6.945    6.3086
    6.960    6.4455
    6.975    6.7615
    6.990    6.4244
    7.005    6.3086
    7.020    6.0979
    7.035    6.6983
    7.050    6.6351
    7.065    6.2875
    7.080    6.3402
    7.095    6.3823
    7.110    6.4666
    7.125    6.3191
    7.140    6.2770
    7.155    6.4560
    7.170    6.2875
    7.185    6.3191
    7.200    6.3296
    7.215    6.3718
    7.230    6.3612
    7.245    6.5929
    7.260    6.7088
    7.275    6.3086
    7.290    6.4244
    7.305    6.4139
    7.320    6.3928
    7.335    6.5719
    7.350    6.3296
    7.365    6.4455
    7.380    6.5719
    7.395    6.8457
    7.410    6.2875
    7.425    6.3191
    7.440    6.5824
    7.455    6.7088
    7.470    6.3718
    7.485    6.1401
    7.500    6.3507
    7.515    6.2559
    7.530    6.4666
    7.545    6.5192
    7.560    6.2454
    7.575    6.2243
    7.590    6.7509
    7.605    6.7193
    7.620    6.6561
    7.635    6.7509
    7.650    6.4139
    7.665    6.4666
    7.680    6.8246
    7.695    7.0353
    7.710    6.6772
    7.725    6.3823
    7.740    6.6561
    7.755    6.3612
    7.770    6.7088
    7.785    6.4455
    7.800    6.0664
    7.815    6.3718
    7.830    6.6456
    7.845    6.6561
    7.860    6.6035
    7.875    6.6772
    7.890    6.7720
    7.905    6.3928
    7.920    6.5087
    7.935    6.5719
    7.950    6.6983
    7.965    6.4982
    7.980    6.5192
    7.995    6.7404
    8.010    6.7299
    8.025    6.7404
    8.040    6.5824
    8.055    6.4982
    8.070    6.6245
    8.085    6.5508
    8.100    6.6667
    8.115    6.5403
    8.130    6.3612
    8.145    6.4139
    8.160    6.8562
    8.175    7.0248
    8.190    6.2875
    8.205    6.4666
    8.220    6.4771
    8.235    6.7404
    8.250    6.8984
    8.265    7.1722
    8.280    6.5613
    8.295    6.6877
    8.310    6.6245
    8.325    6.6456
    8.340    6.3612
    8.355    6.7404
    8.370    6.8036
    8.385    6.6561
    8.400    6.4876
    8.415    6.5508
    8.430    7.0248
    8.445    6.5613
    8.460    6.7193
    8.475    6.5403
    8.490    6.5192
    8.505    6.4560
    8.520    6.8457
    8.535    6.4139
    8.550    6.6667
    8.565    6.5613
    8.580    6.5824
    8.595    6.5613
    8.610    6.5613
    8.625    6.3718
    8.640    6.6351
    8.655    6.4876
    8.670    6.2981
    8.685    6.3296
    8.700    6.3823
    8.715    6.5613
    8.730    6.7825
    8.745    6.5298
    8.760    6.7193
    8.775    6.5613
    8.790    6.7193
    8.805    6.5192
    8.820    6.5719
    8.835    6.6456
    8.850    6.4876
    8.865    6.6456
    8.880    6.9510
    8.895    6.7088
    8.910    6.7509
    8.925    6.8141
    8.940    6.6561
    8.955    6.4350
    8.970    6.6351
    8.985    6.6561
    9.000    6.4034
    9.015    6.3086
    9.030    6.4771
    9.045    6.5403
    9.060    6.3191
    9.075    6.6561
    9.090    6.7615
    9.105    6.9616
    9.120    6.2770
    9.135    6.3402
    9.150    6.7088
    9.165    6.5508
    9.180    6.6772
    9.195    6.7720
    9.210    6.5087
    9.225    6.7509
    9.240    6.5824
    9.255    6.6667
    9.270    6.7404
    9.285    6.4139
    9.300    6.4244
    9.315    6.4560
    9.330    6.5719
    9.345    6.3612
    9.360    6.5613
    9.375    6.8562
    9.390    6.4560
    9.405    6.8141
    9.420    6.7404
    9.435    6.4139
    9.450    6.2454
    9.465    6.4034
    9.480    6.3928
    9.495    6.7930
    9.510    6.3507
    9.525    6.5192
    9.540    6.4771
    9.555    6.1295
    9.570    6.0453
    9.585    6.0348
    9.600    6.1717
    9.615    6.2349
    9.630    6.8984
    9.645    6.3823
    9.660    6.4244
    9.675    6.3086
    9.690    6.3191
    9.705    6.4982
    9.720    6.8878
    9.735    6.2349
    9.750    6.0558
    9.765    6.3402
    9.780    6.3928
    9.795    6.2875
    9.810    6.2981
    9.825    6.1822
    9.840    6.4560
    9.855    6.4771
    9.870    6.3191
    9.885    6.5192
    9.900    6.6140
    9.915    6.2875
    9.930    6.0453
    9.945    6.1717
    9.960    5.8873
    9.975    6.4034
    9.990    6.7299
   10.005    6.4244
   10.020    6.1401
   10.035    6.1611
   10.050    6.3086
   10.065    6.2981
   10.080    6.3296
   10.095    6.5613
   10.110    6.2138
   10.125    6.3718
   10.140    6.6456
   10.155    6.3296
   10.170    6.4244
   10.185    6.5508
   10.200    6.4139
   10.215    6.2454
   10.230    6.1401
   10.245    6.5508
   10.260    6.3718
   10.275    6.5192
   10.290    5.9821
   10.305    6.2981
   10.320    6.0874
   10.335    6.4244
   10.350    6.4982
   10.365    6.5403
   10.380    6.2981
   10.395    6.5298
   10.410    6.2243
   10.425    6.6245
   10.440    6.5087
   10.455    6.4350
   10.470    6.1506
   10.485    6.5719
   10.500    6.5929
   10.515    6.2559
   10.530    6.4771
   10.545    6.1401
   10.560    6.1506
   10.575    6.2770
   10.590    6.5403
   10.605    6.0242
   10.620    6.2243
   10.635    6.5403
   10.650    6.0032
   10.665    6.2559
   10.680    6.3718
   10.695    6.1401
   10.710    6.5192
   10.725    5.9610
   10.740    6.2875
   10.755    6.0664
   10.770    6.6561
   10.785    6.5298
   10.800    6.4666
   10.815    5.9084
   10.830    6.0242
   10.845    6.4350
   10.860    6.1506
   10.875    6.2559
   10.890    6.0242
   10.905    5.9821
   10.920    6.0242
   10.935    6.1295
   10.950    5.9926
   10.965    5.9505
   10.980    6.0664
   10.995    6.0453
   11.010    6.1295
   11.025    6.2770
   11.040    6.2770
   11.055    6.2349
   11.070    5.8873
   11.085    6.1085
   11.100    6.1085
   11.115    6.4139
   11.130    6.1822
   11.145    6.4244
   11.160    6.3928
   11.175    6.0032
   11.190    6.0032
   11.205    5.9610
   11.220    6.2349
   11.235    6.2770
   11.250    6.0137
   11.265    5.8768
   11.280    5.7083
   11.295    6.0242
   11.310    6.3507
   11.325    6.1927
   11.340    6.2665
   11.355    6.5824
   11.370    6.0242
   11.385    5.8978
   11.400    6.0137
   11.415    6.0558
   11.430    6.1295
   11.445    6.3928
   11.460    6.0874
   11.475    5.6029
   11.490    5.8241
   11.505    6.1822
   11.520    6.2243
   11.535    5.9505
   11.550    5.8241
   11.565    6.0453
   11.580    5.6345
   11.595    5.8557
   11.610    6.1611
   11.625    6.0453
   11.640    5.7293
   11.655    5.7820
   11.670    5.6556
   11.685    6.1085
   11.700    6.3086
   11.715    6.0453
   11.730    6.0032
   11.745    6.1717
   11.760    5.9294
   11.775    6.0979
   11.790    6.0137
   11.805    6.0558
   11.820    5.9716
   11.835    6.1295
   11.850    5.6451
   11.865    5.9084
   11.880    5.5819
   11.895    5.6661
   11.910    5.5082
   11.925    6.1506
   11.940    6.1506
   11.955    5.6767
   11.970    6.2138
   11.985    6.0664
   12.000    5.9505
   12.015    5.7925
   12.030    5.4555
   12.045    5.9400
   12.060    5.8662
   12.075    5.9926
   12.090    5.9084
   12.105    5.8768
   12.120    5.3712
   12.135    5.5187
   12.150    5.6556
   12.165    5.8241
   12.180    5.8241
   12.195    5.6556
   12.210    6.0032
   12.225    5.7820
   12.240    5.4766
   12.255    5.7609
   12.270    5.7504
   12.285    5.8978
   12.300    5.6451
   12.315    5.9610
   12.330    5.7715
   12.345    5.6556
   12.360    5.4344
   12.375    5.4239
   12.390    5.6872
   12.405    5.6977
   12.420    5.6767
   12.435    5.5819
   12.450    5.7820
   12.465    5.6767
   12.480    5.6451
   12.495    5.5714
   12.510    5.6767
   12.525    6.0979
   12.540    5.8768
   12.555    5.8978
   12.570    5.8978
   12.585    5.6977
   12.600    5.9400
   12.615    5.6977
   12.630    5.3186
   12.645    5.8452
   12.660    5.5187
   12.675    5.5819
   12.690    5.2975
   12.705    5.4450
   12.720    5.7504
   12.735    5.6872
   12.750    5.9400
   12.765    5.7399
   12.780    5.7399
   12.795    5.8873
   12.810    5.6977
   12.825    6.1085
   12.840    5.6767
   12.855    5.7504
   12.870    5.8136
   12.885    5.8662
   12.900    5.4344
   12.915    6.2243
   12.930    5.8662
   12.945    5.4134
   12.960    5.7925
   12.975    5.6977
   12.990    5.9505
   13.005    5.8031
   13.020    5.7504
   13.035    5.6240
   13.050    5.7925
   13.065    5.7715
   13.080    5.7715
   13.095    5.6240
   13.110    5.6661
   13.125    5.7609
   13.140    5.5082
   13.155    5.5714
   13.170    5.5608
   13.185    5.7504
   13.200    5.3502
   13.215    5.5503
   13.230    5.3712
   13.245    5.7820
   13.260    5.6661
   13.275    5.7925
   13.290    5.4555
   13.305    5.6556
   13.320    5.6135
   13.335    5.7399
   13.350    5.6345
   13.365    5.1711
   13.380    5.6345
   13.395    5.6661
   13.410    5.4555
   13.425    5.7083
   13.440    5.5187
   13.455    5.6556
   13.470    5.7925
   13.485    5.8873
   13.500    5.8241
   13.515    5.9505
   13.530    5.6767
   13.545    5.7925
   13.560    5.6872
   13.575    5.8031
   13.590    5.6977
   13.605    5.7293
   13.620    5.7083
   13.635    5.6240
   13.650    5.8347
   13.665    5.5819
   13.680    5.2975
   13.695    5.5187
   13.710    5.8031
   13.725    5.3712
   13.740    5.8452
   13.755    5.9505
   13.770    5.6451
   13.785    5.9716
   13.800    6.0032
   13.815    5.6767
   13.830    5.6556
   13.845    5.8978
   13.860    5.5819
   13.875    5.3818
   13.890    5.8031
   13.905    5.8557
   13.920    5.8978
   13.935    5.7504
   13.950    5.8136
   13.965    5.8978
   13.980    5.8031
   13.995    5.3502
   14.010    5.6767
   14.025    5.5187
   14.040    5.3397
   14.055    5.6451
   14.070    5.9400
   14.085    6.0348
   14.100    5.2765
   14.115    5.7399
   14.130    5.4976
   14.145    5.2765
   14.160    5.7083
   14.175    5.7715
   14.190    5.6135
   14.205    5.6767
   14.220    5.5819
   14.235    5.8031
   14.250    6.1295
   14.265    5.6767
   14.280    5.8031
   14.295    5.6451
   14.310    5.4660
   14.325    5.5398
   14.340    5.3607
   14.355    5.5187
   14.370    5.7820
   14.385    5.4976
   14.400    5.3186
   14.415    5.5819
   14.430    5.4660
   14.445    6.1085
   14.460    5.7609
   14.475    5.7715
   14.490    5.5714
   14.505    5.4450
   14.520    4.9500
   14.535    5.3186
   14.550    5.7188
   14.565    5.9084
   14.580    5.6029
   14.595    5.8136
   14.610    5.7609
   14.625    5.2343
   14.640    5.5924
   14.655    5.5398
   14.670    5.6661
   14.685    5.8347
   14.700    5.5819
   14.715    5.6556
   14.730    5.7293
   14.745    5.3186
   14.760    5.5292
   14.775    5.8978
   14.790    5.5714
   14.805    5.8241
   14.820    5.6240
   14.835    6.0032
   14.850    5.9084
   14.865    5.3397
   14.880    5.5924
   14.895    5.5819
   14.910    5.8978
   14.925    5.6872
   14.940    6.0558
   14.955    5.9084
   14.970    5.6661
   14.985    5.6029
   15.000    5.6556
   15.015    5.5714
   15.030    5.6135
   15.045    5.4555
   15.060    5.6977
   15.075    5.4555
   15.090    5.5608
   15.105    5.6240
   15.120    5.8978
   15.135    5.8031
   15.150    5.3502
   15.165    5.5398
   15.180    5.7820
   15.195    6.2875
   15.210    5.6556
   15.225    5.8768
   15.240    5.7715
   15.255    5.8347
   15.270    5.7083
   15.285    5.6661
   15.300    5.2449
   15.315    5.5819
   15.330    5.9610
   15.345    5.8978
   15.360    5.6029
   15.375    5.6029
   15.390    5.2554
   15.405    5.7399
   15.420    5.6977
   15.435    5.7399
   15.450    5.6556
   15.465    6.0032
   15.480    5.5292
   15.495    5.7925
   15.510    5.7504
   15.525    5.6661
   15.540    5.5187
   15.555    5.2133
   15.570    5.4555
   15.585    5.5924
   15.600    5.7083
   15.615    5.7083
   15.630    5.5819
   15.645    5.5503
   15.660    5.4871
   15.675    5.6451
   15.690    5.4766
   15.705    5.5187
   15.720    5.5714
   15.735    5.7609
   15.750    5.3923
   15.765    5.4976
   15.780    5.6661
   15.795    5.8136
   15.810    5.5082
   15.825    5.6767
   15.840    5.6345
   15.855    5.3291
   15.870    5.5608
   15.885    5.6240
   15.900    5.6135
   15.915    5.4239
   15.930    5.8347
   15.945    5.4766
   15.960    5.7609
   15.975    5.8241
   15.990    5.8241
   16.005    5.5714
   16.020    5.5187
   16.035    5.5503
   16.050    5.4976
   16.065    5.7715
   16.080    5.8768
   16.095    5.7188
   16.110    5.9294
   16.125    5.6872
   16.140    5.4344
   16.155    5.2449
   16.170    5.5187
   16.185    5.3186
   16.200    5.6872
   16.215    5.7504
   16.230    5.5187
   16.245    5.6661
   16.260    5.6029
   16.275    5.4344
   16.290    5.6345
   16.305    5.6345
   16.320    5.9189
   16.335    5.7083
   16.350    5.8873
   16.365    5.7399
   16.380    5.7504
   16.395    5.5924
   16.410    5.6661
   16.425    5.6135
   16.440    6.0137
   16.455    5.8768
   16.470    5.8347
   16.485    5.5398
   16.500    5.6977
   16.515    5.7399
   16.530    5.9294
   16.545    5.7925
   16.560    5.5714
   16.575    5.7188
   16.590    5.4028
   16.605    5.6872
   16.620    5.5714
   16.635    5.6135
   16.650    5.6661
   16.665    5.5819
   16.680    5.5924
   16.695    5.2343
   16.710    5.6029
   16.725    5.8662
   16.740    5.8241
   16.755    5.7399
   16.770    5.9716
   16.785    5.7293
   16.800    5.6451
   16.815    5.6872
   16.830    5.3291
   16.845    5.5082
   16.860    5.9400
   16.875    5.4976
   16.890    5.6029
   16.905    6.0979
   16.920    5.8241
   16.935    5.8557
   16.950    5.5503
   16.965    6.0453
   16.980    6.0032
   16.995    5.9716
   17.010    5.7820
   17.025    5.5714
   17.040    5.4239
   17.055    5.4976
   17.070    5.4028
   17.085    5.5082
   17.100    5.9294
   17.115    5.7504
   17.130    5.7925
   17.145    6.1506
   17.160    5.6977
   17.175    5.6451
   17.190    5.6556
   17.205    5.9716
   17.220    5.5292
   17.235    5.7083
   17.250    6.0242
   17.265    5.9926
   17.280    5.7399
   17.295    5.5187
   17.310    5.4344
   17.325    5.9084
   17.340    5.9505
   17.355    5.7083
   17.370    5.4976
   17.385    5.5082
   17.400    5.2027
   17.415    5.5924
   17.430    5.8662
   17.445    5.7504
   17.460    5.7293
   17.475    5.5924
   17.490    5.7925
   17.505    5.6872
   17.520    5.6240
   17.535    5.5187
   17.550    5.5924
   17.565    5.3818
   17.580    5.5924
   17.595    5.8031
   17.610    5.4976
   17.625    5.6029
   17.640    5.7715
   17.655    5.7715
   17.670    5.7188
   17.685    5.9716
   17.700    5.5608
   17.715    5.7820
   17.730    5.8662
   17.745    5.6135
   17.760    5.5819
   17.775    5.5819
   17.790    5.4976
   17.805    5.5503
   17.820    5.7188
   17.835    5.5398
   17.850    6.0242
   17.865    5.8978
   17.880    5.4871
   17.895    5.4976
   17.910    5.6240
   17.925    5.6451
   17.940    5.6767
   17.955    5.7293
   17.970    5.3397
   17.985    5.4450
   18.000    5.7820
   18.015    5.7188
   18.030    5.5187
   18.045    5.7399
   18.060    5.7399
   18.075    5.8136
   18.090    5.8241
   18.105    5.7925
   18.120    5.8662
   18.135    5.9610
   18.150    5.6872
   18.165    5.9610
   18.180    5.6767
   18.195    5.9084
   18.210    5.8662
   18.225    5.9505
   18.240    5.7715
   18.255    5.7188
   18.270    5.7083
   18.285    5.8557
   18.300    6.0348
   18.315    5.4028
   18.330    5.6240
   18.345    5.7715
   18.360    5.6661
   18.375    5.8873
   18.390    5.6872
   18.405    5.9189
   18.420    5.9505
   18.435    5.8241
   18.450    5.8978
   18.465    6.1506
   18.480    5.5187
   18.495    5.6556
   18.510    5.5819
   18.525    5.3818
   18.540    5.6872
   18.555    5.7504
   18.570    6.0032
   18.585    5.8873
   18.600    5.7188
   18.615    6.0348
   18.630    6.0979
   18.645    5.8136
   18.660    5.4766
   18.675    5.6767
   18.690    6.0242
   18.705    5.9189
   18.720    5.5608
   18.735    5.7820
   18.750    6.2981
   18.765    5.7399
   18.780    5.9400
   18.795    5.8557
   18.810    5.6977
   18.825    6.1822
   18.840    5.7820
   18.855    5.8241
   18.870    6.1717
   18.885    5.6872
   18.900    5.5819
   18.915    5.3818
   18.930    5.4134
   18.945    5.5292
   18.960    5.6977
   18.975    5.9400
   18.990    5.7820
   19.005    5.8031
   19.020    5.8873
   19.035    5.6451
   19.050    5.6872
   19.065    5.6345
   19.080    5.6977
   19.095    5.4976
   19.110    5.8978
   19.125    5.5714
   19.140    5.7820
   19.155    5.6767
   19.170    5.6135
   19.185    5.9505
   19.200    5.6977
   19.215    5.9926
   19.230    5.7609
   19.245    6.0558
   19.260    6.0242
   19.275    6.1401
   19.290    5.7609
   19.305    5.9189
   19.320    6.1822
   19.335    6.0769
   19.350    5.9294
   19.365    5.9294
   19.380    5.7399
   19.395    5.9400
   19.410    5.6767
   19.425    5.8662
   19.440    5.7188
   19.455    5.6872
   19.470    5.9189
   19.485    5.9716
   19.500    6.0348
   19.515    5.5082
   19.530    6.0769
   19.545    6.3718
   19.560    5.8768
   19.575    5.6345
   19.590    5.5924
   19.605    5.6661
   19.620    5.9716
   19.635    5.7504
   19.650    5.9821
   19.665    6.2454
   19.680    6.1506
   19.695    5.7820
   19.710    5.9084
   19.725    5.9926
   19.740    5.5714
   19.755    5.7820
   19.770    5.9084
   19.785    6.0137
   19.800    6.3718
   19.815    5.8031
   19.830    5.6451
   19.845    6.3823
   19.860    6.1190
   19.875    5.7715
   19.890    5.9084
   19.905    5.8031
   19.920    5.8241
   19.935    6.0242
   19.950    5.9926
   19.965    5.8978
   19.980    5.7925
   19.995    5.6977
   20.010    5.3818
   20.025    5.4976
   20.040    5.9821
   20.055    5.9610
   20.070    5.7399
   20.085    5.6872
   20.100    6.2138
   20.115    6.0769
   20.130    5.7925
   20.145    6.1295
   20.160    5.8136
   20.175    5.5398
   20.190    5.7820
   20.205    5.9084
   20.220    5.8031
   20.235    5.4660
   20.250    5.6240
   20.265    5.9294
   20.280    5.7715
   20.295    6.1085
   20.310    6.0242
   20.325    6.3296
   20.340    5.9926
   20.355    5.8031
   20.370    5.2975
   20.385    5.7399
   20.400    5.8136
   20.415    5.8136
   20.430    5.8136
   20.445    6.0137
   20.460    5.9505
   20.475    5.8557
   20.490    5.7925
   20.505    6.1295
   20.520    5.9716
   20.535    5.7293
   20.550    5.8768
   20.565    5.9505
   20.580    5.8768
   20.595    5.6661
   20.610    5.7925
   20.625    5.5608
   20.640    5.6451
   20.655    5.5924
   20.670    5.8662
   20.685    5.8452
   20.700    6.3086
   20.715    6.1717
   20.730    5.8978
   20.745    6.1717
   20.760    5.7083
   20.775    5.8768
   20.790    5.8347
   20.805    5.6872
   20.820    5.9294
   20.835    5.9610
   20.850    5.7188
   20.865    5.5819
   20.880    6.0032
   20.895    6.0032
   20.910    6.0664
   20.925    6.0348
   20.940    5.9610
   20.955    5.6661
   20.970    5.9716
   20.985    5.9716
   21.000    5.6029
   21.015    5.6135
   21.030    6.0769
   21.045    5.9716
   21.060    5.8978
   21.075    5.7504
   21.090    5.8031
   21.105    5.9926
   21.120    6.0874
   21.135    5.7399
   21.150    5.7504
   21.165    5.6556
   21.180    5.7715
   21.195    5.8241
   21.210    5.8031
   21.225    5.6977
   21.240    5.9294
   21.255    5.6977
   21.270    5.8978
   21.285    5.4239
   21.300    5.7293
   21.315    5.8662
   21.330    6.0979
   21.345    6.2770
   21.360    6.2349
   21.375    5.6767
   21.390    5.6451
   21.405    5.6135
   21.420    5.5819
   21.435    6.0769
   21.450    5.7293
   21.465    5.9610
   21.480    5.9400
   21.495    5.7715
   21.510    5.8136
   21.525    6.1506
   21.540    5.9610
   21.555    5.7609
   21.570    5.5398
   21.585    5.9400
   21.600    5.8768
   21.615    5.9294
   21.630    5.8978
   21.645    6.2033
   21.660    6.0348
   21.675    5.7504
   21.690    5.8452
   21.705    6.0979
   21.720    6.1085
   21.735    5.8557
   21.750    5.8136
   21.765    5.9610
   21.780    5.7925
   21.795    5.5187
   21.810    5.9084
   21.825    5.9610
   21.840    5.8768
   21.855    5.5503
   21.870    5.8136
   21.885    5.7188
   21.900    5.8241
   21.915    5.6135
   21.930    5.6767
   21.945    5.7820
   21.960    6.0979
   21.975    6.0558
   21.990    5.9084
   22.005    5.8347
   22.020    6.0242
   22.035    5.9400
   22.050    5.8031
   22.065    5.8347
   22.080    5.9189
   22.095    5.5503
   22.110    6.0769
   22.125    6.1295
   22.140    6.0769
   22.155    5.6767
   22.170    5.6977
   22.185    5.6977
   22.200    5.8031
   22.215    5.9610
   22.230    5.8873
   22.245    6.0558
   22.260    5.6345
   22.275    6.1822
   22.290    6.1190
   22.305    5.7504
   22.320    6.2243
   22.335    6.3086
   22.350    5.7293
   22.365    5.7715
   22.380    5.6029
   22.395    5.5187
   22.410    5.9189
   22.425    6.0137
   22.440    6.0137
   22.455    5.7609
   22.470    5.6977
   22.485    5.7820
   22.500    5.8347
   22.515    5.6872
   22.530    5.6977
   22.545    5.3923
   22.560    5.8978
   22.575    5.9084
   22.590    5.8031
   22.605    6.0242
   22.620    6.1822
   22.635    5.5714
   22.650    5.9294
   22.665    5.8873
   22.680    6.0979
   22.695    6.3402
   22.710    5.5608
   22.725    5.7504
   22.740    5.9610
   22.755    6.2770
   22.770    5.8662
   22.785    6.0242
   22.800    5.9926
   22.815    5.6767
   22.830    5.6872
   22.845    6.2770
   22.860    6.1401
   22.875    6.1085
   22.890    5.6345
   22.905    5.9716
   22.920    5.8873
   22.935    5.8768
   22.950    5.8031
   22.965    5.9084
   22.980    6.0558
   22.995    5.7504
   23.010    5.8978
   23.025    5.7188
   23.040    5.8978
   23.055    5.4344
   23.070    5.4555
   23.085    5.7399
   23.100    5.9294
   23.115    5.5714
   23.130    5.6451
   23.145    5.5608
   23.160    5.7715
   23.175    5.9400
   23.190    5.4976
   23.205    5.4239
   23.220    5.7188
   23.235    5.6767
   23.250    5.7188
   23.265    5.6451
   23.280    5.7399
   23.295    5.5608
   23.310    6.1717
   23.325    6.1190
   23.340    6.1717
   23.355    5.8241
   23.370    5.6977
   23.385    5.7083
   23.400    5.6872
   23.415    6.0348
   23.430    5.6345
   23.445    5.7925
   23.460    5.6240
   23.475    5.5819
   23.490    5.7925
   23.505    5.4555
   23.520    5.6872
   23.535    6.1717
   23.550    5.7820
   23.565    5.6556
   23.580    6.0979
   23.595    5.5714
   23.610    5.5187
   23.625    5.5398
   23.640    5.6240
   23.655    5.7715
   23.670    5.8768
   23.685    5.7399
   23.700    5.9610
   23.715    6.2665
   23.730    6.1190
   23.745    5.9505
   23.760    5.5398
   23.775    5.6135
   23.790    5.6977
   23.805    5.3081
   23.820    5.5924
   23.835    5.8241
   23.850    5.7715
   23.865    5.5187
   23.880    5.4450
   23.895    5.8873
   23.910    5.9189
   23.925    5.8241
   23.940    5.5819
   23.955    5.6240
   23.970    5.6661
   23.985    5.8978
   24.000    5.9505
   24.015    5.4134
   24.030    5.4239
   24.045    5.8452
   24.060    5.6977
   24.075    5.7188
   24.090    5.7504
   24.105    5.8557
   24.120    5.6029
   24.135    5.6240
   24.150    5.8136
   24.165    5.7504
   24.180    5.6345
   24.195    5.3397
   24.210    5.8662
   24.225    5.6451
   24.240    5.8873
   24.255    5.9189
   24.270    5.7188
   24.285    5.6029
   24.300    5.8557
   24.315    5.3186
   24.330    5.8873
   24.345    5.6767
   24.360    5.5398
   24.375    5.7083
   24.390    5.3923
   24.405    5.5398
   24.420    5.6345
   24.435    5.4344
   24.450    5.3923
   24.465    5.3081
   24.480    5.5819
   24.495    5.5924
   24.510    5.8978
   24.525    5.9821
   24.540    5.7820
   24.555    5.9926
   24.570    5.6135
   24.585    5.8662
   24.600    5.6345
   24.615    5.7715
   24.630    5.3291
   24.645    5.4134
   24.660    5.6661
   24.675    5.7083
   24.690    5.5292
   24.705    5.7293
   24.720    5.8136
   24.735    5.4660
   24.750    5.4871
   24.765    5.4766
   24.780    5.3923
   24.795    5.9294
   24.810    5.8347
   24.825    5.6872
   24.840    5.7293
   24.855    5.6345
   24.870    5.5714
   24.885    5.5924
   24.900    5.5608
   24.915    5.4555
   24.930    5.1290
   24.945    5.6029
   24.960    5.3607
   24.975    5.2027
   24.990    5.5819
   25.005    5.2975
   25.020    5.2133
   25.035    5.4660
   25.050    5.3923
   25.065    5.6345
   25.080    5.3818
   25.095    5.4976
   25.110    5.3712
   25.125    5.2027
   25.140    5.6135
   25.155    5.6240
   25.170    5.4976
   25.185    5.5819
   25.200    5.7715
   25.215    5.7504
   25.230    5.2554
   25.245    5.8031
   25.260    5.6135
   25.275    5.5187
   25.290    5.8662
   25.305    5.6451
   25.320    5.5714
   25.335    5.5503
   25.350    5.6767
   25.365    5.6135
   25.380    5.5398
   25.395    5.3186
   25.410    5.3397
   25.425    5.5082
   25.440    5.5187
   25.455    5.4028
   25.470    5.4766
   25.485    5.5187
   25.500    5.3186
   25.515    5.0448
   25.530    5.5924
   25.545    5.5082
   25.560    5.7399
   25.575    5.6451
   25.590    5.5924
   25.605    5.5924
   25.620    5.7083
   25.635    5.5187
   25.650    5.5503
   25.665    5.6556
   25.680    5.2765
   25.695    5.5924
   25.710    5.3818
   25.725    5.2238
   25.740    5.0448
   25.755    5.2659
   25.770    5.4766
   25.785    5.2870
   25.800    5.5714
   25.815    5.5292
   25.830    5.5187
   25.845    5.9084
   25.860    5.6661
   25.875    5.4344
   25.890    5.4134
   25.905    5.4134
   25.920    5.6345
   25.935    5.1817
   25.950    5.7083
   25.965    5.6451
   25.980    5.3712
   25.995    5.6556
   26.010    5.3923
   26.025    5.7715
   26.040    5.4766
   26.055    5.5187
   26.070    5.1922
   26.085    5.4134
   26.100    4.8868
   26.115    5.1606
   26.130    5.1922
   26.145    5.3186
   26.160    5.1922
   26.175    5.3923
   26.190    5.0132
   26.205    5.0974
   26.220    5.1922
   26.235    5.3607
   26.250    5.1711
   26.265    5.5082
   26.280    5.8347
   26.295    5.3712
   26.310    5.2554
   26.325    5.1817
   26.340    5.2343
   26.355    5.2659
   26.370    5.5398
   26.385    5.2554
   26.400    5.1817
   26.415    5.0974
   26.430    5.2975
   26.445    5.5819
   26.460    5.2238
   26.475    5.2554
   26.490    5.1711
   26.505    5.1290
   26.520    5.0026
   26.535    5.2238
   26.550    5.2449
   26.565    5.5187
   26.580    5.3607
   26.595    5.2027
   26.610    5.4344
   26.625    5.3712
   26.640    5.1395
   26.655    5.1606
   26.670    5.5082
   26.685    5.4344
   26.700    5.4450
   26.715    5.3712
   26.730    5.3186
   26.745    5.2765
   26.760    5.4555
   26.775    5.5082
   26.790    5.2238
   26.805    5.1501
   26.820    5.2659
   26.835    5.5503
   26.850    5.4239
   26.865    5.2870
   26.880    5.1922
   26.895    5.2975
   26.910    5.1606
   26.925    5.1501
   26.940    5.0764
   26.955    5.5082
   26.970    5.2343
   26.985    5.1290
   27.000    4.8763
   27.015    4.7709
   27.030    5.0342
   27.045    5.2343
   27.060    5.2238
   27.075    5.2765
   27.090    5.3502
   27.105    5.2027
   27.120    5.3923
   27.135    5.6451
   27.150    5.1606
   27.165    4.8868
   27.180    5.0869
   27.195    5.3502
   27.210    5.3081
   27.225    5.1817
   27.240    5.2449
   27.255    5.4134
   27.270    5.2449
   27.285    5.2027
   27.300    5.0132
   27.315    5.2870
   27.330    5.3397
   27.345    5.4976
   27.360    5.5398
   27.375    5.2765
   27.390    5.3081
   27.405    5.2343
   27.420    5.1185
   27.435    4.9605
   27.450    4.9289
   27.465    5.1185
   27.480    5.1185
   27.495    5.2238
   27.510    5.3081
   27.525    4.9078
   27.540    5.0553
   27.555    5.2765
   27.570    5.2238
   27.585    4.8868
   27.600    5.0764
   27.615    5.0764
   27.630    4.8025
   27.645    4.8236
   27.660    5.2975
   27.675    5.2133
   27.690    5.2133
   27.705    4.9394
   27.720    5.0764
   27.735    4.9184
   27.750    4.9394
   27.765    4.8868
   27.780    4.9710
   27.795    5.3397
   27.810    5.3081
   27.825    5.1817
   27.840    4.9816
   27.855    5.0132
   27.870    4.9394
   27.885    5.0237
   27.900    4.9710
   27.915    4.8552
   27.930    5.3186
   27.945    5.2554
   27.960    4.9816
   27.975    4.9184
   27.990    5.0658
   28.005    5.1606
   28.020    5.3081
   28.035    4.6972
   28.050    4.9816
   28.065    5.2659
   28.080    4.6761
   28.095    4.8657
   28.110    5.1711
   28.125    4.8868
   28.140    4.9394
   28.155    4.7393
   28.170    5.1185
   28.185    5.2027
   28.200    4.8025
   28.215    5.2027
   28.230    5.1080
   28.245    4.9710
   28.260    5.2027
   28.275    5.1817
   28.290    4.6235
   28.305    4.8657
   28.320    4.9816
   28.335    5.0026
   28.350    5.0342
   28.365    5.0553
   28.380    4.8025
   28.395    4.8447
   28.410    5.2238
   28.425    5.2449
   28.440    5.2870
   28.455    5.3081
   28.470    4.9921
   28.485    4.9605
   28.500    5.0553
   28.515    4.8868
   28.530    5.2027
   28.545    5.3712
   28.560    5.1080
   28.575    4.8763
   28.590    4.9921
   28.605    5.3397
   28.620    5.1501
   28.635    5.1501
   28.650    5.0026
   28.665    4.8025
   28.680    5.0132
   28.695    4.7920
   28.710    5.1185
   28.725    4.6656
   28.740    4.8868
   28.755    5.1080
   28.770    4.7815
   28.785    4.8131
   28.800    4.8763
   28.815    4.9605
   28.830    4.6235
   28.845    4.6867
   28.860    4.8868
   28.875    4.9816
   28.890    5.0764
   28.905    5.1606
   28.920    5.1922
   28.935    5.0764
   28.950    4.9500
   28.965    4.9078
   28.980    5.1922
   28.995    5.0132
   29.010    4.8868
   29.025    4.9394
   29.040    5.0764
   29.055    5.0026
   29.070    4.7288
   29.085    4.6867
   29.100    4.9078
   29.115    4.9816
   29.130    4.7393
   29.145    4.8131
   29.160    4.9500
   29.175    4.9078
   29.190    5.0342
   29.205    5.2133
   29.220    4.7815
   29.235    4.7288
   29.250    4.6340
   29.265    4.9394
   29.280    4.6130
   29.295    4.7920
   29.310    4.8025
   29.325    4.9394
   29.340    5.0869
   29.355    4.7709
   29.370    4.6551
   29.385    4.8657
   29.400    5.2027
   29.415    4.9078
   29.430    5.0553
   29.445    4.7920
   29.460    4.9289
   29.475    4.9605
   29.490    4.8025
   29.505    4.9078
   29.520    5.2343
   29.535    4.9289
   29.550    4.9394
   29.565    5.0132
   29.580    4.8763
   29.595    4.5919
   29.610    4.9289
   29.625    5.1080
   29.640    4.9078
   29.655    5.0764
   29.670    5.1185
   29.685    4.8552
   29.700    4.6972
   29.715    4.5708
   29.730    5.2449
   29.745    5.0869
   29.760    4.7604
   29.775    5.0448
   29.790    4.8868
   29.805    4.8552
   29.820    4.4760
   29.835    5.1711
   29.850    4.7393
   29.865    4.5287
   29.880    4.5392
   29.895    4.5076
   29.910    4.3813
   29.925    4.5498
   29.940    5.0869
   29.955    4.6235
   29.970    4.6972
   29.985    4.6867
   30.000    4.7393
   30.015    5.2659
   30.030    4.9078
   30.045    4.6130
   30.060    4.9184
   30.075    4.7604
   30.090    5.0237
   30.105    4.8447
   30.120    4.7604
   30.135    4.5708
   30.150    4.8657
   30.165    4.7393
   30.180    4.4971
   30.195    4.5498
   30.210    4.6445
   30.225    4.5182
   30.240    4.5498
   30.255    4.6551
   30.270    4.7288
   30.285    4.8236
   30.300    4.7499
   30.315    4.5708
   30.330    4.8131
   30.345    4.8763
   30.360    4.6972
   30.375    5.2133
   30.390    4.9289
   30.405    4.7183
   30.420    4.7393
   30.435    4.8236
   30.450    4.9184
   30.465    4.8868
   30.480    5.3081
   30.495    5.1080
   30.510    4.8131
   30.525    4.3813
   30.540    4.7183
   30.555    4.4128
   30.570    4.6867
   30.585    4.8131
   30.600    4.9816
   30.615    5.0553
   30.630    4.7393
   30.645    4.6235
   30.660    4.5182
   30.675    4.5498
   30.690    4.4444
   30.705    4.8973
   30.720    4.4971
   30.735    4.2654
   30.750    5.0342
   30.765    4.9921
   30.780    4.2549
   30.795    4.4971
   30.810    4.8341
   30.825    4.6130
   30.840    4.5287
   30.855    4.5498
   30.870    4.4760
   30.885    4.4023
   30.900    4.7709
   30.915    4.5498
   30.930    4.5708
   30.945    4.6235
   30.960    4.5392
   30.975    5.0237
   30.990    4.7604
   31.005    4.4655
   31.020    4.3181
   31.035    4.5498
   31.050    4.4128
   31.065    4.6551
   31.080    4.7499
   31.095    4.6867
   31.110    4.7709
   31.125    4.2970
   31.140    4.5182
   31.155    4.8447
   31.170    4.5603
   31.185    4.2654
   31.200    4.7077
   31.215    4.5392
   31.230    4.7288
   31.245    4.6867
   31.260    4.6972
   31.275    4.3918
   31.290    4.6340
   31.305    4.7815
   31.320    4.6445
   31.335    4.5919
   31.350    4.5919
   31.365    4.4444
   31.380    4.7604
   31.395    4.6972
   31.410    4.5708
   31.425    4.2127
   31.440    4.5287
   31.455    4.6445
   31.470    4.5603
   31.485    4.3075
   31.500    4.4339
   31.515    4.7393
   31.530    4.6445
   31.545    4.5708
   31.560    4.4339
   31.575    4.7920
   31.590    4.7709
   31.605    4.5182
   31.620    4.5708
   31.635    4.6656
   31.650    4.8447
   31.665    4.4760
   31.680    4.4655
   31.695    4.5708
   31.710    4.9289
   31.725    4.4234
   31.740    4.2443
   31.755    4.2127
   31.770    4.6656
   31.785    4.5182
   31.800    4.5392
   31.815    4.3707
   31.830    4.3181
   31.845    4.6551
   31.860    4.3918
   31.875    4.2865
   31.890    4.8657
   31.905    4.7288
   31.920    4.4234
   31.935    4.6761
   31.950    4.8131
   31.965    4.7183
   31.980    4.7393
   31.995    4.6130
   32.010    4.4550
   32.025    4.6130
   32.040    4.5919
   32.055    4.2654
   32.070    4.2759
   32.085    4.2970
   32.100    4.6551
   32.115    4.7604
   32.130    4.3497
   32.145    4.4760
   32.160    4.4444
   32.175    4.2549
   32.190    4.3075
   32.205    4.3391
   32.220    4.1706
   32.235    4.4760
   32.250    4.2022
   32.265    4.5498
   32.280    4.3181
   32.295    4.3286
   32.310    4.3813
   32.325    4.3286
   32.340    4.2865
   32.355    4.4444
   32.370    4.4760
   32.385    4.5814
   32.400    4.8447
   32.415    4.4760
   32.430    4.4866
   32.445    4.5392
   32.460    4.4760
   32.475    4.3813
   32.490    4.5708
   32.505    4.2233
   32.520    4.5814
   32.535    4.7183
   32.550    4.7183
   32.565    4.4760
   32.580    4.2233
   32.595    4.4339
   32.610    4.7288
   32.625    4.0232
   32.640    4.5076
   32.655    4.4339
   32.670    4.0442
   32.685    4.3813
   32.700    4.6024
   32.715    4.6235
   32.730    4.5708
   32.745    4.4550
   32.760    4.2022
   32.775    4.4128
   32.790    4.2970
   32.805    4.3707
   32.820    4.6445
   32.835    4.5919
   32.850    4.7183
   32.865    4.4023
   32.880    4.4234
   32.895    4.3602
   32.910    4.6340
   32.925    4.4339
   32.940    4.2233
   32.955    4.6024
   32.970    4.4550
   32.985    4.2549
   33.000    4.0864
   33.015    4.1390
   33.030    4.3075
   33.045    4.4234
   33.060    4.5814
   33.075    4.3286
   33.090    4.2970
   33.105    4.4339
   33.120    3.9810
   33.135    4.3707
   33.150    4.5076
   33.165    4.3918
   33.180    4.3181
   33.195    4.1390
   33.210    4.0232
   33.225    4.3813
   33.240    4.2865
   33.255    4.3602
   33.270    4.1180
   33.285    4.2654
   33.300    4.1390
   33.315    4.1285
   33.330    4.6024
   33.345    4.4655
   33.360    4.6024
   33.375    4.2970
   33.390    4.4971
   33.405    4.4023
   33.420    3.9600
   33.435    4.0864
   33.450    4.3602
   33.465    4.5076
   33.480    4.3602
   33.495    4.1601
   33.510    4.1390
   33.525    4.3075
   33.540    4.0653
   33.555    4.1180
   33.570    4.2654
   33.585    4.0653
   33.600    4.1285
   33.615    4.4971
   33.630    4.3286
   33.645    4.2338
   33.660    4.6656
   33.675    4.1811
   33.690    4.1285
   33.705    4.1390
   33.720    3.8547
   33.735    4.2549
   33.750    4.3813
   33.765    4.0126
   33.780    3.8336
   33.795    4.0442
   33.810    4.2338
   33.825    3.9494
   33.840    4.2338
   33.855    4.2338
   33.870    4.0653
   33.885    3.8125
   33.900    3.9073
   33.915    4.1917
   33.930    4.6551
   33.945    4.1601
   33.960    3.8547
   33.975    4.0021
   33.990    4.0969
   34.005    4.2022
   34.020    4.3286
   34.035    4.3286
   34.050    4.0126
   34.065    4.0442
   34.080    4.2865
   34.095    4.0337
   34.110    3.9916
   34.125    3.9916
   34.140    4.2022
   34.155    3.9179
   34.170    4.3707
   34.185    4.2759
   34.200    4.2970
   34.215    4.1601
   34.230    4.0653
   34.245    4.3391
   34.260    4.4128
   34.275    4.2443
   34.290    4.1390
   34.305    4.2233
   34.320    4.0021
   34.335    4.1706
   34.350    4.6340
   34.365    4.1811
   34.380    4.2865
   34.395    4.3391
   34.410    4.3181
   34.425    4.1074
   34.440    4.0969
   34.455    4.1706
   34.470    4.1390
   34.485    4.0758
   34.500    4.2654
   34.515    4.0653
   34.530    4.1180
   34.545    4.0442
   34.560    3.8757
   34.575    4.1811
   34.590    4.0864
   34.605    4.0126
   34.620    4.0758
   34.635    3.9494
   34.650    4.2338
   34.665    3.8547
   34.680    3.8968
   34.695    3.9389
   34.710    4.1180
   34.725    4.3813
   34.740    4.7077
   34.755    4.1496
   34.770    4.1601
   34.785    4.2127
   34.800    4.2233
   34.815    4.1706
   34.830    4.2865
   34.845    4.2022
   34.860    4.2865
   34.875    3.9389
   34.890    4.2338
   34.905    4.2654
   34.920    4.4655
   34.935    4.0864
   34.950    3.8547
   34.965    4.1601
   34.980    4.0337
   34.995    4.3286
   35.010    3.8547
   35.025    4.2022
   35.040    4.0969
   35.055    3.8968
   35.070    4.0864
   35.085    4.1917
   35.100    4.4128
   35.115    4.2549
   35.130    4.2443
   35.145    4.1390
   35.160    3.9284
   35.175    4.0442
   35.190    4.1496
   35.205    4.0548
   35.220    4.2759
   35.235    4.1917
   35.250    4.2022
   35.265    3.9179
   35.280    4.0337
   35.295    3.9179
   35.310    3.7809
   35.325    3.7915
   35.340    3.9179
   35.355    4.0653
   35.370    4.0442
   35.385    4.0864
   35.400    4.3707
   35.415    4.1074
   35.430    4.1390
   35.445    4.1285
   35.460    4.0548
   35.475    3.8125
   35.490    3.9705
   35.505    4.0548
   35.520    4.1180
   35.535    4.2865
   35.550    4.2865
   35.565    3.9600
   35.580    3.9284
   35.595    4.0548
   35.610    4.2022
   35.625    3.7493
   35.640    4.0021
   35.655    4.1496
   35.670    3.9916
   35.685    4.0126
   35.700    4.0864
   35.715    3.9389
   35.730    4.0758
   35.745    4.0653
   35.760    3.9600
   35.775    4.0653
   35.790    3.7177
   35.805    4.3181
   35.820    4.1917
   35.835    3.7704
   35.850    4.1601
   35.865    4.1390
   35.880    4.1390
   35.895    4.2865
   35.910    3.9389
   35.925    3.8441
   35.940    4.2338
   35.955    4.0758
   35.970    4.0442
   35.985    3.9284
   36.000    3.8652
   36.015    4.0126
   36.030    4.2865
   36.045    4.3813
   36.060    4.2127
   36.075    3.9916
   36.090    3.7283
   36.105    3.9494
   36.120    4.1180
   36.135    3.8441
   36.150    4.0969
   36.165    4.2338
   36.180    3.7704
   36.195    3.9073
   36.210    4.1285
   36.225    4.2549
   36.240    4.0021
   36.255    4.2549
   36.270    4.0864
   36.285    3.8968
   36.300    4.2127
   36.315    3.9179
   36.330    3.9916
   36.345    3.7388
   36.360    3.8441
   36.375    3.9600
   36.390    3.7599
   36.405    3.8757
   36.420    4.0969
   36.435    4.0653
   36.450    4.0653
   36.465    3.9810
   36.480    3.6335
   36.495    3.5387
   36.510    4.0021
   36.525    4.1074
   36.540    3.9916
   36.555    4.0126
   36.570    3.7599
   36.585    4.1601
   36.600    3.9389
   36.615    3.8652
   36.630    3.9810
   36.645    3.8441
   36.660    3.8757
   36.675    3.8441
   36.690    3.9284
   36.705    3.7388
   36.720    3.8968
   36.735    3.9284
   36.750    4.0126
   36.765    3.9916
   36.780    3.6335
   36.795    3.5598
   36.810    3.8125
   36.825    3.9179
   36.840    3.6862
   36.855    3.6967
   36.870    4.1811
   36.885    4.0653
   36.900    3.7599
   36.915    3.8547
   36.930    3.7072
   36.945    4.0232
   36.960    4.0864
   36.975    3.8336
   36.990    3.5703
   37.005    3.9179
   37.020    3.7704
   37.035    3.9705
   37.050    3.6335
   37.065    3.7177
   37.080    3.9284
   37.095    3.9073
   37.110    3.8336
   37.125    3.9916
   37.140    3.8547
   37.155    3.6967
   37.170    4.0021
   37.185    3.9916
   37.200    3.8863
   37.215    3.9389
   37.230    3.6967
   37.245    3.8441
   37.260    3.7283
   37.275    3.8125
   37.290    3.7072
   37.305    3.8336
   37.320    3.9705
   37.335    3.8757
   37.350    3.8968
   37.365    3.7809
   37.380    3.7283
   37.395    4.0758
   37.410    4.0653
   37.425    3.8020
   37.440    3.9600
   37.455    3.9705
   37.470    3.8441
   37.485    3.7809
   37.500    3.8757
   37.515    3.9705
   37.530    3.8336
   37.545    3.7283
   37.560    3.8652
   37.575    3.7283
   37.590    3.8757
   37.605    3.8336
   37.620    3.9810
   37.635    3.8336
   37.650    3.9073
   37.665    3.8441
   37.680    3.8231
   37.695    3.8757
   37.710    3.9494
   37.725    4.1706
   37.740    4.2970
   37.755    3.9916
   37.770    4.0126
   37.785    3.7493
   37.800    3.7915
   37.815    3.9600
   37.830    4.0548
   37.845    4.0864
   37.860    3.4966
   37.875    3.8231
   37.890    4.0337
   37.905    3.8336
   37.920    3.9073
   37.935    3.7177
   37.950    3.8863
   37.965    3.9494
   37.980    3.9284
   37.995    3.7704
   38.010    3.5808
   38.025    3.8652
   38.040    3.9916
   38.055    3.8441
   38.070    3.7493
   38.085    3.6967
   38.100    3.8652
   38.115    3.8652
   38.130    3.6124
   38.145    3.6440
   38.160    3.8231
   38.175    3.8757
   38.190    3.9916
   38.205    3.7704
   38.220    3.9073
   38.235    3.7283
   38.250    3.8125
   38.265    3.5808
   38.280    3.5387
   38.295    3.8757
   38.310    3.7388
   38.325    3.5492
   38.340    3.6124
   38.355    3.7388
   38.370    3.7072
   38.385    3.6335
   38.400    3.7704
   38.415    4.0653
   38.430    4.0021
   38.445    3.9810
   38.460    3.7599
   38.475    3.5282
   38.490    3.6546
   38.505    3.9916
   38.520    4.0442
   38.535    4.0337
   38.550    4.0232
   38.565    3.8441
   38.580    4.0442
   38.595    3.8125
   38.610    4.0126
   38.625    3.9705
   38.640    3.5492
   38.655    3.7599
   38.670    3.4650
   38.685    3.8020
   38.700    3.6651
   38.715    3.6230
   38.730    3.8336
   38.745    3.8652
   38.760    3.8863
   38.775    3.5703
   38.790    3.6230
   38.805    3.9179
   38.820    3.9073
   38.835    3.7493
   38.850    3.9073
   38.865    3.6967
   38.880    3.6862
   38.895    3.7915
   38.910    3.8968
   38.925    3.9810
   38.940    4.1811
   38.955    3.8020
   38.970    3.7809
   38.985    3.7388
   39.000    3.9916
   39.015    3.8125
   39.030    3.9600
   39.045    3.8020
   39.060    3.7915
   39.075    3.9073
   39.090    3.7177
   39.105    3.7599
   39.120    3.8757
   39.135    4.1601
   39.150    3.8968
   39.165    4.0758
   39.180    3.8441
   39.195    3.7388
   39.210    3.9073
   39.225    4.0021
   39.240    3.7599
   39.255    3.9179
   39.270    4.0969
   39.285    4.3075
   39.300    3.8441
   39.315    3.9600
   39.330    3.5808
   39.345    4.0653
   39.360    3.7809
   39.375    3.8336
   39.390    3.5176
   39.405    3.8020
   39.420    3.9179
   39.435    3.6756
   39.450    3.8441
   39.465    3.7072
   39.480    3.7388
   39.495    3.6019
   39.510    3.5808
   39.525    3.6756
   39.540    3.5808
   39.555    3.7599
   39.570    3.8757
   39.585    3.8125
   39.600    3.7388
   39.615    3.5914
   39.630    3.9284
   39.645    4.0232
   39.660    4.0758
   39.675    3.8231
   39.690    3.7283
   39.705    3.7704
   39.720    3.7493
   39.735    3.6440
   39.750    3.7493
   39.765    3.9389
   39.780    4.0864
   39.795    3.6335
   39.810    3.7809
   39.825    3.7283
   39.840    3.8757
   39.855    3.8863
   39.870    3.8441
   39.885    3.9916
   39.900    3.7809
   39.915    3.6440
   39.930    3.8231
   39.945    4.0337
   39.960    3.6651
   39.975    3.7704
   39.990    4.1706
