    1.500   17.2091
    1.515   16.9036
    1.530   17.5145
    1.545   16.9247
    1.560   16.5982
    1.575   16.4297
    1.590   16.0716
    1.605   16.3454
    1.620   15.5029
    1.635   15.3133
    1.650   16.1243
    1.665   16.1348
    1.680   16.0927
    1.695   15.3028
    1.710   15.6082
    1.725   15.7662
    1.740   15.2817
    1.755   14.8710
    1.770   15.2923
    1.785   14.7130
    1.800   14.8605
    1.815   15.3765
    1.830   14.9236
    1.845   14.9342
    1.860   14.8499
    1.875   15.0184
    1.890   14.8499
    1.905   15.1132
    1.920   14.7235
    1.935   14.3339
    1.950   14.8920
    1.965   14.6919
    1.980   14.6077
    1.995   14.8394
    2.010   14.4181
    2.025   14.9131
    2.040   15.1132
    2.055   15.0395
    2.070   15.0395
    2.085   14.9552
    2.100   15.4924
    2.115   15.4502
    2.130   15.9768
    2.145   15.2607
    2.160   15.4397
    2.175   15.3976
    2.190   15.1132
    2.205   14.7341
    2.220   15.0606
    2.235   14.9658
    2.250   15.7451
    2.265   15.6082
    2.280   16.3560
    2.295   16.0611
    2.310   15.8926
    2.325   16.1453
    2.340   16.5140
    2.355   16.4508
    2.370   17.0721
    2.385   16.2085
    2.400   16.5877
    2.415   17.0090
    2.430   17.2301
    2.445   17.1985
    2.460   17.2301
    2.475   17.8936
    2.490   17.8410
    2.505   18.1148
    2.520   17.7883
    2.535   17.9358
    2.550   18.4308
    2.565   18.4623
    2.580   19.0627
    2.595   19.3681
    2.610   19.8736
    2.625   19.8736
    2.640   19.9052
    2.655   20.7899
    2.670   20.4845
    2.685   21.2638
    2.700   21.3586
    2.715   21.5903
    2.730   21.5692
    2.745   22.2012
    2.760   22.8541
    2.775   23.3386
    2.790   24.1390
    2.805   24.4023
    2.820   24.7815
    2.835   25.2343
    2.850   25.4766
    2.865   26.3718
    2.880   26.5719
    2.895   27.0879
    2.910   28.0463
    2.925   29.0153
    2.940   28.6677
    2.955   29.5524
    2.970   30.7109
    2.985   31.7536
    3.000   32.3749
    3.015   32.2907
    3.030   33.5650
    3.045   35.9347
    3.060   36.9142
    3.075   37.4408
    3.090   37.6198
    3.105   39.5366
    3.120   41.1374
    3.135   42.7699
    3.150   44.0758
    3.165   45.4450
    3.180   46.7193
    3.195   48.6677
    3.210   50.7952
    3.225   52.7014
    3.240   53.9547
    3.255   55.7557
    3.270   58.3676
    3.285   61.7378
    3.300   64.9816
    3.315   68.3728
    3.330   71.7746
    3.345   74.7657
    3.360   78.7151
    3.375   81.1374
    3.390   87.0985
    3.405   92.6909
    3.420   99.5471
    3.435  103.0858
    3.450  106.2033
    3.465  110.0263
    3.480  111.5113
    3.495  110.0579
    3.510  105.4134
    3.525   99.1048
    3.540   90.5951
    3.555   82.5908
    3.570   73.2701
    3.585   66.9510
    3.600   59.3260
    3.615   55.8820
    3.630   52.1432
    3.645   50.0369
    3.660   48.8046
    3.675   46.8352
    3.690   46.9300
    3.705   46.7615
    3.720   45.3081
    3.735   45.3818
    3.750   47.2249
    3.765   48.3202
    3.780   48.7730
    3.795   50.4265
    3.810   52.3539
    3.825   53.6493
    3.840   57.7462
    3.855   62.2222
    3.870   66.8878
    3.885   72.0169
    3.900   75.6609
    3.915   77.7357
    3.930   73.1964
    3.945   65.4239
    3.960   56.2823
    3.975   46.3718
    3.990   41.0637
    4.005   40.4213
    4.020   40.9900
    4.035   41.1058
    4.050   40.9268
    4.065   40.6740
    4.080   40.4423
    4.095   40.4107
    4.110   39.0943
    4.125   39.1785
    4.140   37.9358
    4.155   37.9252
    4.170   36.3454
    4.185   35.2291
    4.200   33.9758
    4.215   33.1122
    4.230   31.4903
    4.245   30.5845
    4.260   29.1627
    4.275   27.6777
    4.290   27.3196
    4.305   25.9610
    4.320   24.8341
    4.335   23.5176
    4.350   21.6851
    4.365   20.4213
    4.380   19.1785
    4.395   18.5677
    4.410   17.4408
    4.425   16.4086
    4.440   15.6503
    4.455   14.9763
    4.470   13.6282
    4.485   13.5018
    4.500   12.7751
    4.515   12.3960
    4.530   12.4908
    4.545   11.3639
    4.560   10.8583
    4.575   10.7320
    4.590   10.5213
    4.605    9.6577
    4.620    9.9421
    4.635    9.5524
    4.650    9.3312
    4.665    8.6783
    4.680    9.1311
    4.695    8.4887
    4.710    8.7414
    4.725    8.9626
    4.740    8.2991
    4.755    8.1306
    4.770    7.8462
    4.785    8.2570
    4.800    8.3834
    4.815    8.4150
    4.830    7.7936
    4.845    7.5303
    4.860    7.6461
    4.875    7.6461
    4.890    7.5303
    4.905    7.2670
    4.920    7.4039
    4.935    7.4250
    4.950    7.0353
    4.965    7.2038
    4.980    7.2670
    4.995    7.3091
    5.010    7.2775
    5.025    7.3618
    5.040    7.1827
    5.055    7.4355
    5.070    7.5724
    5.085    7.3091
    5.100    7.5724
    5.115    7.7936
    5.130    7.3828
    5.145    7.6567
    5.160    7.4355
    5.175    7.9831
    5.190    7.8778
    5.205    8.0674
    5.220    7.9726
    5.235    8.0779
    5.250    7.6988
    5.265    8.2464
    5.280    8.3202
    5.295    8.3518
    5.310    8.5097
    5.325    8.4676
    5.340    9.1417
    5.355    9.1943
    5.370    9.5419
    5.385    9.2575
    5.400    9.9631
    5.415   10.6161
    5.430   11.1954
    5.445   12.2801
    5.460   12.7962
    5.475   13.8283
    5.490   15.8189
    5.505   17.3038
    5.520   18.1569
    5.535   18.7572
    5.550   17.4513
    5.565   15.0816
    5.580   11.1743
    5.595    8.1201
    5.610    6.3718
    5.625    5.6451
    5.640    5.5714
    5.655    5.7925
    5.670    5.5187
    5.685    5.2449
    5.700    5.3502
    5.715    5.8241
    5.730    5.5398
    5.745    5.1501
    5.760    5.4239
    5.775    5.5819
    5.790    5.2870
    5.805    5.5503
    5.820    5.6451
    5.835    5.5819
    5.850    5.2449
    5.865    5.4344
    5.880    5.6135
    5.895    5.2343
    5.910    5.4028
    5.925    5.4344
    5.940    5.2870
    5.955    5.6451
    5.970    5.4660
    5.985    5.3186
    6.000    5.4028
    6.015    5.0132
    6.030    5.6556
    6.045    5.4660
    6.060    5.5398
    6.075    5.5714
    6.090    5.8978
    6.105    5.3397
    6.120    5.3923
    6.135    5.5714
    6.150    5.7925
    6.165    5.5503
    6.180    5.5608
    6.195    5.8662
    6.210    5.7820
    6.225    5.5714
    6.240    5.4450
    6.255    5.4555
    6.270    5.8452
    6.285    5.8241
    6.300    5.8768
    6.315    5.8031
    6.330    6.2665
    6.345    5.8136
    6.360    6.0453
    6.375    6.2875
    6.390    6.4666
    6.405    6.2559
    6.420    6.1506
    6.435    6.3191
    6.450    6.6667
    6.465    6.5403
    6.480    6.4666
    6.495    6.5087
    6.510    6.8036
    6.525    6.6351
    6.540    6.8562
    6.555    7.4039
    6.570    7.2880
    6.585    7.8041
    6.600    7.8673
    6.615    7.7304
    6.630    7.8462
    6.645    8.2254
    6.660    8.4255
    6.675    8.7625
    6.690    9.3628
    6.705    9.4471
    6.720    9.8052
    6.735   10.5951
    6.750   11.2796
    6.765   11.4165
    6.780   12.3328
    6.795   12.0169
    6.810   11.9221
    6.825   11.0795
    6.840   11.2059
    6.855   11.1111
    6.870   11.9642
    6.885   12.3855
    6.900   12.7751
    6.915   13.1122
    6.930   13.6282
    6.945   14.0916
    6.960   14.2496
    6.975   14.5972
    6.990   14.3760
    7.005   14.0074
    7.020   12.7857
    7.035   11.9431
    7.050   11.6272
    7.065   10.5845
    7.080    9.5524
    7.095    8.9100
    7.110    8.2886
    7.125    8.1095
    7.140    7.8673
    7.155    7.2459
    7.170    6.7615
    7.185    6.6772
    7.200    6.7088
    7.215    6.3612
    7.230    6.5403
    7.245    6.8457
    7.260    6.4982
    7.275    6.2875
    7.290    6.4560
    7.305    6.1190
    7.320    6.0558
    7.335    6.3928
    7.350    6.1506
    7.365    6.3823
    7.380    5.7609
    7.395    6.0348
    7.410    6.5087
    7.425    6.2243
    7.440    6.2559
    7.455    6.1085
    7.470    6.2033
    7.485    6.2349
    7.500    6.0769
    7.515    6.0664
    7.530    6.0558
    7.545    5.8241
    7.560    6.2981
    7.575    6.4350
    7.590    6.5719
    7.605    6.2033
    7.620    6.4139
    7.635    6.3823
    7.650    6.5613
    7.665    6.4139
    7.680    6.4350
    7.695    6.9616
    7.710    6.8984
    7.725    7.3407
    7.740    7.2565
    7.755    7.7304
    7.770    7.8568
    7.785    8.2570
    7.800    8.4150
    7.815    8.9521
    7.830    9.1522
    7.845    8.5308
    7.860    7.9726
    7.875    8.1095
    7.890    7.7725
    7.905    7.0985
    7.920    6.9405
    7.935    6.6667
    7.950    6.5403
    7.965    7.0669
    7.980    7.1827
    7.995    7.3091
    8.010    7.3302
    8.025    7.3723
    8.040    7.3828
    8.055    7.3512
    8.070    7.3828
    8.085    7.6461
    8.100    7.2986
    8.115    7.3828
    8.130    7.6040
    8.145    7.8568
    8.160    8.0674
    8.175    8.0042
    8.190    7.8673
    8.205    7.7409
    8.220    8.2675
    8.235    8.0674
    8.250    8.0463
    8.265    7.7199
    8.280    7.2249
    8.295    7.8146
    8.310    7.7199
    8.325    7.7725
    8.340    7.8252
    8.355    7.9305
    8.370    8.1201
    8.385    7.7830
    8.400    8.1095
    8.415    8.4887
    8.430    7.8778
    8.445    7.7620
    8.460    7.9831
    8.475    8.0674
    8.490    7.9094
    8.505    8.0674
    8.520    8.3623
    8.535    8.3307
    8.550    8.0674
    8.565    7.7620
    8.580    7.4250
    8.595    7.4671
    8.610    7.4039
    8.625    7.0563
    8.640    7.3723
    8.655    7.0879
    8.670    7.0353
    8.685    7.0879
    8.700    7.3196
    8.715    7.0985
    8.730    6.8246
    8.745    6.6351
    8.760    7.1195
    8.775    6.7615
    8.790    6.9510
    8.805    6.3928
    8.820    6.0558
    8.835    6.4560
    8.850    6.2981
    8.865    5.9926
    8.880    6.0874
    8.895    5.9821
    8.910    6.0558
    8.925    5.8662
    8.940    6.2770
    8.955    5.7609
    8.970    5.8662
    8.985    5.6029
    9.000    5.4766
    9.015    5.7820
    9.030    5.4871
    9.045    5.8241
    9.060    5.5292
    9.075    6.0348
    9.090    5.7188
    9.105    5.5819
    9.120    5.7293
    9.135    5.4555
    9.150    5.4555
    9.165    5.5292
    9.180    5.6556
    9.195    5.8768
    9.210    5.7609
    9.225    5.9926
    9.240    6.0664
    9.255    6.2349
    9.270    6.3507
    9.285    6.2033
    9.300    5.9716
    9.315    6.0137
    9.330    6.1506
    9.345    5.4450
    9.360    5.5819
    9.375    6.1401
    9.390    5.9189
    9.405    5.7715
    9.420    5.9084
    9.435    6.1401
    9.450    6.6140
    9.465    6.4350
    9.480    6.4034
    9.495    6.9300
    9.510    7.4355
    9.525    7.7409
    9.540    8.0674
    9.555    8.3202
    9.570    9.3523
    9.585   10.0895
    9.600   10.1527
    9.615    9.7946
    9.630    8.7204
    9.645    6.9194
    9.660    5.9505
    9.675    5.3712
    9.690    4.8552
    9.705    5.0237
    9.720    5.1711
    9.735    4.9710
    9.750    4.7815
    9.765    4.6972
    9.780    4.8763
    9.795    5.0764
    9.810    5.0237
    9.825    4.9816
    9.840    5.0237
    9.855    5.1501
    9.870    4.6656
    9.885    4.8447
    9.900    4.8341
    9.915    4.9816
    9.930    4.9921
    9.945    5.0553
    9.960    5.0026
    9.975    5.1185
    9.990    5.3502
   10.005    5.0869
   10.020    5.0658
   10.035    4.8341
   10.050    5.3291
   10.065    5.4871
   10.080    5.3923
   10.095    5.0974
   10.110    5.1817
   10.125    5.2554
   10.140    5.2975
   10.155    5.2765
   10.170    5.1501
   10.185    5.1817
   10.200    5.3081
   10.215    5.2975
   10.230    5.4134
   10.245    5.7083
   10.260    5.6767
   10.275    5.8347
   10.290    5.6977
   10.305    6.1506
   10.320    6.3402
   10.335    6.7825
   10.350    6.8457
   10.365    7.3196
   10.380    7.1933
   10.395    6.6772
   10.410    6.2349
   10.425    5.7609
   10.440    5.6451
   10.455    5.5082
   10.470    5.6240
   10.485    5.2238
   10.500    5.4450
   10.515    5.4344
   10.530    5.3502
   10.545    5.5503
   10.560    5.2133
   10.575    5.1501
   10.590    5.2027
   10.605    5.1711
   10.620    5.3607
   10.635    5.3502
   10.650    5.0553
   10.665    5.0553
   10.680    5.1080
   10.695    5.0342
   10.710    5.2133
   10.725    5.1080
   10.740    5.2554
   10.755    5.0553
   10.770    5.0448
   10.785    5.1817
   10.800    4.9921
   10.815    5.3186
   10.830    5.0026
   10.845    4.8868
   10.860    4.9605
   10.875    5.3502
   10.890    5.2238
   10.905    5.3291
   10.920    5.0553
   10.935    4.9394
   10.950    5.0553
   10.965    5.2659
   10.980    5.5819
   10.995    5.9821
   11.010    5.6556
   11.025    5.6345
   11.040    6.3507
   11.055    5.9610
   11.070    5.8031
   11.085    6.0979
   11.100    5.9505
   11.115    6.2033
   11.130    5.5924
   11.145    5.0448
   11.160    4.7920
   11.175    4.7815
   11.190    4.7288
   11.205    4.8868
   11.220    4.7288
   11.235    4.9184
   11.250    5.0974
   11.265    4.7815
   11.280    4.7288
   11.295    4.6130
   11.310    4.6130
   11.325    5.1080
   11.340    5.1395
   11.355    5.0764
   11.370    5.0869
   11.385    4.8236
   11.400    4.8763
   11.415    4.6656
   11.430    4.8657
   11.445    4.8657
   11.460    5.0132
   11.475    5.0658
   11.490    5.0553
   11.505    4.6235
   11.520    4.9289
   11.535    5.0764
   11.550    5.0658
   11.565    5.1606
   11.580    5.2975
   11.595    5.2449
   11.610    5.2659
   11.625    5.1185
   11.640    5.2343
   11.655    5.3712
   11.670    5.6556
   11.685    5.8031
   11.700    6.2033
   11.715    6.3823
   11.730    6.4560
   11.745    6.6983
   11.760    6.4982
   11.775    6.1927
   11.790    6.2243
   11.805    5.5082
   11.820    5.1290
   11.835    5.0553
   11.850    5.2449
   11.865    5.1606
   11.880    5.0764
   11.895    4.9394
   11.910    5.2343
   11.925    5.1711
   11.940    5.0237
   11.955    5.2238
   11.970    5.0448
   11.985    4.9500
   12.000    4.9605
   12.015    4.9816
   12.030    5.1185
   12.045    5.1711
   12.060    5.2449
   12.075    5.0658
   12.090    5.1501
   12.105    4.9184
   12.120    4.7920
   12.135    5.0448
   12.150    5.0026
   12.165    5.2554
   12.180    5.2870
   12.195    5.0974
   12.210    5.3712
   12.225    5.1606
   12.240    5.0026
   12.255    5.6556
   12.270    5.6556
   12.285    5.5608
   12.300    5.6135
   12.315    5.4134
   12.330    5.5082
   12.345    5.8768
   12.360    5.7925
   12.375    5.6345
   12.390    5.5292
   12.405    5.2765
   12.420    5.4555
   12.435    5.3397
   12.450    5.0132
   12.465    5.0553
   12.480    5.4871
   12.495    5.8031
   12.510    5.6451
   12.525    5.0553
   12.540    5.2554
   12.555    5.3502
   12.570    5.4344
   12.585    5.6240
   12.600    5.2765
   12.615    5.4028
   12.630    5.2027
   12.645    5.2343
   12.660    5.6451
   12.675    5.5503
   12.690    5.3397
   12.705    5.6872
   12.720    5.2870
   12.735    5.7293
   12.750    5.6661
   12.765    5.5608
   12.780    5.8031
   12.795    5.5714
   12.810    5.7399
   12.825    5.3712
   12.840    5.5924
   12.855    5.5187
   12.870    5.7293
   12.885    5.3081
   12.900    5.4450
   12.915    5.5819
   12.930    5.8873
   12.945    6.2243
   12.960    6.0664
   12.975    6.4771
   12.990    6.4139
   13.005    6.6667
   13.020    6.3718
   13.035    5.9821
   13.050    5.8347
   13.065    5.6240
   13.080    5.2659
   13.095    5.1817
   13.110    5.0026
   13.125    5.4134
   13.140    5.3291
   13.155    5.0869
   13.170    5.1290
   13.185    5.2238
   13.200    4.8657
   13.215    4.8973
   13.230    5.5608
   13.245    5.2449
   13.260    5.3818
   13.275    5.0237
   13.290    5.2765
   13.305    5.1711
   13.320    5.2765
   13.335    5.1606
   13.350    5.3291
   13.365    5.2870
   13.380    5.1817
   13.395    5.1290
   13.410    5.1501
   13.425    5.1922
   13.440    5.3607
   13.455    4.8973
   13.470    5.2659
   13.485    5.3502
   13.500    5.2870
   13.515    5.2659
   13.530    5.3607
   13.545    5.5503
   13.560    5.3923
   13.575    5.4660
   13.590    6.0137
   13.605    5.5292
   13.620    5.5398
   13.635    5.6135
   13.650    5.3607
   13.665    5.3607
   13.680    5.4450
   13.695    5.0237
   13.710    5.1080
   13.725    5.1817
   13.740    5.0869
   13.755    5.3607
   13.770    5.1606
   13.785    5.3502
   13.800    4.8341
   13.815    5.0974
   13.830    5.3818
   13.845    4.8763
   13.860    4.5814
   13.875    5.0764
   13.890    5.1185
   13.905    5.1290
   13.920    5.4871
   13.935    5.0658
   13.950    5.2343
   13.965    5.2238
   13.980    5.5714
   13.995    4.9184
   14.010    5.1395
   14.025    5.0342
   14.040    5.3291
   14.055    5.4344
   14.070    5.5503
   14.085    5.7925
   14.100    5.8347
   14.115    6.2243
   14.130    6.1401
   14.145    6.0664
   14.160    5.8978
   14.175    5.6767
   14.190    5.4239
   14.205    5.1395
   14.220    5.0448
   14.235    5.0448
   14.250    4.4550
   14.265    4.9500
   14.280    5.2554
   14.295    4.8763
   14.310    4.6972
   14.325    4.5498
   14.340    4.8447
   14.355    5.0026
   14.370    5.0553
   14.385    4.6867
   14.400    4.6972
   14.415    4.8447
   14.430    4.6024
   14.445    4.7288
   14.460    4.7499
   14.475    4.8552
   14.490    4.4760
   14.505    4.4655
   14.520    4.8868
   14.535    4.7604
   14.550    4.6972
   14.565    4.6656
   14.580    4.5814
   14.595    5.2133
   14.610    5.0869
   14.625    4.7604
   14.640    4.5708
   14.655    4.6551
   14.670    4.5603
   14.685    4.5814
   14.700    4.6235
   14.715    5.0869
   14.730    4.9921
   14.745    4.7183
   14.760    4.8552
   14.775    4.8236
   14.790    4.9184
   14.805    4.9816
   14.820    5.0764
   14.835    4.8236
   14.850    4.7709
   14.865    5.0553
   14.880    4.6551
   14.895    4.4655
   14.910    4.7709
   14.925    4.6551
   14.940    4.8868
   14.955    4.4339
   14.970    4.6130
   14.985    4.9078
   15.000    4.5814
   15.015    4.7077
   15.030    4.7499
   15.045    4.7393
   15.060    4.7815
   15.075    4.5814
   15.090    4.8236
   15.105    4.8763
   15.120    4.7815
   15.135    5.0869
   15.150    4.7920
   15.165    4.9500
   15.180    4.7815
   15.195    4.8131
   15.210    4.7183
   15.225    5.0237
   15.240    4.6761
   15.255    4.6130
   15.270    5.0132
   15.285    4.8131
   15.300    4.7077
   15.315    4.7288
   15.330    4.6761
   15.345    4.7183
   15.360    4.7604
   15.375    4.9816
   15.390    4.8868
   15.405    4.9816
   15.420    4.8868
   15.435    5.0026
   15.450    4.7920
   15.465    4.8447
   15.480    4.7499
   15.495    5.0237
   15.510    4.7077
   15.525    4.7183
   15.540    4.9289
   15.555    4.5603
   15.570    4.6551
   15.585    5.1080
   15.600    4.8763
   15.615    4.8552
   15.630    5.1922
   15.645    4.8447
   15.660    4.6761
   15.675    4.5919
   15.690    4.8341
   15.705    4.9184
   15.720    4.9078
   15.735    4.8131
   15.750    4.7288
   15.765    5.0974
   15.780    4.6972
   15.795    4.8447
   15.810    5.0974
   15.825    5.0342
   15.840    4.8657
   15.855    4.7393
   15.870    4.8763
   15.885    5.1711
   15.900    5.1501
   15.915    4.8552
   15.930    4.8973
   15.945    4.6761
   15.960    4.7183
   15.975    4.7604
   15.990    4.8341
   16.005    4.5603
   16.020    4.7709
   16.035    4.7920
   16.050    4.8657
   16.065    4.8763
   16.080    5.1606
   16.095    5.1606
   16.110    4.7709
   16.125    5.1395
   16.140    4.9394
   16.155    4.8973
   16.170    5.1185
   16.185    5.3818
   16.200    4.8341
   16.215    4.7288
   16.230    4.8657
   16.245    4.6656
   16.260    4.9078
   16.275    4.8341
   16.290    4.4866
   16.305    4.5392
   16.320    4.6867
   16.335    4.6551
   16.350    4.9816
   16.365    4.8763
   16.380    4.7077
   16.395    4.5182
   16.410    4.6024
   16.425    4.6235
   16.440    4.5919
   16.455    4.7499
   16.470    4.6551
   16.485    4.6130
   16.500    4.6445
   16.515    4.7183
   16.530    4.9184
   16.545    4.9816
   16.560    4.9921
   16.575    5.0237
   16.590    4.8447
   16.605    4.7920
   16.620    4.7499
   16.635    5.0974
   16.650    5.0026
   16.665    4.7709
   16.680    5.0237
   16.695    4.7604
   16.710    4.4234
   16.725    4.7393
   16.740    4.8131
   16.755    4.8236
   16.770    4.7709
   16.785    4.5392
   16.800    4.7499
   16.815    4.7393
   16.830    4.5603
   16.845    4.4444
   16.860    4.7499
   16.875    4.6972
   16.890    4.5814
   16.905    4.7604
   16.920    4.9394
   16.935    4.6130
   16.950    4.5814
   16.965    5.0974
   16.980    4.8236
   16.995    4.9500
   17.010    4.9500
   17.025    4.9184
   17.040    5.0448
   17.055    5.4871
   17.070    5.2659
   17.085    5.6345
   17.100    6.0664
   17.115    5.6029
   17.130    5.2975
   17.145    5.4871
   17.160    5.2870
   17.175    5.0974
   17.190    4.8341
   17.205    4.8657
   17.220    4.7077
   17.235    4.6551
   17.250    4.8868
   17.265    4.7499
   17.280    4.5392
   17.295    4.4234
   17.310    4.6024
   17.325    4.8131
   17.340    4.3918
   17.355    4.8868
   17.370    4.6972
   17.385    4.4444
   17.400    4.5919
   17.415    4.9289
   17.430    4.5287
   17.445    4.5287
   17.460    4.8131
   17.475    4.6761
   17.490    5.1185
   17.505    5.0237
   17.520    4.8868
   17.535    4.9289
   17.550    5.0974
   17.565    5.1395
   17.580    5.0026
   17.595    4.8025
   17.610    4.9816
   17.625    5.0342
   17.640    4.6656
   17.655    4.6235
   17.670    4.7077
   17.685    4.5708
   17.700    4.6445
   17.715    4.7604
   17.730    4.8025
   17.745    4.8973
   17.760    4.4760
   17.775    4.7393
   17.790    5.0448
   17.805    5.0237
   17.820    5.0237
   17.835    4.8131
   17.850    5.0974
   17.865    5.0974
   17.880    4.9289
   17.895    5.0026
   17.910    4.9816
   17.925    5.3081
   17.940    5.0237
   17.955    5.2343
   17.970    5.0658
   17.985    5.0658
   18.000    5.4450
   18.015    5.0132
   18.030    4.7920
   18.045    4.8868
   18.060    5.2027
   18.075    4.6130
   18.090    4.6972
   18.105    4.9500
   18.120    5.1606
   18.135    5.0342
   18.150    4.6024
   18.165    4.4444
   18.180    4.7183
   18.195    5.0342
   18.210    5.1290
   18.225    4.9078
   18.240    5.1395
   18.255    4.8552
   18.270    4.7288
   18.285    4.9921
   18.300    4.7393
   18.315    4.8868
   18.330    4.8657
   18.345    4.8552
   18.360    4.9289
   18.375    4.9605
   18.390    5.0658
   18.405    5.1395
   18.420    5.0132
   18.435    5.0132
   18.450    4.8025
   18.465    5.1080
   18.480    5.1606
   18.495    5.1185
   18.510    4.6656
   18.525    4.4550
   18.540    4.6656
   18.555    4.7499
   18.570    5.1711
   18.585    4.8236
   18.600    4.8236
   18.615    4.6235
   18.630    4.7709
   18.645    4.7604
   18.660    5.0448
   18.675    4.9078
   18.690    4.7288
   18.705    5.0132
   18.720    4.5708
   18.735    4.7183
   18.750    4.4971
   18.765    4.5498
   18.780    4.5814
   18.795    5.0553
   18.810    5.0342
   18.825    4.9816
   18.840    4.8868
   18.855    4.8657
   18.870    4.7183
   18.885    4.6972
   18.900    4.9078
   18.915    4.6656
   18.930    4.5603
   18.945    4.9500
   18.960    4.9394
   18.975    4.9921
   18.990    4.6761
   19.005    5.1922
   19.020    4.9394
   19.035    4.7604
   19.050    4.6867
   19.065    4.8657
   19.080    4.7920
   19.095    4.7288
   19.110    4.9078
   19.125    4.8763
   19.140    4.8025
   19.155    4.6024
   19.170    4.6867
   19.185    4.7815
   19.200    5.0132
   19.215    4.9710
   19.230    4.8657
   19.245    4.7709
   19.260    4.8025
   19.275    4.9500
   19.290    4.5708
   19.305    4.8236
   19.320    4.8447
   19.335    4.9289
   19.350    4.8868
   19.365    4.9816
   19.380    5.2659
   19.395    5.0869
   19.410    4.8447
   19.425    5.0237
   19.440    5.1290
   19.455    5.0448
   19.470    5.3397
   19.485    5.0658
   19.500    4.8763
   19.515    5.0764
   19.530    5.1606
   19.545    5.3923
   19.560    5.0658
   19.575    5.4239
   19.590    5.2449
   19.605    5.3923
   19.620    5.7820
   19.635    5.8662
   19.650    5.1080
   19.665    5.3818
   19.680    5.3923
   19.695    5.1606
   19.710    5.1606
   19.725    5.4028
   19.740    5.0764
   19.755    5.0026
   19.770    5.0974
   19.785    5.2659
   19.800    5.2449
   19.815    5.3502
   19.830    5.2659
   19.845    5.3502
   19.860    5.1080
   19.875    5.3818
   19.890    5.1395
   19.905    5.0553
   19.920    5.1395
   19.935    5.2554
   19.950    5.5714
   19.965    5.3607
   19.980    5.1606
   19.995    5.0553
   20.010    5.2027
   20.025    5.1922
   20.040    5.5608
   20.055    5.4134
   20.070    5.3607
   20.085    5.2975
   20.100    5.3081
   20.115    5.2133
   20.130    5.2343
   20.145    5.3081
   20.160    5.3081
   20.175    5.3397
   20.190    5.4766
   20.205    5.2027
   20.220    5.3081
   20.235    5.3923
   20.250    5.4239
   20.265    5.2870
   20.280    5.4660
   20.295    5.6767
   20.310    5.2765
   20.325    5.2659
   20.340    5.3502
   20.355    5.3818
   20.370    5.5292
   20.385    5.6135
   20.400    5.8662
   20.415    5.9294
   20.430    5.9400
   20.445    5.5924
   20.460    5.7188
   20.475    5.2975
   20.490    5.5398
   20.505    5.2659
   20.520    5.2554
   20.535    5.2027
   20.550    5.7188
   20.565    5.1080
   20.580    5.2343
   20.595    5.1290
   20.610    5.4028
   20.625    5.1185
   20.640    5.1080
   20.655    5.3502
   20.670    5.2133
   20.685    5.3081
   20.700    5.2975
   20.715    5.4239
   20.730    5.2027
   20.745    5.5082
   20.760    5.4660
   20.775    5.1606
   20.790    5.0658
   20.805    5.4660
   20.820    5.0764
   20.835    5.2554
   20.850    4.7183
   20.865    5.6029
   20.880    5.2975
   20.895    5.4344
   20.910    5.3712
   20.925    5.6345
   20.940    5.2554
   20.955    5.2449
   20.970    4.8657
   20.985    5.2765
   21.000    5.2765
   21.015    5.2133
   21.030    5.5503
   21.045    5.5714
   21.060    5.2870
   21.075    5.2027
   21.090    5.5714
   21.105    5.1501
   21.120    5.1185
   21.135    4.7920
   21.150    5.4239
   21.165    5.6029
   21.180    4.9816
   21.195    5.0974
   21.210    5.1817
   21.225    5.3291
   21.240    5.3712
   21.255    5.2659
   21.270    5.0658
   21.285    5.4450
   21.300    5.0869
   21.315    4.9500
   21.330    5.0026
   21.345    5.1922
   21.360    4.9078
   21.375    5.0237
   21.390    5.1395
   21.405    5.0448
   21.420    5.0974
   21.435    4.8763
   21.450    5.2870
   21.465    5.4239
   21.480    5.1080
   21.495    4.9710
   21.510    5.2133
   21.525    5.2343
   21.540    4.9078
   21.555    5.4134
   21.570    5.2449
   21.585    5.2659
   21.600    5.1922
   21.615    5.5398
   21.630    5.5398
   21.645    5.4344
   21.660    5.0974
   21.675    5.1817
   21.690    5.2027
   21.705    4.9605
   21.720    4.9500
   21.735    5.3818
   21.750    5.3712
   21.765    5.4976
   21.780    5.1606
   21.795    5.3712
   21.810    5.1817
   21.825    5.2554
   21.840    5.4134
   21.855    5.5714
   21.870    5.6029
   21.885    5.2870
   21.900    5.4344
   21.915    5.5398
   21.930    5.4239
   21.945    5.2343
   21.960    5.1606
   21.975    5.0026
   21.990    4.8552
   22.005    5.4028
   22.020    5.2343
   22.035    5.0553
   22.050    5.0869
   22.065    5.0764
   22.080    5.0553
   22.095    5.2343
   22.110    5.1501
   22.125    5.1185
   22.140    5.4871
   22.155    5.0026
   22.170    5.3502
   22.185    5.4028
   22.200    5.2343
   22.215    5.5398
   22.230    5.2449
   22.245    5.3081
   22.260    4.9184
   22.275    5.0553
   22.290    5.3186
   22.305    5.2659
   22.320    5.4344
   22.335    5.3502
   22.350    5.3186
   22.365    5.4871
   22.380    5.1922
   22.395    5.3186
   22.410    5.4239
   22.425    5.2765
   22.440    4.9710
   22.455    5.3712
   22.470    5.3712
   22.485    5.3818
   22.500    5.6767
   22.515    5.6451
   22.530    5.4134
   22.545    5.6451
   22.560    5.8662
   22.575    5.8978
   22.590    5.6661
   22.605    5.7399
   22.620    5.8347
   22.635    5.9821
   22.650    6.1190
   22.665    5.8241
   22.680    5.4344
   22.695    5.4976
   22.710    5.4660
   22.725    5.8557
   22.740    5.4555
   22.755    5.1080
   22.770    5.1185
   22.785    4.9710
   22.800    5.1501
   22.815    5.0342
   22.830    5.4766
   22.845    5.4871
   22.860    5.3607
   22.875    5.4555
   22.890    5.3397
   22.905    5.3081
   22.920    5.2343
   22.935    5.1817
   22.950    5.7820
   22.965    5.6977
   22.980    6.0979
   22.995    5.7925
   23.010    5.5503
   23.025    5.4555
   23.040    5.3397
   23.055    5.3397
   23.070    4.9500
   23.085    4.8131
   23.100    4.8236
   23.115    4.8552
   23.130    4.8973
   23.145    5.0237
   23.160    4.9710
   23.175    5.1290
   23.190    5.4871
   23.205    4.9605
   23.220    4.8657
   23.235    5.3712
   23.250    5.3502
   23.265    5.1185
   23.280    5.2133
   23.295    4.9921
   23.310    5.1185
   23.325    5.2975
   23.340    5.3712
   23.355    4.8131
   23.370    5.0026
   23.385    5.1290
   23.400    4.9921
   23.415    4.9816
   23.430    4.7709
   23.445    4.9710
   23.460    5.0869
   23.475    5.0448
   23.490    4.8973
   23.505    4.9816
   23.520    5.3291
   23.535    5.3712
   23.550    5.1606
   23.565    5.1501
   23.580    4.9500
   23.595    5.1185
   23.610    5.1501
   23.625    5.1080
   23.640    5.1185
   23.655    5.1817
   23.670    5.1606
   23.685    4.9500
   23.700    5.1080
   23.715    5.2133
   23.730    5.4344
   23.745    5.1711
   23.760    5.0132
   23.775    4.8763
   23.790    4.9394
   23.805    4.8236
   23.820    5.0869
   23.835    4.9394
   23.850    4.7393
   23.865    4.8341
   23.880    5.0132
   23.895    5.1185
   23.910    4.7604
   23.925    5.0237
   23.940    5.4555
   23.955    5.1606
   23.970    4.8131
   23.985    5.1501
   24.000    5.0553
   24.015    5.1395
   24.030    5.1185
   24.045    4.8868
   24.060    5.1922
   24.075    4.8657
   24.090    4.9921
   24.105    5.1080
   24.120    4.8973
   24.135    4.9500
   24.150    4.7604
   24.165    5.0448
   24.180    5.0869
   24.195    4.7183
   24.210    4.9078
   24.225    5.0237
   24.240    5.0869
   24.255    5.1395
   24.270    5.1080
   24.285    5.0869
   24.300    4.9710
   24.315    4.8973
   24.330    4.8973
   24.345    5.0974
   24.360    5.1817
   24.375    4.9500
   24.390    5.0237
   24.405    4.9500
   24.420    5.0448
   24.435    5.1185
   24.450    5.0342
   24.465    4.9921
   24.480    4.8552
   24.495    4.8236
   24.510    5.2765
   24.525    5.2343
   24.540    5.3397
   24.555    5.2870
   24.570    5.0132
   24.585    4.9921
   24.600    5.4976
   24.615    5.2870
   24.630    4.9078
   24.645    5.0237
   24.660    5.2554
   24.675    5.1185
   24.690    5.3502
   24.705    5.4028
   24.720    5.3397
   24.735    5.1290
   24.750    4.4866
   24.765    4.8447
   24.780    4.5814
   24.795    4.7183
   24.810    5.0869
   24.825    5.0026
   24.840    4.7393
   24.855    4.5919
   24.870    4.7393
   24.885    4.8025
   24.900    4.4128
   24.915    4.8447
   24.930    4.7815
   24.945    5.0448
   24.960    5.0237
   24.975    5.2238
   24.990    5.0342
   25.005    4.8552
   25.020    4.8447
   25.035    4.9289
   25.050    4.6551
   25.065    4.6340
   25.080    5.0237
   25.095    4.8025
   25.110    4.8552
   25.125    4.5919
   25.140    4.7077
   25.155    4.9605
   25.170    5.0658
   25.185    4.8552
   25.200    4.8657
   25.215    5.1185
   25.230    5.0342
   25.245    4.7183
   25.260    4.9605
   25.275    4.9289
   25.290    4.9394
   25.305    4.7077
   25.320    5.0237
   25.335    4.8236
   25.350    4.6130
   25.365    4.6235
   25.380    4.3602
   25.395    4.5603
   25.410    4.6972
   25.425    4.9816
   25.440    5.0026
   25.455    4.9394
   25.470    5.0448
   25.485    4.8763
   25.500    4.4971
   25.515    4.8236
   25.530    4.9816
   25.545    4.7920
   25.560    4.7393
   25.575    4.5182
   25.590    4.8973
   25.605    4.6024
   25.620    4.6235
   25.635    4.5814
   25.650    4.3918
   25.665    4.4128
   25.680    4.7920
   25.695    4.8025
   25.710    4.8657
   25.725    4.7920
   25.740    5.0132
   25.755    5.0974
   25.770    4.9289
   25.785    5.0026
   25.800    5.0974
   25.815    4.9710
   25.830    5.2554
   25.845    5.2765
   25.860    5.2238
   25.875    5.3923
   25.890    5.2343
   25.905    4.7604
   25.920    5.0448
   25.935    4.6235
   25.950    4.6130
   25.965    4.7709
   25.980    4.6761
   25.995    4.5076
   26.010    4.5182
   26.025    4.6867
   26.040    4.5919
   26.055    4.5708
   26.070    4.7077
   26.085    4.6656
   26.100    4.4023
   26.115    4.2970
   26.130    4.6551
   26.145    4.5708
   26.160    4.7183
   26.175    4.6656
   26.190    4.6130
   26.205    4.7709
   26.220    4.3075
   26.235    4.3391
   26.250    4.5287
   26.265    4.5603
   26.280    4.5603
   26.295    4.6024
   26.310    4.4339
   26.325    4.2338
   26.340    4.1917
   26.355    4.4655
   26.370    4.5603
   26.385    4.4444
   26.400    4.3918
   26.415    4.5076
   26.430    4.8131
   26.445    4.9605
   26.460    4.8341
   26.475    4.5182
   26.490    4.6235
   26.505    4.6867
   26.520    4.5076
   26.535    4.2549
   26.550    4.3075
   26.565    4.6024
   26.580    4.3286
   26.595    4.5392
   26.610    4.3286
   26.625    4.5603
   26.640    4.5182
   26.655    4.7604
   26.670    4.5182
   26.685    4.4339
   26.700    4.2549
   26.715    4.4655
   26.730    4.5708
   26.745    4.4128
   26.760    4.3391
   26.775    4.0864
   26.790    4.3918
   26.805    4.4971
   26.820    4.7920
   26.835    4.3813
   26.850    4.6445
   26.865    4.6656
   26.880    4.5919
   26.895    4.5708
   26.910    4.4655
   26.925    4.4234
   26.940    4.1390
   26.955    4.2127
   26.970    4.1917
   26.985    4.4339
   27.000    4.7920
   27.015    4.9921
   27.030    4.6024
   27.045    4.8657
   27.060    4.3918
   27.075    4.5814
   27.090    4.7815
   27.105    4.7499
   27.120    4.2549
   27.135    4.4550
   27.150    4.6761
   27.165    4.7709
   27.180    4.4760
   27.195    4.4023
   27.210    4.4128
   27.225    4.4760
   27.240    4.4023
   27.255    4.4128
   27.270    4.6130
   27.285    4.6972
   27.300    4.5498
   27.315    4.5919
   27.330    4.6235
   27.345    4.3497
   27.360    4.2338
   27.375    4.6761
   27.390    4.3075
   27.405    4.2233
   27.420    4.3181
   27.435    4.4655
   27.450    4.4128
   27.465    4.3286
   27.480    4.3181
   27.495    4.6445
   27.510    4.5814
   27.525    4.5287
   27.540    4.8131
   27.555    4.6235
   27.570    4.6340
   27.585    4.6130
   27.600    4.3497
   27.615    4.2970
   27.630    4.4971
   27.645    4.4444
   27.660    4.6130
   27.675    4.5287
   27.690    4.5708
   27.705    4.7077
   27.720    4.4234
   27.735    4.4339
   27.750    4.5076
   27.765    4.5392
   27.780    4.6445
   27.795    4.7709
   27.810    4.6235
   27.825    4.5076
   27.840    4.4760
   27.855    4.5182
   27.870    4.4339
   27.885    4.4444
   27.900    4.1706
   27.915    4.1496
   27.930    4.1496
   27.945    4.3391
   27.960    4.4550
   27.975    4.3286
   27.990    4.4023
   28.005    4.4866
   28.020    4.5814
   28.035    4.5182
   28.050    4.8973
   28.065    5.2133
   28.080    4.7604
   28.095    4.3286
   28.110    4.5392
   28.125    4.7499
   28.140    4.7499
   28.155    5.2238
   28.170    4.8447
   28.185    4.7604
   28.200    4.7499
   28.215    4.6867
   28.230    4.9289
   28.245    5.0026
   28.260    4.7709
   28.275    4.8236
   28.290    4.6972
   28.305    4.4550
   28.320    4.5287
   28.335    4.1706
   28.350    4.1601
   28.365    4.3181
   28.380    4.2654
   28.395    4.4971
   28.410    4.2443
   28.425    4.7183
   28.440    4.9605
   28.455    4.5076
   28.470    4.2233
   28.485    4.7183
   28.500    4.6024
   28.515    4.4760
   28.530    4.6130
   28.545    4.7815
   28.560    4.4550
   28.575    4.4655
   28.590    4.3813
   28.605    4.5919
   28.620    4.4760
   28.635    4.1706
   28.650    4.1285
   28.665    4.4023
   28.680    4.0337
   28.695    4.2127
   28.710    4.1917
   28.725    4.2970
   28.740    4.3181
   28.755    4.1180
   28.770    4.3707
   28.785    4.4971
   28.800    4.1917
   28.815    4.1706
   28.830    4.2022
   28.845    4.4023
   28.860    4.0232
   28.875    4.2443
   28.890    4.4234
   28.905    4.2865
   28.920    4.1917
   28.935    4.3497
   28.950    4.2654
   28.965    4.1180
   28.980    4.3707
   28.995    4.4128
   29.010    4.4971
   29.025    4.2759
   29.040    4.5498
   29.055    4.5919
   29.070    4.2233
   29.085    4.3707
   29.100    4.2759
   29.115    4.2654
   29.130    4.4128
   29.145    4.2759
   29.160    4.1496
   29.175    4.2443
   29.190    4.1180
   29.205    4.2338
   29.220    4.2233
   29.235    4.3075
   29.250    4.4023
   29.265    4.5076
   29.280    4.3813
   29.295    4.0864
   29.310    4.1074
   29.325    4.5287
   29.340    4.7393
   29.355    4.3707
   29.370    4.2233
   29.385    4.1180
   29.400    4.2759
   29.415    4.4760
   29.430    4.4550
   29.445    4.6130
   29.460    4.2022
   29.475    4.4234
   29.490    3.9284
   29.505    3.8125
   29.520    4.1390
   29.535    4.3497
   29.550    4.1811
   29.565    4.2443
   29.580    4.5182
   29.595    4.1811
   29.610    4.3286
   29.625    4.1706
   29.640    4.1390
   29.655    4.3075
   29.670    4.1285
   29.685    4.1074
   29.700    4.3075
   29.715    4.1180
   29.730    4.1285
   29.745    4.3181
   29.760    4.2865
   29.775    4.0126
   29.790    4.3181
   29.805    4.0758
   29.820    4.1706
   29.835    4.4023
   29.850    4.0021
   29.865    4.2443
   29.880    4.0653
   29.895    4.0864
   29.910    4.4128
   29.925    4.5392
   29.940    4.2443
   29.955    4.0337
   29.970    4.1917
   29.985    4.3075
   30.000    4.0653
   30.015    4.2970
   30.030    4.2127
   30.045    4.1285
   30.060    4.3391
   30.075    4.3497
   30.090    4.2127
   30.105    4.2127
   30.120    4.2654
   30.135    4.0126
   30.150    3.9073
   30.165    3.8020
   30.180    4.2127
   30.195    3.9389
   30.210    3.7388
   30.225    3.7283
   30.240    4.1285
   30.255    3.9389
   30.270    3.8968
   30.285    3.8231
   30.300    3.9705
   30.315    3.7809
   30.330    3.7704
   30.345    3.8125
   30.360    3.8441
   30.375    4.2022
   30.390    3.7388
   30.405    3.9810
   30.420    3.9810
   30.435    3.8968
   30.450    3.5914
   30.465    4.0337
   30.480    4.2338
   30.495    4.1601
   30.510    4.4760
   30.525    4.0021
   30.540    4.0232
   30.555    3.9916
   30.570    4.0337
   30.585    4.0021
   30.600    4.0864
   30.615    4.1496
   30.630    4.1706
   30.645    4.0969
   30.660    4.2443
   30.675    4.0232
   30.690    4.1601
   30.705    4.3391
   30.720    4.1706
   30.735    4.1496
   30.750    4.1706
   30.765    4.0864
   30.780    4.1074
   30.795    3.6335
   30.810    4.0864
   30.825    4.1917
   30.840    4.0864
   30.855    4.1496
   30.870    3.7809
   30.885    4.1917
   30.900    4.3707
   30.915    3.8547
   30.930    4.1811
   30.945    4.3286
   30.960    4.1074
   30.975    4.0126
   30.990    4.1601
   31.005    3.8547
   31.020    3.9916
   31.035    3.6756
   31.050    3.8968
   31.065    4.1601
   31.080    3.9284
   31.095    4.0864
   31.110    3.9389
   31.125    4.1390
   31.140    4.2022
   31.155    4.2338
   31.170    4.0758
   31.185    3.8125
   31.200    3.8336
   31.215    4.1811
   31.230    4.2970
   31.245    3.8547
   31.260    3.9073
   31.275    4.0442
   31.290    4.2759
   31.305    3.9600
   31.320    4.0442
   31.335    4.0337
   31.350    3.9179
   31.365    3.9600
   31.380    3.8441
   31.395    4.0758
   31.410    3.7493
   31.425    3.6230
   31.440    3.7599
   31.455    4.0758
   31.470    4.1496
   31.485    4.0126
   31.500    4.1180
   31.515    4.0864
   31.530    4.2970
   31.545    3.9284
   31.560    4.1496
   31.575    4.1285
   31.590    4.0653
   31.605    4.2970
   31.620    4.3707
   31.635    4.3707
   31.650    3.8441
   31.665    3.9389
   31.680    3.9810
   31.695    3.7599
   31.710    3.9810
   31.725    4.3813
   31.740    4.1074
   31.755    3.9494
   31.770    4.0442
   31.785    4.2865
   31.800    3.9705
   31.815    3.8863
   31.830    3.8863
   31.845    3.9179
   31.860    4.1180
   31.875    4.3918
   31.890    4.0653
   31.905    4.4866
   31.920    4.1180
   31.935    4.0653
   31.950    4.1180
   31.965    4.0442
   31.980    4.2022
   31.995    4.0548
   32.010    3.8125
   32.025    3.8441
   32.040    3.9494
   32.055    3.9284
   32.070    3.9705
   32.085    3.8968
   32.100    3.8441
   32.115    3.9284
   32.130    3.9916
   32.145    3.9284
   32.160    4.1601
   32.175    3.9916
   32.190    4.0232
   32.205    3.8441
   32.220    4.0337
   32.235    3.9916
   32.250    4.1285
   32.265    3.8757
   32.280    3.8125
   32.295    3.8863
   32.310    3.8441
   32.325    3.9284
   32.340    3.6651
   32.355    3.6862
   32.370    3.8125
   32.385    4.1390
   32.400    4.0021
   32.415    3.8863
   32.430    3.8020
   32.445    3.8441
   32.460    3.9284
   32.475    4.2865
   32.490    3.8125
   32.505    3.9179
   32.520    3.8863
   32.535    3.9705
   32.550    3.9284
   32.565    3.8231
   32.580    3.6967
   32.595    3.6335
   32.610    3.7493
   32.625    3.8231
   32.640    3.9705
   32.655    3.9073
   32.670    3.7493
   32.685    3.7283
   32.700    3.6335
   32.715    3.9494
   32.730    3.6440
   32.745    3.8757
   32.760    3.7388
   32.775    3.6546
   32.790    4.0021
   32.805    3.8652
   32.820    3.7704
   32.835    3.8020
   32.850    3.5703
   32.865    3.9810
   32.880    3.8020
   32.895    3.7915
   32.910    3.5703
   32.925    3.7388
   32.940    4.1285
   32.955    3.4860
   32.970    3.5703
   32.985    3.7388
   33.000    3.4439
   33.015    3.4966
   33.030    3.8125
   33.045    3.6756
   33.060    3.5598
   33.075    3.7599
   33.090    3.8231
   33.105    3.9494
   33.120    3.8020
   33.135    3.6019
   33.150    3.8020
   33.165    3.5598
   33.180    3.9389
   33.195    3.9284
   33.210    3.8231
   33.225    3.8757
   33.240    3.6651
   33.255    3.8652
   33.270    3.7072
   33.285    3.5808
   33.300    3.6546
   33.315    3.5808
   33.330    3.5703
   33.345    3.3386
   33.360    3.4229
   33.375    3.3597
   33.390    3.7388
   33.405    4.0864
   33.420    3.8441
   33.435    3.6440
   33.450    3.4123
   33.465    3.7072
   33.480    3.7388
   33.495    3.8652
   33.510    3.6124
   33.525    3.7388
   33.540    3.7177
   33.555    3.8231
   33.570    3.5598
   33.585    3.7809
   33.600    4.0548
   33.615    3.8652
   33.630    3.7493
   33.645    3.5808
   33.660    3.8231
   33.675    3.7809
   33.690    3.8020
   33.705    3.2122
   33.720    3.5808
   33.735    3.6967
   33.750    3.7704
   33.765    3.4334
   33.780    3.6019
   33.795    3.4860
   33.810    3.6546
   33.825    3.9179
   33.840    3.6651
   33.855    3.4544
   33.870    3.3175
   33.885    3.4544
   33.900    3.5387
   33.915    3.4650
   33.930    3.6862
   33.945    3.8231
   33.960    3.5387
   33.975    3.7283
   33.990    3.5176
   34.005    3.3491
   34.020    3.3386
   34.035    3.6862
   34.050    3.7493
   34.065    3.4439
   34.080    3.6862
   34.095    3.4650
   34.110    3.4966
   34.125    3.5598
   34.140    3.5387
   34.155    3.3281
   34.170    3.3807
   34.185    3.6651
   34.200    3.6546
   34.215    3.6546
   34.230    3.6019
   34.245    3.6967
   34.260    3.5387
   34.275    3.6967
   34.290    3.5598
   34.305    3.4755
   34.320    3.6546
   34.335    3.6862
   34.350    3.4650
   34.365    3.3386
   34.380    3.6440
   34.395    3.7915
   34.410    3.3281
   34.425    3.3597
   34.440    3.6230
   34.455    3.4650
   34.470    3.6651
   34.485    3.3913
   34.500    3.5176
   34.515    3.5703
   34.530    3.4018
   34.545    3.2438
   34.560    3.2754
   34.575    3.3702
   34.590    3.4544
   34.605    3.5808
   34.620    3.7599
   34.635    3.6335
   34.650    3.6335
   34.665    3.6440
   34.680    3.2333
   34.695    3.0753
   34.710    3.3597
   34.725    3.4544
   34.740    3.7809
   34.755    3.5387
   34.770    3.4123
   34.785    3.2965
   34.800    3.3913
   34.815    3.3807
   34.830    3.6019
   34.845    3.4650
   34.860    3.5282
   34.875    3.4755
   34.890    3.6335
   34.905    3.4439
   34.920    3.8547
   34.935    3.3807
   34.950    3.3491
   34.965    3.3913
   34.980    3.2859
   34.995    3.1280
   35.010    3.1912
   35.025    3.3597
   35.040    3.5071
   35.055    3.4439
   35.070    3.3281
   35.085    3.4650
   35.100    3.2754
   35.115    3.3913
   35.130    3.7177
   35.145    3.6756
   35.160    3.6440
   35.175    3.7599
   35.190    3.5071
   35.205    3.3597
   35.220    3.8125
   35.235    3.6967
   35.250    3.5282
   35.265    3.2333
   35.280    3.5071
   35.295    3.5598
   35.310    3.5598
   35.325    3.4650
   35.340    3.4650
   35.355    3.3913
   35.370    3.2017
   35.385    3.4439
   35.400    3.3702
   35.415    3.4650
   35.430    3.5492
   35.445    3.4860
   35.460    3.6230
   35.475    3.2859
   35.490    3.3913
   35.505    3.3597
   35.520    3.4650
   35.535    3.4334
   35.550    3.3702
   35.565    3.3702
   35.580    3.4334
   35.595    3.3807
   35.610    3.4755
   35.625    3.4544
   35.640    3.4544
   35.655    3.2649
   35.670    3.4229
   35.685    3.5176
   35.700    3.3807
   35.715    3.2859
   35.730    3.4018
   35.745    3.3175
   35.760    3.3913
   35.775    3.3175
   35.790    3.3070
   35.805    3.2754
   35.820    3.2754
   35.835    3.2227
   35.850    3.1912
   35.865    3.1385
   35.880    3.3702
   35.895    3.0858
   35.910    2.9595
   35.925    3.2859
   35.940    3.5071
   35.955    3.2965
   35.970    3.3386
   35.985    3.3070
   36.000    3.2754
   36.015    3.2543
   36.030    3.1490
   36.045    3.0648
   36.060    3.1385
   36.075    3.4334
   36.090    3.3491
   36.105    3.3491
   36.120    3.1806
   36.135    3.2649
   36.150    3.2017
   36.165    3.3597
   36.180    3.4229
   36.195    3.2965
   36.210    3.1596
   36.225    3.3281
   36.240    3.3281
   36.255    3.3597
   36.270    2.8857
   36.285    3.1174
   36.300    3.3491
   36.315    3.2333
   36.330    3.2754
   36.345    3.4650
   36.360    3.5598
   36.375    3.4123
   36.390    3.4018
   36.405    3.3386
   36.420    3.3491
   36.435    3.2438
   36.450    3.4860
   36.465    3.4860
   36.480    3.0753
   36.495    3.1385
   36.510    3.3491
   36.525    3.2859
   36.540    3.2965
   36.555    3.3386
   36.570    3.1385
   36.585    3.2754
   36.600    3.0964
   36.615    3.1174
   36.630    3.0226
   36.645    3.1490
   36.660    3.2543
   36.675    3.4860
   36.690    3.1912
   36.705    3.0753
   36.720    3.0437
   36.735    3.2017
   36.750    3.4229
   36.765    3.1806
   36.780    3.0542
   36.795    3.0016
   36.810    2.9173
   36.825    3.0226
   36.840    3.1806
   36.855    3.2543
   36.870    3.1912
   36.885    3.1385
   36.900    3.0964
   36.915    3.3702
   36.930    3.2227
   36.945    3.2227
   36.960    3.3281
   36.975    3.2438
   36.990    3.1490
   37.005    2.8331
   37.020    3.2017
   37.035    3.2438
   37.050    3.1385
   37.065    2.9595
   37.080    3.0753
   37.095    3.0858
   37.110    3.2649
   37.125    3.6546
   37.140    3.5282
   37.155    3.2649
   37.170    3.3281
   37.185    3.2438
   37.200    3.2859
   37.215    3.2859
   37.230    3.0226
   37.245    2.8647
   37.260    3.2965
   37.275    3.3175
   37.290    3.2754
   37.305    3.2227
   37.320    3.3491
   37.335    3.0226
   37.350    3.2649
   37.365    3.1174
   37.380    3.0226
   37.395    3.4018
   37.410    3.4439
   37.425    3.1806
   37.440    3.0226
   37.455    3.3281
   37.470    3.0964
   37.485    3.1385
   37.500    3.3281
   37.515    3.0858
   37.530    3.2017
   37.545    3.2017
   37.560    2.8331
   37.575    3.0016
   37.590    3.1701
   37.605    3.3702
   37.620    3.2754
   37.635    3.0753
   37.650    3.3597
   37.665    3.1806
   37.680    2.9910
   37.695    2.9279
   37.710    3.2543
   37.725    3.0964
   37.740    3.1385
   37.755    3.2333
   37.770    2.9805
   37.785    3.2333
   37.800    2.8857
   37.815    3.2438
   37.830    2.9700
   37.845    3.2965
   37.860    3.4229
   37.875    3.0542
   37.890    2.9489
   37.905    3.0753
   37.920    3.2965
   37.935    3.4018
   37.950    3.1069
   37.965    3.4334
   37.980    3.1596
   37.995    3.0753
   38.010    3.1174
   38.025    3.2017
   38.040    3.1280
   38.055    3.0964
   38.070    3.0753
   38.085    2.8752
   38.100    3.0121
   38.115    3.0648
   38.130    2.6856
   38.145    2.9595
   38.160    3.0858
   38.175    3.3175
   38.190    3.0858
   38.205    3.0964
   38.220    3.2017
   38.235    3.3070
   38.250    2.9700
   38.265    3.0016
   38.280    3.2017
   38.295    3.4650
   38.310    3.0121
   38.325    3.2438
   38.340    3.1069
   38.355    3.0437
   38.370    3.1596
   38.385    3.1596
   38.400    3.1596
   38.415    3.1385
   38.430    2.8752
   38.445    3.0016
   38.460    2.8647
   38.475    3.0858
   38.490    2.9173
   38.505    3.3491
   38.520    3.2754
   38.535    2.9700
   38.550    3.0542
   38.565    3.0332
   38.580    3.2017
   38.595    2.9279
   38.610    2.8436
   38.625    2.9173
   38.640    3.0016
   38.655    2.9279
   38.670    3.0121
   38.685    2.9700
   38.700    3.0016
   38.715    3.2122
   38.730    3.1069
   38.745    3.0226
   38.760    3.1596
   38.775    3.2017
   38.790    3.2965
   38.805    3.3491
   38.820    3.1385
   38.835    3.1174
   38.850    3.0121
   38.865    3.0332
   38.880    3.0542
   38.895    3.3386
   38.910    3.3386
   38.925    3.0121
   38.940    3.2333
   38.955    3.1174
   38.970    3.1069
   38.985    3.1490
   39.000    3.0016
   39.015    2.9595
   39.030    2.7383
   39.045    3.3913
   39.060    3.0964
   39.075    3.2017
   39.090    3.3491
   39.105    2.8752
   39.120    3.0121
   39.135    2.8541
   39.150    3.0226
   39.165    3.0121
   39.180    3.0542
   39.195    3.0858
   39.210    3.1701
   39.225    3.0648
   39.240    3.3175
   39.255    3.0858
   39.270    3.2859
   39.285    3.3070
   39.300    3.1806
   39.315    2.9068
   39.330    3.1385
   39.345    3.0648
   39.360    3.2438
   39.375    3.0858
   39.390    3.1806
   39.405    3.0542
   39.420    3.1174
   39.435    2.9700
   39.450    3.0226
   39.465    2.7593
   39.480    3.0332
   39.495    3.1701
   39.510    3.1280
   39.525    3.1385
   39.540    3.0542
   39.555    2.9489
   39.570    2.9068
   39.585    2.9173
   39.600    3.0226
   39.615    3.1490
   39.630    3.0753
   39.645    2.9910
   39.660    2.9595
   39.675    3.1701
   39.690    2.9700
   39.705    3.0016
   39.720    3.0858
   39.735    2.9173
   39.750    3.1490
   39.765    3.1280
   39.780    3.1701
   39.795    3.0332
   39.810    3.1069
   39.825    2.9910
   39.840    3.1596
   39.855    3.2017
   39.870    2.9068
   39.885    2.8647
   39.900    2.8120
   39.915    2.9595
   39.930    2.9805
   39.945    2.8963
   39.960    3.0858
   39.975    3.1912
   39.990    3.1912
