    1.500   16.3033
    1.515   15.9979
    1.530   16.6087
    1.545   17.0090
    1.560   16.6403
    1.575   16.7246
    1.590   17.3144
    1.605   17.0511
    1.620   17.0827
    1.635   17.6935
    1.650   16.8931
    1.665   17.1037
    1.680   17.0405
    1.695   17.5461
    1.710   18.2201
    1.725   18.1675
    1.740   18.4308
    1.755   19.2522
    1.770   18.3781
    1.785   18.0621
    1.800   18.8204
    1.815   19.1048
    1.830   20.1896
    1.845   19.3365
    1.860   19.3154
    1.875   20.2528
    1.890   20.2212
    1.905   20.1580
    1.920   21.0111
    1.935   20.7794
    1.950   21.6008
    1.965   22.0221
    1.980   22.5698
    1.995   23.0016
    2.010   23.2859
    2.025   23.2227
    2.040   23.5598
    2.055   23.6967
    2.070   24.0653
    2.085   25.5187
    2.100   25.8241
    2.115   25.9084
    2.130   25.9084
    2.145   26.8984
    2.160   28.0885
    2.175   28.6467
    2.190   28.7625
    2.205   29.6893
    2.220   29.7841
    2.235   30.6793
    2.250   31.3955
    2.265   32.1116
    2.280   33.6598
    2.295   34.2601
    2.310   35.4397
    2.325   36.5140
    2.340   36.6087
    2.355   37.7146
    2.370   38.9363
    2.385   40.4002
    2.400   41.5271
    2.415   43.1596
    2.430   43.3807
    2.445   45.1290
    2.460   46.7193
    2.475   48.1833
    2.490   49.2154
    2.505   52.5645
    2.520   54.2285
    2.535   56.4086
    2.550   59.6419
    2.565   61.5271
    2.580   64.4339
    2.595   67.1301
    2.610   70.8162
    2.625   74.4392
    2.640   79.4945
    2.655   84.3391
    2.670   89.6367
    2.685   94.8921
    2.700  102.5487
    2.715  109.8368
    2.730  112.5645
    2.745  116.4929
    2.760  117.8620
    2.775  114.7551
    2.790  110.4371
    2.805  100.6214
    2.820   91.0163
    2.835   79.9895
    2.850   69.9842
    2.865   61.8431
    2.880   54.6919
    2.895   47.4144
    2.910   42.5698
    2.925   36.0716
    2.940   31.5324
    2.955   27.1195
    2.970   22.9279
    2.985   19.5261
    3.000   16.8194
    3.015   14.9131
    3.030   12.6593
    3.045   11.1743
    3.060   10.0895
    3.075    8.8468
    3.090    8.4466
    3.105    7.9831
    3.120    7.5724
    3.135    7.0774
    3.150    7.1090
    3.165    6.2981
    3.180    6.1717
    3.195    6.1190
    3.210    5.8031
    3.225    5.6451
    3.240    5.7083
    3.255    5.5714
    3.270    5.2449
    3.285    5.2449
    3.300    4.9394
    3.315    5.1817
    3.330    4.9500
    3.345    5.0553
    3.360    4.9816
    3.375    4.7709
    3.390    4.6445
    3.405    4.7393
    3.420    4.7183
    3.435    4.2970
    3.450    4.6867
    3.465    4.6235
    3.480    4.6235
    3.495    4.4550
    3.510    4.0969
    3.525    4.2970
    3.540    4.2654
    3.555    4.2865
    3.570    4.1706
    3.585    4.3181
    3.600    4.4339
    3.615    4.2233
    3.630    4.4128
    3.645    4.0021
    3.660    4.2127
    3.675    4.2654
    3.690    4.1074
    3.705    4.4444
    3.720    4.3391
    3.735    4.2970
    3.750    3.8125
    3.765    4.0232
    3.780    4.3181
    3.795    4.5182
    3.810    4.5708
    3.825    4.5287
    3.840    4.2970
    3.855    4.4655
    3.870    4.2233
    3.885    4.5287
    3.900    4.2549
    3.915    4.2549
    3.930    4.4971
    3.945    4.2654
    3.960    4.5182
    3.975    4.4971
    3.990    4.8025
    4.005    4.7288
    4.020    4.7709
    4.035    4.7077
    4.050    4.6445
    4.065    5.1711
    4.080    5.0026
    4.095    5.1080
    4.110    4.9605
    4.125    5.0553
    4.140    5.1290
    4.155    5.0342
    4.170    5.1817
    4.185    5.4450
    4.200    5.0553
    4.215    5.2133
    4.230    5.2133
    4.245    5.7188
    4.260    5.6240
    4.275    5.5924
    4.290    5.6345
    4.305    5.8557
    4.320    6.2243
    4.335    6.3928
    4.350    6.0874
    4.365    5.9189
    4.380    6.2770
    4.395    7.0142
    4.410    7.0248
    4.425    7.0142
    4.440    7.2459
    4.455    7.0879
    4.470    7.4460
    4.485    7.9831
    4.500    7.6251
    4.515    8.8468
    4.530    8.8257
    4.545    9.0363
    4.560    9.7314
    4.575    9.6788
    4.590   10.5635
    4.605   10.1106
    4.620   11.0585
    4.635   11.6482
    4.650   11.9431
    4.665   13.0806
    4.680   13.9231
    4.695   14.2285
    4.710   14.5972
    4.725   14.6393
    4.740   15.1869
    4.755   15.4081
    4.770   15.7662
    4.785   15.3344
    4.800   15.1553
    4.815   14.4076
    4.830   15.1659
    4.845   14.9763
    4.860   15.2291
    4.875   15.8189
    4.890   15.8715
    4.905   15.6293
    4.920   16.1032
    4.935   15.8715
    4.950   15.4081
    4.965   15.2291
    4.980   14.6288
    4.995   13.5756
    5.010   12.3433
    5.025   11.3217
    5.040    9.5945
    5.055    8.4255
    5.070    7.7304
    5.085    7.3618
    5.100    6.7404
    5.115    6.4034
    5.130    6.2559
    5.145    5.9294
    5.160    5.8136
    5.175    5.7083
    5.190    5.8136
    5.205    5.9084
    5.220    5.7083
    5.235    5.6872
    5.250    6.0664
    5.265    5.6240
    5.280    5.8557
    5.295    6.0137
    5.310    5.8241
    5.325    5.9821
    5.340    6.3718
    5.355    6.2349
    5.370    6.9826
    5.385    7.0248
    5.400    6.9089
    5.415    7.4144
    5.430    8.0674
    5.445    8.1095
    5.460    8.3307
    5.475    9.3418
    5.490    9.4997
    5.505    9.7946
    5.520   10.4476
    5.535   11.2164
    5.550   11.1638
    5.565   11.2375
    5.580   11.0163
    5.595   10.3528
    5.610    9.8789
    5.625    9.1522
    5.640    8.9310
    5.655    8.2359
    5.670    7.8568
    5.685    7.0142
    5.700    6.7615
    5.715    6.0979
    5.730    5.9505
    5.745    6.0032
    5.760    5.8031
    5.775    5.9716
    5.790    5.6977
    5.805    5.7925
    5.820    5.4871
    5.835    5.3607
    5.850    5.1290
    5.865    4.7077
    5.880    4.7815
    5.895    4.5182
    5.910    4.4550
    5.925    4.5182
    5.940    3.9916
    5.955    4.1601
    5.970    4.1811
    5.985    3.9284
    6.000    3.5703
    6.015    3.5282
    6.030    3.4439
    6.045    3.6967
    6.060    3.4334
    6.075    3.2965
    6.090    3.4018
    6.105    3.3070
    6.120    3.3386
    6.135    3.4966
    6.150    3.4334
    6.165    3.4755
    6.180    3.2754
    6.195    3.5071
    6.210    3.1174
    6.225    3.1806
    6.240    3.2543
    6.255    3.2649
    6.270    3.1069
    6.285    2.8015
    6.300    3.0016
    6.315    3.0648
    6.330    3.1806
    6.345    3.1806
    6.360    3.1174
    6.375    3.3913
    6.390    3.5282
    6.405    3.1069
    6.420    3.3702
    6.435    3.4439
    6.450    3.2017
    6.465    3.6124
    6.480    3.3281
    6.495    3.1490
    6.510    3.4018
    6.525    3.2017
    6.540    2.7804
    6.555    3.2754
    6.570    3.3070
    6.585    3.3386
    6.600    3.1912
    6.615    3.3807
    6.630    3.1385
    6.645    3.2543
    6.660    3.1069
    6.675    3.3070
    6.690    3.4018
    6.705    3.2543
    6.720    3.2333
    6.735    3.2333
    6.750    3.2438
    6.765    3.1280
    6.780    3.2122
    6.795    3.6756
    6.810    3.4860
    6.825    3.4544
    6.840    3.6124
    6.855    3.3597
    6.870    3.4229
    6.885    3.4544
    6.900    3.7177
    6.915    3.8020
    6.930    3.8336
    6.945    3.8968
    6.960    4.1285
    6.975    4.0232
    6.990    3.7072
    7.005    3.9389
    7.020    4.4128
    7.035    4.5814
    7.050    4.7077
    7.065    4.5182
    7.080    4.5919
    7.095    4.7393
    7.110    4.7393
    7.125    5.0764
    7.140    5.4134
    7.155    5.5187
    7.170    5.7820
    7.185    5.6556
    7.200    5.8873
    7.215    6.0769
    7.230    6.6772
    7.245    6.6035
    7.260    6.6351
    7.275    6.9089
    7.290    6.9510
    7.305    7.3934
    7.320    6.9932
    7.335    6.9826
    7.350    7.3618
    7.365    6.9194
    7.380    6.7299
    7.395    7.3618
    7.410    7.1722
    7.425    7.2986
    7.440    7.5092
    7.455    7.3723
    7.470    7.7199
    7.485    7.7725
    7.500    7.8357
    7.515    7.6988
    7.530    8.0253
    7.545    7.7093
    7.560    7.8041
    7.575    7.3512
    7.590    7.4144
    7.605    7.2143
    7.620    7.3302
    7.635    6.8984
    7.650    6.4455
    7.665    6.6456
    7.680    6.1717
    7.695    6.1190
    7.710    5.8662
    7.725    5.4450
    7.740    5.1817
    7.755    5.0553
    7.770    4.8763
    7.785    4.5814
    7.800    4.0548
    7.815    4.0653
    7.830    4.0548
    7.845    3.6862
    7.860    3.7072
    7.875    3.7809
    7.890    3.7072
    7.905    3.4439
    7.920    3.4966
    7.935    3.4018
    7.950    3.2649
    7.965    3.2333
    7.980    3.3281
    7.995    3.3386
    8.010    3.2227
    8.025    3.1701
    8.040    3.0858
    8.055    2.9805
    8.070    3.1174
    8.085    3.2649
    8.100    3.2333
    8.115    3.4018
    8.130    3.0542
    8.145    3.0016
    8.160    3.3491
    8.175    3.0753
    8.190    3.4650
    8.205    3.2543
    8.220    3.1596
    8.235    3.1385
    8.250    3.2859
    8.265    3.3702
    8.280    3.2543
    8.295    3.4123
    8.310    3.0226
    8.325    3.2017
    8.340    3.3070
    8.355    3.0648
    8.370    3.1490
    8.385    3.2017
    8.400    3.1596
    8.415    3.0753
    8.430    3.0016
    8.445    3.0332
    8.460    3.2122
    8.475    3.1596
    8.490    3.2227
    8.505    3.0542
    8.520    3.0542
    8.535    2.8647
    8.550    3.2122
    8.565    2.9489
    8.580    2.8963
    8.595    3.1385
    8.610    2.8647
    8.625    3.3281
    8.640    3.0753
    8.655    2.6856
    8.670    2.8225
    8.685    2.9910
    8.700    3.0542
    8.715    2.9489
    8.730    3.0332
    8.745    2.8963
    8.760    2.8331
    8.775    2.8857
    8.790    2.9595
    8.805    2.7593
    8.820    2.9595
    8.835    2.7278
    8.850    3.0753
    8.865    2.9805
    8.880    2.8015
    8.895    2.8857
    8.910    2.7593
    8.925    2.7804
    8.940    2.6646
    8.955    2.6435
    8.970    3.0121
    8.985    3.0332
    9.000    2.7593
    9.015    2.7383
    9.030    2.9489
    9.045    2.9700
    9.060    2.9595
    9.075    2.9910
    9.090    2.9700
    9.105    3.0121
    9.120    2.8752
    9.135    3.0226
    9.150    3.0753
    9.165    3.0437
    9.180    2.9068
    9.195    2.9489
    9.210    2.6435
    9.225    2.8647
    9.240    2.9910
    9.255    2.8331
    9.270    2.9910
    9.285    3.0753
    9.300    3.0437
    9.315    2.8963
    9.330    3.0121
    9.345    3.0437
    9.360    3.2122
    9.375    3.3807
    9.390    3.0332
    9.405    3.0121
    9.420    3.2333
    9.435    3.1596
    9.450    3.3597
    9.465    3.5914
    9.480    3.6019
    9.495    3.7809
    9.510    3.5492
    9.525    3.2649
    9.540    3.5387
    9.555    3.7072
    9.570    3.5387
    9.585    3.3807
    9.600    3.4018
    9.615    3.2649
    9.630    3.4018
    9.645    3.4439
    9.660    3.3281
    9.675    3.3386
    9.690    3.2649
    9.705    3.4755
    9.720    3.5387
    9.735    3.2754
    9.750    3.6651
    9.765    3.5598
    9.780    3.4860
    9.795    3.3597
    9.810    3.4334
    9.825    3.8125
    9.840    3.6967
    9.855    3.6651
    9.870    3.8968
    9.885    3.8441
    9.900    3.8863
    9.915    3.9705
    9.930    3.8125
    9.945    3.8336
    9.960    3.9916
    9.975    4.0232
    9.990    3.6546
   10.005    3.6335
   10.020    3.7809
   10.035    3.9389
   10.050    3.4755
   10.065    3.6967
   10.080    3.5492
   10.095    3.4966
   10.110    3.4018
   10.125    3.7283
   10.140    3.9389
   10.155    3.7493
   10.170    3.6440
   10.185    3.5071
   10.200    3.6335
   10.215    3.6546
   10.230    3.7809
   10.245    3.6862
   10.260    3.3281
   10.275    3.3702
   10.290    3.0964
   10.305    3.2965
   10.320    3.4334
   10.335    3.1912
   10.350    3.1806
   10.365    3.2754
   10.380    3.2649
   10.395    3.1806
   10.410    3.2859
   10.425    3.2333
   10.440    3.2859
   10.455    3.2965
   10.470    3.4966
   10.485    3.2859
   10.500    3.2754
   10.515    3.2017
   10.530    3.2438
   10.545    3.3597
   10.560    3.4544
   10.575    3.1385
   10.590    3.1701
   10.605    3.2333
   10.620    2.9910
   10.635    3.2438
   10.650    3.0964
   10.665    3.2122
   10.680    3.0542
   10.695    2.9173
   10.710    2.9595
   10.725    2.5908
   10.740    2.9068
   10.755    2.9279
   10.770    2.8857
   10.785    3.0121
   10.800    2.6962
   10.815    2.7067
   10.830    2.8963
   10.845    2.8436
   10.860    2.6962
   10.875    2.6962
   10.890    2.6646
   10.905    2.7804
   10.920    2.6962
   10.935    2.4750
   10.950    2.7172
   10.965    2.8015
   10.980    2.8120
   10.995    2.9279
   11.010    3.0121
   11.025    2.7278
   11.040    2.7383
   11.055    2.7383
   11.070    2.4855
   11.085    2.6540
   11.100    2.8436
   11.115    2.9279
   11.130    2.7804
   11.145    2.6435
   11.160    2.8120
   11.175    2.8225
   11.190    2.5382
   11.205    2.7383
   11.220    2.6962
   11.235    2.5908
   11.250    2.6224
   11.265    2.8120
   11.280    2.9489
   11.295    2.9068
   11.310    2.8331
   11.325    2.6962
   11.340    2.8752
   11.355    2.7593
   11.370    2.6751
   11.385    2.8752
   11.400    2.8120
   11.415    2.7383
   11.430    3.0437
   11.445    2.8120
   11.460    3.0858
   11.475    2.9805
   11.490    2.8752
   11.505    2.7488
   11.520    2.8647
   11.535    2.8752
   11.550    3.0437
   11.565    2.9595
   11.580    2.9384
   11.595    2.7278
   11.610    2.7909
   11.625    2.7172
   11.640    3.0226
   11.655    2.8963
   11.670    2.8015
   11.685    2.8752
   11.700    2.9595
   11.715    2.8857
   11.730    2.8225
   11.745    2.6435
   11.760    2.7067
   11.775    2.6751
   11.790    3.0016
   11.805    2.7593
   11.820    2.6119
   11.835    2.7067
   11.850    2.7067
   11.865    2.8752
   11.880    2.8647
   11.895    2.6224
   11.910    2.6646
   11.925    2.7172
   11.940    2.8647
   11.955    2.8120
   11.970    2.7383
   11.985    2.9595
   12.000    3.1806
   12.015    2.8225
   12.030    2.8436
   12.045    2.6646
   12.060    2.7909
   12.075    2.8963
   12.090    2.6435
   12.105    2.5698
   12.120    2.9910
   12.135    2.9910
   12.150    2.9279
   12.165    2.6751
   12.180    2.7699
   12.195    2.7488
   12.210    2.9068
   12.225    2.5803
   12.240    2.6119
   12.255    2.6856
   12.270    2.8541
   12.285    2.9068
   12.300    2.8857
   12.315    3.0121
   12.330    2.8963
   12.345    2.6540
   12.360    3.0753
   12.375    3.1280
   12.390    3.2649
   12.405    3.3070
   12.420    3.1806
   12.435    3.1069
   12.450    3.2333
   12.465    2.8331
   12.480    3.0226
   12.495    2.8963
   12.510    3.1069
   12.525    3.2333
   12.540    3.2227
   12.555    3.3386
   12.570    3.2649
   12.585    3.0016
   12.600    3.1806
   12.615    3.0858
   12.630    2.9595
   12.645    3.0858
   12.660    2.7699
   12.675    3.0121
   12.690    3.0648
   12.705    2.8752
   12.720    3.0753
   12.735    3.1174
   12.750    3.1806
   12.765    3.0226
   12.780    2.7804
   12.795    2.9384
   12.810    2.7699
   12.825    2.8857
   12.840    2.8015
   12.855    2.8015
   12.870    2.8015
   12.885    2.8541
   12.900    2.8541
   12.915    2.8963
   12.930    2.8541
   12.945    2.9384
   12.960    3.1912
   12.975    2.7804
   12.990    2.9700
   13.005    2.8120
   13.020    2.7067
   13.035    2.7699
   13.050    2.7278
   13.065    2.7383
   13.080    2.8963
   13.095    3.0226
   13.110    2.8963
   13.125    2.9173
   13.140    3.0648
   13.155    2.8225
   13.170    2.5908
   13.185    2.4750
   13.200    2.8120
   13.215    2.6435
   13.230    2.9173
   13.245    2.8541
   13.260    2.8015
   13.275    2.8331
   13.290    2.8436
   13.305    2.6962
   13.320    3.0753
   13.335    2.6224
   13.350    2.6646
   13.365    2.7172
   13.380    2.6435
   13.395    2.8857
   13.410    2.6751
   13.425    2.9700
   13.440    2.7699
   13.455    2.6540
   13.470    2.8647
   13.485    2.8963
   13.500    2.7383
   13.515    2.8541
   13.530    2.7278
   13.545    2.8541
   13.560    2.9384
   13.575    2.7278
   13.590    2.9068
   13.605    2.9910
   13.620    2.9384
   13.635    2.8541
   13.650    2.9910
   13.665    2.8331
   13.680    2.7593
   13.695    2.7172
   13.710    2.9700
   13.725    2.8857
   13.740    2.9279
   13.755    3.0226
   13.770    3.0226
   13.785    2.9910
   13.800    2.9595
   13.815    2.9384
   13.830    2.9279
   13.845    3.2543
   13.860    3.1385
   13.875    2.8120
   13.890    2.9279
   13.905    2.7909
   13.920    2.8963
   13.935    3.0016
   13.950    2.9489
   13.965    3.1806
   13.980    2.8331
   13.995    3.2122
   14.010    3.0121
   14.025    3.3070
   14.040    3.2333
   14.055    2.9489
   14.070    2.8541
   14.085    3.0753
   14.100    3.0016
   14.115    3.1174
   14.130    3.1596
   14.145    2.8015
   14.160    3.0332
   14.175    2.9700
   14.190    2.8225
   14.205    3.0542
   14.220    2.8225
   14.235    2.8647
   14.250    3.0226
   14.265    3.0016
   14.280    2.7909
   14.295    2.8541
   14.310    2.8963
   14.325    2.8857
   14.340    3.0016
   14.355    3.0016
   14.370    2.9700
   14.385    2.8225
   14.400    2.9489
   14.415    2.6646
   14.430    2.8963
   14.445    3.0858
   14.460    3.0016
   14.475    2.8647
   14.490    2.8436
   14.505    2.9489
   14.520    2.7278
   14.535    3.0226
   14.550    3.1912
   14.565    3.0648
   14.580    2.9700
   14.595    2.7804
   14.610    3.1806
   14.625    3.0121
   14.640    3.0121
   14.655    2.6856
   14.670    2.8015
   14.685    3.0016
   14.700    3.1280
   14.715    3.0016
   14.730    3.0753
   14.745    3.1069
   14.760    2.8647
   14.775    3.0964
   14.790    3.0753
   14.805    2.8857
   14.820    3.0542
   14.835    3.1596
   14.850    2.8647
   14.865    3.1385
   14.880    2.8857
   14.895    3.0437
   14.910    3.1912
   14.925    3.0016
   14.940    3.1912
   14.955    3.0542
   14.970    2.9173
   14.985    3.4334
   15.000    3.4123
   15.015    3.1701
   15.030    2.9910
   15.045    3.1701
   15.060    3.0753
   15.075    3.3070
   15.090    3.5282
   15.105    3.4334
   15.120    3.5282
   15.135    3.0226
   15.150    3.1912
   15.165    3.4229
   15.180    3.2965
   15.195    3.1912
   15.210    3.3175
   15.225    3.4334
   15.240    3.2122
   15.255    3.2438
   15.270    3.3386
   15.285    3.1385
   15.300    3.1174
   15.315    3.2543
   15.330    3.1490
   15.345    2.9384
   15.360    3.2122
   15.375    3.0332
   15.390    3.1385
   15.405    3.1912
   15.420    3.2438
   15.435    3.1385
   15.450    2.9805
   15.465    3.1280
   15.480    3.2965
   15.495    3.0542
   15.510    3.1701
   15.525    3.1174
   15.540    2.9805
   15.555    3.0542
   15.570    3.1280
   15.585    3.0016
   15.600    2.8541
   15.615    3.1490
   15.630    2.8857
   15.645    2.9384
   15.660    2.8541
   15.675    3.1385
   15.690    3.1490
   15.705    2.8331
   15.720    2.9173
   15.735    3.0437
   15.750    3.1385
   15.765    3.0332
   15.780    2.9068
   15.795    2.7804
   15.810    3.0016
   15.825    3.0648
   15.840    3.0437
   15.855    2.9173
   15.870    3.0226
   15.885    3.1069
   15.900    2.7909
   15.915    3.0121
   15.930    2.7699
   15.945    2.7172
   15.960    2.8752
   15.975    2.8225
   15.990    2.8541
   16.005    2.8541
   16.020    2.7593
   16.035    2.9489
   16.050    2.9384
   16.065    2.9068
   16.080    2.8752
   16.095    2.8752
   16.110    2.8331
   16.125    2.8436
   16.140    3.2754
   16.155    3.0542
   16.170    2.8963
   16.185    2.9384
   16.200    2.9173
   16.215    2.8647
   16.230    2.9700
   16.245    3.0437
   16.260    3.3281
   16.275    2.7804
   16.290    2.6962
   16.305    3.0226
   16.320    3.0753
   16.335    2.8120
   16.350    3.0648
   16.365    2.9805
   16.380    2.9489
   16.395    2.7383
   16.410    2.8857
   16.425    3.1174
   16.440    3.0753
   16.455    2.9910
   16.470    3.0648
   16.485    3.0542
   16.500    3.0121
   16.515    3.0226
   16.530    3.0858
   16.545    2.9489
   16.560    2.8857
   16.575    2.9910
   16.590    3.1069
   16.605    3.1280
   16.620    3.0121
   16.635    3.0858
   16.650    3.1912
   16.665    2.9595
   16.680    3.0753
   16.695    2.8857
   16.710    3.1385
   16.725    3.2017
   16.740    3.1596
   16.755    2.9910
   16.770    3.1912
   16.785    3.0858
   16.800    3.0332
   16.815    2.8331
   16.830    3.0542
   16.845    3.1912
   16.860    3.2333
   16.875    3.1069
   16.890    3.0648
   16.905    3.0226
   16.920    3.1596
   16.935    3.0121
   16.950    2.9384
   16.965    2.9068
   16.980    2.9279
   16.995    3.1174
   17.010    2.9595
   17.025    2.8015
   17.040    3.0226
   17.055    2.9384
   17.070    3.0964
   17.085    2.7909
   17.100    2.7593
   17.115    3.2122
   17.130    3.3175
   17.145    3.0964
   17.160    2.9595
   17.175    3.0542
   17.190    2.9910
   17.205    2.9489
   17.220    2.7593
   17.235    3.1174
   17.250    2.9384
   17.265    2.8541
   17.280    2.9384
   17.295    2.8752
   17.310    3.0964
   17.325    2.9489
   17.340    2.9279
   17.355    3.0016
   17.370    3.0437
   17.385    3.3702
   17.400    3.1490
   17.415    3.2122
   17.430    2.8541
   17.445    2.7909
   17.460    3.0121
   17.475    3.0016
   17.490    2.8120
   17.505    2.9489
   17.520    2.9384
   17.535    2.9805
   17.550    2.9910
   17.565    2.9910
   17.580    2.8963
   17.595    2.9489
   17.610    2.9700
   17.625    2.9173
   17.640    2.9805
   17.655    2.9910
   17.670    3.2122
   17.685    2.9384
   17.700    2.8331
   17.715    2.9068
   17.730    3.0226
   17.745    2.8225
   17.760    2.8331
   17.775    2.8225
   17.790    2.8752
   17.805    2.9384
   17.820    2.7804
   17.835    2.6224
   17.850    2.9173
   17.865    2.7593
   17.880    2.8963
   17.895    2.6962
   17.910    2.8963
   17.925    3.0753
   17.940    2.8436
   17.955    2.8015
   17.970    2.8647
   17.985    2.9700
   18.000    2.8331
   18.015    3.1069
   18.030    2.8647
   18.045    2.8541
   18.060    3.0016
   18.075    2.9910
   18.090    2.7699
   18.105    2.6330
   18.120    2.8647
   18.135    2.7804
   18.150    2.8331
   18.165    2.7488
   18.180    2.9489
   18.195    2.9910
   18.210    2.8647
   18.225    3.0332
   18.240    2.7804
   18.255    2.9595
   18.270    2.8752
   18.285    2.7804
   18.300    2.9910
   18.315    2.8647
   18.330    3.1280
   18.345    2.9595
   18.360    2.9173
   18.375    2.7067
   18.390    3.1596
   18.405    2.8436
   18.420    3.0016
   18.435    2.8857
   18.450    3.1069
   18.465    3.0542
   18.480    3.1174
   18.495    3.1490
   18.510    2.9805
   18.525    2.8120
   18.540    2.7172
   18.555    2.8857
   18.570    3.0121
   18.585    2.7804
   18.600    2.8963
   18.615    2.7909
   18.630    2.7278
   18.645    3.0226
   18.660    2.9489
   18.675    3.1596
   18.690    2.8647
   18.705    3.1174
   18.720    2.9595
   18.735    3.0226
   18.750    3.0753
   18.765    3.0648
   18.780    2.7278
   18.795    2.5908
   18.810    2.8963
   18.825    3.1912
   18.840    3.2017
   18.855    3.1701
   18.870    3.2122
   18.885    3.0648
   18.900    2.9279
   18.915    3.0753
   18.930    3.0226
   18.945    3.0542
   18.960    3.1174
   18.975    3.1490
   18.990    3.0964
   19.005    2.9489
   19.020    3.1385
   19.035    3.0542
   19.050    2.9068
   19.065    2.7067
   19.080    2.9595
   19.095    3.0542
   19.110    2.9910
   19.125    2.8752
   19.140    3.0753
   19.155    3.0648
   19.170    2.9489
   19.185    3.0226
   19.200    3.0437
   19.215    3.3281
   19.230    2.8015
   19.245    2.8331
   19.260    3.0753
   19.275    2.9489
   19.290    3.2859
   19.305    3.3491
   19.320    3.2859
   19.335    3.1806
   19.350    3.0226
   19.365    3.0016
   19.380    2.9384
   19.395    2.9910
   19.410    2.9805
   19.425    2.8436
   19.440    3.1385
   19.455    2.9595
   19.470    3.0858
   19.485    3.1069
   19.500    3.1069
   19.515    3.0226
   19.530    2.9700
   19.545    2.8857
   19.560    2.9805
   19.575    3.0648
   19.590    3.1174
   19.605    2.9595
   19.620    3.1912
   19.635    3.0016
   19.650    2.9384
   19.665    2.9068
   19.680    2.9489
   19.695    2.8331
   19.710    3.0542
   19.725    3.0964
   19.740    3.1069
   19.755    2.8331
   19.770    2.8436
   19.785    3.0437
   19.800    3.0121
   19.815    2.8541
   19.830    2.8225
   19.845    2.8436
   19.860    3.0121
   19.875    2.9279
   19.890    2.8963
   19.905    2.9173
   19.920    2.7172
   19.935    2.9068
   19.950    2.8015
   19.965    2.9173
   19.980    2.6962
   19.995    2.9805
   20.010    2.6856
   20.025    2.8120
   20.040    2.8752
   20.055    2.8752
   20.070    2.9489
   20.085    2.8015
   20.100    2.8120
   20.115    2.7172
   20.130    2.9489
   20.145    3.1596
   20.160    3.0437
   20.175    3.1490
   20.190    2.7593
   20.205    2.6751
   20.220    2.8857
   20.235    2.9068
   20.250    2.6330
   20.265    2.7067
   20.280    3.2333
   20.295    3.0226
   20.310    3.0753
   20.325    3.0016
   20.340    2.9173
   20.355    2.9384
   20.370    2.9805
   20.385    3.1069
   20.400    3.3491
   20.415    3.0437
   20.430    3.0437
   20.445    2.6646
   20.460    3.0121
   20.475    2.8857
   20.490    2.7804
   20.505    2.8331
   20.520    2.8963
   20.535    3.0858
   20.550    3.0121
   20.565    2.9173
   20.580    2.8541
   20.595    2.8225
   20.610    2.8857
   20.625    2.8225
   20.640    2.6540
   20.655    2.9279
   20.670    2.8752
   20.685    2.9068
   20.700    2.8436
   20.715    3.0648
   20.730    2.9805
   20.745    2.8963
   20.760    2.9700
   20.775    3.0964
   20.790    3.2122
   20.805    2.9279
   20.820    3.0332
   20.835    2.7593
   20.850    2.8225
   20.865    2.7383
   20.880    2.9279
   20.895    2.8225
   20.910    2.8647
   20.925    2.9173
   20.940    2.9279
   20.955    2.6435
   20.970    2.6751
   20.985    3.0016
   21.000    2.7383
   21.015    2.7804
   21.030    2.8225
   21.045    2.7804
   21.060    2.9595
   21.075    3.0858
   21.090    3.0121
   21.105    3.1385
   21.120    2.9805
   21.135    2.9595
   21.150    3.0332
   21.165    2.8647
   21.180    2.8331
   21.195    3.0121
   21.210    2.9805
   21.225    2.8331
   21.240    3.1490
   21.255    2.7909
   21.270    2.8541
   21.285    2.9489
   21.300    3.0964
   21.315    2.8541
   21.330    2.6646
   21.345    2.9384
   21.360    2.8120
   21.375    3.0226
   21.390    2.9384
   21.405    2.7172
   21.420    3.0226
   21.435    2.8225
   21.450    3.0226
   21.465    3.0226
   21.480    2.7804
   21.495    2.8752
   21.510    2.7804
   21.525    2.9384
   21.540    2.8963
   21.555    3.1490
   21.570    2.7172
   21.585    2.7699
   21.600    3.3386
   21.615    2.8857
   21.630    3.0226
   21.645    3.1069
   21.660    3.4334
   21.675    3.0016
   21.690    3.1596
   21.705    3.0437
   21.720    3.2333
   21.735    3.1806
   21.750    3.0016
   21.765    2.9910
   21.780    2.8225
   21.795    3.1912
   21.810    2.9279
   21.825    3.0332
   21.840    3.1701
   21.855    3.0753
   21.870    3.0332
   21.885    2.9173
   21.900    2.7804
   21.915    2.9595
   21.930    2.8225
   21.945    2.8225
   21.960    2.9805
   21.975    2.9068
   21.990    2.8541
   22.005    2.7699
   22.020    2.8541
   22.035    3.1069
   22.050    3.2227
   22.065    2.8857
   22.080    2.8015
   22.095    3.0121
   22.110    2.8857
   22.125    2.7278
   22.140    2.6540
   22.155    3.0648
   22.170    2.8225
   22.185    2.9384
   22.200    2.9805
   22.215    2.6856
   22.230    2.8120
   22.245    2.7909
   22.260    3.0121
   22.275    2.7804
   22.290    2.9068
   22.305    2.9068
   22.320    2.9805
   22.335    2.8963
   22.350    2.8331
   22.365    2.9805
   22.380    2.5592
   22.395    2.5487
   22.410    2.9384
   22.425    2.8752
   22.440    2.8225
   22.455    2.6856
   22.470    2.7909
   22.485    2.6014
   22.500    2.6330
   22.515    2.7172
   22.530    2.8647
   22.545    3.0226
   22.560    3.0016
   22.575    3.0332
   22.590    2.9068
   22.605    2.9700
   22.620    2.7699
   22.635    2.7278
   22.650    2.6646
   22.665    2.8857
   22.680    2.9489
   22.695    2.9384
   22.710    2.9489
   22.725    3.1069
   22.740    3.0332
   22.755    2.8752
   22.770    3.0542
   22.785    2.9805
   22.800    2.9384
   22.815    2.8015
   22.830    3.0542
   22.845    2.8015
   22.860    2.9700
   22.875    2.9595
   22.890    2.9173
   22.905    3.0648
   22.920    3.0437
   22.935    2.8963
   22.950    2.9068
   22.965    2.8225
   22.980    2.6330
   22.995    2.8225
   23.010    2.6646
   23.025    2.8436
   23.040    2.8331
   23.055    3.2017
   23.070    2.8857
   23.085    2.8436
   23.100    2.7488
   23.115    2.8647
   23.130    2.9700
   23.145    2.8647
   23.160    2.7172
   23.175    2.8120
   23.190    2.9489
   23.205    2.8015
   23.220    2.8857
   23.235    3.0753
   23.250    2.8963
   23.265    2.8647
   23.280    2.8752
   23.295    2.7278
   23.310    2.7278
   23.325    2.8015
   23.340    2.8857
   23.355    2.7278
   23.370    2.7909
   23.385    2.8331
   23.400    2.8225
   23.415    3.0226
   23.430    3.1385
   23.445    2.9700
   23.460    2.9805
   23.475    2.7593
   23.490    2.7172
   23.505    2.9489
   23.520    3.0332
   23.535    3.0858
   23.550    2.8331
   23.565    3.0226
   23.580    2.9173
   23.595    3.0858
   23.610    2.9068
   23.625    2.7067
   23.640    2.8436
   23.655    2.9595
   23.670    2.7278
   23.685    2.8963
   23.700    2.8963
   23.715    2.8120
   23.730    2.7172
   23.745    2.8857
   23.760    2.7172
   23.775    2.8015
   23.790    3.0964
   23.805    2.8436
   23.820    2.7383
   23.835    2.7593
   23.850    2.9384
   23.865    2.8857
   23.880    2.6646
   23.895    2.9173
   23.910    2.7067
   23.925    2.8436
   23.940    3.0858
   23.955    2.8857
   23.970    2.8331
   23.985    2.9173
   24.000    2.9595
   24.015    2.6962
   24.030    2.9173
   24.045    2.7172
   24.060    2.8541
   24.075    2.6224
   24.090    2.7488
   24.105    2.8963
   24.120    2.6435
   24.135    2.7278
   24.150    2.7804
   24.165    3.0226
   24.180    3.0437
   24.195    2.9279
   24.210    2.6330
   24.225    2.7172
   24.240    2.9910
   24.255    2.8225
   24.270    2.9384
   24.285    2.8436
   24.300    2.8752
   24.315    2.8436
   24.330    2.9805
   24.345    2.9384
   24.360    2.9173
   24.375    2.7488
   24.390    2.8963
   24.405    2.8225
   24.420    2.8752
   24.435    2.8541
   24.450    2.9068
   24.465    2.6856
   24.480    2.6751
   24.495    2.5487
   24.510    2.9910
   24.525    3.0753
   24.540    3.0858
   24.555    2.7909
   24.570    2.8857
   24.585    2.9173
   24.600    2.8120
   24.615    2.7067
   24.630    3.0964
   24.645    2.9173
   24.660    2.8857
   24.675    2.6330
   24.690    2.9805
   24.705    2.9068
   24.720    2.8857
   24.735    2.8541
   24.750    2.6962
   24.765    2.9068
   24.780    2.9910
   24.795    2.9805
   24.810    3.1069
   24.825    3.0121
   24.840    2.9805
   24.855    3.2227
   24.870    3.0858
   24.885    3.2017
   24.900    3.0437
   24.915    3.0753
   24.930    3.1490
   24.945    3.4229
   24.960    3.2438
   24.975    3.3702
   24.990    3.3597
   25.005    2.9595
   25.020    3.2122
   25.035    3.1596
   25.050    3.1174
   25.065    3.4229
   25.080    3.3807
   25.095    3.4439
   25.110    3.3807
   25.125    3.6862
   25.140    3.6440
   25.155    3.5703
   25.170    3.3702
   25.185    3.2649
   25.200    3.4123
   25.215    3.4966
   25.230    3.4439
   25.245    3.8231
   25.260    3.8652
   25.275    3.7599
   25.290    3.4966
   25.305    3.4966
   25.320    3.8020
   25.335    3.4334
   25.350    3.6546
   25.365    3.6756
   25.380    3.5492
   25.395    3.0858
   25.410    3.4966
   25.425    3.6124
   25.440    3.6019
   25.455    3.4229
   25.470    3.4439
   25.485    3.4544
   25.500    3.4439
   25.515    3.5387
   25.530    3.1280
   25.545    3.2333
   25.560    3.3491
   25.575    3.3702
   25.590    3.5808
   25.605    3.1806
   25.620    3.2965
   25.635    3.4755
   25.650    3.4966
   25.665    3.2965
   25.680    3.3807
   25.695    2.9384
   25.710    3.3597
   25.725    3.6019
   25.740    3.5598
   25.755    3.3175
   25.770    3.1701
   25.785    3.1596
   25.800    3.4334
   25.815    3.3386
   25.830    2.9173
   25.845    2.9910
   25.860    3.1069
   25.875    3.1385
   25.890    3.2649
   25.905    3.3913
   25.920    3.2543
   25.935    3.1280
   25.950    2.9489
   25.965    3.2754
   25.980    3.1912
   25.995    3.0226
   26.010    2.9489
   26.025    2.8963
   26.040    3.1912
   26.055    3.1806
   26.070    2.8752
   26.085    3.2227
   26.100    3.1069
   26.115    3.0753
   26.130    2.9384
   26.145    3.0542
   26.160    3.0858
   26.175    3.0016
   26.190    2.9068
   26.205    3.2438
   26.220    2.9700
   26.235    2.8120
   26.250    2.7909
   26.265    2.8015
   26.280    2.8857
   26.295    2.9595
   26.310    2.9384
   26.325    2.8015
   26.340    3.1490
   26.355    3.0226
   26.370    2.9805
   26.385    2.6330
   26.400    2.8331
   26.415    3.1069
   26.430    2.7804
   26.445    2.9595
   26.460    2.8015
   26.475    2.4223
   26.490    2.8331
   26.505    2.8436
   26.520    2.6540
   26.535    2.7593
   26.550    2.6014
   26.565    3.1174
   26.580    3.0753
   26.595    2.8541
   26.610    2.7383
   26.625    2.6435
   26.640    2.9173
   26.655    2.5592
   26.670    2.7278
   26.685    2.6751
   26.700    2.7488
   26.715    2.5698
   26.730    2.7593
   26.745    2.8120
   26.760    2.4855
   26.775    3.0648
   26.790    2.7488
   26.805    2.7699
   26.820    2.8752
   26.835    2.5908
   26.850    2.8647
   26.865    3.0121
   26.880    2.7278
   26.895    2.9700
   26.910    2.9489
   26.925    2.9805
   26.940    2.8015
   26.955    2.9173
   26.970    2.5171
   26.985    2.6856
   27.000    2.5803
   27.015    2.6646
   27.030    2.8120
   27.045    2.5066
   27.060    2.6330
   27.075    2.7804
   27.090    2.6646
   27.105    2.8331
   27.120    2.6119
   27.135    2.7383
   27.150    2.7593
   27.165    2.7067
   27.180    2.5382
   27.195    2.6330
   27.210    2.5382
   27.225    2.5803
   27.240    2.4750
   27.255    2.8225
   27.270    2.4961
   27.285    2.4961
   27.300    2.5382
   27.315    2.7172
   27.330    2.5487
   27.345    2.4013
   27.360    2.6435
   27.375    2.5487
   27.390    2.6119
   27.405    2.6962
   27.420    2.6646
   27.435    2.4855
   27.450    2.5382
   27.465    2.5698
   27.480    2.6856
   27.495    2.6646
   27.510    2.6646
   27.525    2.5066
   27.540    2.4645
   27.555    2.5171
   27.570    2.6962
   27.585    2.5487
   27.600    2.3591
   27.615    2.4645
   27.630    2.4223
   27.645    2.4223
   27.660    2.2749
   27.675    2.4434
   27.690    2.4223
   27.705    2.6119
   27.720    2.4013
   27.735    2.5592
   27.750    2.5908
   27.765    2.5592
   27.780    2.5908
   27.795    2.6646
   27.810    2.2643
   27.825    2.3697
   27.840    2.4013
   27.855    2.6224
   27.870    2.5698
   27.885    2.3907
   27.900    2.5487
   27.915    2.6540
   27.930    2.5592
   27.945    2.3275
   27.960    2.5487
   27.975    2.4434
   27.990    2.6540
   28.005    2.7593
   28.020    2.5803
   28.035    2.5171
   28.050    2.5382
   28.065    2.3591
   28.080    2.4013
   28.095    2.3381
   28.110    2.4645
   28.125    2.3170
   28.140    2.6224
   28.155    2.4961
   28.170    2.2959
   28.185    2.4013
   28.200    2.6540
   28.215    2.6014
   28.230    2.4855
   28.245    2.5487
   28.260    2.3381
   28.275    2.4539
   28.290    2.1801
   28.305    2.2328
   28.320    2.4434
   28.335    2.4013
   28.350    2.6014
   28.365    2.5803
   28.380    2.3486
   28.395    2.5171
   28.410    2.3907
   28.425    2.3275
   28.440    2.3591
   28.455    2.3170
   28.470    2.4223
   28.485    2.5066
   28.500    2.4118
   28.515    2.4645
   28.530    2.5698
   28.545    2.4118
   28.560    2.3697
   28.575    2.5066
   28.590    2.6856
   28.605    2.3381
   28.620    2.2538
   28.635    2.4645
   28.650    2.4645
   28.665    2.2643
   28.680    2.1696
   28.695    2.3170
   28.710    2.2959
   28.725    2.3381
   28.740    2.2328
   28.755    2.2012
   28.770    2.2117
   28.785    2.3697
   28.800    2.4434
   28.815    2.4750
   28.830    2.3802
   28.845    2.3697
   28.860    2.1906
   28.875    2.2328
   28.890    2.3381
   28.905    2.4329
   28.920    2.1590
   28.935    2.2538
   28.950    2.3275
   28.965    2.5066
   28.980    2.5382
   28.995    2.0853
   29.010    2.2222
   29.025    2.3697
   29.040    2.1801
   29.055    2.3802
   29.070    2.4961
   29.085    2.4223
   29.100    2.4645
   29.115    2.0642
   29.130    2.1801
   29.145    2.3381
   29.160    2.1590
   29.175    2.5487
   29.190    2.5066
   29.205    2.1274
   29.220    2.1485
   29.235    2.1485
   29.250    2.4329
   29.265    2.2959
   29.280    2.3170
   29.295    2.2433
   29.310    2.1485
   29.325    2.2749
   29.340    2.2433
   29.355    2.3275
   29.370    2.4013
   29.385    2.3591
   29.400    2.1906
   29.415    2.2749
   29.430    2.3275
   29.445    2.2222
   29.460    2.0853
   29.475    2.1906
   29.490    2.2117
   29.505    2.2012
   29.520    2.2643
   29.535    2.2222
   29.550    2.2433
   29.565    2.4223
   29.580    2.4013
   29.595    2.4750
   29.610    2.2749
   29.625    2.0853
   29.640    2.1590
   29.655    2.1696
   29.670    2.3170
   29.685    2.2749
   29.700    2.1485
   29.715    2.1696
   29.730    2.3486
   29.745    2.4539
   29.760    2.3802
   29.775    2.2643
   29.790    2.3381
   29.805    2.2538
   29.820    2.3802
   29.835    2.4013
   29.850    2.1696
   29.865    2.0958
   29.880    2.1274
   29.895    2.1169
   29.910    2.2854
   29.925    2.1169
   29.940    2.2854
   29.955    2.2012
   29.970    2.3275
   29.985    2.2433
   30.000    2.2433
   30.015    2.3591
   30.030    2.3381
   30.045    2.3170
   30.060    2.0432
   30.075    2.0958
   30.090    2.1590
   30.105    2.0958
   30.120    2.0853
   30.135    2.2117
   30.150    2.3170
   30.165    2.2433
   30.180    2.0958
   30.195    2.2328
   30.210    2.1274
   30.225    2.1801
   30.240    2.2012
   30.255    2.3907
   30.270    2.0642
   30.285    2.2222
   30.300    2.1906
   30.315    2.1274
   30.330    2.1590
   30.345    2.2643
   30.360    2.3907
   30.375    1.9168
   30.390    2.3591
   30.405    2.0748
   30.420    1.8325
   30.435    2.1801
   30.450    2.0432
   30.465    2.0116
   30.480    1.9800
   30.495    2.1696
   30.510    1.9589
   30.525    2.0116
   30.540    1.9905
   30.555    2.1590
   30.570    2.1906
   30.585    2.2222
   30.600    2.1906
   30.615    2.2643
   30.630    2.3381
   30.645    2.1169
   30.660    2.0748
   30.675    2.1590
   30.690    2.1380
   30.705    2.0642
   30.720    2.0011
   30.735    2.0958
   30.750    2.2117
   30.765    2.2643
   30.780    2.0326
   30.795    2.2328
   30.810    2.1696
   30.825    2.2012
   30.840    2.2117
   30.855    2.0537
   30.870    2.0642
   30.885    2.2328
   30.900    2.1696
   30.915    2.0748
   30.930    2.2959
   30.945    2.1696
   30.960    2.0537
   30.975    1.9589
   30.990    1.7904
   31.005    2.0642
   31.020    1.8641
   31.035    2.2222
   31.050    2.2433
   31.065    2.0642
   31.080    1.8852
   31.095    1.8747
   31.110    2.0958
   31.125    1.8957
   31.140    1.8747
   31.155    1.9168
   31.170    2.1380
   31.185    2.0958
   31.200    2.1064
   31.215    2.0853
   31.230    2.1485
   31.245    2.0642
   31.260    2.2117
   31.275    2.2643
   31.290    2.0011
   31.305    2.1064
   31.320    1.9589
   31.335    2.1485
   31.350    1.9063
   31.365    1.8431
   31.380    1.8431
   31.395    1.9063
   31.410    1.7588
   31.425    2.0537
   31.440    2.3170
   31.455    2.0748
   31.470    1.9168
   31.485    1.9379
   31.500    1.9484
   31.515    1.9589
   31.530    2.3275
   31.545    2.3381
   31.560    2.1274
   31.575    1.9589
   31.590    1.8957
   31.605    2.0326
   31.620    2.0958
   31.635    2.0853
   31.650    2.0326
   31.665    2.0748
   31.680    2.0432
   31.695    2.0537
   31.710    2.0537
   31.725    2.2012
   31.740    2.2433
   31.755    2.2222
   31.770    2.2012
   31.785    2.0853
   31.800    1.9695
   31.815    2.2433
   31.830    2.2012
   31.845    2.1485
   31.860    1.9168
   31.875    2.0326
   31.890    2.0011
   31.905    1.8747
   31.920    1.8536
   31.935    1.5692
   31.950    1.9589
   31.965    1.9379
   31.980    2.0116
   31.995    2.0116
   32.010    1.8957
   32.025    1.8747
   32.040    1.9168
   32.055    1.9273
   32.070    1.8431
   32.085    1.8325
   32.100    2.0221
   32.115    1.8220
   32.130    1.9905
   32.145    1.8536
   32.160    1.8220
   32.175    1.9168
   32.190    1.9379
   32.205    1.9800
   32.220    1.8115
   32.235    1.8641
   32.250    1.8431
   32.265    2.0642
   32.280    1.8852
   32.295    1.9273
   32.310    1.8852
   32.325    2.1485
   32.340    2.1064
   32.355    1.8957
   32.370    1.8325
   32.385    1.8009
   32.400    2.0748
   32.415    2.3065
   32.430    1.9168
   32.445    1.8220
   32.460    1.7799
   32.475    1.8852
   32.490    2.0642
   32.505    2.0011
   32.520    1.9589
   32.535    1.9168
   32.550    1.7904
   32.565    1.8325
   32.580    1.9168
   32.595    2.0432
   32.610    2.0116
   32.625    2.0432
   32.640    1.6851
   32.655    1.7167
   32.670    1.9695
   32.685    1.9273
   32.700    1.9379
   32.715    1.7694
   32.730    1.7799
   32.745    1.7799
   32.760    1.9273
   32.775    1.8536
   32.790    1.8747
   32.805    1.7167
   32.820    1.8536
   32.835    1.7904
   32.850    2.0011
   32.865    1.9168
   32.880    1.8852
   32.895    1.8957
   32.910    1.9063
   32.925    1.8957
   32.940    1.8220
   32.955    1.8852
   32.970    1.7483
   32.985    1.7904
   33.000    1.7167
   33.015    1.8325
   33.030    1.9695
   33.045    1.8536
   33.060    1.7694
   33.075    1.6956
   33.090    1.9063
   33.105    1.8220
   33.120    2.0642
   33.135    1.8747
   33.150    2.0116
   33.165    1.6219
   33.180    1.7588
   33.195    1.8641
   33.210    1.7167
   33.225    1.8009
   33.240    1.7378
   33.255    1.7694
   33.270    1.8325
   33.285    1.8009
   33.300    1.6535
   33.315    1.8852
   33.330    1.8747
   33.345    1.6640
   33.360    1.7799
   33.375    1.7062
   33.390    1.8009
   33.405    1.6851
   33.420    1.6851
   33.435    1.7799
   33.450    1.5692
   33.465    1.9063
   33.480    1.7167
   33.495    1.7378
   33.510    1.6535
   33.525    1.8641
   33.540    1.8852
   33.555    1.5903
   33.570    1.7904
   33.585    1.7904
   33.600    1.6324
   33.615    1.5166
   33.630    1.5166
   33.645    1.7799
   33.660    1.7483
   33.675    1.5271
   33.690    1.4955
   33.705    1.6324
   33.720    1.6851
   33.735    1.7483
   33.750    1.6746
   33.765    1.6324
   33.780    1.3691
   33.795    1.6956
   33.810    1.5692
   33.825    1.7799
   33.840    1.7167
   33.855    1.6219
   33.870    1.5587
   33.885    1.5903
   33.900    1.5798
   33.915    1.5377
   33.930    1.7272
   33.945    1.6851
   33.960    1.6324
   33.975    1.6851
   33.990    1.6219
   34.005    1.5903
   34.020    1.5482
   34.035    1.4850
   34.050    1.5482
   34.065    1.5903
   34.080    1.6114
   34.095    1.4639
   34.110    1.5482
   34.125    1.6956
   34.140    1.7904
   34.155    1.7272
   34.170    1.6430
   34.185    1.8009
   34.200    1.6535
   34.215    1.6324
   34.230    1.5587
   34.245    1.6851
   34.260    1.6746
   34.275    1.6956
   34.290    1.5482
   34.305    1.4639
   34.320    1.5587
   34.335    1.6324
   34.350    1.6114
   34.365    1.4850
   34.380    1.4850
   34.395    1.6640
   34.410    1.6219
   34.425    1.5903
   34.440    1.4113
   34.455    1.4323
   34.470    1.5377
   34.485    1.4850
   34.500    1.3902
   34.515    1.5271
   34.530    1.4850
   34.545    1.4639
   34.560    1.4323
   34.575    1.4218
   34.590    1.4955
   34.605    1.6008
   34.620    1.5482
   34.635    1.5587
   34.650    1.5166
   34.665    1.3691
   34.680    1.4534
   34.695    1.3797
   34.710    1.4218
   34.725    1.4955
   34.740    1.4323
   34.755    1.4534
   34.770    1.3902
   34.785    1.4745
   34.800    1.5798
   34.815    1.4850
   34.830    1.4745
   34.845    1.3165
   34.860    1.3165
   34.875    1.4323
   34.890    1.4850
   34.905    1.3691
   34.920    1.3165
   34.935    1.4429
   34.950    1.5587
   34.965    1.5587
   34.980    1.4639
   34.995    1.4323
   35.010    1.3375
   35.025    1.5166
   35.040    1.4218
   35.055    1.4850
   35.070    1.3902
   35.085    1.5692
   35.100    1.6324
   35.115    1.5692
   35.130    1.6219
   35.145    1.4639
   35.160    1.4639
   35.175    1.4955
   35.190    1.5903
   35.205    1.6008
   35.220    1.3060
   35.235    1.4639
   35.250    1.5798
   35.265    1.3586
   35.280    1.4323
   35.295    1.5692
   35.310    1.4429
   35.325    1.2954
   35.340    1.3586
   35.355    1.4745
   35.370    1.3902
   35.385    1.3902
   35.400    1.3586
   35.415    1.5271
   35.430    1.5587
   35.445    1.5271
   35.460    1.5903
   35.475    1.6219
   35.490    1.6430
   35.505    1.4113
   35.520    1.5166
   35.535    1.4955
   35.550    1.4113
   35.565    1.4218
   35.580    1.5798
   35.595    1.2322
   35.610    1.2954
   35.625    1.3375
   35.640    1.4007
   35.655    1.3797
   35.670    1.4113
   35.685    1.3375
   35.700    1.3270
   35.715    1.2849
   35.730    1.4113
   35.745    1.4218
   35.760    1.5587
   35.775    1.3902
   35.790    1.3375
   35.805    1.2954
   35.820    1.3691
   35.835    1.2428
   35.850    1.4113
   35.865    1.4007
   35.880    1.5061
   35.895    1.4218
   35.910    1.4534
   35.925    1.4534
   35.940    1.5798
   35.955    1.2428
   35.970    1.3165
   35.985    1.6640
   36.000    1.4323
   36.015    1.3375
   36.030    1.3797
   36.045    1.3375
   36.060    1.4639
   36.075    1.3691
   36.090    1.4007
   36.105    1.3691
   36.120    1.4745
   36.135    1.2849
   36.150    1.3481
   36.165    1.2533
   36.180    1.5166
   36.195    1.5377
   36.210    1.3481
   36.225    1.3165
   36.240    1.5587
   36.255    1.5166
   36.270    1.4007
   36.285    1.3165
   36.300    1.1901
   36.315    1.3375
   36.330    1.3691
   36.345    1.4955
   36.360    1.2849
   36.375    1.3270
   36.390    1.2428
   36.405    1.2322
   36.420    1.2428
   36.435    1.2217
   36.450    1.1269
   36.465    1.1690
   36.480    1.2006
   36.495    1.3797
   36.510    1.4323
   36.525    1.3375
   36.540    1.2533
   36.555    1.3375
   36.570    1.3165
   36.585    1.3586
   36.600    1.3481
   36.615    1.2849
   36.630    1.2533
   36.645    1.3060
   36.660    1.2849
   36.675    1.3375
   36.690    1.2849
   36.705    1.3691
   36.720    1.1796
   36.735    1.3375
   36.750    1.4007
   36.765    1.1901
   36.780    1.0953
   36.795    1.2954
   36.810    1.1480
   36.825    1.1901
   36.840    1.1374
   36.855    1.1901
   36.870    1.2638
   36.885    1.4429
   36.900    1.3165
   36.915    1.2006
   36.930    1.2322
   36.945    1.3481
   36.960    1.4323
   36.975    1.3797
   36.990    1.3165
   37.005    1.3165
   37.020    1.3060
   37.035    1.1796
   37.050    1.1374
   37.065    1.2954
   37.080    1.3481
   37.095    1.2533
   37.110    1.2954
   37.125    1.4534
   37.140    1.2954
   37.155    1.3481
   37.170    1.2112
   37.185    1.2112
   37.200    1.1585
   37.215    1.1796
   37.230    1.0742
   37.245    1.3060
   37.260    1.3060
   37.275    1.1374
   37.290    1.3165
   37.305    1.2638
   37.320    1.2954
   37.335    1.1269
   37.350    1.2322
   37.365    1.1901
   37.380    1.2533
   37.395    1.3165
   37.410    1.2849
   37.425    1.2217
   37.440    1.2638
   37.455    1.2533
   37.470    1.1374
   37.485    1.1269
   37.500    1.2428
   37.515    1.2533
   37.530    1.3691
   37.545    1.1374
   37.560    1.3691
   37.575    1.2006
   37.590    1.2217
   37.605    1.1901
   37.620    1.1164
   37.635    1.0742
   37.650    1.0742
   37.665    1.1164
   37.680    1.3691
   37.695    1.0321
   37.710    1.2428
   37.725    1.0216
   37.740    1.0005
   37.755    1.1480
   37.770    1.0532
   37.785    0.9795
   37.800    1.1690
   37.815    1.2112
   37.830    1.2744
   37.845    1.1164
   37.860    1.1269
   37.875    1.3481
   37.890    1.2217
   37.905    1.0532
   37.920    1.1269
   37.935    1.2006
   37.950    1.1690
   37.965    1.1796
   37.980    1.1164
   37.995    1.1690
   38.010    1.0742
   38.025    1.0637
   38.040    1.2112
   38.055    1.2217
   38.070    1.1585
   38.085    1.0427
   38.100    1.1480
   38.115    1.1585
   38.130    1.0427
   38.145    0.9900
   38.160    1.0216
   38.175    1.1690
   38.190    1.1374
   38.205    0.9795
   38.220    1.0742
   38.235    1.1901
   38.250    1.1269
   38.265    1.1690
   38.280    1.2112
   38.295    1.2428
   38.310    1.3270
   38.325    1.3375
   38.340    1.1690
   38.355    1.1164
   38.370    1.0216
   38.385    1.1164
   38.400    1.1585
   38.415    1.1901
   38.430    1.1480
   38.445    1.2638
   38.460    1.1480
   38.475    1.3797
   38.490    1.0953
   38.505    1.1164
   38.520    1.3060
   38.535    1.1796
   38.550    1.1585
   38.565    1.0742
   38.580    1.0532
   38.595    1.0848
   38.610    1.2112
   38.625    1.1164
   38.640    1.1269
   38.655    1.2006
   38.670    1.1374
   38.685    1.2322
   38.700    1.2006
   38.715    1.1796
   38.730    1.0848
   38.745    1.2428
   38.760    1.0427
   38.775    1.1480
   38.790    1.1374
   38.805    0.9900
   38.820    1.0005
   38.835    1.1269
   38.850    1.1690
   38.865    1.2217
   38.880    1.0216
   38.895    1.0427
   38.910    1.0953
   38.925    1.2533
   38.940    1.2006
   38.955    1.1901
   38.970    1.0953
   38.985    0.9373
   39.000    1.1480
   39.015    1.1374
   39.030    1.1164
   39.045    1.0742
   39.060    1.1164
   39.075    0.9689
   39.090    1.0637
   39.105    1.0005
   39.120    1.0848
   39.135    1.2533
   39.150    1.3375
   39.165    0.9900
   39.180    0.8741
   39.195    0.9584
   39.210    1.0111
   39.225    1.0005
   39.240    1.1585
   39.255    1.1480
   39.270    1.2006
   39.285    1.0216
   39.300    1.1901
   39.315    1.1585
   39.330    1.2428
   39.345    1.1796
   39.360    1.0427
   39.375    1.0111
   39.390    0.9163
   39.405    0.9268
   39.420    1.2322
   39.435    1.1164
   39.450    1.1374
   39.465    1.1164
   39.480    1.1164
   39.495    1.0427
   39.510    1.2322
   39.525    1.2849
   39.540    1.1480
   39.555    0.9900
   39.570    1.2849
   39.585    1.0848
   39.600    1.2744
   39.615    1.1374
   39.630    1.1058
   39.645    1.1480
   39.660    1.1058
   39.675    1.0637
   39.690    1.1796
   39.705    1.2428
   39.720    1.0427
   39.735    1.1164
   39.750    1.0427
   39.765    1.0111
   39.780    1.1585
   39.795    1.1269
   39.810    1.0321
   39.825    1.0427
   39.840    1.1164
   39.855    1.1690
   39.870    1.2112
   39.885    1.1690
   39.900    1.2006
   39.915    1.0848
   39.930    1.0427
   39.945    0.9900
   39.960    1.0427
   39.975    1.0005
   39.990    1.1164
