    1.500   23.6756
    1.515   23.6967
    1.530   23.6546
    1.545   22.5803
    1.560   22.4961
    1.575   22.5698
    1.590   22.9384
    1.605   21.7378
    1.620   21.5061
    1.635   21.2638
    1.650   21.0953
    1.665   20.9900
    1.680   20.0948
    1.695   19.9895
    1.710   19.4629
    1.725   19.1048
    1.740   19.0627
    1.755   18.5887
    1.770   19.3049
    1.785   19.2206
    1.800   18.2517
    1.815   17.7146
    1.830   18.1991
    1.845   17.8620
    1.860   16.9774
    1.875   17.3670
    1.890   17.2091
    1.905   16.9879
    1.920   16.7878
    1.935   16.5456
    1.950   16.2928
    1.965   16.1980
    1.980   16.5245
    1.995   15.9874
    2.010   15.8294
    2.025   15.6925
    2.040   15.6398
    2.055   15.1132
    2.070   15.1132
    2.085   15.5977
    2.100   15.0395
    2.115   14.4181
    2.130   15.0290
    2.145   15.1132
    2.160   14.5234
    2.175   14.7551
    2.190   14.9552
    2.205   14.5866
    2.220   13.8599
    2.235   13.9021
    2.250   14.2707
    2.265   13.7335
    2.280   14.0284
    2.295   13.9021
    2.310   14.0706
    2.325   13.9337
    2.340   14.2180
    2.355   13.9442
    2.370   13.9652
    2.385   13.4281
    2.400   12.8383
    2.415   12.9015
    2.430   13.5018
    2.445   13.4913
    2.460   13.4808
    2.475   13.4492
    2.490   13.7019
    2.505   13.6072
    2.520   13.1648
    2.535   14.1759
    2.550   13.5966
    2.565   12.8278
    2.580   12.9858
    2.595   12.7120
    2.610   14.0600
    2.625   14.2180
    2.640   14.2496
    2.655   14.4918
    2.670   14.3339
    2.685   15.1553
    2.700   14.4286
    2.715   14.6498
    2.730   15.0711
    2.745   15.8926
    2.760   16.1875
    2.775   16.0927
    2.790   16.5350
    2.805   16.9458
    2.820   17.1248
    2.835   17.2722
    2.850   16.6403
    2.865   17.1248
    2.880   18.2833
    2.895   18.3465
    2.910   19.5682
    2.925   19.9895
    2.940   20.3370
    2.955   21.0005
    2.970   22.1696
    2.985   22.8541
    3.000   23.9494
    3.015   23.9179
    3.030   24.7709
    3.045   26.4771
    3.060   26.5298
    3.075   27.5724
    3.090   30.3107
    3.105   31.1111
    3.120   32.8067
    3.135   33.4281
    3.150   35.8504
    3.165   37.9463
    3.180   40.0421
    3.195   41.8325
    3.210   43.7915
    3.225   46.4771
    3.240   49.6577
    3.255   53.4702
    3.270   56.3876
    3.285   61.4639
    3.300   63.6546
    3.315   68.7099
    3.330   72.2696
    3.345   79.3681
    3.360   85.7083
    3.375   92.7436
    3.390  100.7372
    3.405  106.3402
    3.420  115.3765
    3.435  122.0432
    3.450  124.5814
    3.465  125.2133
    3.480  119.7051
    3.495  111.0795
    3.510   99.7051
    3.525   86.4560
    3.540   73.0069
    3.555   64.4023
    3.570   55.4186
    3.585   47.5092
    3.600   42.9068
    3.615   39.3365
    3.630   37.0932
    3.645   35.1448
    3.660   33.2912
    3.675   33.0806
    3.690   32.7646
    3.705   32.4276
    3.720   32.7225
    3.735   32.8067
    3.750   32.9753
    3.765   33.5861
    3.780   34.6288
    3.795   35.5029
    3.810   36.6403
    3.825   37.3986
    3.840   39.2206
    3.855   39.8315
    3.870   41.3797
    3.885   42.0642
    3.900   43.2859
    3.915   44.3181
    3.930   45.6451
    3.945   46.9300
    3.960   47.1195
    3.975   49.3102
    3.990   50.4371
    4.005   52.4487
    4.020   52.7646
    4.035   52.5961
    4.050   52.4381
    4.065   51.8062
    4.080   52.3012
    4.095   51.2480
    4.110   49.8262
    4.125   49.7104
    4.140   47.9200
    4.155   46.0032
    4.170   44.0021
    4.185   42.8752
    4.200   40.7899
    4.215   38.5993
    4.230   36.6193
    4.245   34.1969
    4.260   32.4171
    4.275   30.5845
    4.290   28.8889
    4.305   27.7725
    4.320   25.1080
    4.335   24.0337
    4.350   22.1906
    4.365   21.0532
    4.380   19.5787
    4.395   18.7046
    4.410   17.3881
    4.425   17.0511
    4.440   15.9663
    4.455   14.9131
    4.470   14.3971
    4.485   14.1338
    4.500   13.0068
    4.515   12.9647
    4.530   11.9326
    4.545   12.1222
    4.560   11.5956
    4.575   11.4587
    4.590   11.1743
    4.605   10.9742
    4.620   10.8899
    4.635    9.9631
    4.650    9.9315
    4.665   10.0158
    4.680   10.1632
    4.695    9.7420
    4.710   10.0685
    4.725    9.4050
    4.740    9.2364
    4.755    9.1417
    4.770    9.1206
    4.785    8.8152
    4.800    9.3523
    4.815    9.3944
    4.830    8.9731
    4.845    9.2259
    4.860    9.2786
    4.875    8.9100
    4.890    9.0469
    4.905    8.5624
    4.920    8.6888
    4.935    8.4571
    4.950    8.8257
    4.965    8.6361
    4.980    8.6572
    4.995    8.7414
    5.010    8.4360
    5.025    8.3623
    5.040    8.7204
    5.055    8.6361
    5.070    8.2043
    5.085    8.0253
    5.100    8.1938
    5.115    8.6572
    5.130    8.6783
    5.145    8.8257
    5.160    8.5203
    5.175    8.2254
    5.190    8.4887
    5.205    8.4571
    5.220    8.4992
    5.235    8.4992
    5.250    9.0258
    5.265    8.7098
    5.280    8.5835
    5.295    8.7836
    5.310    8.6677
    5.325    8.8994
    5.340    8.6888
    5.355    8.6151
    5.370    8.8994
    5.385    8.7836
    5.400    8.2780
    5.415    9.1522
    5.430    8.8784
    5.445    8.6151
    5.460    8.7730
    5.475    9.0574
    5.490    8.9205
    5.505    8.7941
    5.520    8.6677
    5.535    8.6783
    5.550    8.9415
    5.565    8.6783
    5.580    8.8257
    5.595    8.5940
    5.610    8.7414
    5.625    8.6256
    5.640    8.3518
    5.655    8.6783
    5.670    8.4044
    5.685    7.9726
    5.700    8.3623
    5.715    7.8778
    5.730    7.8252
    5.745    7.7093
    5.760    7.8673
    5.775    7.6567
    5.790    8.0253
    5.805    7.8252
    5.820    7.5619
    5.835    7.8357
    5.850    7.6251
    5.865    7.8041
    5.880    7.7514
    5.895    7.9937
    5.910    7.5935
    5.925    7.4987
    5.940    7.4144
    5.955    7.0037
    5.970    7.2143
    5.985    6.7193
    6.000    7.1195
    6.015    7.2565
    6.030    7.0037
    6.045    7.0142
    6.060    7.0248
    6.075    7.2354
    6.090    6.9194
    6.105    6.9300
    6.120    6.7720
    6.135    6.9300
    6.150    6.8036
    6.165    6.8668
    6.180    6.9616
    6.195    7.0353
    6.210    6.8773
    6.225    7.2670
    6.240    6.8773
    6.255    6.6456
    6.270    6.7299
    6.285    7.0037
    6.300    6.8246
    6.315    6.9089
    6.330    7.0248
    6.345    6.8246
    6.360    6.5719
    6.375    6.7615
    6.390    6.6245
    6.405    6.9826
    6.420    7.0985
    6.435    6.9616
    6.450    6.9932
    6.465    6.5719
    6.480    6.6561
    6.495    6.9194
    6.510    6.8457
    6.525    6.6561
    6.540    6.7088
    6.555    6.8457
    6.570    6.9932
    6.585    6.9616
    6.600    7.1617
    6.615    6.9405
    6.630    7.5197
    6.645    7.2670
    6.660    7.2038
    6.675    7.2670
    6.690    8.1622
    6.705    7.7830
    6.720    8.2570
    6.735    8.2675
    6.750    8.6888
    6.765    9.0574
    6.780    8.8784
    6.795    9.6472
    6.810   10.2475
    6.825   10.9426
    6.840   11.3533
    6.855   12.0906
    6.870   13.2807
    6.885   13.9968
    6.900   14.5656
    6.915   15.5661
    6.930   16.8826
    6.945   17.3144
    6.960   17.1775
    6.975   16.3244
    6.990   15.6082
    7.005   14.4181
    7.020   13.8915
    7.035   12.7225
    7.050   11.5429
    7.065   10.6582
    7.080   10.1001
    7.095    9.3734
    7.110    8.8257
    7.125    8.3307
    7.140    8.0463
    7.155    7.8146
    7.170    7.3934
    7.185    7.2459
    7.200    7.4355
    7.215    7.3091
    7.230    6.8984
    7.245    6.5087
    7.260    6.7509
    7.275    6.5824
    7.290    6.5298
    7.305    6.5508
    7.320    6.8141
    7.335    6.5508
    7.350    6.4244
    7.365    6.6983
    7.380    6.6772
    7.395    6.6877
    7.410    6.7615
    7.425    6.5087
    7.440    6.6667
    7.455    6.5824
    7.470    6.2243
    7.485    6.5508
    7.500    6.5613
    7.515    6.2454
    7.530    6.4034
    7.545    6.3296
    7.560    6.5613
    7.575    6.6561
    7.590    6.9616
    7.605    6.7193
    7.620    6.5613
    7.635    6.4455
    7.650    6.5087
    7.665    6.9405
    7.680    6.7193
    7.695    6.8668
    7.710    6.4350
    7.725    6.8246
    7.740    6.7404
    7.755    6.7404
    7.770    6.8246
    7.785    7.1933
    7.800    7.1511
    7.815    6.6140
    7.830    7.1827
    7.845    7.2986
    7.860    7.1195
    7.875    7.5197
    7.890    7.4776
    7.905    7.2880
    7.920    7.6251
    7.935    7.4144
    7.950    7.4776
    7.965    7.8252
    7.980    7.6567
    7.995    7.7620
    8.010    7.8568
    8.025    8.2043
    8.040    7.8989
    8.055    7.7514
    8.070    7.9410
    8.085    8.2043
    8.100    8.0885
    8.115    7.8884
    8.130    8.5203
    8.145    8.2991
    8.160    8.8784
    8.175    8.8152
    8.190    8.3623
    8.205    7.9200
    8.220    7.8884
    8.235    8.1833
    8.250    8.7098
    8.265    8.5308
    8.280    8.6045
    8.295    8.3728
    8.310    8.2359
    8.325    8.2254
    8.340    8.4887
    8.355    8.1306
    8.370    8.0358
    8.385    8.2149
    8.400    7.7620
    8.415    8.1201
    8.430    8.1306
    8.445    8.2043
    8.460    7.5092
    8.475    7.2143
    8.490    7.6567
    8.505    7.8357
    8.520    7.6040
    8.535    7.4250
    8.550    7.3302
    8.565    7.2880
    8.580    7.5303
    8.595    7.5303
    8.610    6.9826
    8.625    6.5087
    8.640    6.7088
    8.655    6.9300
    8.670    6.4034
    8.685    6.8352
    8.700    6.0979
    8.715    6.3928
    8.730    6.4666
    8.745    6.2033
    8.760    5.9821
    8.775    5.6977
    8.790    5.8978
    8.805    5.8768
    8.820    5.7399
    8.835    5.9189
    8.850    5.6977
    8.865    5.9505
    8.880    5.9505
    8.895    5.8031
    8.910    5.4028
    8.925    5.1817
    8.940    5.2238
    8.955    5.2343
    8.970    5.4134
    8.985    5.7083
    9.000    5.7083
    9.015    5.7609
    9.030    5.2870
    9.045    5.3291
    9.060    5.7083
    9.075    5.6872
    9.090    5.3502
    9.105    5.1711
    9.120    5.2343
    9.135    5.3186
    9.150    5.0974
    9.165    5.3397
    9.180    5.1922
    9.195    5.1501
    9.210    5.2027
    9.225    5.1395
    9.240    5.1290
    9.255    5.0132
    9.270    4.9921
    9.285    5.5292
    9.300    5.3607
    9.315    5.0869
    9.330    4.7920
    9.345    4.8025
    9.360    4.8973
    9.375    4.9500
    9.390    4.7499
    9.405    5.1080
    9.420    5.0448
    9.435    4.8657
    9.450    5.1606
    9.465    5.2765
    9.480    5.3607
    9.495    4.8763
    9.510    4.8973
    9.525    5.1606
    9.540    5.0342
    9.555    4.9500
    9.570    5.0448
    9.585    5.0342
    9.600    4.9921
    9.615    4.9605
    9.630    4.7183
    9.645    4.8657
    9.660    4.9500
    9.675    4.8763
    9.690    4.9500
    9.705    4.9816
    9.720    4.9184
    9.735    5.0342
    9.750    5.2133
    9.765    4.9289
    9.780    5.2027
    9.795    5.4028
    9.810    4.9605
    9.825    4.9078
    9.840    4.7183
    9.855    4.8552
    9.870    4.9500
    9.885    4.9078
    9.900    4.8657
    9.915    4.6235
    9.930    4.8447
    9.945    4.8341
    9.960    5.0764
    9.975    4.9394
    9.990    4.7709
   10.005    4.8552
   10.020    4.7183
   10.035    4.8868
   10.050    4.6340
   10.065    4.7499
   10.080    4.9816
   10.095    4.9184
   10.110    5.3502
   10.125    4.9394
   10.140    4.7288
   10.155    5.3607
   10.170    5.1501
   10.185    5.1817
   10.200    5.0026
   10.215    5.1922
   10.230    4.9921
   10.245    5.2975
   10.260    5.2027
   10.275    4.9289
   10.290    5.1501
   10.305    5.6029
   10.320    5.2449
   10.335    5.3818
   10.350    5.5714
   10.365    5.2449
   10.380    5.2765
   10.395    5.6872
   10.410    5.4344
   10.425    5.3397
   10.440    5.8452
   10.455    6.0558
   10.470    6.0558
   10.485    5.5608
   10.500    5.6661
   10.515    5.8347
   10.530    5.8241
   10.545    5.6977
   10.560    5.5608
   10.575    5.4450
   10.590    5.5924
   10.605    5.0974
   10.620    5.3081
   10.635    5.2027
   10.650    5.2765
   10.665    5.6345
   10.680    5.2238
   10.695    5.0553
   10.710    5.1817
   10.725    5.2027
   10.740    5.2870
   10.755    5.2870
   10.770    5.2659
   10.785    5.1395
   10.800    5.0026
   10.815    5.0974
   10.830    4.8763
   10.845    5.0132
   10.860    5.0974
   10.875    4.8763
   10.890    5.0132
   10.905    4.8763
   10.920    5.0026
   10.935    5.0237
   10.950    4.9184
   10.965    5.1395
   10.980    5.2554
   10.995    5.3291
   11.010    5.4344
   11.025    5.0658
   11.040    5.4976
   11.055    5.2765
   11.070    5.0974
   11.085    5.0448
   11.100    5.4555
   11.115    5.5292
   11.130    5.1817
   11.145    5.4555
   11.160    5.3081
   11.175    4.9710
   11.190    5.2238
   11.205    5.1501
   11.220    5.3081
   11.235    4.6656
   11.250    5.0237
   11.265    5.1080
   11.280    5.0869
   11.295    5.3291
   11.310    5.3291
   11.325    5.1606
   11.340    5.3081
   11.355    5.4660
   11.370    5.4450
   11.385    4.8973
   11.400    4.8341
   11.415    5.2027
   11.430    5.3607
   11.445    5.2975
   11.460    4.8131
   11.475    4.8447
   11.490    5.4450
   11.505    5.4028
   11.520    5.0658
   11.535    4.9078
   11.550    5.3081
   11.565    5.4871
   11.580    5.0132
   11.595    5.0553
   11.610    5.1817
   11.625    5.0342
   11.640    5.2238
   11.655    4.7815
   11.670    5.2975
   11.685    5.3818
   11.700    5.3712
   11.715    5.3923
   11.730    5.1606
   11.745    5.3186
   11.760    5.3291
   11.775    5.3923
   11.790    5.3818
   11.805    5.3291
   11.820    5.5292
   11.835    5.4344
   11.850    5.1080
   11.865    5.2343
   11.880    4.8763
   11.895    5.3081
   11.910    5.5503
   11.925    5.6029
   11.940    5.2343
   11.955    5.1606
   11.970    5.4134
   11.985    5.4766
   12.000    5.4450
   12.015    5.1922
   12.030    5.2238
   12.045    5.6661
   12.060    5.7083
   12.075    5.5924
   12.090    5.6767
   12.105    5.4239
   12.120    5.5503
   12.135    5.2343
   12.150    5.5714
   12.165    5.6767
   12.180    5.4660
   12.195    5.0974
   12.210    5.4871
   12.225    5.6661
   12.240    5.9189
   12.255    5.5082
   12.270    5.5819
   12.285    5.5292
   12.300    5.4976
   12.315    5.6872
   12.330    5.5187
   12.345    5.7504
   12.360    5.5924
   12.375    5.3818
   12.390    5.4871
   12.405    5.6556
   12.420    5.7083
   12.435    5.8031
   12.450    5.4450
   12.465    5.7188
   12.480    5.5082
   12.495    5.4450
   12.510    5.2765
   12.525    5.5819
   12.540    5.2343
   12.555    5.4239
   12.570    5.5398
   12.585    5.8241
   12.600    5.8347
   12.615    5.3607
   12.630    5.3818
   12.645    5.2975
   12.660    5.2343
   12.675    5.7293
   12.690    5.5714
   12.705    5.2554
   12.720    5.3712
   12.735    5.2449
   12.750    5.2765
   12.765    5.3397
   12.780    5.4766
   12.795    5.5714
   12.810    5.7188
   12.825    5.2343
   12.840    5.1185
   12.855    5.0869
   12.870    4.7709
   12.885    5.1290
   12.900    5.5608
   12.915    5.2027
   12.930    5.2238
   12.945    5.4028
   12.960    4.9394
   12.975    5.2765
   12.990    5.1080
   13.005    5.2027
   13.020    5.0869
   13.035    4.7815
   13.050    5.6767
   13.065    5.4976
   13.080    5.5082
   13.095    5.3712
   13.110    4.8341
   13.125    5.0448
   13.140    5.1395
   13.155    4.9500
   13.170    4.9289
   13.185    5.1395
   13.200    5.2027
   13.215    5.3607
   13.230    5.2765
   13.245    5.3502
   13.260    5.2659
   13.275    5.1501
   13.290    5.2449
   13.305    5.3712
   13.320    5.2449
   13.335    5.0869
   13.350    5.3397
   13.365    5.3397
   13.380    5.4766
   13.395    5.2027
   13.410    5.3923
   13.425    5.1290
   13.440    5.0026
   13.455    5.4239
   13.470    5.3712
   13.485    5.4555
   13.500    5.0026
   13.515    5.3081
   13.530    5.5819
   13.545    5.1395
   13.560    5.1711
   13.575    5.1185
   13.590    5.3186
   13.605    5.2870
   13.620    5.4239
   13.635    5.3502
   13.650    5.3291
   13.665    5.6135
   13.680    5.5608
   13.695    5.2449
   13.710    5.0869
   13.725    5.1185
   13.740    5.1501
   13.755    5.2027
   13.770    5.1817
   13.785    4.9078
   13.800    5.3081
   13.815    5.1395
   13.830    4.9394
   13.845    5.1817
   13.860    5.4028
   13.875    5.3818
   13.890    5.0132
   13.905    5.3818
   13.920    5.0658
   13.935    5.3291
   13.950    5.3818
   13.965    5.1606
   13.980    5.3712
   13.995    5.2449
   14.010    5.2870
   14.025    5.4660
   14.040    5.3186
   14.055    5.5819
   14.070    5.4660
   14.085    5.4134
   14.100    5.3291
   14.115    5.4450
   14.130    4.6340
   14.145    5.0974
   14.160    5.1290
   14.175    5.2027
   14.190    5.4660
   14.205    5.2765
   14.220    5.1501
   14.235    5.3607
   14.250    5.4871
   14.265    5.4871
   14.280    5.1290
   14.295    5.3502
   14.310    5.1290
   14.325    5.0448
   14.340    5.2449
   14.355    5.4239
   14.370    4.9710
   14.385    5.1185
   14.400    4.8236
   14.415    4.8973
   14.430    5.4344
   14.445    5.3186
   14.460    5.0764
   14.475    5.1922
   14.490    5.3923
   14.505    5.0764
   14.520    5.0764
   14.535    5.2659
   14.550    4.8973
   14.565    4.9500
   14.580    5.1080
   14.595    5.0974
   14.610    5.2343
   14.625    5.0342
   14.640    4.9500
   14.655    5.1606
   14.670    5.0237
   14.685    5.0974
   14.700    4.6656
   14.715    4.8552
   14.730    5.6556
   14.745    5.1080
   14.760    4.9921
   14.775    4.7709
   14.790    4.7288
   14.805    5.0764
   14.820    5.1711
   14.835    5.2765
   14.850    5.0237
   14.865    5.0553
   14.880    4.9394
   14.895    4.9500
   14.910    4.9500
   14.925    5.1711
   14.940    4.7604
   14.955    4.7815
   14.970    4.9921
   14.985    4.9289
   15.000    4.5287
   15.015    4.7499
   15.030    4.7920
   15.045    4.8868
   15.060    5.2027
   15.075    5.0869
   15.090    5.0764
   15.105    4.9289
   15.120    4.8868
   15.135    4.8447
   15.150    5.1606
   15.165    5.0237
   15.180    4.7815
   15.195    4.8447
   15.210    4.9605
   15.225    4.9078
   15.240    5.1606
   15.255    4.9710
   15.270    5.1501
   15.285    5.0132
   15.300    4.9394
   15.315    4.9921
   15.330    4.9078
   15.345    4.8447
   15.360    4.8973
   15.375    4.7815
   15.390    4.8447
   15.405    5.3186
   15.420    5.1922
   15.435    4.9078
   15.450    4.8763
   15.465    4.8657
   15.480    4.9605
   15.495    4.7288
   15.510    4.8657
   15.525    4.7393
   15.540    4.5603
   15.555    4.8763
   15.570    4.8025
   15.585    4.8973
   15.600    4.7920
   15.615    4.8131
   15.630    4.9816
   15.645    4.7815
   15.660    4.9816
   15.675    4.9816
   15.690    4.8131
   15.705    4.9289
   15.720    4.8025
   15.735    5.0237
   15.750    5.2870
   15.765    5.3291
   15.780    4.6867
   15.795    4.9078
   15.810    5.1395
   15.825    5.1290
   15.840    4.8973
   15.855    4.8131
   15.870    5.2975
   15.885    5.1290
   15.900    4.9078
   15.915    4.9078
   15.930    4.8236
   15.945    5.2027
   15.960    4.8447
   15.975    4.9710
   15.990    4.8341
   16.005    4.7183
   16.020    4.7183
   16.035    4.6867
   16.050    4.6972
   16.065    4.9078
   16.080    4.5919
   16.095    4.5392
   16.110    5.1501
   16.125    5.1080
   16.140    5.2554
   16.155    5.0342
   16.170    5.2449
   16.185    4.9394
   16.200    5.0132
   16.215    4.5182
   16.230    5.1606
   16.245    5.3291
   16.260    5.2343
   16.275    5.1395
   16.290    5.0869
   16.305    4.5498
   16.320    4.5919
   16.335    4.7920
   16.350    4.5603
   16.365    4.5287
   16.380    4.9078
   16.395    4.9500
   16.410    4.7288
   16.425    5.0448
   16.440    5.3607
   16.455    4.8657
   16.470    4.7288
   16.485    5.1395
   16.500    5.0448
   16.515    4.8552
   16.530    4.8131
   16.545    4.7288
   16.560    4.8868
   16.575    4.6867
   16.590    4.6024
   16.605    4.8236
   16.620    4.7183
   16.635    4.7920
   16.650    4.5814
   16.665    4.8763
   16.680    4.9184
   16.695    4.8447
   16.710    4.9500
   16.725    4.9078
   16.740    4.8868
   16.755    4.9184
   16.770    4.9184
   16.785    4.6130
   16.800    4.6445
   16.815    4.5498
   16.830    4.7393
   16.845    5.0658
   16.860    4.6761
   16.875    4.9710
   16.890    4.8341
   16.905    4.8657
   16.920    4.8973
   16.935    4.5287
   16.950    4.6445
   16.965    5.1501
   16.980    4.4760
   16.995    4.7393
   17.010    4.8236
   17.025    4.5919
   17.040    4.6972
   17.055    4.9605
   17.070    4.5603
   17.085    4.7815
   17.100    4.1285
   17.115    4.2970
   17.130    4.5603
   17.145    4.8447
   17.160    4.7920
   17.175    4.8236
   17.190    4.6340
   17.205    4.7183
   17.220    5.1185
   17.235    4.8447
   17.250    4.7709
   17.265    4.7604
   17.280    4.6761
   17.295    4.8131
   17.310    4.9500
   17.325    4.7709
   17.340    4.5814
   17.355    4.6972
   17.370    4.6551
   17.385    4.8552
   17.400    4.8447
   17.415    4.6340
   17.430    4.5287
   17.445    4.6656
   17.460    4.9500
   17.475    5.0553
   17.490    4.5814
   17.505    4.7604
   17.520    4.8868
   17.535    4.6235
   17.550    4.6445
   17.565    4.7393
   17.580    4.9078
   17.595    4.6551
   17.610    4.5814
   17.625    4.8868
   17.640    5.0764
   17.655    4.9184
   17.670    4.7604
   17.685    5.0237
   17.700    4.8657
   17.715    4.8025
   17.730    4.9605
   17.745    4.9078
   17.760    4.8552
   17.775    4.8025
   17.790    4.6445
   17.805    4.7499
   17.820    4.6340
   17.835    4.7815
   17.850    4.6130
   17.865    4.7920
   17.880    4.8236
   17.895    4.9184
   17.910    5.0342
   17.925    4.7183
   17.940    4.5498
   17.955    4.6656
   17.970    4.8763
   17.985    5.2343
   18.000    4.7393
   18.015    4.7183
   18.030    5.1290
   18.045    4.6761
   18.060    4.7077
   18.075    4.8763
   18.090    4.7077
   18.105    4.8131
   18.120    4.6235
   18.135    5.0342
   18.150    5.1922
   18.165    4.9710
   18.180    4.9289
   18.195    5.0237
   18.210    4.6235
   18.225    4.7288
   18.240    4.8763
   18.255    4.8341
   18.270    4.8447
   18.285    5.2449
   18.300    4.9921
   18.315    5.0974
   18.330    5.0342
   18.345    4.9184
   18.360    4.9394
   18.375    4.9078
   18.390    5.2659
   18.405    4.8973
   18.420    4.9394
   18.435    5.2765
   18.450    4.8131
   18.465    4.7077
   18.480    5.0974
   18.495    4.8657
   18.510    4.7709
   18.525    4.6972
   18.540    4.8973
   18.555    4.6551
   18.570    4.7288
   18.585    4.8236
   18.600    4.8236
   18.615    4.6340
   18.630    4.8973
   18.645    4.9289
   18.660    5.0764
   18.675    4.9289
   18.690    5.0132
   18.705    4.8868
   18.720    4.8236
   18.735    4.9816
   18.750    4.7183
   18.765    4.8025
   18.780    4.7920
   18.795    4.6867
   18.810    4.7183
   18.825    4.7288
   18.840    4.4550
   18.855    4.7815
   18.870    4.5603
   18.885    4.7393
   18.900    4.9921
   18.915    4.9289
   18.930    5.2449
   18.945    4.8552
   18.960    4.8447
   18.975    4.5708
   18.990    4.8868
   19.005    4.9710
   19.020    5.0237
   19.035    4.7077
   19.050    5.0132
   19.065    4.6551
   19.080    4.8236
   19.095    4.8341
   19.110    4.9184
   19.125    4.8657
   19.140    4.9500
   19.155    4.6445
   19.170    4.7393
   19.185    4.8868
   19.200    4.5603
   19.215    4.6340
   19.230    4.9289
   19.245    4.9184
   19.260    4.7077
   19.275    4.7288
   19.290    4.8868
   19.305    4.9921
   19.320    4.9289
   19.335    5.0658
   19.350    5.2870
   19.365    4.9184
   19.380    4.5814
   19.395    5.0237
   19.410    5.0342
   19.425    4.9710
   19.440    5.1395
   19.455    5.3186
   19.470    4.9921
   19.485    5.1290
   19.500    5.2133
   19.515    5.1395
   19.530    5.4134
   19.545    4.9605
   19.560    4.7709
   19.575    5.0764
   19.590    4.9816
   19.605    4.8341
   19.620    4.9710
   19.635    5.2765
   19.650    5.0342
   19.665    4.9078
   19.680    4.9921
   19.695    5.1606
   19.710    5.0237
   19.725    5.1606
   19.740    4.9184
   19.755    4.8657
   19.770    5.1501
   19.785    5.0448
   19.800    4.9710
   19.815    5.2659
   19.830    5.1395
   19.845    5.1290
   19.860    4.6867
   19.875    5.0237
   19.890    5.0448
   19.905    4.8025
   19.920    5.0553
   19.935    4.9710
   19.950    5.3923
   19.965    5.1711
   19.980    4.8025
   19.995    5.1080
   20.010    4.6867
   20.025    5.0448
   20.040    5.2343
   20.055    5.2133
   20.070    5.1817
   20.085    5.1711
   20.100    5.2027
   20.115    5.3081
   20.130    4.9816
   20.145    5.0974
   20.160    5.1185
   20.175    4.9605
   20.190    5.1711
   20.205    5.1290
   20.220    5.0658
   20.235    5.0342
   20.250    4.9394
   20.265    5.2449
   20.280    5.0869
   20.295    5.4871
   20.310    5.3818
   20.325    5.0869
   20.340    5.0974
   20.355    5.1922
   20.370    4.9289
   20.385    4.9816
   20.400    5.0342
   20.415    4.7393
   20.430    4.7709
   20.445    5.0132
   20.460    5.2449
   20.475    5.2238
   20.490    4.9500
   20.505    5.1501
   20.520    5.0237
   20.535    4.7183
   20.550    4.7393
   20.565    4.7499
   20.580    5.0237
   20.595    4.9816
   20.610    4.5919
   20.625    5.0974
   20.640    5.1185
   20.655    5.2870
   20.670    5.0764
   20.685    4.8236
   20.700    5.0026
   20.715    4.9605
   20.730    4.9289
   20.745    5.0553
   20.760    4.9184
   20.775    4.8763
   20.790    5.1817
   20.805    5.0237
   20.820    5.1606
   20.835    5.1290
   20.850    4.9605
   20.865    5.1185
   20.880    4.8552
   20.895    4.7709
   20.910    4.8131
   20.925    4.8552
   20.940    4.6235
   20.955    5.0342
   20.970    5.1290
   20.985    4.9078
   21.000    4.8131
   21.015    4.8236
   21.030    5.0448
   21.045    5.1185
   21.060    5.1501
   21.075    5.0342
   21.090    4.7815
   21.105    4.7288
   21.120    4.9078
   21.135    5.0026
   21.150    5.4555
   21.165    5.4239
   21.180    5.1185
   21.195    5.2027
   21.210    5.0237
   21.225    4.8657
   21.240    4.9289
   21.255    5.1290
   21.270    4.8131
   21.285    4.8763
   21.300    4.9289
   21.315    4.7499
   21.330    4.9605
   21.345    5.2449
   21.360    4.8131
   21.375    5.0448
   21.390    4.9605
   21.405    4.8657
   21.420    4.9394
   21.435    4.8657
   21.450    4.8552
   21.465    4.8236
   21.480    5.0764
   21.495    4.8973
   21.510    5.1290
   21.525    5.1501
   21.540    4.7815
   21.555    5.0553
   21.570    4.9921
   21.585    4.9289
   21.600    5.2554
   21.615    4.7604
   21.630    4.9605
   21.645    5.1080
   21.660    4.9289
   21.675    5.0974
   21.690    4.5076
   21.705    4.7393
   21.720    4.9184
   21.735    4.9921
   21.750    5.0342
   21.765    4.7499
   21.780    4.5182
   21.795    4.6024
   21.810    4.4760
   21.825    4.9184
   21.840    4.9289
   21.855    4.9921
   21.870    4.8131
   21.885    4.9394
   21.900    4.4866
   21.915    4.6024
   21.930    4.6024
   21.945    4.8657
   21.960    4.7604
   21.975    4.6972
   21.990    5.0553
   22.005    4.8868
   22.020    5.2765
   22.035    4.9605
   22.050    4.9605
   22.065    4.9289
   22.080    4.6867
   22.095    5.0026
   22.110    5.2133
   22.125    5.0448
   22.140    4.6867
   22.155    5.4028
   22.170    4.9394
   22.185    4.7920
   22.200    4.7815
   22.215    4.7709
   22.230    4.7183
   22.245    4.6761
   22.260    4.8341
   22.275    4.9816
   22.290    5.0132
   22.305    4.6867
   22.320    4.8763
   22.335    4.8025
   22.350    4.8973
   22.365    4.9289
   22.380    5.0026
   22.395    4.8447
   22.410    4.7183
   22.425    5.0658
   22.440    4.9816
   22.455    4.9500
   22.470    4.9289
   22.485    4.7499
   22.500    4.7815
   22.515    4.5603
   22.530    4.7815
   22.545    4.8341
   22.560    4.7499
   22.575    4.5603
   22.590    4.3075
   22.605    4.6445
   22.620    4.7815
   22.635    5.1395
   22.650    4.8131
   22.665    4.9394
   22.680    4.6972
   22.695    5.0132
   22.710    4.6340
   22.725    4.6445
   22.740    4.7077
   22.755    4.7709
   22.770    4.6972
   22.785    4.8025
   22.800    4.9078
   22.815    4.8973
   22.830    4.4760
   22.845    4.5287
   22.860    4.6867
   22.875    4.5287
   22.890    4.5182
   22.905    4.6445
   22.920    4.7709
   22.935    4.7077
   22.950    4.4339
   22.965    4.7393
   22.980    4.5287
   22.995    4.9921
   23.010    4.7920
   23.025    4.6340
   23.040    5.0026
   23.055    4.6972
   23.070    4.6235
   23.085    4.5498
   23.100    4.6340
   23.115    4.7920
   23.130    4.3813
   23.145    4.5182
   23.160    4.9394
   23.175    4.5498
   23.190    4.3602
   23.205    4.5498
   23.220    4.5814
   23.235    4.5076
   23.250    4.6656
   23.265    4.6130
   23.280    4.5287
   23.295    4.4866
   23.310    4.5708
   23.325    4.5919
   23.340    4.5919
   23.355    4.3918
   23.370    4.5603
   23.385    4.6340
   23.400    4.2759
   23.415    4.4550
   23.430    4.5392
   23.445    4.3602
   23.460    4.4760
   23.475    4.6551
   23.490    4.5708
   23.505    4.5814
   23.520    4.4444
   23.535    4.6235
   23.550    4.6130
   23.565    4.6867
   23.580    4.9394
   23.595    4.7499
   23.610    4.4655
   23.625    4.6235
   23.640    4.4655
   23.655    4.7183
   23.670    4.5708
   23.685    4.5076
   23.700    4.4128
   23.715    4.6130
   23.730    4.9605
   23.745    4.7499
   23.760    4.5708
   23.775    4.6235
   23.790    4.5603
   23.805    4.2865
   23.820    4.0442
   23.835    4.5814
   23.850    4.6761
   23.865    4.4550
   23.880    4.5392
   23.895    4.5708
   23.910    4.4339
   23.925    4.2443
   23.940    4.1496
   23.955    4.1180
   23.970    4.4444
   23.985    4.5287
   24.000    4.3181
   24.015    4.1811
   24.030    4.9605
   24.045    4.4760
   24.060    4.4866
   24.075    4.5182
   24.090    4.4866
   24.105    4.2233
   24.120    4.3918
   24.135    4.3813
   24.150    4.2654
   24.165    4.0337
   24.180    4.1074
   24.195    4.4234
   24.210    4.4444
   24.225    4.5182
   24.240    4.5498
   24.255    4.2970
   24.270    4.4339
   24.285    4.3602
   24.300    4.1601
   24.315    4.3391
   24.330    4.5919
   24.345    4.4655
   24.360    4.2443
   24.375    4.6867
   24.390    4.5498
   24.405    4.4234
   24.420    4.3181
   24.435    4.4866
   24.450    4.3602
   24.465    4.4444
   24.480    4.2759
   24.495    4.2654
   24.510    4.3707
   24.525    4.4023
   24.540    4.2338
   24.555    4.4760
   24.570    4.5603
   24.585    4.5919
   24.600    4.4128
   24.615    4.6867
   24.630    4.5603
   24.645    4.4971
   24.660    4.7920
   24.675    4.5498
   24.690    4.6656
   24.705    4.1811
   24.720    4.3602
   24.735    4.7288
   24.750    4.4971
   24.765    4.4023
   24.780    4.5182
   24.795    4.6445
   24.810    4.4866
   24.825    4.3918
   24.840    4.1917
   24.855    4.2865
   24.870    4.0758
   24.885    4.3391
   24.900    4.4234
   24.915    4.1496
   24.930    4.1601
   24.945    4.4023
   24.960    4.0337
   24.975    4.2549
   24.990    4.4866
   25.005    4.2549
   25.020    4.2549
   25.035    4.4971
   25.050    4.2759
   25.065    4.1390
   25.080    4.1917
   25.095    3.9179
   25.110    3.9600
   25.125    3.9810
   25.140    3.9284
   25.155    4.2022
   25.170    3.9600
   25.185    4.1917
   25.200    4.1074
   25.215    4.1074
   25.230    4.0864
   25.245    4.1601
   25.260    4.1074
   25.275    4.0337
   25.290    4.3602
   25.305    4.2549
   25.320    4.3286
   25.335    4.5814
   25.350    4.2443
   25.365    4.1601
   25.380    4.4128
   25.395    4.2549
   25.410    4.2549
   25.425    4.3391
   25.440    4.2338
   25.455    4.2127
   25.470    4.1706
   25.485    4.3497
   25.500    4.4128
   25.515    4.3813
   25.530    4.2549
   25.545    4.3286
   25.560    4.2338
   25.575    4.3286
   25.590    4.1706
   25.605    4.3075
   25.620    4.5182
   25.635    4.1390
   25.650    3.8863
   25.665    4.0758
   25.680    4.2970
   25.695    4.4760
   25.710    4.2970
   25.725    4.1390
   25.740    4.0548
   25.755    4.0021
   25.770    3.9494
   25.785    4.0021
   25.800    4.0337
   25.815    3.9389
   25.830    3.7809
   25.845    4.1811
   25.860    4.0653
   25.875    3.9389
   25.890    3.7704
   25.905    4.0337
   25.920    4.0126
   25.935    4.1390
   25.950    4.1390
   25.965    4.0548
   25.980    4.1180
   25.995    3.9284
   26.010    3.8968
   26.025    4.0969
   26.040    4.1496
   26.055    3.9916
   26.070    3.9179
   26.085    3.7072
   26.100    4.1390
   26.115    3.8968
   26.130    4.0021
   26.145    3.8547
   26.160    4.0442
   26.175    4.0442
   26.190    3.9179
   26.205    4.2970
   26.220    4.2970
   26.235    4.2022
   26.250    3.9916
   26.265    4.1917
   26.280    4.0969
   26.295    3.9705
   26.310    4.0442
   26.325    4.0442
   26.340    4.1601
   26.355    3.9916
   26.370    3.8968
   26.385    3.7915
   26.400    3.6967
   26.415    4.1074
   26.430    4.0653
   26.445    3.6019
   26.460    3.8020
   26.475    3.8757
   26.490    4.1811
   26.505    4.1285
   26.520    4.0337
   26.535    4.0126
   26.550    4.0021
   26.565    4.0126
   26.580    3.8125
   26.595    3.7177
   26.610    3.6756
   26.625    4.1811
   26.640    3.8863
   26.655    3.8757
   26.670    4.0969
   26.685    3.8020
   26.700    3.8441
   26.715    4.0232
   26.730    4.0126
   26.745    3.8757
   26.760    3.6862
   26.775    3.4018
   26.790    4.0653
   26.805    3.6651
   26.820    3.9284
   26.835    4.0337
   26.850    4.1390
   26.865    4.2443
   26.880    4.0758
   26.895    3.9810
   26.910    4.0758
   26.925    3.6651
   26.940    3.7388
   26.955    3.6756
   26.970    3.8125
   26.985    3.7809
   27.000    3.9494
   27.015    3.7493
   27.030    3.9073
   27.045    3.8968
   27.060    4.0126
   27.075    3.7704
   27.090    3.5071
   27.105    3.7704
   27.120    3.9073
   27.135    3.6862
   27.150    3.7177
   27.165    3.7704
   27.180    4.0548
   27.195    3.6651
   27.210    4.0337
   27.225    3.9705
   27.240    3.7072
   27.255    3.8652
   27.270    3.5808
   27.285    3.5598
   27.300    3.7283
   27.315    3.7915
   27.330    3.6546
   27.345    3.4966
   27.360    3.7388
   27.375    3.9073
   27.390    3.5808
   27.405    3.5282
   27.420    3.7072
   27.435    4.0758
   27.450    3.9389
   27.465    3.8336
   27.480    3.7809
   27.495    3.9073
   27.510    3.6651
   27.525    3.8020
   27.540    4.0126
   27.555    4.0337
   27.570    3.7283
   27.585    3.5492
   27.600    3.6862
   27.615    3.8652
   27.630    3.7283
   27.645    4.1285
   27.660    4.0021
   27.675    3.9073
   27.690    4.0232
   27.705    3.7704
   27.720    3.8968
   27.735    4.0442
   27.750    3.8652
   27.765    3.7704
   27.780    3.6230
   27.795    3.8863
   27.810    3.6124
   27.825    4.0337
   27.840    3.6124
   27.855    3.8652
   27.870    3.6651
   27.885    3.8336
   27.900    3.6651
   27.915    3.6546
   27.930    3.8968
   27.945    3.8652
   27.960    3.5176
   27.975    3.6862
   27.990    3.6440
   28.005    3.9073
   28.020    3.8336
   28.035    3.9705
   28.050    3.8547
   28.065    4.0758
   28.080    3.7809
   28.095    4.0232
   28.110    4.0021
   28.125    3.8968
   28.140    4.0653
   28.155    3.9916
   28.170    4.0969
   28.185    4.0126
   28.200    3.8863
   28.215    3.8863
   28.230    3.8020
   28.245    4.0337
   28.260    4.0653
   28.275    3.8125
   28.290    3.7915
   28.305    3.9284
   28.320    4.1390
   28.335    4.1706
   28.350    3.6967
   28.365    3.6862
   28.380    4.0232
   28.395    4.0548
   28.410    3.7599
   28.425    3.6862
   28.440    3.6756
   28.455    3.7388
   28.470    3.8863
   28.485    3.6967
   28.500    4.0442
   28.515    3.9073
   28.530    3.5914
   28.545    3.8547
   28.560    3.6862
   28.575    3.7915
   28.590    3.7915
   28.605    3.7493
   28.620    3.7493
   28.635    4.0758
   28.650    3.8652
   28.665    3.7493
   28.680    3.6756
   28.695    3.7388
   28.710    3.7493
   28.725    3.7283
   28.740    3.5387
   28.755    3.6862
   28.770    3.7704
   28.785    3.9284
   28.800    3.8968
   28.815    4.0021
   28.830    3.9073
   28.845    3.8652
   28.860    3.7599
   28.875    3.9073
   28.890    3.6862
   28.905    3.9389
   28.920    3.4755
   28.935    3.7915
   28.950    3.9916
   28.965    3.6862
   28.980    3.7809
   28.995    3.6862
   29.010    3.7388
   29.025    3.8020
   29.040    3.7915
   29.055    3.8020
   29.070    3.7915
   29.085    3.6230
   29.100    3.8125
   29.115    3.4123
   29.130    3.8757
   29.145    3.9389
   29.160    3.7177
   29.175    3.5492
   29.190    3.5492
   29.205    3.7283
   29.220    3.7809
   29.235    3.6967
   29.250    3.6124
   29.265    3.4650
   29.280    3.7493
   29.295    3.7072
   29.310    3.7493
   29.325    4.1811
   29.340    3.8968
   29.355    4.0232
   29.370    4.0864
   29.385    3.7704
   29.400    3.7388
   29.415    3.5387
   29.430    3.8231
   29.445    3.4966
   29.460    3.6651
   29.475    3.6651
   29.490    3.6019
   29.505    3.7915
   29.520    3.5387
   29.535    3.6124
   29.550    3.5071
   29.565    3.5914
   29.580    3.5808
   29.595    3.6335
   29.610    3.5176
   29.625    3.3807
   29.640    3.6019
   29.655    3.7177
   29.670    3.4439
   29.685    3.5598
   29.700    4.0337
   29.715    3.5282
   29.730    3.6230
   29.745    3.4229
   29.760    3.1701
   29.775    3.4439
   29.790    3.4439
   29.805    3.5387
   29.820    3.4755
   29.835    3.4018
   29.850    3.5914
   29.865    3.4860
   29.880    3.2649
   29.895    3.5703
   29.910    3.4229
   29.925    3.5071
   29.940    3.4018
   29.955    3.2543
   29.970    3.5703
   29.985    3.6546
   30.000    3.7388
   30.015    3.4334
   30.030    3.5914
   30.045    3.5176
   30.060    3.6862
   30.075    3.6335
   30.090    3.4755
   30.105    3.6335
   30.120    3.4966
   30.135    3.6440
   30.150    3.2754
   30.165    3.3175
   30.180    3.6651
   30.195    3.4860
   30.210    3.5387
   30.225    3.5492
   30.240    3.5914
   30.255    3.3702
   30.270    3.6546
   30.285    3.4650
   30.300    3.3070
   30.315    3.4650
   30.330    3.3597
   30.345    3.5071
   30.360    3.3491
   30.375    3.5703
   30.390    3.5176
   30.405    3.3386
   30.420    3.2438
   30.435    3.4229
   30.450    3.6230
   30.465    3.4650
   30.480    3.4650
   30.495    3.4650
   30.510    3.3597
   30.525    3.0858
   30.540    3.4755
   30.555    3.6546
   30.570    3.4123
   30.585    3.2543
   30.600    3.2965
   30.615    3.3597
   30.630    3.4229
   30.645    3.4544
   30.660    3.4018
   30.675    3.3597
   30.690    3.5808
   30.705    3.8020
   30.720    3.5492
   30.735    3.5282
   30.750    3.4123
   30.765    3.3281
   30.780    3.3597
   30.795    3.4123
   30.810    3.4544
   30.825    3.3386
   30.840    3.7283
   30.855    3.5282
   30.870    3.4860
   30.885    3.3386
   30.900    3.3807
   30.915    3.6651
   30.930    3.7283
   30.945    3.4123
   30.960    3.3070
   30.975    3.3913
   30.990    3.1385
   31.005    3.4544
   31.020    3.1701
   31.035    3.4018
   31.050    3.3386
   31.065    3.3597
   31.080    3.2543
   31.095    3.2017
   31.110    3.2859
   31.125    3.2333
   31.140    3.1806
   31.155    3.1701
   31.170    3.0121
   31.185    3.0226
   31.200    3.2859
   31.215    3.4334
   31.230    3.4439
   31.245    3.3175
   31.260    3.3175
   31.275    3.5598
   31.290    3.5492
   31.305    3.1596
   31.320    3.3702
   31.335    3.3491
   31.350    3.4229
   31.365    3.3807
   31.380    3.4334
   31.395    3.2965
   31.410    3.2754
   31.425    3.5387
   31.440    3.2333
   31.455    3.2649
   31.470    3.4018
   31.485    3.4755
   31.500    3.1385
   31.515    3.1596
   31.530    3.2333
   31.545    3.3702
   31.560    3.2859
   31.575    3.2333
   31.590    3.4755
   31.605    3.2965
   31.620    3.4123
   31.635    3.5598
   31.650    3.7809
   31.665    3.6651
   31.680    3.6019
   31.695    3.4018
   31.710    3.3597
   31.725    3.4755
   31.740    3.4123
   31.755    3.4755
   31.770    3.6124
   31.785    3.6019
   31.800    3.4334
   31.815    3.3281
   31.830    3.4018
   31.845    3.5387
   31.860    3.5387
   31.875    3.5492
   31.890    3.5176
   31.905    3.6335
   31.920    3.2438
   31.935    3.2965
   31.950    3.4860
   31.965    3.5071
   31.980    3.5282
   31.995    3.5598
   32.010    3.2122
   32.025    3.2333
   32.040    3.4229
   32.055    3.5492
   32.070    3.3913
   32.085    3.3070
   32.100    3.3175
   32.115    3.4544
   32.130    3.5176
   32.145    3.4439
   32.160    3.2859
   32.175    3.3281
   32.190    3.1069
   32.205    3.1280
   32.220    3.0016
   32.235    3.4229
   32.250    3.3491
   32.265    3.2859
   32.280    3.3175
   32.295    3.3386
   32.310    3.2122
   32.325    3.2859
   32.340    3.1806
   32.355    3.2017
   32.370    3.3175
   32.385    3.5387
   32.400    3.4966
   32.415    3.4123
   32.430    3.4334
   32.445    3.2965
   32.460    3.1385
   32.475    3.1912
   32.490    3.1174
   32.505    3.3702
   32.520    3.2017
   32.535    3.3913
   32.550    3.2649
   32.565    3.1912
   32.580    3.2965
   32.595    3.2649
   32.610    3.2122
   32.625    3.2333
   32.640    3.3807
   32.655    3.2543
   32.670    3.4229
   32.685    3.2122
   32.700    3.4650
   32.715    3.1280
   32.730    3.0964
   32.745    3.4439
   32.760    3.3070
   32.775    3.2965
   32.790    3.3175
   32.805    3.0542
   32.820    2.9910
   32.835    3.1701
   32.850    3.3491
   32.865    3.4334
   32.880    3.3491
   32.895    3.0858
   32.910    3.1069
   32.925    3.0858
   32.940    3.1385
   32.955    3.2649
   32.970    3.2965
   32.985    3.4860
   33.000    3.5703
   33.015    3.5387
   33.030    3.4229
   33.045    3.3702
   33.060    3.0332
   33.075    3.1490
   33.090    3.0753
   33.105    3.2438
   33.120    3.3913
   33.135    3.2543
   33.150    3.3281
   33.165    3.2649
   33.180    3.2122
   33.195    3.2754
   33.210    3.0753
   33.225    3.2965
   33.240    3.1701
   33.255    3.0753
   33.270    3.5176
   33.285    3.4966
   33.300    3.2965
   33.315    3.0648
   33.330    2.9595
   33.345    3.2754
   33.360    3.5176
   33.375    3.4123
   33.390    3.3386
   33.405    3.1806
   33.420    3.1806
   33.435    3.2965
   33.450    3.2333
   33.465    3.0226
   33.480    3.5071
   33.495    3.0648
   33.510    3.1701
   33.525    3.4544
   33.540    3.1701
   33.555    3.4123
   33.570    3.2859
   33.585    3.2965
   33.600    3.0964
   33.615    3.0964
   33.630    2.9805
   33.645    3.1806
   33.660    3.0437
   33.675    3.4123
   33.690    3.1701
   33.705    3.0332
   33.720    3.1701
   33.735    3.0858
   33.750    3.0332
   33.765    3.1385
   33.780    3.2333
   33.795    3.1912
   33.810    2.9068
   33.825    3.2122
   33.840    3.4650
   33.855    3.2333
   33.870    2.8225
   33.885    3.2543
   33.900    3.2333
   33.915    3.3597
   33.930    3.1490
   33.945    3.4229
   33.960    3.3281
   33.975    3.4544
   33.990    2.9595
   34.005    3.1174
   34.020    3.1490
   34.035    3.1174
   34.050    3.1912
   34.065    3.1701
   34.080    3.3702
   34.095    3.2859
   34.110    3.3175
   34.125    3.0121
   34.140    3.0226
   34.155    3.0121
   34.170    2.8436
   34.185    3.1596
   34.200    3.1806
   34.215    3.1806
   34.230    3.2122
   34.245    3.2859
   34.260    3.3281
   34.275    2.9489
   34.290    3.2122
   34.305    3.2859
   34.320    3.4018
   34.335    3.1174
   34.350    3.0121
   34.365    2.9805
   34.380    3.2543
   34.395    3.2438
   34.410    3.1069
   34.425    2.8647
   34.440    2.8120
   34.455    3.0226
   34.470    3.1280
   34.485    2.8857
   34.500    3.1806
   34.515    3.1490
   34.530    3.1596
   34.545    3.3386
   34.560    3.0542
   34.575    3.0753
   34.590    3.1701
   34.605    3.2965
   34.620    3.0437
   34.635    2.9279
   34.650    3.2017
   34.665    3.3281
   34.680    3.0542
   34.695    3.0964
   34.710    3.0226
   34.725    3.1490
   34.740    3.1596
   34.755    2.9068
   34.770    2.8647
   34.785    3.2754
   34.800    3.2122
   34.815    3.1069
   34.830    2.9279
   34.845    3.2754
   34.860    2.8331
   34.875    2.9595
   34.890    3.0542
   34.905    2.9384
   34.920    3.0226
   34.935    3.1174
   34.950    3.2227
   34.965    3.1596
   34.980    3.0332
   34.995    3.1385
   35.010    3.0648
   35.025    3.1280
   35.040    3.1701
   35.055    3.1701
   35.070    3.1596
   35.085    3.0437
   35.100    3.0964
   35.115    2.9805
   35.130    2.8857
   35.145    3.0016
   35.160    3.2543
   35.175    2.8752
   35.190    3.0542
   35.205    3.1701
   35.220    3.0964
   35.235    3.0016
   35.250    3.1069
   35.265    3.1596
   35.280    3.1490
   35.295    3.0648
   35.310    2.8857
   35.325    3.0542
   35.340    3.0542
   35.355    2.9910
   35.370    3.4018
   35.385    3.3070
   35.400    3.3597
   35.415    2.9384
   35.430    3.2859
   35.445    3.1806
   35.460    3.0858
   35.475    3.2543
   35.490    3.3597
   35.505    3.2333
   35.520    2.9700
   35.535    3.0542
   35.550    3.2227
   35.565    2.8120
   35.580    2.8857
   35.595    3.1596
   35.610    3.5071
   35.625    3.2227
   35.640    3.1280
   35.655    3.0542
   35.670    3.5071
   35.685    3.2122
   35.700    3.2017
   35.715    3.2543
   35.730    3.1701
   35.745    3.1385
   35.760    3.0858
   35.775    3.1280
   35.790    3.1701
   35.805    3.0332
   35.820    2.8963
   35.835    3.1280
   35.850    3.2438
   35.865    2.9700
   35.880    3.2438
   35.895    3.0121
   35.910    3.0121
   35.925    3.0332
   35.940    3.0858
   35.955    3.0437
   35.970    2.8541
   35.985    3.2438
   36.000    3.0648
   36.015    3.1174
   36.030    3.1385
   36.045    2.9910
   36.060    3.2543
   36.075    3.0226
   36.090    3.2859
   36.105    3.1596
   36.120    3.0121
   36.135    3.0858
   36.150    3.0753
   36.165    2.9595
   36.180    3.0332
   36.195    3.2649
   36.210    3.1806
   36.225    2.9805
   36.240    2.8015
   36.255    2.8436
   36.270    2.9910
   36.285    3.3597
   36.300    3.3175
   36.315    3.0332
   36.330    3.1069
   36.345    3.1490
   36.360    2.9384
   36.375    2.9489
   36.390    3.0964
   36.405    2.9279
   36.420    2.7909
   36.435    2.9384
   36.450    2.9910
   36.465    2.8857
   36.480    2.9489
   36.495    3.0964
   36.510    2.8331
   36.525    3.0542
   36.540    3.2438
   36.555    3.1701
   36.570    3.3702
   36.585    3.0964
   36.600    2.8331
   36.615    2.8647
   36.630    2.9805
   36.645    2.7699
   36.660    3.0121
   36.675    3.0542
   36.690    3.1174
   36.705    3.0753
   36.720    3.0964
   36.735    3.2859
   36.750    3.2017
   36.765    2.9910
   36.780    3.2754
   36.795    2.9279
   36.810    3.0121
   36.825    2.8647
   36.840    2.9910
   36.855    3.2859
   36.870    3.3386
   36.885    3.1069
   36.900    2.9068
   36.915    2.8963
   36.930    3.0016
   36.945    2.8963
   36.960    3.2965
   36.975    3.2122
   36.990    2.8225
   37.005    3.0121
   37.020    2.9279
   37.035    3.1806
   37.050    3.0332
   37.065    2.9489
   37.080    2.9279
   37.095    3.2122
   37.110    3.1069
   37.125    3.2965
   37.140    3.3491
   37.155    3.0964
   37.170    2.9910
   37.185    3.0753
   37.200    3.1490
   37.215    3.3281
   37.230    3.1490
   37.245    2.9489
   37.260    3.0226
   37.275    3.2543
   37.290    3.2017
   37.305    3.2017
   37.320    3.0964
   37.335    2.9279
   37.350    3.1069
   37.365    3.0542
   37.380    3.0964
   37.395    2.8857
   37.410    2.9173
   37.425    3.2122
   37.440    2.9910
   37.455    3.1069
   37.470    2.9595
   37.485    3.1174
   37.500    3.0437
   37.515    3.2333
   37.530    3.1385
   37.545    2.9384
   37.560    2.8963
   37.575    2.9595
   37.590    2.9068
   37.605    3.0648
   37.620    2.9700
   37.635    3.0437
   37.650    2.7278
   37.665    2.7699
   37.680    3.1069
   37.695    3.1490
   37.710    3.2227
   37.725    3.2333
   37.740    3.0753
   37.755    2.9595
   37.770    3.0964
   37.785    2.9068
   37.800    2.8331
   37.815    2.9489
   37.830    2.8963
   37.845    3.1701
   37.860    3.1385
   37.875    3.0858
   37.890    2.8541
   37.905    3.1069
   37.920    3.1174
   37.935    3.0332
   37.950    2.9489
   37.965    3.2122
   37.980    3.0016
   37.995    3.0437
   38.010    3.1912
   38.025    3.0753
   38.040    2.9910
   38.055    3.0226
   38.070    3.0753
   38.085    2.7909
   38.100    2.8225
   38.115    2.8647
   38.130    2.8331
   38.145    2.8225
   38.160    3.0016
   38.175    2.9700
   38.190    3.1385
   38.205    3.0437
   38.220    3.0121
   38.235    3.2438
   38.250    3.1701
   38.265    3.2227
   38.280    2.8541
   38.295    2.9279
   38.310    3.2649
   38.325    2.9279
   38.340    2.7804
   38.355    3.1280
   38.370    3.1069
   38.385    3.0226
   38.400    2.9173
   38.415    2.8015
   38.430    3.0542
   38.445    3.2122
   38.460    3.3386
   38.475    3.1280
   38.490    3.1069
   38.505    3.1280
   38.520    2.8541
   38.535    2.6962
   38.550    2.8436
   38.565    3.0964
   38.580    3.2965
   38.595    3.0332
   38.610    2.9595
   38.625    3.1596
   38.640    3.1701
   38.655    3.2543
   38.670    3.2333
   38.685    3.1174
   38.700    3.1280
   38.715    2.9700
   38.730    2.8436
   38.745    2.9384
   38.760    3.0437
   38.775    3.0437
   38.790    3.0226
   38.805    3.0858
   38.820    3.1806
   38.835    3.1596
   38.850    3.0332
   38.865    3.1490
   38.880    3.0016
   38.895    2.9700
   38.910    3.3597
   38.925    2.9700
   38.940    3.1490
   38.955    3.2122
   38.970    3.0858
   38.985    3.1912
   39.000    3.2122
   39.015    2.8647
   39.030    2.9910
   39.045    3.2543
   39.060    3.0753
   39.075    3.0121
   39.090    3.0016
   39.105    2.8647
   39.120    3.1490
   39.135    3.0016
   39.150    3.0753
   39.165    3.0648
   39.180    3.1701
   39.195    2.8963
   39.210    3.1069
   39.225    3.0858
   39.240    2.9595
   39.255    2.9595
   39.270    3.0016
   39.285    3.0858
   39.300    2.8331
   39.315    2.8647
   39.330    3.0437
   39.345    3.0648
   39.360    3.2965
   39.375    3.2122
   39.390    3.1701
   39.405    3.1701
   39.420    3.0542
   39.435    2.9173
   39.450    2.8752
   39.465    2.8541
   39.480    3.2649
   39.495    3.1069
   39.510    2.9384
   39.525    2.9489
   39.540    2.9279
   39.555    2.9489
   39.570    2.8963
   39.585    3.0121
   39.600    2.9910
   39.615    3.1806
   39.630    3.0542
   39.645    3.0542
   39.660    3.0858
   39.675    2.9700
   39.690    2.8541
   39.705    2.7383
   39.720    2.9384
   39.735    3.0648
   39.750    2.9910
   39.765    3.1385
   39.780    3.1069
   39.795    3.0858
   39.810    2.9068
   39.825    2.8857
   39.840    3.0121
   39.855    3.1280
   39.870    2.9173
   39.885    2.9700
   39.900    3.0016
   39.915    2.9068
   39.930    2.9700
   39.945    3.0858
   39.960    2.9489
   39.975    2.9700
   39.990    3.1174
