    1.500   10.0482
    1.515    9.7913
    1.530   10.3050
    1.545   10.5618
    1.560   10.3585
    1.575   10.4976
    1.590   10.1231
    1.605    9.8769
    1.620    9.7699
    1.635    9.5131
    1.650    9.1172
    1.665    9.0637
    1.680    9.4489
    1.695    9.0851
    1.710    9.1386
    1.725    9.1493
    1.740    9.5452
    1.755    9.2777
    1.770    8.6998
    1.785    8.6998
    1.800    8.8818
    1.815    9.5666
    1.830    8.8497
    1.845    8.2718
    1.860    8.1541
    1.875    8.1862
    1.890    7.6833
    1.905    8.2504
    1.920    8.3253
    1.935    8.0578
    1.950    7.6833
    1.965    7.7047
    1.980    7.7261
    1.995    7.1375
    2.010    7.4157
    2.025    7.6833
    2.040    7.5013
    2.055    7.5762
    2.070    7.3408
    2.085    7.5013
    2.100    7.2445
    2.115    7.0626
    2.130    6.6346
    2.145    6.5490
    2.160    7.0091
    2.175    6.6239
    2.190    6.5062
    2.205    6.5169
    2.220    6.5169
    2.235    6.6988
    2.250    6.6346
    2.265    6.5383
    2.280    6.4526
    2.295    6.3028
    2.310    6.1316
    2.325    6.1423
    2.340    5.9818
    2.355    6.3028
    2.370    6.2279
    2.385    5.8962
    2.400    5.9497
    2.415    5.7036
    2.430    5.6822
    2.445    5.7036
    2.460    5.9390
    2.475    6.0567
    2.490    5.9818
    2.505    5.6394
    2.520    5.9283
    2.535    5.7785
    2.550    5.6287
    2.565    5.6394
    2.580    5.4789
    2.595    5.6715
    2.610    5.0722
    2.625    5.3291
    2.640    5.5431
    2.655    5.3719
    2.670    5.4682
    2.685    5.4896
    2.700    5.2755
    2.715    5.6608
    2.730    5.2755
    2.745    5.1043
    2.760    5.0294
    2.775    4.7619
    2.790    5.1043
    2.805    5.4789
    2.820    5.2648
    2.835    5.5538
    2.850    5.4254
    2.865    5.1257
    2.880    5.1150
    2.895    4.9652
    2.910    5.1043
    2.925    5.3826
    2.940    5.2434
    2.955    5.2006
    2.970    5.1578
    2.985    5.2755
    3.000    5.2006
    3.015    4.7833
    3.030    5.0829
    3.045    5.1364
    3.060    4.9866
    3.075    5.3398
    3.090    5.3719
    3.105    5.0615
    3.120    5.0936
    3.135    5.1043
    3.150    5.1578
    3.165    5.3077
    3.180    5.1685
    3.195    5.2862
    3.210    5.2327
    3.225    5.2648
    3.240    5.2755
    3.255    5.2970
    3.270    5.4575
    3.285    5.3933
    3.300    5.6180
    3.315    5.4682
    3.330    5.5003
    3.345    5.8106
    3.360    5.7678
    3.375    5.8427
    3.390    5.7785
    3.405    5.9925
    3.420    5.9390
    3.435    6.0460
    3.450    6.4848
    3.465    6.3349
    3.480    6.6453
    3.495    6.3991
    3.510    6.7951
    3.525    6.8700
    3.540    6.9342
    3.555    7.1803
    3.570    7.4157
    3.585    7.6512
    3.600    7.3622
    3.615    7.4264
    3.630    8.4858
    3.645    7.9936
    3.660    8.3253
    3.675    8.8175
    3.690    9.1065
    3.705    8.6677
    3.720    8.9460
    3.735    9.1707
    3.750    9.7913
    3.765    9.9732
    3.780    9.7057
    3.795   10.0910
    3.810    9.8662
    3.825   10.8614
    3.840   11.5784
    3.855   11.5784
    3.870   12.1348
    3.885   12.6699
    3.900   12.5736
    3.915   13.2691
    3.930   13.2156
    3.945   14.0717
    3.960   14.6816
    3.975   15.6019
    3.990   16.6506
    4.005   16.8004
    4.020   17.9240
    4.035   18.8443
    4.050   18.4698
    4.065   19.1118
    4.080   20.5564
    4.095   20.7812
    4.110   22.6645
    4.125   23.7346
    4.140   24.6014
    4.155   25.2434
    4.170   26.8914
    4.185   28.9674
    4.200   30.8400
    4.215   32.8625
    4.230   33.8577
    4.245   35.5805
    4.260   37.9882
    4.275   40.7277
    4.290   43.1889
    4.305   45.0615
    4.320   48.4323
    4.335   51.1182
    4.350   56.0407
    4.365   59.2723
    4.380   65.8534
    4.395   70.1124
    4.410   77.7849
    4.425   85.7785
    4.440   96.6399
    4.455  107.8117
    4.470  122.7501
    4.485  149.3419
    4.500  187.2552
    4.515  237.8384
    4.530  252.6806
    4.545  167.2873
    4.560   59.7111
    4.575   16.5757
    4.590    7.8224
    4.605    5.3719
    4.620    4.3018
    4.635    3.5955
    4.650    3.4350
    4.665    3.1461
    4.680    2.6538
    4.695    2.5040
    4.710    2.8999
    4.725    2.4184
    4.740    2.4398
    4.755    2.4933
    4.770    2.3970
    4.785    2.5361
    4.800    2.4291
    4.815    2.5040
    4.830    2.2365
    4.845    2.2686
    4.860    1.9904
    4.875    2.2365
    4.890    2.3221
    4.905    2.0332
    4.920    2.4612
    4.935    2.2151
    4.950    1.9583
    4.965    2.3328
    4.980    2.1937
    4.995    2.1937
    5.010    2.0974
    5.025    2.1723
    5.040    1.8620
    5.055    2.0974
    5.070    2.1616
    5.085    2.2365
    5.100    2.3328
    5.115    2.0974
    5.130    2.2151
    5.145    2.0653
    5.160    2.0225
    5.175    2.0867
    5.190    2.0974
    5.205    1.8941
    5.220    2.2044
    5.235    2.0546
    5.250    2.0867
    5.265    1.9369
    5.280    1.9476
    5.295    2.1616
    5.310    2.0332
    5.325    2.1509
    5.340    2.0332
    5.355    1.8085
    5.370    1.8406
    5.385    1.8834
    5.400    2.0439
    5.415    2.0760
    5.430    2.0011
    5.445    2.0225
    5.460    2.0867
    5.475    2.1402
    5.490    2.3221
    5.505    2.1616
    5.520    2.1188
    5.535    2.2579
    5.550    1.9583
    5.565    2.1723
    5.580    2.3114
    5.595    2.4719
    5.610    2.2900
    5.625    2.7287
    5.640    2.8464
    5.655    2.6003
    5.670    2.5040
    5.685    2.6645
    5.700    2.7929
    5.715    2.6217
    5.730    2.7929
    5.745    2.6859
    5.760    2.8892
    5.775    2.9535
    5.790    2.8036
    5.805    3.1461
    5.820    3.2745
    5.835    3.7239
    5.850    3.4671
    5.865    3.5848
    5.880    3.7132
    5.895    4.0235
    5.910    3.8202
    5.925    3.9058
    5.940    4.1627
    5.955    4.7191
    5.970    4.5693
    5.985    5.0294
    6.000    5.0829
    6.015    5.3826
    6.030    5.5752
    6.045    6.3563
    6.060    6.8486
    6.075    7.3515
    6.090    7.2659
    6.105    7.5227
    6.120    7.9829
    6.135    8.8068
    6.150    9.9304
    6.165    9.9197
    6.180   10.5190
    6.195   11.5570
    6.210   12.4987
    6.225   13.1621
    6.240   14.4248
    6.255   16.1691
    6.270   17.4960
    6.285   19.8502
    6.300   22.0332
    6.315   23.7560
    6.330   27.1482
    6.345   31.7068
    6.360   36.6078
    6.375   46.6132
    6.390   59.9893
    6.405   68.3574
    6.420   59.1118
    6.435   32.8197
    6.450   12.1455
    6.465    4.4944
    6.480    2.4933
    6.495    2.2579
    6.510    2.0332
    6.525    1.8192
    6.540    1.6479
    6.555    1.7121
    6.570    1.7335
    6.585    1.9048
    6.600    1.6051
    6.615    1.5302
    6.630    1.4446
    6.645    1.7014
    6.660    1.5516
    6.675    1.5516
    6.690    1.3911
    6.705    1.4553
    6.720    1.3697
    6.735    1.3590
    6.750    1.5623
    6.765    1.5088
    6.780    1.5195
    6.795    1.4981
    6.810    1.3162
    6.825    1.3804
    6.840    1.4446
    6.855    1.6265
    6.870    1.3590
    6.885    1.4981
    6.900    1.6372
    6.915    1.6372
    6.930    1.4232
    6.945    1.2627
    6.960    1.4018
    6.975    1.4553
    6.990    1.7121
    7.005    1.5409
    7.020    1.4339
    7.035    1.5409
    7.050    1.2413
    7.065    1.4125
    7.080    1.3162
    7.095    1.3697
    7.110    1.5944
    7.125    1.4125
    7.140    1.4339
    7.155    1.4232
    7.170    1.4660
    7.185    1.4874
    7.200    1.4125
    7.215    1.4767
    7.230    1.6372
    7.245    1.5730
    7.260    1.6372
    7.275    1.7121
    7.290    1.6586
    7.305    1.4874
    7.320    1.5730
    7.335    1.7014
    7.350    1.7978
    7.365    1.6907
    7.380    1.6800
    7.395    1.8941
    7.410    2.0011
    7.425    1.6586
    7.440    1.9690
    7.455    1.7121
    7.470    2.0225
    7.485    2.2151
    7.500    2.1081
    7.515    2.1509
    7.530    2.1830
    7.545    2.2258
    7.560    2.4291
    7.575    2.5147
    7.590    2.6859
    7.605    2.6752
    7.620    3.1354
    7.635    3.0177
    7.650    3.4564
    7.665    3.4564
    7.680    4.0128
    7.695    4.1734
    7.710    4.3660
    7.725    4.6121
    7.740    4.9331
    7.755    5.8213
    7.770    6.3777
    7.785    7.0198
    7.800    8.3788
    7.815   10.2729
    7.830   12.6592
    7.845   15.6126
    7.860   14.4248
    7.875   10.1124
    7.890    5.2648
    7.905    2.4826
    7.920    1.5302
    7.935    1.5409
    7.950    1.3055
    7.965    1.3162
    7.980    1.4767
    7.995    1.2627
    8.010    1.2413
    8.025    1.2948
    8.040    1.3055
    8.055    1.2092
    8.070    1.2413
    8.085    1.1450
    8.100    1.1129
    8.115    1.1343
    8.130    1.2092
    8.145    1.2199
    8.160    1.2627
    8.175    1.2306
    8.190    1.2306
    8.205    1.3483
    8.220    1.0915
    8.235    1.0594
    8.250    1.1236
    8.265    1.1129
    8.280    1.1450
    8.295    1.1022
    8.310    1.2199
    8.325    1.3269
    8.340    1.3269
    8.355    1.2520
    8.370    1.2734
    8.385    1.3162
    8.400    1.2734
    8.415    1.3804
    8.430    1.1343
    8.445    1.1985
    8.460    1.3055
    8.475    1.3162
    8.490    1.5195
    8.505    1.3162
    8.520    1.3697
    8.535    1.3911
    8.550    1.4874
    8.565    1.3911
    8.580    1.4874
    8.595    1.5302
    8.610    1.4125
    8.625    1.6051
    8.640    1.6265
    8.655    1.6693
    8.670    1.5088
    8.685    1.6479
    8.700    1.8299
    8.715    1.9369
    8.730    1.7335
    8.745    1.9690
    8.760    2.2044
    8.775    2.1081
    8.790    2.0546
    8.805    2.2793
    8.820    2.0439
    8.835    2.6003
    8.850    2.8464
    8.865    3.0391
    8.880    3.0391
    8.895    3.3601
    8.910    3.4243
    8.925    3.8416
    8.940    4.3767
    8.955    4.4516
    8.970    5.2006
    8.985    6.4741
    9.000    7.2766
    9.015    7.5655
    9.030   10.2836
    9.045   12.2525
    9.060   15.0883
    9.075   15.7624
    9.090   12.7769
    9.105    8.0685
    9.120    3.8202
    9.135    1.7657
    9.150    1.3590
    9.165    1.2520
    9.180    1.3055
    9.195    1.1664
    9.210    1.0594
    9.225    1.0166
    9.240    1.1343
    9.255    1.1771
    9.270    1.0487
    9.285    0.9738
    9.300    0.9310
    9.315    0.9417
    9.330    1.0701
    9.345    1.1236
    9.360    1.0594
    9.375    1.1129
    9.390    1.0915
    9.405    1.2413
    9.420    1.1129
    9.435    1.0915
    9.450    1.3269
    9.465    1.1236
    9.480    0.9845
    9.495    0.9417
    9.510    1.1557
    9.525    1.0273
    9.540    0.8347
    9.555    0.9952
    9.570    1.0380
    9.585    1.2199
    9.600    1.0273
    9.615    1.0487
    9.630    1.0594
    9.645    1.0701
    9.660    1.1129
    9.675    1.1450
    9.690    1.0915
    9.705    1.2306
    9.720    1.1129
    9.735    1.1557
    9.750    1.1343
    9.765    1.0594
    9.780    0.9845
    9.795    0.9631
    9.810    1.1236
    9.825    1.1022
    9.840    1.0915
    9.855    1.1664
    9.870    1.0487
    9.885    1.1236
    9.900    1.0594
    9.915    1.2627
    9.930    1.3269
    9.945    1.2734
    9.960    1.3590
    9.975    1.4018
    9.990    1.3483
   10.005    1.3804
   10.020    1.5623
   10.035    1.6158
   10.050    1.5837
   10.065    1.6158
   10.080    1.7764
   10.095    2.0760
   10.110    2.1081
   10.125    2.7394
   10.140    3.1354
   10.155    2.9535
   10.170    2.5468
   10.185    1.7764
   10.200    1.3590
   10.215    1.0808
   10.230    1.0808
   10.245    0.9631
   10.260    0.9845
   10.275    1.0487
   10.290    1.0059
   10.305    0.9952
   10.320    0.8989
   10.335    0.8240
   10.350    1.1450
   10.365    1.1771
   10.380    1.1343
   10.395    0.9310
   10.410    1.0487
   10.425    0.9631
   10.440    0.9310
   10.455    1.1878
   10.470    0.9417
   10.485    0.9631
   10.500    0.7598
   10.515    0.9952
   10.530    1.0166
   10.545    1.0808
   10.560    1.0701
   10.575    1.2413
   10.590    1.0701
   10.605    1.0380
   10.620    1.2841
   10.635    1.1771
   10.650    1.2306
   10.665    1.2199
   10.680    1.1557
   10.695    1.3269
   10.710    1.4874
   10.725    1.6693
   10.740    1.5409
   10.755    1.3590
   10.770    1.6800
   10.785    1.7978
   10.800    1.7978
   10.815    1.9369
   10.830    2.3114
   10.845    2.2793
   10.860    2.4826
   10.875    2.6966
   10.890    2.8678
   10.905    3.0819
   10.920    3.3494
   10.935    3.6704
   10.950    4.0449
   10.965    4.8047
   10.980    5.1899
   10.995    6.0674
   11.010    6.6132
   11.025    7.9294
   11.040    9.3098
   11.055   11.3430
   11.070   14.3499
   11.085   17.5281
   11.100   21.9904
   11.115   24.9973
   11.130   22.3221
   11.145   17.0680
   11.160    9.8555
   11.175    4.1306
   11.190    2.0546
   11.205    1.4553
   11.220    1.3804
   11.235    1.1022
   11.250    0.9631
   11.265    0.9203
   11.280    0.9845
   11.295    0.8668
   11.310    0.9738
   11.325    0.9631
   11.340    0.9524
   11.355    1.0059
   11.370    1.0166
   11.385    0.9952
   11.400    0.8561
   11.415    0.8347
   11.430    0.8668
   11.445    0.5671
   11.460    0.8561
   11.475    0.9631
   11.490    0.9096
   11.505    0.9952
   11.520    1.1022
   11.535    0.9417
   11.550    1.0059
   11.565    0.9310
   11.580    1.0808
   11.595    1.0915
   11.610    1.0166
   11.625    1.0380
   11.640    1.0915
   11.655    0.9845
   11.670    1.1343
   11.685    1.1450
   11.700    1.0915
   11.715    1.2092
   11.730    1.3483
   11.745    1.1557
   11.760    1.2520
   11.775    1.4339
   11.790    1.4232
   11.805    1.5730
   11.820    1.7978
   11.835    1.8192
   11.850    1.9155
   11.865    2.1402
   11.880    2.1937
   11.895    2.5254
   11.910    2.6645
   11.925    3.1461
   11.940    3.4885
   11.955    4.1627
   11.970    5.5324
   11.985    6.8379
   12.000    8.2718
   12.015    8.9674
   12.030    7.0733
   12.045    5.3184
   12.060    3.1889
   12.075    1.5088
   12.090    1.4125
   12.105    1.0487
   12.120    0.9417
   12.135    0.8668
   12.150    0.8775
   12.165    0.9738
   12.180    0.9524
   12.195    0.9203
   12.210    0.8454
   12.225    0.8454
   12.240    0.8882
   12.255    0.8454
   12.270    0.9310
   12.285    0.7705
   12.300    0.8668
   12.315    0.9096
   12.330    0.9738
   12.345    0.8561
   12.360    0.9631
   12.375    0.8775
   12.390    0.7277
   12.405    1.0594
   12.420    0.9310
   12.435    0.9417
   12.450    0.9952
   12.465    0.9738
   12.480    0.9952
   12.495    0.8561
   12.510    0.9738
   12.525    1.1022
   12.540    1.1129
   12.555    1.1343
   12.570    1.1236
   12.585    1.2092
   12.600    1.3697
   12.615    1.1557
   12.630    1.3376
   12.645    1.5409
   12.660    1.6051
   12.675    2.0225
   12.690    1.8620
   12.705    2.1616
   12.720    2.4933
   12.735    2.8250
   12.750    3.1354
   12.765    3.2531
   12.780    4.5800
   12.795    5.1043
   12.810    6.6667
   12.825    8.4644
   12.840    9.6522
   12.855    8.9246
   12.870    7.3515
   12.885    5.2541
   12.900    2.9106
   12.915    1.5944
   12.930    1.1557
   12.945    0.9417
   12.960    0.8240
   12.975    0.7705
   12.990    0.8026
   13.005    0.9203
   13.020    0.9310
   13.035    0.6956
   13.050    0.7384
   13.065    0.7919
   13.080    0.7705
   13.095    0.7598
   13.110    0.7705
   13.125    0.7491
   13.140    0.7384
   13.155    1.0808
   13.170    1.0915
   13.185    0.9738
   13.200    0.9524
   13.215    1.0380
   13.230    0.9631
   13.245    0.8882
   13.260    0.9417
   13.275    0.8989
   13.290    0.9524
   13.305    0.9845
   13.320    1.0594
   13.335    0.9631
   13.350    1.1236
   13.365    1.2199
   13.380    1.2841
   13.395    1.4232
   13.410    1.5944
   13.425    1.3697
   13.440    1.7871
   13.455    1.7335
   13.470    1.8085
   13.485    2.2686
   13.500    2.6859
   13.515    2.7501
   13.530    3.1140
   13.545    3.7239
   13.560    4.0770
   13.575    5.2755
   13.590    6.1530
   13.605    8.1755
   13.620   10.1980
   13.635    9.9304
   13.650    8.3253
   13.665    6.2814
   13.680    3.9914
   13.695    2.2579
   13.710    1.3269
   13.725    0.8882
   13.740    0.9310
   13.755    0.8882
   13.770    0.7491
   13.785    0.7063
   13.800    0.8668
   13.815    0.7384
   13.830    0.7384
   13.845    0.7491
   13.860    0.7598
   13.875    0.8240
   13.890    0.7063
   13.905    0.8668
   13.920    0.7063
   13.935    0.7812
   13.950    0.6849
   13.965    0.8561
   13.980    0.6956
   13.995    0.8240
   14.010    0.8240
   14.025    0.7705
   14.040    0.6956
   14.055    0.7598
   14.070    0.8026
   14.085    0.8133
   14.100    0.6956
   14.115    0.8775
   14.130    0.9417
   14.145    0.9631
   14.160    0.7919
   14.175    0.7705
   14.190    0.8133
   14.205    0.8133
   14.220    0.8026
   14.235    0.9096
   14.250    0.9952
   14.265    1.1022
   14.280    1.1129
   14.295    1.3055
   14.310    1.4232
   14.325    1.4981
   14.340    1.7657
   14.355    2.0760
   14.370    1.9690
   14.385    1.9797
   14.400    1.8406
   14.415    1.5944
   14.430    1.0166
   14.445    0.9310
   14.460    0.7812
   14.475    0.7170
   14.490    0.7598
   14.505    0.7705
   14.520    0.7812
   14.535    0.6635
   14.550    0.7384
   14.565    0.7919
   14.580    0.6742
   14.595    0.8133
   14.610    0.6635
   14.625    0.6849
   14.640    0.8240
   14.655    0.7598
   14.670    0.6421
   14.685    0.7277
   14.700    0.7812
   14.715    0.7812
   14.730    0.8561
   14.745    0.8561
   14.760    0.8240
   14.775    1.0059
   14.790    0.8989
   14.805    0.8668
   14.820    0.9203
   14.835    1.1236
   14.850    1.0594
   14.865    1.0380
   14.880    1.0487
   14.895    1.4125
   14.910    1.2306
   14.925    1.5195
   14.940    1.5409
   14.955    1.6265
   14.970    2.1616
   14.985    2.3542
   15.000    2.4719
   15.015    3.1247
   15.030    3.6597
   15.045    4.5265
   15.060    4.9973
   15.075    5.4147
   15.090    5.4361
   15.105    4.5586
   15.120    3.6490
   15.135    2.2686
   15.150    1.3162
   15.165    0.9417
   15.180    0.8454
   15.195    0.8026
   15.210    0.8561
   15.225    0.8240
   15.240    0.7812
   15.255    0.7170
   15.270    0.6314
   15.285    0.6956
   15.300    0.7384
   15.315    0.7063
   15.330    0.7705
   15.345    0.8347
   15.360    0.7384
   15.375    0.7491
   15.390    0.8561
   15.405    0.7491
   15.420    0.8133
   15.435    0.7812
   15.450    0.8882
   15.465    0.8775
   15.480    0.7705
   15.495    0.7277
   15.510    0.7063
   15.525    0.7598
   15.540    0.8133
   15.555    0.8133
   15.570    0.8347
   15.585    0.8347
   15.600    0.8989
   15.615    1.0273
   15.630    1.0059
   15.645    1.1236
   15.660    1.3376
   15.675    1.6693
   15.690    1.6907
   15.705    1.9583
   15.720    2.4505
   15.735    2.8571
   15.750    2.7715
   15.765    2.4719
   15.780    2.4184
   15.795    2.1402
   15.810    1.5837
   15.825    1.1664
   15.840    0.8668
   15.855    0.7384
   15.870    0.7705
   15.885    0.6635
   15.900    0.7384
   15.915    0.6742
   15.930    0.6956
   15.945    0.7170
   15.960    0.6635
   15.975    0.6528
   15.990    0.7384
   16.005    0.6100
   16.020    0.6100
   16.035    0.7705
   16.050    0.7598
   16.065    0.7491
   16.080    0.6635
   16.095    0.7598
   16.110    0.7063
   16.125    0.8882
   16.140    0.8668
   16.155    0.8668
   16.170    0.9952
   16.185    1.0166
   16.200    0.9952
   16.215    1.1236
   16.230    1.0808
   16.245    1.1557
   16.260    1.3055
   16.275    1.1985
   16.290    1.5516
   16.305    1.9690
   16.320    2.1616
   16.335    2.4077
   16.350    2.9963
   16.365    4.0235
   16.380    4.6977
   16.395    5.0401
   16.410    5.3826
   16.425    4.6656
   16.440    3.6276
   16.455    2.8036
   16.470    1.5944
   16.485    1.0808
   16.500    0.7598
   16.515    0.8026
   16.530    0.8561
   16.545    0.8026
   16.560    0.7063
   16.575    0.6849
   16.590    0.7384
   16.605    0.6742
   16.620    0.6421
   16.635    0.7812
   16.650    0.7277
   16.665    0.7919
   16.680    0.8133
   16.695    0.6742
   16.710    0.8133
   16.725    0.7170
   16.740    0.7170
   16.755    0.7598
   16.770    0.7063
   16.785    0.6956
   16.800    0.6956
   16.815    0.7277
   16.830    0.6849
   16.845    0.6742
   16.860    0.7170
   16.875    0.7812
   16.890    0.7491
   16.905    0.7919
   16.920    0.7277
   16.935    0.6956
   16.950    0.5778
   16.965    0.7063
   16.980    0.7384
   16.995    0.6421
   17.010    0.6207
   17.025    0.7170
   17.040    0.7705
   17.055    0.7277
   17.070    0.7384
   17.085    0.6100
   17.100    0.5993
   17.115    0.6742
   17.130    0.8454
   17.145    0.6956
   17.160    0.7170
   17.175    0.7491
   17.190    0.7919
   17.205    0.7598
   17.220    0.6314
   17.235    0.6849
   17.250    0.8347
   17.265    0.7277
   17.280    0.7277
   17.295    0.7170
   17.310    0.6528
   17.325    0.7384
   17.340    0.7491
   17.355    0.7812
   17.370    0.7170
   17.385    0.7491
   17.400    0.8026
   17.415    0.7277
   17.430    0.7063
   17.445    0.7705
   17.460    0.7170
   17.475    0.9952
   17.490    0.9310
   17.505    0.8133
   17.520    0.9738
   17.535    1.0487
   17.550    1.1129
   17.565    1.2092
   17.580    1.4767
   17.595    1.7657
   17.610    1.9904
   17.625    2.1081
   17.640    2.0760
   17.655    1.8834
   17.670    1.5944
   17.685    1.2199
   17.700    0.8561
   17.715    0.7919
   17.730    0.6421
   17.745    0.5350
   17.760    0.6528
   17.775    0.6742
   17.790    0.6742
   17.805    0.5457
   17.820    0.7705
   17.835    0.6635
   17.850    0.6849
   17.865    0.7063
   17.880    0.7170
   17.895    0.6421
   17.910    0.7063
   17.925    0.7277
   17.940    0.7598
   17.955    0.7705
   17.970    0.5993
   17.985    0.5993
   18.000    0.6528
   18.015    0.8347
   18.030    0.8240
   18.045    0.6100
   18.060    0.7170
   18.075    0.8240
   18.090    0.6207
   18.105    0.6742
   18.120    0.5671
   18.135    0.6635
   18.150    0.6849
   18.165    0.6421
   18.180    0.7705
   18.195    0.7063
   18.210    0.6849
   18.225    0.6742
   18.240    0.5993
   18.255    0.7384
   18.270    0.7170
   18.285    0.7063
   18.300    0.5564
   18.315    0.6207
   18.330    0.6849
   18.345    0.6421
   18.360    0.7063
   18.375    0.5350
   18.390    0.5564
   18.405    0.6635
   18.420    0.6314
   18.435    0.7705
   18.450    0.7170
   18.465    0.7170
   18.480    0.7384
   18.495    0.6956
   18.510    0.7491
   18.525    0.7277
   18.540    0.7063
   18.555    0.7598
   18.570    0.5993
   18.585    0.7170
   18.600    0.7598
   18.615    0.8240
   18.630    0.8454
   18.645    0.8026
   18.660    0.9417
   18.675    0.9738
   18.690    0.9738
   18.705    1.1450
   18.720    1.3804
   18.735    1.4660
   18.750    1.6051
   18.765    1.6051
   18.780    1.6693
   18.795    1.5195
   18.810    1.5302
   18.825    1.3911
   18.840    1.0380
   18.855    0.9203
   18.870    0.8026
   18.885    0.7598
   18.900    0.5886
   18.915    0.6421
   18.930    0.8347
   18.945    0.6742
   18.960    0.5243
   18.975    0.7170
   18.990    0.7491
   19.005    0.8133
   19.020    0.7491
   19.035    0.7063
   19.050    0.6528
   19.065    0.8133
   19.080    0.9203
   19.095    0.7277
   19.110    0.7598
   19.125    0.7384
   19.140    0.8133
   19.155    0.7384
   19.170    0.8775
   19.185    0.7919
   19.200    0.8454
   19.215    0.8989
   19.230    0.9310
   19.245    0.8668
   19.260    1.2734
   19.275    1.2306
   19.290    1.5730
   19.305    1.7335
   19.320    1.7978
   19.335    1.8727
   19.350    1.6693
   19.365    1.6051
   19.380    1.4125
   19.395    1.0380
   19.410    0.8240
   19.425    0.8026
   19.440    0.6635
   19.455    0.7491
   19.470    0.6635
   19.485    0.6956
   19.500    0.6849
   19.515    0.6421
   19.530    0.7491
   19.545    0.7491
   19.560    0.7705
   19.575    0.5671
   19.590    0.7598
   19.605    0.8347
   19.620    0.7384
   19.635    0.6849
   19.650    0.8668
   19.665    0.9096
   19.680    0.7812
   19.695    0.8454
   19.710    0.9310
   19.725    1.0487
   19.740    1.4018
   19.755    1.2948
   19.770    1.5302
   19.785    1.7549
   19.800    2.4184
   19.815    2.9106
   19.830    3.1675
   19.845    3.7132
   19.860    4.1948
   19.875    3.7346
   19.890    3.6062
   19.905    3.2852
   19.920    2.2365
   19.935    1.6051
   19.950    1.0487
   19.965    0.7491
   19.980    0.7919
   19.995    0.7919
   20.010    0.7063
   20.025    0.8133
   20.040    0.7277
   20.055    0.7491
   20.070    0.6314
   20.085    0.7063
   20.100    0.6635
   20.115    0.7491
   20.130    0.6100
   20.145    0.6742
   20.160    0.7170
   20.175    0.7384
   20.190    0.7277
   20.205    0.8561
   20.220    0.7919
   20.235    0.8989
   20.250    0.8454
   20.265    0.8133
   20.280    0.8026
   20.295    0.9952
   20.310    0.8240
   20.325    1.1022
   20.340    1.1557
   20.355    1.4125
   20.370    1.5944
   20.385    1.6907
   20.400    1.5623
   20.415    1.4232
   20.430    1.2841
   20.445    0.9845
   20.460    0.9524
   20.475    0.8347
   20.490    0.8026
   20.505    0.6849
   20.520    0.7277
   20.535    0.7705
   20.550    0.7705
   20.565    0.7170
   20.580    0.7812
   20.595    0.7598
   20.610    0.7277
   20.625    0.6742
   20.640    0.7491
   20.655    0.5778
   20.670    0.6207
   20.685    0.6528
   20.700    0.6635
   20.715    0.6314
   20.730    0.6207
   20.745    0.6421
   20.760    0.6849
   20.775    0.7812
   20.790    0.7598
   20.805    0.7598
   20.820    0.9203
   20.835    1.0380
   20.850    1.2199
   20.865    1.3590
   20.880    1.2948
   20.895    1.2734
   20.910    1.3376
   20.925    1.2413
   20.940    1.3697
   20.955    1.0701
   20.970    0.9631
   20.985    0.8347
   21.000    0.7277
   21.015    0.7063
   21.030    0.5029
   21.045    0.8026
   21.060    0.7598
   21.075    0.7598
   21.090    0.7277
   21.105    0.6635
   21.120    0.6849
   21.135    0.5671
   21.150    0.7491
   21.165    0.7919
   21.180    0.8989
   21.195    0.8133
   21.210    0.7705
   21.225    0.7170
   21.240    0.7277
   21.255    0.6742
   21.270    0.7919
   21.285    0.8026
   21.300    0.9845
   21.315    1.0380
   21.330    1.1771
   21.345    1.3269
   21.360    1.3697
   21.375    1.3055
   21.390    1.4767
   21.405    1.3269
   21.420    1.4018
   21.435    1.5088
   21.450    1.2841
   21.465    0.9203
   21.480    0.7491
   21.495    0.7812
   21.510    0.6207
   21.525    0.7919
   21.540    0.7063
   21.555    0.7491
   21.570    0.5886
   21.585    0.6528
   21.600    0.6849
   21.615    0.6528
   21.630    0.6635
   21.645    0.6742
   21.660    0.6849
   21.675    0.7277
   21.690    0.6528
   21.705    0.6849
   21.720    0.7063
   21.735    0.7063
   21.750    0.8026
   21.765    0.7170
   21.780    0.7812
   21.795    0.8561
   21.810    0.7919
   21.825    0.8561
   21.840    1.1022
   21.855    1.0380
   21.870    0.9845
   21.885    0.9738
   21.900    0.9738
   21.915    0.9524
   21.930    0.8882
   21.945    0.9631
   21.960    0.7170
   21.975    0.7705
   21.990    0.7384
   22.005    0.7598
   22.020    0.8026
   22.035    0.7491
   22.050    1.0166
   22.065    1.2199
   22.080    1.0166
   22.095    1.2092
   22.110    1.1343
   22.125    1.1343
   22.140    1.0594
   22.155    0.9524
   22.170    0.8454
   22.185    0.8133
   22.200    0.7277
   22.215    0.6528
   22.230    0.6421
   22.245    0.5993
   22.260    0.6528
   22.275    0.6207
   22.290    0.8240
   22.305    0.7384
   22.320    0.6849
   22.335    0.7919
   22.350    0.7277
   22.365    0.6956
   22.380    0.6956
   22.395    0.8026
   22.410    0.7812
   22.425    0.7384
   22.440    0.6956
   22.455    0.6742
   22.470    0.7598
   22.485    0.6421
   22.500    0.7277
   22.515    0.6742
   22.530    0.7277
   22.545    0.6314
   22.560    0.7277
   22.575    0.7812
   22.590    0.7277
   22.605    0.6421
   22.620    0.7170
   22.635    0.6956
   22.650    0.7277
   22.665    0.8347
   22.680    0.7705
   22.695    0.7384
   22.710    0.7919
   22.725    0.9417
   22.740    1.0059
   22.755    1.0273
   22.770    1.3911
   22.785    1.5195
   22.800    1.7121
   22.815    1.8513
   22.830    1.5837
   22.845    1.6800
   22.860    1.7442
   22.875    1.4446
   22.890    1.3162
   22.905    1.0059
   22.920    0.8775
   22.935    0.6849
   22.950    0.6849
   22.965    0.6100
   22.980    0.6956
   22.995    0.8133
   23.010    0.7170
   23.025    0.6742
   23.040    0.7063
   23.055    0.8133
   23.070    0.8026
   23.085    0.7063
   23.100    0.7277
   23.115    0.7812
   23.130    0.6635
   23.145    0.7919
   23.160    0.6528
   23.175    0.7384
   23.190    0.8882
   23.205    0.6314
   23.220    0.7491
   23.235    0.7063
   23.250    0.6849
   23.265    0.7598
   23.280    0.7491
   23.295    0.6849
   23.310    0.7491
   23.325    0.7063
   23.340    0.8026
   23.355    0.7384
   23.370    0.6742
   23.385    0.6100
   23.400    0.6100
   23.415    0.7277
   23.430    0.6849
   23.445    0.7384
   23.460    0.7063
   23.475    0.7384
   23.490    0.6956
   23.505    0.6956
   23.520    0.6635
   23.535    0.7919
   23.550    0.8668
   23.565    0.9310
   23.580    0.7919
   23.595    0.9524
   23.610    0.8561
   23.625    1.0808
   23.640    1.2734
   23.655    1.3376
   23.670    1.7764
   23.685    2.2365
   23.700    2.7929
   23.715    3.3601
   23.730    3.1782
   23.745    3.0926
   23.760    2.7822
   23.775    2.9320
   23.790    2.3970
   23.805    2.2151
   23.820    1.4553
   23.835    1.0380
   23.850    0.7170
   23.865    0.7491
   23.880    0.7705
   23.895    0.8026
   23.910    0.7705
   23.925    0.7170
   23.940    0.5993
   23.955    0.7812
   23.970    0.7063
   23.985    0.7170
   24.000    0.7919
   24.015    0.5671
   24.030    0.6421
   24.045    0.6421
   24.060    0.6956
   24.075    0.7598
   24.090    0.5993
   24.105    0.7277
   24.120    0.7598
   24.135    0.7705
   24.150    0.6849
   24.165    0.7384
   24.180    0.7384
   24.195    0.8775
   24.210    0.8561
   24.225    0.8561
   24.240    0.6956
   24.255    0.7491
   24.270    0.7170
   24.285    0.6849
   24.300    0.7598
   24.315    0.7705
   24.330    0.8454
   24.345    0.7277
   24.360    0.6528
   24.375    0.6635
   24.390    0.5886
   24.405    0.6635
   24.420    0.7705
   24.435    0.7170
   24.450    0.7812
   24.465    0.7598
   24.480    0.6742
   24.495    0.6421
   24.510    0.6956
   24.525    0.7705
   24.540    0.7812
   24.555    0.7491
   24.570    0.7705
   24.585    0.7491
   24.600    0.8454
   24.615    0.7919
   24.630    0.7170
   24.645    0.6956
   24.660    0.7491
   24.675    0.6528
   24.690    0.6849
   24.705    0.7491
   24.720    0.6956
   24.735    0.6742
   24.750    0.5671
   24.765    0.6635
   24.780    0.6314
   24.795    0.7491
   24.810    0.6635
   24.825    0.6207
   24.840    0.7384
   24.855    0.7277
   24.870    0.7705
   24.885    0.6956
   24.900    0.6742
   24.915    0.8347
   24.930    0.7277
   24.945    0.8133
   24.960    0.7170
   24.975    0.7705
   24.990    0.7170
   25.005    0.7063
   25.020    0.7170
   25.035    0.6849
   25.050    0.6742
   25.065    0.7812
   25.080    0.6742
   25.095    0.7812
   25.110    0.6849
   25.125    0.7170
   25.140    0.6956
   25.155    0.5993
   25.170    0.7598
   25.185    0.5993
   25.200    0.7384
   25.215    0.8133
   25.230    0.6849
   25.245    0.5564
   25.260    0.6742
   25.275    0.7812
   25.290    0.8026
   25.305    0.7277
   25.320    0.6635
   25.335    0.7170
   25.350    0.8668
   25.365    0.8240
   25.380    1.0701
   25.395    1.1450
   25.410    1.2627
   25.425    1.3697
   25.440    1.5837
   25.455    1.5623
   25.470    1.6265
   25.485    1.4874
   25.500    1.4446
   25.515    1.3804
   25.530    1.1771
   25.545    1.0166
   25.560    0.8347
   25.575    0.7491
   25.590    0.7491
   25.605    0.7919
   25.620    0.8026
   25.635    0.7063
   25.650    0.6207
   25.665    0.8240
   25.680    0.6956
   25.695    0.6849
   25.710    0.8775
   25.725    0.8347
   25.740    0.7812
   25.755    0.8668
   25.770    0.8668
   25.785    0.7705
   25.800    1.1022
   25.815    1.1664
   25.830    1.2841
   25.845    1.3590
   25.860    1.5195
   25.875    1.3376
   25.890    1.3483
   25.905    1.2734
   25.920    1.2841
   25.935    1.1878
   25.950    1.0808
   25.965    0.8347
   25.980    0.8026
   25.995    0.8026
   26.010    0.6421
   26.025    0.6849
   26.040    0.8561
   26.055    0.7598
   26.070    0.8026
   26.085    0.8668
   26.100    0.7705
   26.115    0.7063
   26.130    0.8454
   26.145    0.9845
   26.160    1.1236
   26.175    1.1664
   26.190    1.2627
   26.205    1.7657
   26.220    2.1509
   26.235    2.5682
   26.250    2.8678
   26.265    3.3601
   26.280    3.4350
   26.295    3.0498
   26.310    2.8785
   26.325    2.8785
   26.340    2.7715
   26.355    2.2044
   26.370    1.7549
   26.385    1.1664
   26.400    1.0059
   26.415    0.9417
   26.430    0.7705
   26.445    0.8882
   26.460    0.7170
   26.475    0.6421
   26.490    0.7705
   26.505    0.9096
   26.520    0.9524
   26.535    0.8240
   26.550    0.9845
   26.565    1.1236
   26.580    1.3269
   26.595    1.3911
   26.610    1.7871
   26.625    2.1616
   26.640    2.6217
   26.655    3.3494
   26.670    3.3066
   26.685    3.5206
   26.700    3.4350
   26.715    3.1568
   26.730    2.8036
   26.745    2.7822
   26.760    2.4291
   26.775    1.8192
   26.790    1.2627
   26.805    0.9845
   26.820    0.8561
   26.835    0.8668
   26.850    0.9417
   26.865    0.8561
   26.880    0.9524
   26.895    0.9952
   26.910    0.9738
   26.925    0.9845
   26.940    0.9096
   26.955    0.8882
   26.970    0.9952
   26.985    0.9845
   27.000    0.8989
   27.015    0.9203
   27.030    1.3269
   27.045    1.5195
   27.060    1.5302
   27.075    1.5623
   27.090    1.4767
   27.105    1.4767
   27.120    1.4981
   27.135    1.4660
   27.150    1.2199
   27.165    1.1129
   27.180    1.0594
   27.195    0.7705
   27.210    0.7491
   27.225    0.6956
   27.240    0.7705
   27.255    0.7384
   27.270    0.6742
   27.285    0.6956
   27.300    0.6849
   27.315    0.8561
   27.330    0.8454
   27.345    0.7598
   27.360    0.7919
   27.375    0.6849
   27.390    0.7384
   27.405    0.9203
   27.420    0.8347
   27.435    1.0594
   27.450    0.8775
   27.465    0.9096
   27.480    0.8775
   27.495    0.9096
   27.510    0.8775
   27.525    0.8133
   27.540    0.7063
   27.555    0.6849
   27.570    0.5886
   27.585    0.7063
   27.600    0.6314
   27.615    0.5671
   27.630    0.6421
   27.645    0.6742
   27.660    0.7277
   27.675    0.7812
   27.690    0.7170
   27.705    0.7919
   27.720    0.7812
   27.735    0.8561
   27.750    0.9738
   27.765    0.9524
   27.780    0.9310
   27.795    1.2520
   27.810    1.3055
   27.825    1.2734
   27.840    1.4018
   27.855    1.3055
   27.870    1.5730
   27.885    1.3804
   27.900    1.2413
   27.915    1.3269
   27.930    1.3055
   27.945    1.0059
   27.960    0.8561
   27.975    0.7705
   27.990    0.6528
   28.005    0.5778
   28.020    0.6207
   28.035    0.6421
   28.050    0.5778
   28.065    0.5457
   28.080    0.8347
   28.095    0.6635
   28.110    0.6956
   28.125    0.6421
   28.140    0.6421
   28.155    0.7598
   28.170    0.7598
   28.185    0.9310
   28.200    0.7919
   28.215    1.0059
   28.230    0.8133
   28.245    0.7919
   28.260    0.6421
   28.275    0.8347
   28.290    0.7063
   28.305    0.7812
   28.320    0.7063
   28.335    0.7919
   28.350    0.5778
   28.365    0.5993
   28.380    0.6100
   28.395    0.5886
   28.410    0.6421
   28.425    0.7277
   28.440    0.6742
   28.455    0.6207
   28.470    0.7598
   28.485    0.6314
   28.500    0.6956
   28.515    0.7705
   28.530    0.7598
   28.545    0.6528
   28.560    0.7491
   28.575    0.8454
   28.590    0.9096
   28.605    0.7812
   28.620    0.9310
   28.635    0.7812
   28.650    0.9524
   28.665    0.8347
   28.680    0.8454
   28.695    0.7598
   28.710    0.7277
   28.725    0.6742
   28.740    0.6635
   28.755    0.6742
   28.770    0.7277
   28.785    0.6421
   28.800    0.4387
   28.815    0.5136
   28.830    0.5671
   28.845    0.7277
   28.860    0.7063
   28.875    0.6421
   28.890    0.7277
   28.905    0.6100
   28.920    0.7277
   28.935    0.8026
   28.950    0.6849
   28.965    0.7598
   28.980    0.8240
   28.995    0.8133
   29.010    0.9738
   29.025    0.8668
   29.040    0.8133
   29.055    0.9417
   29.070    0.7063
   29.085    0.7063
   29.100    0.6421
   29.115    0.7063
   29.130    0.6635
   29.145    0.6421
   29.160    0.7919
   29.175    0.5564
   29.190    0.7063
   29.205    0.7277
   29.220    0.6742
   29.235    0.6956
   29.250    0.6635
   29.265    0.7491
   29.280    0.6100
   29.295    0.7919
   29.310    0.8668
   29.325    1.0380
   29.340    1.1985
   29.355    0.9952
   29.370    0.9203
   29.385    0.9631
   29.400    0.7812
   29.415    0.9096
   29.430    0.9524
   29.445    0.8347
   29.460    0.7812
   29.475    0.6849
   29.490    0.6742
   29.505    0.6314
   29.520    0.5136
   29.535    0.6528
   29.550    0.7384
   29.565    0.6207
   29.580    0.7812
   29.595    0.7277
   29.610    0.7384
   29.625    0.6956
   29.640    0.8775
   29.655    0.6528
   29.670    0.8026
   29.685    0.8133
   29.700    0.9203
   29.715    1.0701
   29.730    1.0380
   29.745    0.8882
   29.760    0.8882
   29.775    0.9631
   29.790    0.9952
   29.805    0.9524
   29.820    0.7384
   29.835    0.8240
   29.850    0.6742
   29.865    0.5886
   29.880    0.6742
   29.895    0.7277
   29.910    0.6635
   29.925    0.6421
   29.940    0.8347
   29.955    0.9631
   29.970    0.9952
   29.985    0.9631
   30.000    1.1450
   30.015    1.5195
   30.030    1.9476
   30.045    1.9048
   30.060    2.2793
   30.075    2.3756
   30.090    2.4077
   30.105    1.9797
   30.120    2.2472
   30.135    2.1509
   30.150    1.9690
   30.165    1.7442
   30.180    1.5409
   30.195    1.2413
   30.210    0.8775
   30.225    0.6635
   30.240    0.5993
   30.255    0.6100
   30.270    0.5671
   30.285    0.7277
   30.300    0.6849
   30.315    0.7491
   30.330    0.5886
   30.345    0.6849
   30.360    0.6635
   30.375    0.6421
   30.390    0.6314
   30.405    0.7705
   30.420    0.8989
   30.435    0.8775
   30.450    0.6742
   30.465    0.7705
   30.480    0.8133
   30.495    0.6956
   30.510    0.7919
   30.525    0.7170
   30.540    0.6635
   30.555    0.6849
   30.570    0.6528
   30.585    0.5243
   30.600    0.7063
   30.615    0.6421
   30.630    0.7063
   30.645    0.5993
   30.660    0.6314
   30.675    0.6314
   30.690    0.6421
   30.705    0.8240
   30.720    0.8026
   30.735    0.8775
   30.750    1.0594
   30.765    1.2734
   30.780    1.1236
   30.795    1.1557
   30.810    1.3055
   30.825    1.1985
   30.840    1.0915
   30.855    0.9524
   30.870    1.0273
   30.885    0.9738
   30.900    0.8561
   30.915    0.6635
   30.930    0.6742
   30.945    0.5457
   30.960    0.5993
   30.975    0.5564
   30.990    0.5778
   31.005    0.4173
   31.020    0.6100
   31.035    0.5564
   31.050    0.6207
   31.065    0.6100
   31.080    0.5671
   31.095    0.5993
   31.110    0.7384
   31.125    0.7170
   31.140    0.5993
   31.155    0.6956
   31.170    0.5029
   31.185    0.5564
   31.200    0.6314
   31.215    0.6207
   31.230    0.5886
   31.245    0.4815
   31.260    0.5350
   31.275    0.5778
   31.290    0.6956
   31.305    0.7598
   31.320    0.6100
   31.335    0.6528
   31.350    0.5136
   31.365    0.6421
   31.380    0.6207
   31.395    0.7170
   31.410    0.6956
   31.425    0.7919
   31.440    1.1129
   31.455    1.2306
   31.470    1.3055
   31.485    1.1878
   31.500    1.2520
   31.515    1.2199
   31.530    1.1664
   31.545    1.3269
   31.560    1.2841
   31.575    1.2413
   31.590    0.8989
   31.605    0.7812
   31.620    0.7170
   31.635    0.5993
   31.650    0.6100
   31.665    0.6421
   31.680    0.7277
   31.695    0.6207
   31.710    0.5778
   31.725    0.5671
   31.740    0.5993
   31.755    0.5457
   31.770    0.5993
   31.785    0.6314
   31.800    0.5778
   31.815    0.6421
   31.830    0.6421
   31.845    0.6635
   31.860    0.5778
   31.875    0.5136
   31.890    0.6100
   31.905    0.6742
   31.920    0.6421
   31.935    0.5671
   31.950    0.6528
   31.965    0.6421
   31.980    0.7598
   31.995    0.6849
   32.010    0.5993
   32.025    0.5671
   32.040    0.6635
   32.055    0.7170
   32.070    0.6528
   32.085    0.6528
   32.100    0.7812
   32.115    0.7812
   32.130    0.7063
   32.145    0.8989
   32.160    0.9631
   32.175    0.9417
   32.190    0.9417
   32.205    1.0059
   32.220    0.9952
   32.235    1.0701
   32.250    0.8240
   32.265    0.7705
   32.280    0.7491
   32.295    0.7598
   32.310    0.5886
   32.325    0.6314
   32.340    0.5993
   32.355    0.5671
   32.370    0.6207
   32.385    0.6100
   32.400    0.5457
   32.415    0.5243
   32.430    0.6635
   32.445    0.6635
   32.460    0.7705
   32.475    0.7384
   32.490    0.7705
   32.505    0.7812
   32.520    0.7491
   32.535    0.9417
   32.550    0.8133
   32.565    0.9952
   32.580    1.1557
   32.595    0.9738
   32.610    0.9631
   32.625    0.8668
   32.640    0.8668
   32.655    1.0059
   32.670    0.9738
   32.685    0.9738
   32.700    0.7598
   32.715    0.8347
   32.730    0.8133
   32.745    0.8133
   32.760    0.9631
   32.775    1.0594
   32.790    1.1236
   32.805    1.3697
   32.820    1.3697
   32.835    1.3804
   32.850    1.2092
   32.865    1.0808
   32.880    1.1450
   32.895    1.1129
   32.910    0.9631
   32.925    1.1450
   32.940    1.1022
   32.955    0.9096
   32.970    0.6742
   32.985    0.6742
   33.000    0.6849
   33.015    0.5993
   33.030    0.5886
   33.045    0.6635
   33.060    0.7491
   33.075    0.8240
   33.090    0.9310
   33.105    0.9310
   33.120    1.0487
   33.135    1.0487
   33.150    1.1557
   33.165    1.2306
   33.180    1.1450
   33.195    1.0915
   33.210    1.1985
   33.225    1.1664
   33.240    1.1985
   33.255    0.8561
   33.270    0.8454
   33.285    0.8775
   33.300    0.8347
   33.315    0.6528
   33.330    0.5671
   33.345    0.4708
   33.360    0.6956
   33.375    0.5671
   33.390    0.6207
   33.405    0.6528
   33.420    0.7598
   33.435    0.6956
   33.450    0.6742
   33.465    0.6100
   33.480    0.6421
   33.495    0.6207
   33.510    0.6421
   33.525    0.6528
   33.540    0.4601
   33.555    0.6635
   33.570    0.6956
   33.585    0.6956
   33.600    0.6207
   33.615    0.5350
   33.630    0.5029
   33.645    0.5243
   33.660    0.8026
   33.675    0.6421
   33.690    0.6314
   33.705    0.8240
   33.720    0.8775
   33.735    0.9631
   33.750    0.9845
   33.765    0.9524
   33.780    0.9952
   33.795    0.9203
   33.810    0.8133
   33.825    0.9203
   33.840    0.9952
   33.855    0.8882
   33.870    0.7384
   33.885    0.7598
   33.900    0.6314
   33.915    0.6849
   33.930    0.6421
   33.945    0.6314
   33.960    0.5457
   33.975    0.5029
   33.990    0.5778
   34.005    0.6849
   34.020    0.6207
   34.035    0.6635
   34.050    0.5136
   34.065    0.8240
   34.080    0.8775
   34.095    0.8347
   34.110    1.0059
   34.125    1.0594
   34.140    1.0701
   34.155    1.0273
   34.170    0.9631
   34.185    1.0594
   34.200    1.0487
   34.215    0.9952
   34.230    1.0380
   34.245    0.9738
   34.260    0.8347
   34.275    0.7491
   34.290    0.5457
   34.305    0.6742
   34.320    0.5564
   34.335    0.4708
   34.350    0.5671
   34.365    0.5671
   34.380    0.5886
   34.395    0.4280
   34.410    0.4066
   34.425    0.5243
   34.440    0.5457
   34.455    0.5886
   34.470    0.4708
   34.485    0.6742
   34.500    0.5886
   34.515    0.5564
   34.530    0.6421
   34.545    0.6100
   34.560    0.5243
   34.575    0.4815
   34.590    0.5457
   34.605    0.5350
   34.620    0.4922
   34.635    0.5136
   34.650    0.4708
   34.665    0.5029
   34.680    0.5778
   34.695    0.7277
   34.710    0.6742
   34.725    0.6849
   34.740    0.6849
   34.755    0.7063
   34.770    0.9203
   34.785    0.8882
   34.800    0.6956
   34.815    0.7063
   34.830    0.8989
   34.845    0.8347
   34.860    0.8133
   34.875    0.6742
   34.890    0.7598
   34.905    0.5350
   34.920    0.4494
   34.935    0.5564
   34.950    0.5136
   34.965    0.5243
   34.980    0.5243
   34.995    0.4922
   35.010    0.4922
   35.025    0.5671
   35.040    0.6956
   35.055    0.7170
   35.070    0.7384
   35.085    0.5243
   35.100    0.7384
   35.115    0.6100
   35.130    0.5029
   35.145    0.6956
   35.160    0.7277
   35.175    0.7919
   35.190    0.5564
   35.205    0.5136
   35.220    0.5029
   35.235    0.4922
   35.250    0.4387
   35.265    0.5886
   35.280    0.4387
   35.295    0.5671
   35.310    0.4922
   35.325    0.5671
   35.340    0.6421
   35.355    0.6100
   35.370    0.6635
   35.385    0.7812
   35.400    0.6100
   35.415    0.6421
   35.430    0.5993
   35.445    0.5564
   35.460    0.7384
   35.475    0.6100
   35.490    0.4815
   35.505    0.6207
   35.520    0.6314
   35.535    0.5671
   35.550    0.5136
   35.565    0.6100
   35.580    0.5778
   35.595    0.5457
   35.610    0.3852
   35.625    0.5350
   35.640    0.6207
   35.655    0.6207
   35.670    0.7812
   35.685    0.8347
   35.700    0.8454
   35.715    0.8668
   35.730    0.7598
   35.745    0.8561
   35.760    0.7063
   35.775    0.7384
   35.790    0.8026
   35.805    0.7491
   35.820    0.7063
   35.835    0.6314
   35.850    0.5243
   35.865    0.4922
   35.880    0.5457
   35.895    0.5564
   35.910    0.5671
   35.925    0.4708
   35.940    0.5671
   35.955    0.4708
   35.970    0.5350
   35.985    0.5671
   36.000    0.5457
   36.015    0.6528
   36.030    0.6207
   36.045    0.5886
   36.060    0.5564
   36.075    0.5029
   36.090    0.6100
   36.105    0.5136
   36.120    0.5136
   36.135    0.4387
   36.150    0.5457
   36.165    0.4708
   36.180    0.4601
   36.195    0.4494
   36.210    0.4066
   36.225    0.4601
   36.240    0.5243
   36.255    0.5136
   36.270    0.4815
   36.285    0.5457
   36.300    0.5243
   36.315    0.4066
   36.330    0.5029
   36.345    0.6635
   36.360    0.5350
   36.375    0.4173
   36.390    0.3638
   36.405    0.5243
   36.420    0.4815
   36.435    0.5350
   36.450    0.6314
   36.465    0.4815
   36.480    0.4387
   36.495    0.4815
   36.510    0.5993
   36.525    0.5886
   36.540    0.5778
   36.555    0.6742
   36.570    0.5457
   36.585    0.7063
   36.600    0.7919
   36.615    0.8882
   36.630    0.6849
   36.645    0.6421
   36.660    0.8561
   36.675    0.7491
   36.690    0.8133
   36.705    0.8561
   36.720    0.6528
   36.735    0.6314
   36.750    0.7705
   36.765    0.5993
   36.780    0.4922
   36.795    0.4601
   36.810    0.5564
   36.825    0.5671
   36.840    0.4708
   36.855    0.4922
   36.870    0.5350
   36.885    0.5457
   36.900    0.5457
   36.915    0.5778
   36.930    0.6207
   36.945    0.4922
   36.960    0.5778
   36.975    0.5671
   36.990    0.6635
   37.005    0.6207
   37.020    0.6100
   37.035    0.6849
   37.050    0.6956
   37.065    0.7491
   37.080    0.6421
   37.095    0.7170
   37.110    0.7170
   37.125    0.7170
   37.140    0.6849
   37.155    0.5993
   37.170    0.7170
   37.185    0.8347
   37.200    0.6635
   37.215    0.6849
   37.230    0.7170
   37.245    0.6956
   37.260    0.7170
   37.275    0.5457
   37.290    0.5671
   37.305    0.7705
   37.320    0.8561
   37.335    0.7170
   37.350    0.8882
   37.365    0.8133
   37.380    0.9203
   37.395    0.9310
   37.410    1.1771
   37.425    0.9845
   37.440    1.1664
   37.455    1.1664
   37.470    1.2627
   37.485    1.2520
   37.500    1.1664
   37.515    0.9738
   37.530    0.8454
   37.545    0.8133
   37.560    0.7812
   37.575    0.5564
   37.590    0.5671
   37.605    0.4922
   37.620    0.5457
   37.635    0.5671
   37.650    0.5350
   37.665    0.5136
   37.680    0.5136
   37.695    0.5564
   37.710    0.4387
   37.725    0.4173
   37.740    0.5778
   37.755    0.5457
   37.770    0.5993
   37.785    0.5993
   37.800    0.4708
   37.815    0.4815
   37.830    0.3959
   37.845    0.5243
   37.860    0.5671
   37.875    0.5136
   37.890    0.4922
   37.905    0.4280
   37.920    0.4601
   37.935    0.4173
   37.950    0.3638
   37.965    0.3959
   37.980    0.4601
   37.995    0.4922
   38.010    0.4280
   38.025    0.4280
   38.040    0.4173
   38.055    0.5243
   38.070    0.5136
   38.085    0.4387
   38.100    0.3103
   38.115    0.4815
   38.130    0.5564
   38.145    0.4173
   38.160    0.4280
   38.175    0.5564
   38.190    0.6635
   38.205    0.5564
   38.220    0.5029
   38.235    0.4387
   38.250    0.4708
   38.265    0.6100
   38.280    0.6207
   38.295    0.4922
   38.310    0.5564
   38.325    0.5671
   38.340    0.5671
   38.355    0.5350
   38.370    0.7170
   38.385    0.6742
   38.400    0.6207
   38.415    0.6849
   38.430    0.6956
   38.445    0.7491
   38.460    0.6956
   38.475    0.7384
   38.490    0.7170
   38.505    0.5350
   38.520    0.5564
   38.535    0.4922
   38.550    0.3959
   38.565    0.4387
   38.580    0.4494
   38.595    0.4922
   38.610    0.3852
   38.625    0.3852
   38.640    0.4494
   38.655    0.4601
   38.670    0.5029
   38.685    0.4708
   38.700    0.4280
   38.715    0.3424
   38.730    0.4066
   38.745    0.3745
   38.760    0.3852
   38.775    0.4387
   38.790    0.3638
   38.805    0.4815
   38.820    0.4173
   38.835    0.4708
   38.850    0.3424
   38.865    0.3531
   38.880    0.3424
   38.895    0.3959
   38.910    0.3745
   38.925    0.4280
   38.940    0.4280
   38.955    0.5457
   38.970    0.5136
   38.985    0.5671
   39.000    0.4922
   39.015    0.4922
   39.030    0.5564
   39.045    0.4173
   39.060    0.4173
   39.075    0.3959
   39.090    0.5029
   39.105    0.4066
   39.120    0.5457
   39.135    0.3745
   39.150    0.4494
   39.165    0.3852
   39.180    0.5029
   39.195    0.5136
   39.210    0.5136
   39.225    0.4494
   39.240    0.5243
   39.255    0.5778
   39.270    0.5564
   39.285    0.4494
   39.300    0.5243
   39.315    0.5350
   39.330    0.4494
   39.345    0.6742
   39.360    0.5886
   39.375    0.4922
   39.390    0.5029
   39.405    0.7384
   39.420    0.7277
   39.435    0.6635
   39.450    0.6849
   39.465    0.8561
   39.480    0.7063
   39.495    0.9417
   39.510    1.0273
   39.525    0.8026
   39.540    0.8240
   39.555    0.9631
   39.570    1.0380
   39.585    0.8989
   39.600    0.8454
   39.615    0.8347
   39.630    0.7277
   39.645    0.6635
   39.660    0.6528
   39.675    0.6849
   39.690    0.5886
   39.705    0.5886
   39.720    0.5136
   39.735    0.5671
   39.750    0.5564
   39.765    0.4601
   39.780    0.4922
   39.795    0.6314
   39.810    0.5671
   39.825    0.5029
   39.840    0.6314
   39.855    0.5457
   39.870    0.5778
   39.885    0.5886
   39.900    0.5564
   39.915    0.5136
   39.930    0.5029
   39.945    0.4494
   39.960    0.3745
   39.975    0.4601
   39.990    0.5029
