    1.500   16.3033
    1.515   16.5982
    1.530   15.9979
    1.545   16.7351
    1.560   16.3770
    1.575   15.9136
    1.590   15.2185
    1.605   15.0711
    1.620   15.0922
    1.635   15.4081
    1.650   15.1237
    1.665   15.1448
    1.680   14.9974
    1.695   14.9763
    1.710   14.6393
    1.725   14.5761
    1.740   14.1443
    1.755   14.1443
    1.770   13.9863
    1.785   13.9442
    1.800   13.9547
    1.815   13.4492
    1.830   14.1654
    1.845   13.4492
    1.860   12.8699
    1.875   12.8594
    1.890   12.3433
    1.905   13.0806
    1.920   13.0595
    1.935   12.5013
    1.950   12.3539
    1.965   12.5013
    1.980   12.7541
    1.995   12.7541
    2.010   12.3433
    2.025   12.0906
    2.040   11.7009
    2.055   11.7114
    2.070   11.7009
    2.085   12.6698
    2.100   12.4697
    2.115   12.1959
    2.130   12.0590
    2.145   11.8378
    2.160   11.3428
    2.175   11.5113
    2.190   11.4060
    2.205   11.2902
    2.220   11.5745
    2.235   10.9531
    2.250   10.8478
    2.265   11.1532
    2.280   11.3744
    2.295   11.1006
    2.310   10.3844
    2.325   11.0374
    2.340   10.9847
    2.355   10.8057
    2.370   10.3212
    2.385   10.3528
    2.400   10.3212
    2.415   10.7530
    2.430   10.5213
    2.445   10.1632
    2.460   10.0790
    2.475   10.0158
    2.490    9.7736
    2.505   10.3739
    2.520   10.2896
    2.535    9.8894
    2.550    9.9737
    2.565    9.7736
    2.580    9.9105
    2.595    9.9421
    2.610    9.9737
    2.625    9.5313
    2.640    9.6367
    2.655   10.1316
    2.670   10.1738
    2.685    9.8262
    2.700    9.7525
    2.715    9.6998
    2.730    9.7209
    2.745    9.5629
    2.760    9.7209
    2.775    9.5629
    2.790    9.7104
    2.805    9.3628
    2.820    8.6467
    2.835    9.3312
    2.850    9.2154
    2.865    8.8678
    2.880    8.8678
    2.895    9.0785
    2.910    9.2364
    2.925    9.1627
    2.940    9.2575
    2.955    9.2680
    2.970    8.8362
    2.985    8.9100
    3.000    8.9837
    3.015    8.9942
    3.030    9.1206
    3.045    9.1206
    3.060    9.1943
    3.075    8.9521
    3.090    9.0890
    3.105    9.1943
    3.120    8.8468
    3.135    8.7204
    3.150    9.0785
    3.165    9.1311
    3.180    9.0785
    3.195    8.9310
    3.210    8.6677
    3.225    8.8889
    3.240    8.9415
    3.255    8.9415
    3.270    8.4044
    3.285    8.6361
    3.300    8.4150
    3.315    8.3728
    3.330    8.5519
    3.345    8.4887
    3.360    8.2780
    3.375    8.5729
    3.390    8.2886
    3.405    8.2675
    3.420    8.2570
    3.435    8.3202
    3.450    8.3412
    3.465    8.5519
    3.480    8.5203
    3.495    8.2359
    3.510    8.3623
    3.525    8.3939
    3.540    8.3412
    3.555    7.9831
    3.570    8.3307
    3.585    8.1306
    3.600    7.8568
    3.615    8.2149
    3.630    8.1306
    3.645    8.2043
    3.660    8.2570
    3.675    8.2675
    3.690    8.0885
    3.705    7.7936
    3.720    8.1095
    3.735    7.9410
    3.750    8.1306
    3.765    7.8884
    3.780    8.2359
    3.795    8.1938
    3.810    7.8884
    3.825    7.4776
    3.840    8.1306
    3.855    7.9621
    3.870    7.8462
    3.885    7.7304
    3.900    7.5408
    3.915    7.9831
    3.930    7.8989
    3.945    7.6567
    3.960    7.7830
    3.975    7.6777
    3.990    7.7725
    4.005    8.0990
    4.020    8.0569
    4.035    8.0990
    4.050    7.7936
    4.065    7.8568
    4.080    7.7514
    4.095    7.7409
    4.110    7.6145
    4.125    7.8146
    4.140    7.9094
    4.155    7.3407
    4.170    7.5197
    4.185    7.9200
    4.200    7.5724
    4.215    7.5724
    4.230    7.6777
    4.245    7.6251
    4.260    7.6461
    4.275    7.6145
    4.290    7.2143
    4.305    7.6356
    4.320    7.7093
    4.335    7.9621
    4.350    7.8673
    4.365    7.6883
    4.380    7.6040
    4.395    7.0774
    4.410    7.5513
    4.425    7.8884
    4.440    7.6040
    4.455    7.5197
    4.470    7.5408
    4.485    7.7093
    4.500    7.5513
    4.515    7.7093
    4.530    7.5619
    4.545    7.5197
    4.560    7.1722
    4.575    7.3091
    4.590    7.7725
    4.605    7.5303
    4.620    7.3091
    4.635    7.6040
    4.650    7.5408
    4.665    7.4144
    4.680    7.6777
    4.695    7.2038
    4.710    7.6777
    4.725    7.7199
    4.740    7.0458
    4.755    7.4671
    4.770    7.3618
    4.785    7.2565
    4.800    7.3723
    4.815    7.2565
    4.830    7.1301
    4.845    7.1511
    4.860    7.3934
    4.875    7.0142
    4.890    6.9721
    4.905    7.1617
    4.920    7.1617
    4.935    6.8878
    4.950    7.0563
    4.965    7.3828
    4.980    7.1722
    4.995    6.9721
    5.010    6.7825
    5.025    7.3196
    5.040    7.2143
    5.055    7.5197
    5.070    7.4355
    5.085    7.2038
    5.100    7.3196
    5.115    7.1933
    5.130    7.3196
    5.145    7.3723
    5.160    7.6672
    5.175    7.1827
    5.190    7.3196
    5.205    7.3934
    5.220    7.2354
    5.235    7.0037
    5.250    6.8246
    5.265    7.2670
    5.280    6.7193
    5.295    7.1090
    5.310    7.1090
    5.325    7.2986
    5.340    6.9405
    5.355    6.9089
    5.370    7.0142
    5.385    7.1090
    5.400    7.0669
    5.415    7.0248
    5.430    7.2354
    5.445    7.1301
    5.460    7.1090
    5.475    6.9194
    5.490    6.9826
    5.505    7.2880
    5.520    7.3934
    5.535    7.1511
    5.550    7.1195
    5.565    6.5403
    5.580    6.7404
    5.595    6.8668
    5.610    6.9616
    5.625    7.0037
    5.640    6.8984
    5.655    6.8141
    5.670    6.7509
    5.685    7.0142
    5.700    6.7088
    5.715    6.8457
    5.730    6.8668
    5.745    6.8246
    5.760    6.9510
    5.775    6.5929
    5.790    6.5298
    5.805    6.3191
    5.820    6.6456
    5.835    7.1827
    5.850    7.1090
    5.865    6.7193
    5.880    6.9405
    5.895    7.4144
    5.910    7.0669
    5.925    6.8141
    5.940    7.1301
    5.955    7.1301
    5.970    7.2670
    5.985    7.3091
    6.000    6.8984
    6.015    6.9721
    6.030    6.6667
    6.045    6.8984
    6.060    7.4776
    6.075    6.9089
    6.090    7.1301
    6.105    7.1827
    6.120    6.8773
    6.135    6.7615
    6.150    7.2143
    6.165    7.0353
    6.180    7.4250
    6.195    7.0037
    6.210    6.9405
    6.225    6.8352
    6.240    6.5929
    6.255    6.4666
    6.270    6.8773
    6.285    7.0669
    6.300    7.1195
    6.315    6.7930
    6.330    6.8878
    6.345    6.8141
    6.360    6.6772
    6.375    7.1617
    6.390    7.0142
    6.405    6.9616
    6.420    7.1511
    6.435    7.1617
    6.450    6.9300
    6.465    6.7404
    6.480    7.2143
    6.495    6.9089
    6.510    7.1827
    6.525    7.0037
    6.540    7.0142
    6.555    6.9826
    6.570    7.1827
    6.585    7.0879
    6.600    7.1722
    6.615    7.2249
    6.630    6.9089
    6.645    7.1195
    6.660    6.9089
    6.675    6.9089
    6.690    6.9616
    6.705    7.0985
    6.720    7.1090
    6.735    7.2038
    6.750    7.2354
    6.765    7.2354
    6.780    7.3618
    6.795    6.9089
    6.810    7.0353
    6.825    6.8352
    6.840    6.9405
    6.855    6.7930
    6.870    7.1827
    6.885    7.1617
    6.900    6.9932
    6.915    6.9510
    6.930    7.5303
    6.945    7.2249
    6.960    7.1195
    6.975    7.1617
    6.990    7.4355
    7.005    6.8457
    7.020    6.9405
    7.035    7.0563
    7.050    7.1827
    7.065    7.0458
    7.080    6.7299
    7.095    7.1511
    7.110    6.9300
    7.125    7.1301
    7.140    7.5197
    7.155    7.2459
    7.170    7.1301
    7.185    7.0879
    7.200    7.2775
    7.215    7.0458
    7.230    7.3302
    7.245    7.1933
    7.260    7.0879
    7.275    7.0774
    7.290    7.0248
    7.305    7.3618
    7.320    7.4144
    7.335    7.3302
    7.350    7.2565
    7.365    7.3723
    7.380    7.1301
    7.395    6.7193
    7.410    7.1406
    7.425    7.1195
    7.440    7.3512
    7.455    7.0458
    7.470    7.4039
    7.485    7.1722
    7.500    7.5513
    7.515    7.5935
    7.530    7.7725
    7.545    7.7199
    7.560    7.0669
    7.575    7.1722
    7.590    7.6672
    7.605    7.9516
    7.620    7.8146
    7.635    7.1090
    7.650    7.2143
    7.665    7.1301
    7.680    7.7725
    7.695    7.6988
    7.710    7.2249
    7.725    7.5303
    7.740    7.5408
    7.755    7.3618
    7.770    7.2986
    7.785    7.4144
    7.800    7.8568
    7.815    7.9516
    7.830    7.4671
    7.845    7.5829
    7.860    7.7620
    7.875    7.0353
    7.890    7.2775
    7.905    7.0985
    7.920    7.6461
    7.935    7.8989
    7.950    7.4355
    7.965    7.1933
    7.980    7.1195
    7.995    7.7304
    8.010    7.4144
    8.025    7.4776
    8.040    6.9194
    8.055    7.2880
    8.070    7.2143
    8.085    7.6672
    8.100    7.6777
    8.115    7.7304
    8.130    7.8041
    8.145    7.4144
    8.160    7.4250
    8.175    7.5935
    8.190    7.5408
    8.205    7.6251
    8.220    7.2880
    8.235    7.4776
    8.250    7.3934
    8.265    7.4776
    8.280    7.4250
    8.295    7.4671
    8.310    7.5619
    8.325    7.1933
    8.340    7.4776
    8.355    7.3091
    8.370    7.2775
    8.385    7.4355
    8.400    7.5303
    8.415    7.9200
    8.430    7.6672
    8.445    7.2459
    8.460    7.4460
    8.475    7.6461
    8.490    7.4250
    8.505    7.4776
    8.520    7.6777
    8.535    7.6883
    8.550    7.5619
    8.565    7.6040
    8.580    7.6777
    8.595    7.4355
    8.610    8.0569
    8.625    7.7936
    8.640    7.3196
    8.655    7.5092
    8.670    7.4566
    8.685    7.5092
    8.700    7.2775
    8.715    7.7514
    8.730    7.5408
    8.745    7.1301
    8.760    7.3196
    8.775    7.4250
    8.790    7.8252
    8.805    7.5935
    8.820    7.8146
    8.835    7.6251
    8.850    7.7199
    8.865    7.7199
    8.880    7.6356
    8.895    7.3828
    8.910    7.4776
    8.925    7.6672
    8.940    7.4250
    8.955    7.5724
    8.970    7.8252
    8.985    7.4776
    9.000    7.5935
    9.015    7.5619
    9.030    7.5197
    9.045    7.3618
    9.060    7.0774
    9.075    7.4987
    9.090    7.6145
    9.105    7.4250
    9.120    7.5829
    9.135    7.3512
    9.150    7.8357
    9.165    7.7620
    9.180    7.5619
    9.195    7.9200
    9.210    7.4987
    9.225    7.6040
    9.240    7.3512
    9.255    7.8568
    9.270    7.7304
    9.285    7.4776
    9.300    7.4671
    9.315    7.2880
    9.330    7.3196
    9.345    7.5197
    9.360    7.1827
    9.375    7.6988
    9.390    7.6672
    9.405    7.6988
    9.420    7.2986
    9.435    7.4987
    9.450    7.3196
    9.465    7.5197
    9.480    7.4039
    9.495    7.2775
    9.510    7.4671
    9.525    7.4671
    9.540    7.1090
    9.555    7.4671
    9.570    7.3407
    9.585    7.6040
    9.600    7.6040
    9.615    7.3512
    9.630    7.1933
    9.645    7.6145
    9.660    7.7725
    9.675    7.4882
    9.690    7.1933
    9.705    7.4566
    9.720    7.4460
    9.735    7.9410
    9.750    8.0463
    9.765    7.5513
    9.780    7.1301
    9.795    7.1511
    9.810    7.4039
    9.825    7.3407
    9.840    7.8462
    9.855    7.4144
    9.870    7.3934
    9.885    7.6672
    9.900    7.4566
    9.915    7.4566
    9.930    7.6883
    9.945    7.5092
    9.960    7.6777
    9.975    7.9831
    9.990    7.8673
   10.005    7.6988
   10.020    7.4039
   10.035    7.8778
   10.050    7.5619
   10.065    7.8041
   10.080    7.4776
   10.095    7.4039
   10.110    7.4882
   10.125    7.7409
   10.140    7.3618
   10.155    7.4460
   10.170    7.5197
   10.185    7.4776
   10.200    7.7409
   10.215    7.6040
   10.230    7.6461
   10.245    7.1827
   10.260    7.3934
   10.275    7.4882
   10.290    7.2459
   10.305    7.1617
   10.320    7.0037
   10.335    7.3407
   10.350    7.3091
   10.365    7.1511
   10.380    7.0879
   10.395    6.9089
   10.410    7.2249
   10.425    7.7093
   10.440    7.1827
   10.455    6.9932
   10.470    7.2880
   10.485    7.5935
   10.500    7.2354
   10.515    7.6777
   10.530    7.4460
   10.545    7.6988
   10.560    7.3934
   10.575    7.6672
   10.590    7.2354
   10.605    7.3828
   10.620    7.0563
   10.635    7.0142
   10.650    7.5829
   10.665    7.5303
   10.680    7.5303
   10.695    7.1301
   10.710    7.5724
   10.725    7.3723
   10.740    7.2775
   10.755    7.1933
   10.770    7.3723
   10.785    7.4039
   10.800    7.1406
   10.815    7.2459
   10.830    7.3302
   10.845    7.3618
   10.860    7.3407
   10.875    7.2038
   10.890    7.2249
   10.905    7.4144
   10.920    7.6356
   10.935    7.6356
   10.950    7.4776
   10.965    7.4355
   10.980    6.8562
   10.995    7.5935
   11.010    7.1617
   11.025    7.1511
   11.040    7.1827
   11.055    6.9194
   11.070    7.1722
   11.085    6.5613
   11.100    6.8352
   11.115    6.7615
   11.130    7.1933
   11.145    7.0774
   11.160    6.8878
   11.175    6.8036
   11.190    6.7088
   11.205    7.4039
   11.220    7.0142
   11.235    7.3091
   11.250    7.1090
   11.265    7.0248
   11.280    7.0353
   11.295    7.1511
   11.310    6.8457
   11.325    6.9826
   11.340    7.0774
   11.355    7.0879
   11.370    7.3091
   11.385    6.9405
   11.400    6.7930
   11.415    6.9300
   11.430    6.9300
   11.445    7.3196
   11.460    6.8562
   11.475    6.7615
   11.490    7.0142
   11.505    6.8878
   11.520    7.0142
   11.535    7.2565
   11.550    7.0985
   11.565    7.1933
   11.580    6.8141
   11.595    6.9932
   11.610    6.9616
   11.625    6.8668
   11.640    7.1722
   11.655    7.1827
   11.670    7.1195
   11.685    6.7509
   11.700    7.1301
   11.715    7.4355
   11.730    7.5092
   11.745    7.0037
   11.760    7.2670
   11.775    7.3091
   11.790    6.8668
   11.805    6.8036
   11.820    6.8773
   11.835    6.7193
   11.850    7.1406
   11.865    6.9932
   11.880    6.7825
   11.895    7.2986
   11.910    7.0037
   11.925    6.8141
   11.940    6.7299
   11.955    6.9826
   11.970    6.7720
   11.985    7.2670
   12.000    7.1406
   12.015    7.0563
   12.030    6.9194
   12.045    6.9194
   12.060    6.6456
   12.075    7.1617
   12.090    6.9194
   12.105    6.8352
   12.120    6.5192
   12.135    6.6877
   12.150    6.8352
   12.165    6.8878
   12.180    7.0248
   12.195    6.9932
   12.210    6.8246
   12.225    6.8773
   12.240    7.2880
   12.255    6.9194
   12.270    6.7930
   12.285    6.8773
   12.300    6.7299
   12.315    6.8246
   12.330    6.6035
   12.345    6.5719
   12.360    7.1301
   12.375    6.8984
   12.390    6.7825
   12.405    6.5719
   12.420    6.6772
   12.435    6.6667
   12.450    6.5719
   12.465    6.5929
   12.480    6.8141
   12.495    6.7193
   12.510    6.7930
   12.525    6.8352
   12.540    6.7825
   12.555    6.5613
   12.570    6.8773
   12.585    6.6772
   12.600    6.4771
   12.615    6.3928
   12.630    6.8036
   12.645    6.7404
   12.660    6.4666
   12.675    6.8246
   12.690    6.3612
   12.705    6.6351
   12.720    6.7825
   12.735    6.8773
   12.750    6.7615
   12.765    6.4034
   12.780    6.3823
   12.795    6.1190
   12.810    6.3718
   12.825    6.4455
   12.840    6.6245
   12.855    6.6351
   12.870    6.2559
   12.885    6.4771
   12.900    6.3296
   12.915    6.9932
   12.930    6.7615
   12.945    6.6561
   12.960    6.6772
   12.975    6.4455
   12.990    6.1506
   13.005    6.5087
   13.020    6.8878
   13.035    6.7930
   13.050    6.8036
   13.065    6.4139
   13.080    6.6140
   13.095    6.7299
   13.110    6.4876
   13.125    6.6035
   13.140    6.5087
   13.155    6.6140
   13.170    6.5613
   13.185    6.6456
   13.200    6.6245
   13.215    6.7825
   13.230    6.5087
   13.245    6.3191
   13.260    6.3296
   13.275    6.5613
   13.290    6.5719
   13.305    6.5929
   13.320    6.6456
   13.335    6.5613
   13.350    6.2243
   13.365    6.4771
   13.380    6.9721
   13.395    6.3612
   13.410    6.2770
   13.425    6.4771
   13.440    6.3612
   13.455    5.9821
   13.470    6.5298
   13.485    6.2981
   13.500    6.8668
   13.515    6.6456
   13.530    6.7299
   13.545    6.2981
   13.560    6.3086
   13.575    6.6561
   13.590    6.5508
   13.605    6.6351
   13.620    6.7404
   13.635    6.8036
   13.650    6.3086
   13.665    6.2138
   13.680    6.4034
   13.695    6.3191
   13.710    6.5298
   13.725    6.8036
   13.740    6.7088
   13.755    6.5508
   13.770    6.3191
   13.785    6.2665
   13.800    6.6561
   13.815    6.4034
   13.830    6.4244
   13.845    6.4350
   13.860    6.7720
   13.875    6.1927
   13.890    6.4982
   13.905    6.7720
   13.920    6.5192
   13.935    6.3086
   13.950    6.4034
   13.965    6.3718
   13.980    6.4771
   13.995    6.6772
   14.010    6.6245
   14.025    6.3928
   14.040    6.2349
   14.055    6.5403
   14.070    6.5824
   14.085    6.3612
   14.100    6.2770
   14.115    5.9505
   14.130    6.3507
   14.145    6.3718
   14.160    6.4560
   14.175    6.4982
   14.190    6.4771
   14.205    6.4666
   14.220    6.4455
   14.235    6.6877
   14.250    6.4139
   14.265    6.4982
   14.280    6.6561
   14.295    6.5298
   14.310    6.5508
   14.325    6.2454
   14.340    6.1190
   14.355    6.5824
   14.370    6.8773
   14.385    6.5087
   14.400    6.5508
   14.415    5.9821
   14.430    6.2349
   14.445    5.9926
   14.460    6.4455
   14.475    6.8036
   14.490    6.3402
   14.505    6.6667
   14.520    6.7088
   14.535    6.5508
   14.550    6.2875
   14.565    6.4244
   14.580    6.3718
   14.595    6.4876
   14.610    6.3928
   14.625    6.6456
   14.640    6.3507
   14.655    6.3928
   14.670    6.2033
   14.685    6.6140
   14.700    6.3507
   14.715    6.1085
   14.730    6.6667
   14.745    7.0037
   14.760    6.3928
   14.775    6.2033
   14.790    6.0558
   14.805    6.2559
   14.820    6.5613
   14.835    6.4034
   14.850    6.2875
   14.865    6.1401
   14.880    6.1295
   14.895    6.2559
   14.910    6.2559
   14.925    6.1506
   14.940    6.7404
   14.955    6.4244
   14.970    6.7088
   14.985    6.6983
   15.000    6.8141
   15.015    7.1090
   15.030    6.6245
   15.045    6.6140
   15.060    6.4244
   15.075    6.5929
   15.090    6.7509
   15.105    6.4139
   15.120    6.4771
   15.135    6.7404
   15.150    6.9405
   15.165    5.9821
   15.180    6.1611
   15.195    6.1611
   15.210    6.2243
   15.225    6.2981
   15.240    6.2138
   15.255    6.3402
   15.270    6.3086
   15.285    6.5719
   15.300    6.2243
   15.315    6.3612
   15.330    6.4876
   15.345    6.1717
   15.360    6.4455
   15.375    6.5087
   15.390    6.7825
   15.405    6.6772
   15.420    6.2875
   15.435    6.4560
   15.450    6.2349
   15.465    6.2559
   15.480    6.6667
   15.495    6.2875
   15.510    6.7193
   15.525    6.6772
   15.540    6.3507
   15.555    6.2770
   15.570    6.4560
   15.585    6.3928
   15.600    6.5192
   15.615    6.3823
   15.630    6.3507
   15.645    6.2770
   15.660    6.4139
   15.675    6.5719
   15.690    6.1190
   15.705    6.3928
   15.720    6.2981
   15.735    6.1927
   15.750    5.9505
   15.765    6.5087
   15.780    6.4244
   15.795    6.6456
   15.810    6.7720
   15.825    6.6351
   15.840    6.7615
   15.855    6.4982
   15.870    6.6772
   15.885    6.1717
   15.900    6.0664
   15.915    6.5403
   15.930    6.1717
   15.945    6.2454
   15.960    6.1295
   15.975    6.7404
   15.990    6.6667
   16.005    6.6667
   16.020    6.6877
   16.035    6.4876
   16.050    6.4560
   16.065    6.2138
   16.080    6.0979
   16.095    6.4139
   16.110    6.7299
   16.125    6.6561
   16.140    7.2565
   16.155    6.4876
   16.170    6.5719
   16.185    6.5613
   16.200    6.3507
   16.215    6.4560
   16.230    6.3507
   16.245    6.1927
   16.260    6.2770
   16.275    6.3507
   16.290    6.4876
   16.305    6.4666
   16.320    6.7088
   16.335    6.1506
   16.350    6.6456
   16.365    6.3612
   16.380    6.4560
   16.395    6.7088
   16.410    6.7404
   16.425    6.6456
   16.440    6.7825
   16.455    6.4034
   16.470    6.6140
   16.485    6.2349
   16.500    6.4034
   16.515    6.1506
   16.530    6.4244
   16.545    6.6456
   16.560    6.4139
   16.575    6.4350
   16.590    6.7825
   16.605    6.3718
   16.620    6.6983
   16.635    6.2559
   16.650    6.1190
   16.665    6.9194
   16.680    6.6245
   16.695    6.3086
   16.710    6.0979
   16.725    6.2349
   16.740    6.6351
   16.755    6.4666
   16.770    6.4982
   16.785    6.2665
   16.800    6.4350
   16.815    6.5929
   16.830    6.4876
   16.845    6.3507
   16.860    6.0664
   16.875    6.1927
   16.890    6.5824
   16.905    6.5192
   16.920    6.2349
   16.935    6.6351
   16.950    6.9405
   16.965    6.5298
   16.980    6.3718
   16.995    6.4455
   17.010    6.2559
   17.025    6.3296
   17.040    6.0664
   17.055    6.4982
   17.070    6.3507
   17.085    6.4560
   17.100    6.6667
   17.115    6.0664
   17.130    6.5824
   17.145    6.2981
   17.160    6.1717
   17.175    6.5087
   17.190    6.6351
   17.205    7.1301
   17.220    6.5613
   17.235    6.3928
   17.250    6.9405
   17.265    6.7509
   17.280    6.6456
   17.295    6.5087
   17.310    6.4666
   17.325    6.4455
   17.340    6.2875
   17.355    6.4244
   17.370    6.4876
   17.385    6.7615
   17.400    6.4139
   17.415    6.4876
   17.430    6.4982
   17.445    6.3928
   17.460    6.0874
   17.475    6.3402
   17.490    6.3823
   17.505    6.5087
   17.520    6.2349
   17.535    6.3612
   17.550    6.8562
   17.565    6.5403
   17.580    6.2349
   17.595    6.3718
   17.610    6.3612
   17.625    6.2349
   17.640    6.0558
   17.655    6.4034
   17.670    6.6245
   17.685    6.7088
   17.700    6.8352
   17.715    6.3086
   17.730    6.3612
   17.745    6.7404
   17.760    6.8141
   17.775    6.3612
   17.790    6.2454
   17.805    6.6035
   17.820    6.0874
   17.835    6.3402
   17.850    6.5087
   17.865    6.0137
   17.880    6.3086
   17.895    6.4350
   17.910    6.8984
   17.925    6.3612
   17.940    6.2033
   17.955    6.4350
   17.970    6.3191
   17.985    6.1506
   18.000    6.4455
   18.015    6.3402
   18.030    6.4244
   18.045    6.8141
   18.060    6.3823
   18.075    6.4034
   18.090    6.3086
   18.105    6.8352
   18.120    6.5298
   18.135    6.3507
   18.150    6.6561
   18.165    6.4982
   18.180    6.5192
   18.195    6.4560
   18.210    6.4139
   18.225    6.5403
   18.240    6.5403
   18.255    6.4666
   18.270    6.6456
   18.285    6.4139
   18.300    6.3612
   18.315    6.1717
   18.330    6.6772
   18.345    6.7193
   18.360    6.5403
   18.375    6.2981
   18.390    6.6035
   18.405    6.7193
   18.420    6.6983
   18.435    6.4876
   18.450    7.0037
   18.465    6.7509
   18.480    6.6561
   18.495    6.5192
   18.510    6.5298
   18.525    6.3086
   18.540    6.3507
   18.555    6.3086
   18.570    6.5719
   18.585    6.3612
   18.600    6.3296
   18.615    6.6140
   18.630    6.8773
   18.645    7.1090
   18.660    6.9510
   18.675    6.5613
   18.690    6.1927
   18.705    6.2033
   18.720    6.6351
   18.735    6.3191
   18.750    6.2033
   18.765    6.8562
   18.780    6.2981
   18.795    6.5929
   18.810    6.6140
   18.825    6.3086
   18.840    6.2770
   18.855    6.2875
   18.870    6.4350
   18.885    6.4034
   18.900    6.4771
   18.915    6.7193
   18.930    7.1195
   18.945    6.6772
   18.960    6.8562
   18.975    6.9300
   18.990    6.2349
   19.005    6.4666
   19.020    6.2770
   19.035    6.5613
   19.050    6.7615
   19.065    6.6772
   19.080    6.5508
   19.095    6.6561
   19.110    6.8141
   19.125    6.6877
   19.140    6.6456
   19.155    6.5824
   19.170    6.5298
   19.185    6.6772
   19.200    6.3296
   19.215    6.6351
   19.230    6.4666
   19.245    6.9089
   19.260    6.6772
   19.275    6.5719
   19.290    6.4455
   19.305    6.6983
   19.320    6.7299
   19.335    6.5087
   19.350    6.3402
   19.365    6.3402
   19.380    6.3296
   19.395    6.3402
   19.410    6.5824
   19.425    6.4666
   19.440    6.5192
   19.455    6.9405
   19.470    6.6456
   19.485    6.3086
   19.500    6.4034
   19.515    6.6667
   19.530    6.9616
   19.545    6.9932
   19.560    6.5508
   19.575    6.5403
   19.590    6.4244
   19.605    6.4139
   19.620    6.7088
   19.635    6.9510
   19.650    6.8668
   19.665    6.4666
   19.680    6.5929
   19.695    6.6772
   19.710    6.7299
   19.725    6.7825
   19.740    6.3718
   19.755    6.3823
   19.770    6.6035
   19.785    6.8036
   19.800    6.8141
   19.815    6.5508
   19.830    6.7404
   19.845    6.3612
   19.860    6.8036
   19.875    7.0037
   19.890    6.5087
   19.905    6.4771
   19.920    6.7299
   19.935    6.3296
   19.950    6.3402
   19.965    6.9089
   19.980    6.7720
   19.995    7.0142
   20.010    6.6667
   20.025    6.6035
   20.040    6.6877
   20.055    6.6035
   20.070    6.4455
   20.085    6.6772
   20.100    6.9300
   20.115    6.6877
   20.130    6.6245
   20.145    6.7509
   20.160    6.7509
   20.175    6.7404
   20.190    6.5508
   20.205    6.5929
   20.220    6.7404
   20.235    6.4350
   20.250    6.4244
   20.265    6.7404
   20.280    6.7825
   20.295    6.1085
   20.310    6.5929
   20.325    6.4455
   20.340    6.4771
   20.355    6.9405
   20.370    6.8141
   20.385    6.7825
   20.400    6.5613
   20.415    6.5508
   20.430    6.8352
   20.445    6.8984
   20.460    6.3928
   20.475    6.3823
   20.490    6.6561
   20.505    7.0985
   20.520    6.8457
   20.535    6.7930
   20.550    6.5824
   20.565    6.5298
   20.580    6.7615
   20.595    6.5719
   20.610    6.7509
   20.625    6.8562
   20.640    6.4139
   20.655    6.7509
   20.670    6.9405
   20.685    6.4982
   20.700    6.6456
   20.715    6.6877
   20.730    6.7825
   20.745    6.2981
   20.760    6.3823
   20.775    6.4982
   20.790    6.9721
   20.805    6.9826
   20.820    6.8246
   20.835    6.7404
   20.850    7.5197
   20.865    6.9089
   20.880    6.9194
   20.895    6.5298
   20.910    6.6456
   20.925    6.9616
   20.940    6.7299
   20.955    6.8668
   20.970    6.5403
   20.985    6.4139
   21.000    6.6035
   21.015    6.5192
   21.030    6.4455
   21.045    6.9089
   21.060    6.7088
   21.075    6.7720
   21.090    6.4771
   21.105    6.8141
   21.120    6.6983
   21.135    6.3402
   21.150    6.8668
   21.165    6.8773
   21.180    7.0037
   21.195    7.2143
   21.210    6.5719
   21.225    6.7193
   21.240    6.9826
   21.255    6.7193
   21.270    6.3823
   21.285    6.6667
   21.300    6.8562
   21.315    6.7299
   21.330    6.3086
   21.345    7.1090
   21.360    6.6877
   21.375    6.8141
   21.390    7.0248
   21.405    7.0774
   21.420    6.5613
   21.435    6.9089
   21.450    6.9510
   21.465    7.0142
   21.480    6.5403
   21.495    7.0774
   21.510    6.7299
   21.525    6.6667
   21.540    6.8352
   21.555    6.3823
   21.570    6.3823
   21.585    6.7299
   21.600    6.6772
   21.615    6.8878
   21.630    6.4139
   21.645    6.4244
   21.660    7.0879
   21.675    6.6035
   21.690    6.8141
   21.705    6.3086
   21.720    6.4982
   21.735    6.4139
   21.750    6.9089
   21.765    6.3296
   21.780    6.3928
   21.795    6.5613
   21.810    7.0353
   21.825    7.0248
   21.840    6.5087
   21.855    6.3612
   21.870    7.0669
   21.885    6.9932
   21.900    6.9616
   21.915    6.5403
   21.930    6.8668
   21.945    7.2038
   21.960    6.9089
   21.975    6.6772
   21.990    6.8562
   22.005    6.9510
   22.020    7.1511
   22.035    7.2459
   22.050    6.7404
   22.065    7.0669
   22.080    7.0985
   22.095    7.0037
   22.110    6.8352
   22.125    6.7825
   22.140    7.1406
   22.155    6.8141
   22.170    6.8984
   22.185    6.7509
   22.200    6.7404
   22.215    6.8036
   22.230    6.8141
   22.245    6.5087
   22.260    6.5929
   22.275    6.8668
   22.290    6.6140
   22.305    6.9089
   22.320    7.0774
   22.335    6.6456
   22.350    6.7720
   22.365    6.4982
   22.380    7.0669
   22.395    6.8036
   22.410    6.6245
   22.425    6.6456
   22.440    7.0985
   22.455    6.7299
   22.470    6.4771
   22.485    6.7193
   22.500    6.9932
   22.515    6.8773
   22.530    7.4144
   22.545    6.4771
   22.560    6.5508
   22.575    6.7509
   22.590    6.7088
   22.605    6.7615
   22.620    6.5298
   22.635    6.5508
   22.650    7.0669
   22.665    6.7615
   22.680    6.4876
   22.695    6.8036
   22.710    6.8878
   22.725    6.6772
   22.740    6.6983
   22.755    6.5613
   22.770    7.0248
   22.785    6.4560
   22.800    6.6877
   22.815    6.3296
   22.830    6.9089
   22.845    6.9826
   22.860    6.6245
   22.875    6.4034
   22.890    6.8562
   22.905    6.7720
   22.920    6.6667
   22.935    6.7509
   22.950    6.5719
   22.965    6.9616
   22.980    6.7930
   22.995    6.7825
   23.010    6.5613
   23.025    6.6877
   23.040    7.1195
   23.055    7.3302
   23.070    6.7720
   23.085    6.7615
   23.100    6.6351
   23.115    6.6877
   23.130    6.6983
   23.145    6.4455
   23.160    6.2349
   23.175    6.4350
   23.190    6.4876
   23.205    6.3086
   23.220    6.5824
   23.235    6.8036
   23.250    6.7509
   23.265    6.4560
   23.280    6.8352
   23.295    6.5824
   23.310    6.6245
   23.325    6.4982
   23.340    7.0774
   23.355    7.0774
   23.370    6.8457
   23.385    6.9194
   23.400    6.8352
   23.415    6.5719
   23.430    6.7825
   23.445    6.8668
   23.460    6.7404
   23.475    6.3928
   23.490    6.5508
   23.505    6.8036
   23.520    6.3612
   23.535    6.2349
   23.550    6.1717
   23.565    6.6245
   23.580    6.6772
   23.595    6.5613
   23.610    6.4876
   23.625    6.3718
   23.640    6.5298
   23.655    6.5929
   23.670    6.5087
   23.685    6.3612
   23.700    6.7720
   23.715    6.5403
   23.730    6.7615
   23.745    6.3507
   23.760    6.4139
   23.775    7.1511
   23.790    6.5824
   23.805    6.5719
   23.820    6.8141
   23.835    6.7615
   23.850    6.2349
   23.865    6.6245
   23.880    6.3928
   23.895    6.2981
   23.910    6.3928
   23.925    6.3296
   23.940    6.4982
   23.955    6.5298
   23.970    6.7299
   23.985    6.2243
   24.000    6.2559
   24.015    6.3296
   24.030    6.5613
   24.045    6.5824
   24.060    6.6035
   24.075    6.5929
   24.090    6.6140
   24.105    6.5613
   24.120    6.5087
   24.135    6.4350
   24.150    6.4560
   24.165    6.3296
   24.180    6.2559
   24.195    6.6772
   24.210    6.4982
   24.225    6.5613
   24.240    6.7930
   24.255    6.2665
   24.270    6.6877
   24.285    6.5929
   24.300    6.5719
   24.315    6.6772
   24.330    6.7615
   24.345    6.7825
   24.360    6.1295
   24.375    6.4666
   24.390    6.3191
   24.405    6.7193
   24.420    6.6456
   24.435    6.3718
   24.450    6.1822
   24.465    6.4666
   24.480    6.8562
   24.495    6.7088
   24.510    6.4771
   24.525    6.5403
   24.540    6.5192
   24.555    6.5298
   24.570    6.2875
   24.585    6.1611
   24.600    6.1611
   24.615    6.2981
   24.630    6.4771
   24.645    6.2138
   24.660    6.2454
   24.675    6.1717
   24.690    6.3402
   24.705    5.8662
   24.720    6.2875
   24.735    6.2033
   24.750    6.5192
   24.765    6.3191
   24.780    6.4982
   24.795    6.4771
   24.810    5.8452
   24.825    6.1506
   24.840    6.4350
   24.855    6.0769
   24.870    5.9505
   24.885    6.2875
   24.900    6.3191
   24.915    6.2559
   24.930    6.4139
   24.945    6.4139
   24.960    6.3928
   24.975    6.7720
   24.990    6.9826
   25.005    6.3296
   25.020    6.2033
   25.035    6.3086
   25.050    6.2981
   25.065    6.1295
   25.080    6.3191
   25.095    6.7930
   25.110    6.3718
   25.125    6.2559
   25.140    6.1190
   25.155    6.1295
   25.170    6.3296
   25.185    6.3612
   25.200    6.2770
   25.215    6.3191
   25.230    6.4455
   25.245    6.0979
   25.260    5.8768
   25.275    6.2770
   25.290    6.3718
   25.305    6.4350
   25.320    6.2033
   25.335    6.2243
   25.350    6.4771
   25.365    6.2138
   25.380    6.4139
   25.395    6.0032
   25.410    6.3928
   25.425    6.2138
   25.440    6.0979
   25.455    6.1506
   25.470    6.4982
   25.485    6.4771
   25.500    6.4139
   25.515    5.9716
   25.530    6.3402
   25.545    6.1717
   25.560    6.0874
   25.575    6.3507
   25.590    6.4139
   25.605    6.1717
   25.620    6.0453
   25.635    6.0664
   25.650    6.6035
   25.665    6.3612
   25.680    6.2138
   25.695    6.0558
   25.710    6.3928
   25.725    6.5298
   25.740    6.1295
   25.755    6.0348
   25.770    5.9610
   25.785    6.3296
   25.800    6.3086
   25.815    6.0558
   25.830    6.4771
   25.845    6.4244
   25.860    6.1506
   25.875    6.3191
   25.890    6.2138
   25.905    5.6345
   25.920    5.8031
   25.935    6.3296
   25.950    6.0137
   25.965    6.3823
   25.980    6.3718
   25.995    6.2349
   26.010    5.9716
   26.025    6.2138
   26.040    6.4034
   26.055    6.0242
   26.070    6.0558
   26.085    6.3402
   26.100    6.3612
   26.115    6.1401
   26.130    6.0664
   26.145    6.0874
   26.160    5.8136
   26.175    6.0874
   26.190    6.4244
   26.205    6.1401
   26.220    6.0664
   26.235    6.2349
   26.250    6.1611
   26.265    6.4876
   26.280    6.2454
   26.295    5.7293
   26.310    6.0242
   26.325    6.1401
   26.340    5.8241
   26.355    6.2349
   26.370    6.0032
   26.385    5.8873
   26.400    5.8768
   26.415    6.4560
   26.430    6.2981
   26.445    5.8662
   26.460    6.1506
   26.475    6.3296
   26.490    5.7293
   26.505    6.2454
   26.520    5.8768
   26.535    5.7504
   26.550    6.0558
   26.565    6.2559
   26.580    6.2349
   26.595    6.3928
   26.610    6.1401
   26.625    5.7293
   26.640    6.2349
   26.655    5.9610
   26.670    6.2454
   26.685    5.9505
   26.700    6.0558
   26.715    5.9400
   26.730    6.0242
   26.745    5.9189
   26.760    6.0874
   26.775    6.1295
   26.790    5.7399
   26.805    6.1927
   26.820    5.8768
   26.835    5.6345
   26.850    5.6661
   26.865    5.8347
   26.880    5.7715
   26.895    6.0032
   26.910    6.0664
   26.925    6.5087
   26.940    6.4982
   26.955    5.9926
   26.970    5.8241
   26.985    5.9926
   27.000    6.1085
   27.015    5.8662
   27.030    5.6661
   27.045    6.3086
   27.060    6.0453
   27.075    5.8768
   27.090    6.1611
   27.105    5.9505
   27.120    6.0558
   27.135    5.9189
   27.150    6.1190
   27.165    5.6872
   27.180    5.8978
   27.195    6.2349
   27.210    6.1927
   27.225    5.8978
   27.240    6.0453
   27.255    6.5192
   27.270    6.2981
   27.285    6.1085
   27.300    5.9926
   27.315    5.9716
   27.330    5.7609
   27.345    5.9716
   27.360    5.9189
   27.375    5.7083
   27.390    5.8452
   27.405    5.6451
   27.420    6.2349
   27.435    6.3718
   27.450    5.8557
   27.465    6.0453
   27.480    5.7188
   27.495    6.0242
   27.510    5.6977
   27.525    5.7820
   27.540    5.6240
   27.555    5.9926
   27.570    5.9189
   27.585    5.4660
   27.600    5.6977
   27.615    5.8978
   27.630    5.7925
   27.645    5.7820
   27.660    5.5398
   27.675    5.8136
   27.690    5.6345
   27.705    5.2027
   27.720    5.7188
   27.735    5.5819
   27.750    5.3397
   27.765    5.5924
   27.780    6.0348
   27.795    5.9505
   27.810    5.5187
   27.825    5.9821
   27.840    5.9294
   27.855    5.7504
   27.870    5.8662
   27.885    5.8873
   27.900    5.6029
   27.915    5.5082
   27.930    6.2138
   27.945    5.8557
   27.960    6.1717
   27.975    5.3081
   27.990    5.7399
   28.005    5.9610
   28.020    5.8136
   28.035    5.8031
   28.050    5.8452
   28.065    5.7504
   28.080    5.4239
   28.095    5.6345
   28.110    5.7609
   28.125    5.8662
   28.140    5.9084
   28.155    6.0453
   28.170    6.0348
   28.185    6.1085
   28.200    5.9189
   28.215    5.5714
   28.230    5.6451
   28.245    5.2343
   28.260    5.6872
   28.275    5.8873
   28.290    5.6451
   28.305    5.6029
   28.320    6.0558
   28.335    6.0137
   28.350    6.0558
   28.365    6.0453
   28.380    5.6872
   28.395    5.7609
   28.410    5.6767
   28.425    5.7504
   28.440    5.5924
   28.455    5.7293
   28.470    5.6345
   28.485    5.8347
   28.500    5.7083
   28.515    5.5398
   28.530    5.5608
   28.545    5.5714
   28.560    5.7820
   28.575    5.4976
   28.590    5.6029
   28.605    5.7504
   28.620    5.5503
   28.635    5.7083
   28.650    5.5187
   28.665    5.5924
   28.680    5.2975
   28.695    5.4871
   28.710    5.6029
   28.725    5.9505
   28.740    5.7504
   28.755    5.6240
   28.770    5.5292
   28.785    5.4976
   28.800    6.0874
   28.815    6.0137
   28.830    5.5187
   28.845    5.6556
   28.860    5.4976
   28.875    5.4134
   28.890    5.8978
   28.905    5.3291
   28.920    5.7188
   28.935    5.7399
   28.950    5.9084
   28.965    5.7715
   28.980    5.6451
   28.995    5.5819
   29.010    5.7083
   29.025    5.6451
   29.040    5.4450
   29.055    5.4450
   29.070    5.6029
   29.085    5.7188
   29.100    5.8136
   29.115    5.3818
   29.130    5.4976
   29.145    5.3923
   29.160    5.4450
   29.175    5.8241
   29.190    5.7715
   29.205    5.6977
   29.220    5.4450
   29.235    5.4660
   29.250    5.5187
   29.265    5.6029
   29.280    5.7293
   29.295    5.3186
   29.310    5.7925
   29.325    5.7293
   29.340    5.3607
   29.355    5.6029
   29.370    5.6556
   29.385    5.6872
   29.400    5.6135
   29.415    5.4450
   29.430    5.5187
   29.445    5.3291
   29.460    5.0974
   29.475    5.0974
   29.490    5.5714
   29.505    5.8452
   29.520    5.5292
   29.535    5.0553
   29.550    5.6240
   29.565    5.9294
   29.580    5.4344
   29.595    5.7083
   29.610    5.3818
   29.625    5.3291
   29.640    4.9921
   29.655    5.4450
   29.670    5.5924
   29.685    5.4028
   29.700    5.0658
   29.715    5.0237
   29.730    5.4239
   29.745    5.3291
   29.760    5.5398
   29.775    5.5187
   29.790    5.4134
   29.805    5.4450
   29.820    5.2975
   29.835    5.3081
   29.850    5.1290
   29.865    5.0658
   29.880    5.3291
   29.895    5.5819
   29.910    5.4239
   29.925    5.5819
   29.940    5.3502
   29.955    5.5819
   29.970    5.4660
   29.985    5.2238
   30.000    5.1606
   30.015    5.4450
   30.030    5.5398
   30.045    5.6451
   30.060    5.5608
   30.075    5.4976
   30.090    5.3712
   30.105    5.3712
   30.120    5.2659
   30.135    5.6240
   30.150    5.7083
   30.165    5.4871
   30.180    5.3502
   30.195    5.4239
   30.210    5.3818
   30.225    5.4976
   30.240    5.5819
   30.255    5.7504
   30.270    5.3081
   30.285    5.4134
   30.300    5.3397
   30.315    5.4450
   30.330    5.2133
   30.345    5.4976
   30.360    5.2133
   30.375    5.3186
   30.390    5.3397
   30.405    5.2870
   30.420    5.5187
   30.435    5.7188
   30.450    5.4871
   30.465    5.8873
   30.480    5.4660
   30.495    5.5082
   30.510    5.2027
   30.525    5.2975
   30.540    5.7609
   30.555    5.7083
   30.570    5.0342
   30.585    5.0869
   30.600    5.3818
   30.615    5.4134
   30.630    5.4239
   30.645    5.4871
   30.660    5.3502
   30.675    5.5187
   30.690    4.9394
   30.705    5.0764
   30.720    5.4555
   30.735    5.2238
   30.750    4.9710
   30.765    5.1711
   30.780    5.4976
   30.795    5.6029
   30.810    5.3186
   30.825    5.4976
   30.840    5.5819
   30.855    5.2765
   30.870    5.2133
   30.885    5.4555
   30.900    5.1817
   30.915    5.1922
   30.930    4.8552
   30.945    5.0974
   30.960    5.1606
   30.975    5.2659
   30.990    5.1711
   31.005    5.0342
   31.020    4.9500
   31.035    5.2027
   31.050    5.1606
   31.065    4.8973
   31.080    5.4450
   31.095    5.7399
   31.110    5.4450
   31.125    5.4766
   31.140    5.2975
   31.155    5.5714
   31.170    5.3397
   31.185    5.1711
   31.200    5.5082
   31.215    5.3818
   31.230    5.2765
   31.245    5.5082
   31.260    5.2975
   31.275    5.2449
   31.290    5.2449
   31.305    5.3291
   31.320    4.9921
   31.335    5.3607
   31.350    5.0869
   31.365    5.4766
   31.380    5.4344
   31.395    5.0869
   31.410    5.1501
   31.425    5.4134
   31.440    5.2133
   31.455    5.2449
   31.470    5.0342
   31.485    5.2975
   31.500    5.0026
   31.515    5.2975
   31.530    5.2975
   31.545    5.1922
   31.560    5.2343
   31.575    5.3397
   31.590    5.2027
   31.605    5.2659
   31.620    4.8657
   31.635    5.1290
   31.650    5.4028
   31.665    5.5819
   31.680    5.5082
   31.695    5.2027
   31.710    5.2133
   31.725    5.4766
   31.740    5.5187
   31.755    5.4239
   31.770    5.0237
   31.785    5.1711
   31.800    4.8236
   31.815    5.2449
   31.830    5.0764
   31.845    4.9078
   31.860    4.9078
   31.875    4.7604
   31.890    4.8973
   31.905    5.3607
   31.920    5.2027
   31.935    4.9710
   31.950    5.3081
   31.965    5.3712
   31.980    5.0553
   31.995    4.9816
   32.010    4.6235
   32.025    4.6551
   32.040    5.1606
   32.055    5.0448
   32.070    4.8236
   32.085    4.9605
   32.100    4.8552
   32.115    5.3081
   32.130    5.4344
   32.145    5.1817
   32.160    5.0764
   32.175    4.8868
   32.190    4.8025
   32.205    5.1080
   32.220    5.3502
   32.235    4.9500
   32.250    4.9605
   32.265    4.6761
   32.280    4.8552
   32.295    5.0658
   32.310    5.2027
   32.325    4.8236
   32.340    5.0132
   32.355    5.2449
   32.370    5.0132
   32.385    4.9605
   32.400    5.0342
   32.415    4.7077
   32.430    4.8552
   32.445    4.8657
   32.460    5.0553
   32.475    5.1290
   32.490    4.8025
   32.505    4.8657
   32.520    5.0132
   32.535    5.0026
   32.550    4.9078
   32.565    5.2343
   32.580    4.9289
   32.595    4.9394
   32.610    5.0448
   32.625    4.9816
   32.640    5.0237
   32.655    4.7499
   32.670    4.9710
   32.685    5.3818
   32.700    4.8447
   32.715    5.1290
   32.730    5.2975
   32.745    4.7815
   32.760    4.7288
   32.775    4.9500
   32.790    5.0869
   32.805    5.1817
   32.820    5.2554
   32.835    4.9710
   32.850    5.1922
   32.865    5.0553
   32.880    4.8973
   32.895    4.8236
   32.910    4.8341
   32.925    4.8657
   32.940    4.8341
   32.955    4.8763
   32.970    4.6551
   32.985    4.7920
   33.000    4.9394
   33.015    4.5498
   33.030    5.0237
   33.045    4.8552
   33.060    4.7604
   33.075    4.9289
   33.090    4.8763
   33.105    4.6972
   33.120    4.7709
   33.135    4.8025
   33.150    5.0132
   33.165    4.9394
   33.180    5.0869
   33.195    4.8763
   33.210    4.8236
   33.225    4.7183
   33.240    4.8236
   33.255    5.0869
   33.270    4.9500
   33.285    5.2975
   33.300    4.9500
   33.315    5.3712
   33.330    5.0553
   33.345    5.0764
   33.360    5.1185
   33.375    4.7709
   33.390    4.6761
   33.405    4.7604
   33.420    4.7604
   33.435    4.8973
   33.450    4.8973
   33.465    4.8763
   33.480    5.1290
   33.495    4.9078
   33.510    4.8025
   33.525    4.7920
   33.540    4.6024
   33.555    4.9078
   33.570    5.1185
   33.585    4.7183
   33.600    4.9184
   33.615    4.8973
   33.630    4.7709
   33.645    5.0026
   33.660    5.1606
   33.675    5.2343
   33.690    4.8763
   33.705    4.8973
   33.720    4.4760
   33.735    4.8341
   33.750    4.5392
   33.765    4.4655
   33.780    4.4866
   33.795    4.5814
   33.810    4.6024
   33.825    4.8763
   33.840    4.8552
   33.855    4.5392
   33.870    4.9184
   33.885    4.9710
   33.900    4.8025
   33.915    4.5603
   33.930    4.6235
   33.945    4.8341
   33.960    4.8973
   33.975    4.7920
   33.990    4.9289
   34.005    4.6235
   34.020    4.7288
   34.035    5.0237
   34.050    4.5498
   34.065    4.6235
   34.080    4.4550
   34.095    4.5182
   34.110    4.4023
   34.125    4.8763
   34.140    4.6761
   34.155    4.6656
   34.170    4.8973
   34.185    5.1501
   34.200    4.4866
   34.215    4.6761
   34.230    4.8025
   34.245    4.9710
   34.260    4.9184
   34.275    4.5287
   34.290    4.9078
   34.305    4.6445
   34.320    4.3813
   34.335    4.7077
   34.350    4.5603
   34.365    4.5287
   34.380    4.4339
   34.395    4.6761
   34.410    4.6130
   34.425    4.4971
   34.440    4.6024
   34.455    4.5392
   34.470    4.8131
   34.485    4.6867
   34.500    4.6551
   34.515    4.3813
   34.530    4.7183
   34.545    4.6867
   34.560    4.8341
   34.575    4.5708
   34.590    4.5076
   34.605    4.5182
   34.620    4.8131
   34.635    4.7499
   34.650    4.4866
   34.665    4.8552
   34.680    4.8447
   34.695    4.6551
   34.710    4.5392
   34.725    4.4339
   34.740    4.6761
   34.755    4.8973
   34.770    4.6551
   34.785    4.5498
   34.800    4.5814
   34.815    4.8447
   34.830    4.7288
   34.845    4.5287
   34.860    4.3497
   34.875    4.4550
   34.890    4.7288
   34.905    4.6235
   34.920    4.8868
   34.935    4.4971
   34.950    4.2759
   34.965    4.6867
   34.980    4.6972
   34.995    4.6340
   35.010    4.4866
   35.025    4.4866
   35.040    4.6340
   35.055    4.5076
   35.070    4.5182
   35.085    4.4339
   35.100    4.5919
   35.115    4.6656
   35.130    4.5708
   35.145    4.6761
   35.160    4.4444
   35.175    4.4655
   35.190    4.7709
   35.205    4.7709
   35.220    4.8131
   35.235    4.5287
   35.250    4.6867
   35.265    4.3602
   35.280    4.3391
   35.295    4.8025
   35.310    4.6551
   35.325    4.6867
   35.340    4.6445
   35.355    4.7709
   35.370    4.7815
   35.385    4.5814
   35.400    4.6235
   35.415    4.3707
   35.430    4.6340
   35.445    4.6551
   35.460    4.2443
   35.475    4.2654
   35.490    4.1180
   35.505    4.4339
   35.520    4.4234
   35.535    4.5603
   35.550    4.6445
   35.565    4.4550
   35.580    4.0969
   35.595    4.2443
   35.610    4.5287
   35.625    4.7077
   35.640    4.3813
   35.655    4.4339
   35.670    4.4023
   35.685    4.4444
   35.700    4.4023
   35.715    4.6761
   35.730    4.8131
   35.745    4.5498
   35.760    4.5919
   35.775    4.5287
   35.790    4.4128
   35.805    4.5708
   35.820    4.7288
   35.835    4.3602
   35.850    4.2549
   35.865    4.3602
   35.880    4.5392
   35.895    4.5708
   35.910    4.3602
   35.925    4.2759
   35.940    4.4655
   35.955    4.7393
   35.970    4.2759
   35.985    4.6867
   36.000    4.7077
   36.015    4.8552
   36.030    4.6235
   36.045    4.3813
   36.060    4.4128
   36.075    4.6340
   36.090    4.2127
   36.105    4.3286
   36.120    4.4550
   36.135    4.3918
   36.150    4.2022
   36.165    4.7393
   36.180    4.7393
   36.195    4.6867
   36.210    4.4971
   36.225    4.4866
   36.240    4.5708
   36.255    4.7604
   36.270    4.5498
   36.285    4.5287
   36.300    4.6235
   36.315    4.6024
   36.330    4.7815
   36.345    4.6340
   36.360    4.1706
   36.375    4.4128
   36.390    4.3181
   36.405    4.4339
   36.420    4.3707
   36.435    4.4339
   36.450    4.4971
   36.465    4.3391
   36.480    4.6340
   36.495    4.0969
   36.510    4.3391
   36.525    4.5708
   36.540    4.6445
   36.555    4.9394
   36.570    4.5392
   36.585    4.3813
   36.600    4.3391
   36.615    4.6024
   36.630    4.3286
   36.645    4.8236
   36.660    4.6551
   36.675    4.4550
   36.690    4.3497
   36.705    4.6340
   36.720    4.6024
   36.735    4.5814
   36.750    4.3181
   36.765    4.2865
   36.780    4.4866
   36.795    4.3497
   36.810    4.0126
   36.825    4.4023
   36.840    4.4550
   36.855    4.3497
   36.870    4.6235
   36.885    4.4760
   36.900    4.2654
   36.915    4.4339
   36.930    4.2970
   36.945    4.4866
   36.960    4.2127
   36.975    4.5392
   36.990    4.7393
   37.005    4.5814
   37.020    4.3391
   37.035    4.2759
   37.050    4.7709
   37.065    4.4655
   37.080    4.3707
   37.095    4.4866
   37.110    4.3391
   37.125    4.2127
   37.140    4.4444
   37.155    4.5287
   37.170    4.5919
   37.185    4.5392
   37.200    4.4023
   37.215    4.3602
   37.230    4.2233
   37.245    4.3075
   37.260    4.3602
   37.275    4.1706
   37.290    4.3075
   37.305    4.7077
   37.320    4.8657
   37.335    4.5287
   37.350    4.1601
   37.365    4.2338
   37.380    4.4866
   37.395    4.4655
   37.410    4.1285
   37.425    4.6761
   37.440    4.5919
   37.455    4.7604
   37.470    4.5603
   37.485    4.4128
   37.500    4.2127
   37.515    4.3181
   37.530    4.2865
   37.545    4.3181
   37.560    4.2865
   37.575    4.1601
   37.590    4.2233
   37.605    4.5076
   37.620    4.6130
   37.635    4.4234
   37.650    4.4234
   37.665    4.4550
   37.680    4.4444
   37.695    4.4444
   37.710    4.1390
   37.725    4.4444
   37.740    4.2022
   37.755    4.8763
   37.770    4.5182
   37.785    4.3813
   37.800    4.3707
   37.815    3.9389
   37.830    4.1811
   37.845    4.3497
   37.860    4.0126
   37.875    4.4550
   37.890    4.3918
   37.905    4.6130
   37.920    4.2022
   37.935    4.3497
   37.950    4.4128
   37.965    4.3918
   37.980    4.0232
   37.995    4.7077
   38.010    4.6972
   38.025    4.6761
   38.040    4.2970
   38.055    4.1917
   38.070    4.1074
   38.085    4.1180
   38.100    4.3918
   38.115    4.4234
   38.130    4.5392
   38.145    4.3286
   38.160    4.2549
   38.175    4.4023
   38.190    4.2865
   38.205    4.3181
   38.220    4.0969
   38.235    4.1496
   38.250    4.1496
   38.265    4.2338
   38.280    4.3707
   38.295    4.2970
   38.310    4.1390
   38.325    4.3602
   38.340    4.2443
   38.355    4.4234
   38.370    4.5708
   38.385    4.3181
   38.400    4.6340
   38.415    4.3497
   38.430    4.2970
   38.445    4.0442
   38.460    4.2443
   38.475    4.4866
   38.490    4.4444
   38.505    4.4339
   38.520    4.7183
   38.535    4.7183
   38.550    4.4760
   38.565    4.3181
   38.580    4.2233
   38.595    4.0758
   38.610    4.3181
   38.625    4.6235
   38.640    4.4866
   38.655    4.7604
   38.670    4.3497
   38.685    4.1811
   38.700    4.1074
   38.715    4.1706
   38.730    4.1496
   38.745    4.2233
   38.760    4.2338
   38.775    4.3602
   38.790    4.5392
   38.805    4.2759
   38.820    4.4339
   38.835    4.2865
   38.850    4.3181
   38.865    4.4023
   38.880    4.5182
   38.895    4.5814
   38.910    4.0337
   38.925    4.2127
   38.940    4.2443
   38.955    4.2970
   38.970    4.4339
   38.985    4.4339
   39.000    4.2654
   39.015    4.2865
   39.030    4.2759
   39.045    4.5603
   39.060    4.5603
   39.075    4.3813
   39.090    4.5076
   39.105    4.1917
   39.120    4.4234
   39.135    4.2022
   39.150    4.1180
   39.165    4.2654
   39.180    4.5708
   39.195    4.3602
   39.210    4.4234
   39.225    4.5182
   39.240    4.3602
   39.255    4.0442
   39.270    4.3286
   39.285    4.5392
   39.300    3.9705
   39.315    4.2127
   39.330    4.3497
   39.345    4.6867
   39.360    4.4444
   39.375    4.1074
   39.390    4.2970
   39.405    4.3286
   39.420    4.4550
   39.435    4.3813
   39.450    4.3181
   39.465    4.2338
   39.480    4.1601
   39.495    4.1285
   39.510    4.1074
   39.525    4.0126
   39.540    4.2970
   39.555    4.1074
   39.570    4.2654
   39.585    4.7499
   39.600    4.3497
   39.615    4.2865
   39.630    4.3497
   39.645    4.4655
   39.660    4.4760
   39.675    4.7604
   39.690    4.4550
   39.705    4.0758
   39.720    4.4339
   39.735    4.2338
   39.750    4.3813
   39.765    4.3181
   39.780    4.5708
   39.795    4.7920
   39.810    4.5603
   39.825    4.4023
   39.840    4.3181
   39.855    4.4339
   39.870    4.4128
   39.885    4.4655
   39.900    4.3813
   39.915    4.4339
   39.930    4.0548
   39.945    4.2233
   39.960    4.2970
   39.975    4.2865
   39.990    4.1285
