    1.500   19.3435
    1.515   19.4137
    1.530   19.2733
    1.545   18.7994
    1.560   18.8871
    1.575   18.6940
    1.590   18.6414
    1.605   17.9042
    1.620   16.7983
    1.635   17.0967
    1.650   17.8866
    1.665   17.1845
    1.680   16.2717
    1.695   16.0786
    1.710   16.5526
    1.725   15.5345
    1.740   15.9031
    1.755   16.2366
    1.770   15.7978
    1.785   15.0606
    1.800   14.6393
    1.815   14.8148
    1.830   14.8499
    1.845   13.5861
    1.860   13.7792
    1.875   14.1302
    1.890   14.1654
    1.905   13.7441
    1.920   13.8494
    1.935   13.5685
    1.950   14.0425
    1.965   13.3052
    1.980   13.0244
    1.995   13.7090
    2.010   13.2175
    2.025   12.8313
    2.040   12.3574
    2.055   12.8489
    2.070   12.8138
    2.085   12.6733
    2.100   11.9361
    2.115   11.9010
    2.130   12.2872
    2.145   12.0590
    2.160   12.0941
    2.175   12.0941
    2.190   12.5856
    2.205   12.0941
    2.220   12.2872
    2.235   11.8132
    2.250   12.3398
    2.265   12.1116
    2.280   12.0063
    2.295   11.7255
    2.310   11.7957
    2.325   12.1994
    2.340   11.6728
    2.355   11.8483
    2.370   12.3047
    2.385   11.4271
    2.400   11.8132
    2.415   12.0414
    2.430   12.5154
    2.445   12.4451
    2.460   11.8132
    2.475   11.6202
    2.490   11.6553
    2.505   11.7781
    2.520   11.5324
    2.535   11.6728
    2.550   11.8834
    2.565   11.5499
    2.580   11.5850
    2.595   12.0765
    2.610   12.6382
    2.625   11.3569
    2.640   12.2872
    2.655   12.4100
    2.670   11.8483
    2.685   12.2521
    2.700   12.1819
    2.715   12.5154
    2.730   12.1467
    2.745   12.3223
    2.760   12.9015
    2.775   12.7787
    2.790   12.7611
    2.805   12.5505
    2.820   13.0946
    2.835   13.3052
    2.850   13.7090
    2.865   13.3228
    2.880   13.2877
    2.895   13.3579
    2.910   13.4457
    2.925   13.4808
    2.940   13.7265
    2.955   13.4632
    2.970   14.3760
    2.985   13.7792
    3.000   14.5515
    3.015   15.0781
    3.030   14.7095
    3.045   14.6217
    3.060   15.0430
    3.075   14.6217
    3.090   15.5169
    3.105   15.9909
    3.120   16.4121
    3.135   16.1840
    3.150   16.9212
    3.165   16.8334
    3.180   17.3951
    3.195   17.0265
    3.210   17.5355
    3.225   17.9042
    3.240   18.8169
    3.255   18.7467
    3.270   19.7999
    3.285   19.0451
    3.300   19.7648
    3.315   20.8706
    3.330   20.8180
    3.345   22.5382
    3.360   22.6084
    3.375   22.6259
    3.390   23.0999
    3.405   23.8722
    3.420   24.0302
    3.435   24.6621
    3.450   25.6626
    3.465   26.4525
    3.480   27.5935
    3.495   27.8919
    3.510   29.5068
    3.525   30.7530
    3.540   32.3328
    3.555   32.5083
    3.570   34.0881
    3.585   35.6854
    3.600   37.4057
    3.615   40.1615
    3.630   41.9870
    3.645   43.8301
    3.660   45.7258
    3.675   48.4817
    3.690   51.5886
    3.705   53.6949
    3.720   57.5215
    3.735   62.1731
    3.750   68.5975
    3.765   75.0219
    3.780   83.6054
    3.795   96.4894
    3.810  111.4271
    3.825  127.5233
    3.840  132.5259
    3.855  127.6461
    3.870  109.1803
    3.885   86.4139
    3.900   57.8550
    3.915   34.1057
    3.930   20.8882
    3.945   14.5691
    3.960   12.3749
    3.975   11.0936
    3.990   10.7600
    4.005    9.9351
    4.020    9.8999
    4.035    9.1803
    4.050    8.6888
    4.065    8.8643
    4.080    8.6888
    4.095    8.4781
    4.110    8.3377
    4.125    8.4957
    4.140    8.1797
    4.155    7.7585
    4.170    7.4074
    4.185    7.4425
    4.200    7.4601
    4.215    7.4074
    4.230    7.8287
    4.245    7.4074
    4.260    7.6883
    4.275    7.9516
    4.290    7.9164
    4.305    7.7760
    4.320    7.8462
    4.335    7.2670
    4.350    7.1792
    4.365    7.6532
    4.380    7.8111
    4.395    7.4250
    4.410    7.6532
    4.425    7.4425
    4.440    7.1617
    4.455    7.3723
    4.470    6.8106
    4.485    7.4074
    4.500    7.5478
    4.515    7.6005
    4.530    7.0212
    4.545    6.9510
    4.560    7.4776
    4.575    7.2845
    4.590    7.3021
    4.605    7.3547
    4.620    7.5127
    4.635    6.7930
    4.650    6.9686
    4.665    7.5303
    4.680    7.0388
    4.695    7.5478
    4.710    7.0739
    4.725    6.8106
    4.740    7.6356
    4.755    8.0218
    4.770    8.1446
    4.785    7.2670
    4.800    7.5654
    4.815    7.3899
    4.830    7.4952
    4.845    7.8287
    4.860    7.7936
    4.875    7.5127
    4.890    6.8808
    4.905    6.8633
    4.920    7.7409
    4.935    7.7585
    4.950    7.8287
    4.965    7.9340
    4.980    8.4606
    4.995    8.2675
    5.010    7.8462
    5.025    8.7941
    5.040    8.6888
    5.055    7.6883
    5.070    8.3553
    5.085    8.5484
    5.100    8.1622
    5.115    8.8994
    5.130    8.1622
    5.145    8.9696
    5.160    8.5484
    5.175    9.2856
    5.190    9.0047
    5.205    8.9345
    5.220    9.8824
    5.235   10.5845
    5.250   10.7249
    5.265   10.6021
    5.280   10.3739
    5.295   11.2340
    5.310   11.3744
    5.325   12.0239
    5.340   12.6031
    5.355   13.4281
    5.370   13.8494
    5.385   14.8499
    5.400   15.8856
    5.415   17.1318
    5.430   19.1329
    5.445   21.6956
    5.460   23.1525
    5.475   22.9595
    5.490   20.7478
    5.505   17.3951
    5.520   13.6563
    5.535   10.7600
    5.550    8.7941
    5.565    7.5654
    5.580    6.4244
    5.595    6.7755
    5.610    7.1266
    5.625    7.0037
    5.640    6.6877
    5.655    7.0037
    5.670    6.7579
    5.685    6.6000
    5.700    6.7053
    5.715    6.6526
    5.730    6.4595
    5.745    6.4420
    5.760    6.1962
    5.775    6.6175
    5.790    6.1260
    5.805    6.2665
    5.820    7.1617
    5.835    6.5649
    5.850    6.7930
    5.865    6.6526
    5.880    6.8457
    5.895    6.7404
    5.910    6.6526
    5.925    6.8457
    5.940    6.5473
    5.955    6.5649
    5.970    6.4420
    5.985    6.4595
    6.000    6.8633
    6.015    6.7579
    6.030    6.4244
    6.045    6.6000
    6.060    6.8457
    6.075    6.7755
    6.090    6.9159
    6.105    6.5649
    6.120    6.3367
    6.135    6.8984
    6.150    6.6526
    6.165    6.7930
    6.180    6.9510
    6.195    6.6877
    6.210    7.0388
    6.225    7.0739
    6.240    6.9335
    6.255    6.3367
    6.270    7.0739
    6.285    6.8457
    6.300    6.6877
    6.315    6.8457
    6.330    6.6351
    6.345    6.9686
    6.360    7.3196
    6.375    6.9510
    6.390    7.6532
    6.405    7.2845
    6.420    7.4250
    6.435    7.3547
    6.450    6.8457
    6.465    7.7058
    6.480    8.0042
    6.495    8.0393
    6.510    8.3026
    6.525    8.8292
    6.540    8.2500
    6.555    8.6537
    6.570    8.9872
    6.585    8.8468
    6.600    9.2856
    6.615    9.8824
    6.630    9.7946
    6.645   11.0760
    6.660   11.1111
    6.675   11.8132
    6.690   13.2701
    6.705   13.1473
    6.720   13.8845
    6.735   12.9542
    6.750   11.6728
    6.765    9.8824
    6.780    8.7941
    6.795    7.4074
    6.810    7.4425
    6.825    6.9510
    6.840    6.9159
    6.855    6.8282
    6.870    6.4244
    6.885    6.2489
    6.900    6.2665
    6.915    6.3191
    6.930    6.2313
    6.945    6.4946
    6.960    5.9154
    6.975    5.9856
    6.990    6.2313
    7.005    6.5122
    7.020    6.2489
    7.035    6.4244
    7.050    6.7404
    7.065    6.3016
    7.080    6.3718
    7.095    6.6000
    7.110    6.5122
    7.125    6.1260
    7.140    6.1962
    7.155    6.4771
    7.170    6.7579
    7.185    6.4069
    7.200    5.9154
    7.215    6.0558
    7.230    6.1436
    7.245    6.5649
    7.260    6.0909
    7.275    6.6526
    7.290    6.6877
    7.305    6.8457
    7.320    6.5824
    7.335    6.6526
    7.350    6.4946
    7.365    6.4595
    7.380    6.6000
    7.395    6.0383
    7.410    6.2665
    7.425    6.3893
    7.440    6.9335
    7.455    6.6175
    7.470    7.1441
    7.485    6.7755
    7.500    6.6175
    7.515    7.1792
    7.530    6.6877
    7.545    6.9335
    7.560    7.1617
    7.575    7.4601
    7.590    7.6532
    7.605    7.6707
    7.620    7.5478
    7.635    7.6707
    7.650    7.8638
    7.665    8.1797
    7.680    8.8468
    7.695    9.1452
    7.710    9.8824
    7.725   10.1808
    7.740   10.8829
    7.755   11.2164
    7.770   11.6904
    7.785   10.9882
    7.800   10.1808
    7.815    8.8468
    7.830    7.6356
    7.845    7.0739
    7.860    6.5122
    7.875    6.2489
    7.890    6.4595
    7.905    6.0909
    7.920    6.2840
    7.935    5.9856
    7.950    5.8803
    7.965    6.5298
    7.980    6.5122
    7.995    6.4946
    8.010    6.1436
    8.025    6.2138
    8.040    6.1611
    8.055    6.0734
    8.070    6.5473
    8.085    6.6351
    8.100    6.5298
    8.115    5.8452
    8.130    6.0207
    8.145    6.2313
    8.160    5.7750
    8.175    6.2840
    8.190    6.0734
    8.205    5.9505
    8.220    6.2665
    8.235    6.1787
    8.250    6.1611
    8.265    6.2313
    8.280    6.3367
    8.295    5.9856
    8.310    6.1436
    8.325    5.9681
    8.340    6.1962
    8.355    6.2840
    8.370    6.0383
    8.385    6.1787
    8.400    5.8101
    8.415    6.0207
    8.430    6.7053
    8.445    6.3191
    8.460    6.3367
    8.475    5.9329
    8.490    6.4244
    8.505    6.3718
    8.520    6.5298
    8.535    6.8808
    8.550    6.2665
    8.565    6.9510
    8.580    6.8106
    8.595    6.7755
    8.610    6.6702
    8.625    6.4420
    8.640    6.4946
    8.655    6.6877
    8.670    7.1090
    8.685    7.2845
    8.700    7.3547
    8.715    7.3021
    8.730    7.0212
    8.745    6.1787
    8.760    6.5122
    8.775    6.3718
    8.790    6.0734
    8.805    5.6872
    8.820    5.5292
    8.835    5.8276
    8.850    6.1787
    8.865    6.1787
    8.880    6.0558
    8.895    5.9681
    8.910    5.8803
    8.925    6.2138
    8.940    6.2489
    8.955    6.4420
    8.970    6.8457
    8.985    6.7228
    9.000    6.3191
    9.015    6.2313
    9.030    6.7228
    9.045    6.9510
    9.060    6.3542
    9.075    6.3367
    9.090    6.1085
    9.105    6.1611
    9.120    6.6877
    9.135    6.8633
    9.150    6.6877
    9.165    6.9686
    9.180    7.7409
    9.195    7.4952
    9.210    7.4776
    9.225    7.4425
    9.240    7.9164
    9.255    7.6005
    9.270    8.0218
    9.285    8.2675
    9.300    8.4606
    9.315    8.6888
    9.330    8.7765
    9.345    8.7590
    9.360    9.8473
    9.375   10.6898
    9.390   10.7776
    9.405   12.0063
    9.420   12.6207
    9.435   12.5329
    9.450   14.0776
    9.465   15.3941
    9.480   17.5355
    9.495   20.5722
    9.510   21.5903
    9.525   23.3632
    9.540   23.4509
    9.555   20.5898
    9.570   17.0441
    9.585   13.7616
    9.600   10.7425
    9.615    8.6537
    9.630    8.1446
    9.645    7.2845
    9.660    7.2494
    9.675    7.1441
    9.690    6.1085
    9.705    6.0207
    9.720    6.3718
    9.735    6.1962
    9.750    6.6526
    9.765    6.5298
    9.780    6.5122
    9.795    6.1611
    9.810    6.3542
    9.825    6.1260
    9.840    6.5473
    9.855    5.9505
    9.870    6.6351
    9.885    6.5473
    9.900    6.5473
    9.915    6.6702
    9.930    6.5824
    9.945    6.7579
    9.960    6.5298
    9.975    6.7228
    9.990    6.6877
   10.005    6.3367
   10.020    6.4771
   10.035    7.2494
   10.050    7.2319
   10.065    7.1968
   10.080    6.7579
   10.095    7.4074
   10.110    7.9691
   10.125    7.5654
   10.140    7.7760
   10.155    7.8813
   10.170    7.6707
   10.185    9.1276
   10.200    9.4260
   10.215   10.3037
   10.230   10.6196
   10.245   11.2164
   10.260   12.9893
   10.275   13.4983
   10.290   14.4286
   10.305   14.3233
   10.320   13.8845
   10.335   12.9717
   10.350   11.0058
   10.365    8.6888
   10.380    7.8813
   10.395    7.1792
   10.410    6.4946
   10.425    6.3718
   10.440    6.6526
   10.455    6.5473
   10.470    6.4069
   10.485    6.1085
   10.500    6.2313
   10.515    6.7228
   10.530    6.0207
   10.545    6.0558
   10.560    6.1085
   10.575    6.2489
   10.590    6.3893
   10.605    6.4771
   10.620    6.7053
   10.635    6.5473
   10.650    6.4771
   10.665    6.4771
   10.680    5.9329
   10.695    6.4420
   10.710    6.3016
   10.725    6.2138
   10.740    6.2665
   10.755    6.5824
   10.770    6.3542
   10.785    6.5649
   10.800    6.2840
   10.815    7.0739
   10.830    7.1090
   10.845    7.1090
   10.860    7.3723
   10.875    7.1441
   10.890    7.4601
   10.905    8.0042
   10.920    7.4952
   10.935    8.7414
   10.950    9.3031
   10.965    9.5313
   10.980   10.2686
   10.995   10.8478
   11.010   10.9005
   11.025   10.8478
   11.040   10.7776
   11.055   10.1983
   11.070    8.4255
   11.085    7.8813
   11.100    6.6877
   11.115    6.6000
   11.130    6.6175
   11.145    5.9154
   11.160    6.2313
   11.175    6.6526
   11.190    6.4771
   11.205    5.6345
   11.220    5.4064
   11.235    6.1436
   11.250    5.9856
   11.265    6.3718
   11.280    6.1260
   11.295    6.0383
   11.310    5.8276
   11.325    6.2840
   11.340    6.1260
   11.355    6.1436
   11.370    6.1085
   11.385    5.9505
   11.400    5.7048
   11.415    5.6170
   11.430    6.4595
   11.445    6.2313
   11.460    5.8803
   11.475    7.0037
   11.490    7.3196
   11.505    7.2845
   11.520    7.2143
   11.535    7.6532
   11.550    7.1441
   11.565    7.6356
   11.580    7.5303
   11.595    8.5484
   11.610    8.5659
   11.625    9.0047
   11.640    9.8648
   11.655   10.4090
   11.670   11.1813
   11.685   11.9537
   11.700   11.6553
   11.715   11.7255
   11.730    9.8473
   11.745    9.1803
   11.760    8.4781
   11.775    7.5654
   11.790    6.5122
   11.805    6.0383
   11.820    6.1085
   11.835    6.2138
   11.850    5.9505
   11.865    6.3367
   11.880    6.4771
   11.895    6.1436
   11.910    5.6170
   11.925    6.2313
   11.940    5.9329
   11.955    5.7048
   11.970    5.8803
   11.985    5.9681
   12.000    5.8627
   12.015    5.4766
   12.030    5.6345
   12.045    5.5117
   12.060    5.6345
   12.075    5.6345
   12.090    5.9681
   12.105    6.1260
   12.120    5.9154
   12.135    5.8978
   12.150    5.7574
   12.165    5.7399
   12.180    5.4239
   12.195    5.6697
   12.210    5.6521
   12.225    5.5117
   12.240    5.8452
   12.255    6.1611
   12.270    6.5122
   12.285    6.4069
   12.300    6.6351
   12.315    6.2313
   12.330    6.4420
   12.345    6.7053
   12.360    6.6351
   12.375    6.5473
   12.390    6.4420
   12.405    5.6697
   12.420    5.3888
   12.435    5.9329
   12.450    6.0032
   12.465    5.6345
   12.480    5.2659
   12.495    5.3186
   12.510    5.7925
   12.525    5.7925
   12.540    5.8978
   12.555    6.3016
   12.570    5.8452
   12.585    6.0383
   12.600    5.6697
   12.615    5.8101
   12.630    5.6170
   12.645    5.8101
   12.660    6.0558
   12.675    5.9154
   12.690    5.9329
   12.705    5.8452
   12.720    6.3718
   12.735    6.3191
   12.750    6.3718
   12.765    6.3542
   12.780    6.0207
   12.795    6.8984
   12.810    7.2494
   12.825    7.4425
   12.840    7.2143
   12.855    7.4250
   12.870    7.8638
   12.885    8.5835
   12.900    9.5840
   12.915   10.7425
   12.930   11.5850
   12.945   11.3217
   12.960   10.5845
   12.975    9.7771
   12.990    8.6537
   13.005    8.2675
   13.020    6.9510
   13.035    6.3191
   13.050    5.6521
   13.065    5.7574
   13.080    5.6521
   13.095    5.5819
   13.110    5.5292
   13.125    5.4941
   13.140    5.5819
   13.155    5.8803
   13.170    5.9681
   13.185    5.6697
   13.200    6.0383
   13.215    5.8276
   13.230    5.5292
   13.245    5.8978
   13.260    5.2133
   13.275    6.0558
   13.290    5.9856
   13.305    5.3186
   13.320    5.7399
   13.335    5.6872
   13.350    5.8101
   13.365    5.2835
   13.380    5.3888
   13.395    6.0558
   13.410    6.0909
   13.425    6.1260
   13.440    6.2313
   13.455    6.7053
   13.470    7.1792
   13.485    7.3723
   13.500    7.8462
   13.515    7.7058
   13.530    7.6883
   13.545    7.5829
   13.560    7.1968
   13.575    6.8457
   13.590    7.1090
   13.605    6.4946
   13.620    5.5117
   13.635    5.4590
   13.650    5.7399
   13.665    5.5468
   13.680    5.3361
   13.695    5.3537
   13.710    5.5468
   13.725    6.0383
   13.740    5.7223
   13.755    5.7399
   13.770    5.5117
   13.785    5.4415
   13.800    5.7048
   13.815    5.7750
   13.830    5.7399
   13.845    5.4766
   13.860    5.4415
   13.875    5.7048
   13.890    6.2138
   13.905    6.1787
   13.920    6.2840
   13.935    5.5819
   13.950    5.8627
   13.965    6.0909
   13.980    7.0915
   13.995    6.4771
   14.010    6.4771
   14.025    7.1441
   14.040    7.4776
   14.055    7.9867
   14.070    8.1622
   14.085    7.9340
   14.100    7.4425
   14.115    7.6005
   14.130    7.3021
   14.145    6.4771
   14.160    6.1787
   14.175    5.8978
   14.190    6.0909
   14.205    6.0558
   14.220    5.9505
   14.235    6.1787
   14.250    5.6170
   14.265    5.4415
   14.280    5.9681
   14.295    5.3888
   14.310    5.5117
   14.325    5.6170
   14.340    5.5117
   14.355    5.7399
   14.370    5.6345
   14.385    5.6697
   14.400    6.1436
   14.415    5.9856
   14.430    5.7399
   14.445    5.8978
   14.460    5.0553
   14.475    5.3186
   14.490    5.2835
   14.505    5.5819
   14.520    5.7925
   14.535    5.8803
   14.550    5.9329
   14.565    5.7399
   14.580    5.7574
   14.595    5.0553
   14.610    5.5643
   14.625    6.1962
   14.640    5.6697
   14.655    5.1431
   14.670    5.5643
   14.685    5.8978
   14.700    5.5468
   14.715    5.5468
   14.730    5.5819
   14.745    5.8627
   14.760    5.4239
   14.775    5.6170
   14.790    5.3712
   14.805    6.0383
   14.820    5.8627
   14.835    5.9329
   14.850    5.7750
   14.865    5.5468
   14.880    5.8276
   14.895    5.5292
   14.910    5.8627
   14.925    6.3016
   14.940    5.9154
   14.955    6.1436
   14.970    6.0207
   14.985    5.8276
   15.000    5.9329
   15.015    5.8803
   15.030    5.6345
   15.045    5.9856
   15.060    5.9329
   15.075    5.9681
   15.090    6.0558
   15.105    5.9856
   15.120    6.6702
   15.135    5.8978
   15.150    6.1962
   15.165    5.7925
   15.180    6.2313
   15.195    6.4595
   15.210    6.1787
   15.225    5.8452
   15.240    5.9154
   15.255    5.9329
   15.270    5.9681
   15.285    5.7925
   15.300    6.3191
   15.315    5.8803
   15.330    5.8452
   15.345    6.0909
   15.360    5.7925
   15.375    5.6170
   15.390    5.5643
   15.405    5.6697
   15.420    5.7399
   15.435    5.9154
   15.450    5.9154
   15.465    5.6345
   15.480    5.6872
   15.495    5.3712
   15.510    5.6521
   15.525    5.8452
   15.540    5.9154
   15.555    5.8452
   15.570    5.7048
   15.585    5.7399
   15.600    5.7399
   15.615    5.4415
   15.630    5.6345
   15.645    5.3186
   15.660    5.3010
   15.675    5.9505
   15.690    5.9329
   15.705    6.0909
   15.720    5.7048
   15.735    5.4941
   15.750    5.9154
   15.765    5.6170
   15.780    5.6170
   15.795    5.7223
   15.810    5.9856
   15.825    5.2835
   15.840    5.7925
   15.855    5.1782
   15.870    5.6170
   15.885    5.9329
   15.900    5.9856
   15.915    5.4941
   15.930    5.4941
   15.945    5.3537
   15.960    5.5819
   15.975    5.4590
   15.990    5.3712
   16.005    6.1436
   16.020    6.7228
   16.035    6.1611
   16.050    6.0558
   16.065    7.4074
   16.080    7.2845
   16.095    6.9510
   16.110    6.8633
   16.125    7.2494
   16.140    7.1266
   16.155    7.0212
   16.170    6.7404
   16.185    6.6526
   16.200    5.9681
   16.215    6.0032
   16.230    5.5994
   16.245    5.8452
   16.260    5.9154
   16.275    5.7750
   16.290    6.1085
   16.305    5.7574
   16.320    5.3537
   16.335    5.4415
   16.350    5.3361
   16.365    5.5819
   16.380    6.0383
   16.395    6.3016
   16.410    6.1436
   16.425    6.3893
   16.440    6.1085
   16.455    6.6702
   16.470    6.1085
   16.485    5.8627
   16.500    6.3893
   16.515    6.8633
   16.530    6.8106
   16.545    6.8457
   16.560    6.8282
   16.575    7.6356
   16.590    8.0744
   16.605    7.2845
   16.620    7.4425
   16.635    7.4425
   16.650    6.5473
   16.665    6.7930
   16.680    6.0032
   16.695    6.2489
   16.710    6.1436
   16.725    5.7048
   16.740    5.9329
   16.755    5.5117
   16.770    5.3537
   16.785    5.8452
   16.800    5.8803
   16.815    5.7574
   16.830    6.0909
   16.845    6.0207
   16.860    5.5994
   16.875    6.0734
   16.890    6.1787
   16.905    5.7925
   16.920    6.8282
   16.935    6.3542
   16.950    6.8106
   16.965    7.1617
   16.980    7.6532
   16.995    8.0569
   17.010    8.2500
   17.025    9.0223
   17.040    9.2154
   17.055    9.2154
   17.070    9.1276
   17.085    8.8292
   17.100    8.7063
   17.115    7.1266
   17.130    7.1617
   17.145    6.1260
   17.160    5.7925
   17.175    5.4064
   17.190    6.1962
   17.205    5.7574
   17.220    5.8627
   17.235    5.8627
   17.250    5.8978
   17.265    5.7750
   17.280    6.0558
   17.295    5.7048
   17.310    6.0383
   17.325    6.2138
   17.340    6.0909
   17.355    5.6521
   17.370    5.7925
   17.385    5.7399
   17.400    5.4766
   17.415    5.4239
   17.430    5.7223
   17.445    5.8627
   17.460    6.4946
   17.475    6.3893
   17.490    5.9856
   17.505    5.9681
   17.520    6.4420
   17.535    5.6697
   17.550    6.1787
   17.565    5.8978
   17.580    5.6872
   17.595    5.7574
   17.610    5.8101
   17.625    6.0032
   17.640    5.9329
   17.655    5.7925
   17.670    6.2840
   17.685    6.0909
   17.700    5.5468
   17.715    5.9154
   17.730    6.3367
   17.745    6.4595
   17.760    5.9154
   17.775    5.7574
   17.790    5.8803
   17.805    5.6697
   17.820    5.6170
   17.835    5.6697
   17.850    6.0207
   17.865    6.2840
   17.880    5.9856
   17.895    5.6697
   17.910    6.0909
   17.925    6.3542
   17.940    6.3718
   17.955    6.4595
   17.970    6.1962
   17.985    6.4420
   18.000    6.7579
   18.015    6.2840
   18.030    5.6697
   18.045    5.4239
   18.060    6.0558
   18.075    5.9856
   18.090    5.4941
   18.105    5.6170
   18.120    6.7053
   18.135    6.1085
   18.150    5.7925
   18.165    5.7574
   18.180    5.2484
   18.195    6.0383
   18.210    5.8978
   18.225    5.6521
   18.240    5.6697
   18.255    6.2489
   18.270    6.0558
   18.285    6.6702
   18.300    6.7053
   18.315    6.9861
   18.330    7.0037
   18.345    7.0388
   18.360    6.8106
   18.375    7.3547
   18.390    6.9159
   18.405    6.6877
   18.420    6.5473
   18.435    6.0909
   18.450    5.8101
   18.465    6.3718
   18.480    6.2840
   18.495    5.6697
   18.510    5.7574
   18.525    5.6521
   18.540    6.3542
   18.555    5.8978
   18.570    5.7925
   18.585    5.8276
   18.600    6.0558
   18.615    6.4244
   18.630    6.1260
   18.645    5.4590
   18.660    5.6697
   18.675    6.1436
   18.690    5.5994
   18.705    5.8452
   18.720    5.7925
   18.735    6.1436
   18.750    5.8803
   18.765    5.8276
   18.780    6.1611
   18.795    6.4946
   18.810    6.4946
   18.825    6.4946
   18.840    6.2665
   18.855    5.8627
   18.870    6.3542
   18.885    6.3016
   18.900    5.8627
   18.915    5.8452
   18.930    6.1260
   18.945    5.8452
   18.960    5.5468
   18.975    5.6697
   18.990    5.4590
   19.005    5.8803
   19.020    5.4590
   19.035    5.5994
   19.050    6.1787
   19.065    5.8101
   19.080    5.3186
   19.095    5.4239
   19.110    5.7048
   19.125    6.0032
   19.140    6.1085
   19.155    6.3367
   19.170    5.9329
   19.185    6.1085
   19.200    6.6702
   19.215    6.5473
   19.230    5.7048
   19.245    6.2138
   19.260    5.9681
   19.275    5.9681
   19.290    6.2665
   19.305    6.2840
   19.320    5.8627
   19.335    5.9329
   19.350    6.4244
   19.365    6.5122
   19.380    5.7925
   19.395    6.1085
   19.410    5.9856
   19.425    5.7574
   19.440    6.1611
   19.455    6.2489
   19.470    6.2489
   19.485    6.1436
   19.500    5.9329
   19.515    6.0207
   19.530    6.5473
   19.545    6.9861
   19.560    7.0563
   19.575    7.9516
   19.590    7.4776
   19.605    7.1968
   19.620    6.9159
   19.635    7.2494
   19.650    6.6702
   19.665    6.5122
   19.680    6.2489
   19.695    6.2665
   19.710    6.1611
   19.725    6.1085
   19.740    5.7750
   19.755    6.0207
   19.770    5.9329
   19.785    5.5292
   19.800    5.4064
   19.815    6.2665
   19.830    5.4590
   19.845    6.0032
   19.860    5.7223
   19.875    5.5994
   19.890    5.9154
   19.905    6.2313
   19.920    6.4771
   19.935    6.1611
   19.950    5.8101
   19.965    5.7223
   19.980    5.8452
   19.995    6.2313
   20.010    6.4420
   20.025    5.7925
   20.040    5.5292
   20.055    6.0032
   20.070    6.0909
   20.085    6.2489
   20.100    6.3542
   20.115    5.9329
   20.130    5.7399
   20.145    6.0207
   20.160    5.8101
   20.175    5.8276
   20.190    6.1436
   20.205    6.3016
   20.220    6.6526
   20.235    6.4069
   20.250    6.6526
   20.265    6.7404
   20.280    6.8106
   20.295    7.4250
   20.310    7.4601
   20.325    7.5303
   20.340    8.7941
   20.355    8.7941
   20.370    8.7941
   20.385    9.4260
   20.400    8.9170
   20.415    8.3553
   20.430    7.8638
   20.445    8.1271
   20.460    7.3372
   20.475    6.2138
   20.490    6.3718
   20.505    6.5122
   20.520    6.1962
   20.535    6.2313
   20.550    6.5122
   20.565    6.3542
   20.580    5.7750
   20.595    5.6345
   20.610    5.9329
   20.625    5.8803
   20.640    6.1611
   20.655    5.9329
   20.670    6.2489
   20.685    6.2138
   20.700    6.1085
   20.715    6.0383
   20.730    6.1260
   20.745    5.6345
   20.760    5.9681
   20.775    6.3893
   20.790    5.7223
   20.805    5.8627
   20.820    5.8978
   20.835    6.0734
   20.850    6.4420
   20.865    6.1085
   20.880    6.1260
   20.895    6.1787
   20.910    6.2313
   20.925    5.8276
   20.940    5.9329
   20.955    6.3016
   20.970    5.7750
   20.985    5.9505
   21.000    6.0207
   21.015    6.1962
   21.030    6.4420
   21.045    6.1962
   21.060    5.8276
   21.075    5.7574
   21.090    5.8276
   21.105    6.0032
   21.120    6.1260
   21.135    6.2489
   21.150    6.1085
   21.165    6.4420
   21.180    6.1436
   21.195    6.2313
   21.210    6.5649
   21.225    6.7053
   21.240    6.8633
   21.255    6.3542
   21.270    6.5824
   21.285    6.4946
   21.300    6.3016
   21.315    6.1436
   21.330    6.4946
   21.345    6.2313
   21.360    5.7048
   21.375    5.9856
   21.390    5.9681
   21.405    6.1787
   21.420    6.0909
   21.435    6.2840
   21.450    6.3191
   21.465    5.9681
   21.480    6.1260
   21.495    6.2665
   21.510    6.5824
   21.525    6.1436
   21.540    6.2665
   21.555    6.0558
   21.570    6.3718
   21.585    6.0207
   21.600    6.6351
   21.615    6.0032
   21.630    6.4069
   21.645    6.0909
   21.660    6.3718
   21.675    5.9505
   21.690    6.1962
   21.705    6.3718
   21.720    6.3893
   21.735    6.2489
   21.750    6.4595
   21.765    6.5473
   21.780    6.5473
   21.795    6.5649
   21.810    7.2143
   21.825    6.7755
   21.840    7.3196
   21.855    7.2143
   21.870    7.5127
   21.885    7.4601
   21.900    6.9686
   21.915    6.9510
   21.930    7.1792
   21.945    6.7930
   21.960    6.6000
   21.975    6.1260
   21.990    6.0734
   22.005    6.3367
   22.020    6.3191
   22.035    6.0558
   22.050    6.1085
   22.065    6.8984
   22.080    6.6351
   22.095    6.3542
   22.110    6.4595
   22.125    6.2313
   22.140    6.4420
   22.155    6.9510
   22.170    6.6702
   22.185    7.3196
   22.200    7.9516
   22.215    7.7058
   22.230    7.5478
   22.245    7.5127
   22.260    6.7930
   22.275    7.0915
   22.290    6.5649
   22.305    6.6877
   22.320    6.2138
   22.335    6.3542
   22.350    6.5298
   22.365    6.6175
   22.380    6.3367
   22.395    6.8633
   22.410    6.9335
   22.425    6.7930
   22.440    6.6000
   22.455    7.0037
   22.470    7.5478
   22.485    7.7234
   22.500    7.8813
   22.515    8.8292
   22.530    9.8824
   22.545   10.0755
   22.560   10.2159
   22.575   10.4090
   22.590   10.6723
   22.605    9.9351
   22.620    9.3031
   22.635    8.7063
   22.650    7.7409
   22.665    7.3547
   22.680    6.6351
   22.695    6.6351
   22.710    6.4771
   22.725    6.1611
   22.740    6.5473
   22.755    6.8457
   22.770    7.3723
   22.785    6.8457
   22.800    7.0388
   22.815    7.4250
   22.830    8.1797
   22.845    8.3728
   22.860    8.7590
   22.875    9.3734
   22.890   10.0404
   22.905   10.5845
   22.920   10.3563
   22.935    9.8999
   22.950    9.1452
   22.965    9.1803
   22.980    8.6186
   22.995    8.1271
   23.010    7.4776
   23.025    6.8984
   23.040    6.4244
   23.055    6.0734
   23.070    5.9856
   23.085    5.6345
   23.100    6.4595
   23.115    6.3893
   23.130    6.6351
   23.145    7.0739
   23.160    6.2489
   23.175    6.9510
   23.190    6.9510
   23.205    7.2319
   23.220    7.8638
   23.235    7.7936
   23.250    7.8813
   23.265    7.0915
   23.280    7.2494
   23.295    7.0563
   23.310    7.6532
   23.325    7.2143
   23.340    6.5649
   23.355    6.6175
   23.370    6.4771
   23.385    6.6000
   23.400    6.3191
   23.415    5.9681
   23.430    6.1611
   23.445    6.1436
   23.460    6.1962
   23.475    5.9856
   23.490    6.3893
   23.505    6.2489
   23.520    6.0734
   23.535    7.1441
   23.550    7.0212
   23.565    6.3191
   23.580    6.8808
   23.595    7.0915
   23.610    6.6351
   23.625    6.1962
   23.640    5.5994
   23.655    6.4946
   23.670    6.5473
   23.685    6.4771
   23.700    6.4420
   23.715    6.2665
   23.730    6.5473
   23.745    6.6175
   23.760    7.1090
   23.775    6.4420
   23.790    7.1968
   23.805    6.6526
   23.820    6.4595
   23.835    6.5824
   23.850    7.0037
   23.865    7.1968
   23.880    7.6005
   23.895    7.5478
   23.910    7.8287
   23.925    7.5654
   23.940    8.0393
   23.955    7.5654
   23.970    7.3547
   23.985    7.1090
   24.000    6.3893
   24.015    6.8106
   24.030    6.4595
   24.045    6.4069
   24.060    6.0383
   24.075    6.5298
   24.090    6.2313
   24.105    6.2313
   24.120    6.4069
   24.135    5.5994
   24.150    5.7399
   24.165    6.3718
   24.180    6.5473
   24.195    6.6175
   24.210    6.0734
   24.225    6.1611
   24.240    6.3542
   24.255    6.2840
   24.270    6.5122
   24.285    6.5122
   24.300    6.5649
   24.315    6.0032
   24.330    5.8978
   24.345    5.9505
   24.360    5.9856
   24.375    6.2840
   24.390    6.4771
   24.405    6.2665
   24.420    6.1787
   24.435    6.0734
   24.450    6.5824
   24.465    6.1085
   24.480    6.8106
   24.495    6.6351
   24.510    6.5473
   24.525    6.7053
   24.540    6.4946
   24.555    6.9159
   24.570    6.2313
   24.585    6.5649
   24.600    6.1260
   24.615    6.5122
   24.630    6.3718
   24.645    6.2313
   24.660    6.6877
   24.675    6.1962
   24.690    6.3191
   24.705    6.6175
   24.720    6.4420
   24.735    5.9505
   24.750    5.9856
   24.765    6.1962
   24.780    6.1787
   24.795    6.4771
   24.810    6.2313
   24.825    6.0909
   24.840    7.0037
   24.855    6.6702
   24.870    6.9510
   24.885    7.1090
   24.900    5.9505
   24.915    6.0909
   24.930    6.1436
   24.945    6.3718
   24.960    6.0383
   24.975    6.6175
   24.990    6.0909
   25.005    6.5649
   25.020    6.5473
   25.035    6.1611
   25.050    6.0383
   25.065    6.3367
   25.080    6.1611
   25.095    6.3893
   25.110    6.1436
   25.125    6.2138
   25.140    6.5824
   25.155    6.7579
   25.170    6.6526
   25.185    6.8106
   25.200    6.7755
   25.215    7.0037
   25.230    6.7930
   25.245    6.4244
   25.260    6.6175
   25.275    6.5824
   25.290    6.4244
   25.305    6.3367
   25.320    6.3367
   25.335    6.0032
   25.350    5.8627
   25.365    6.3893
   25.380    6.5298
   25.395    6.3016
   25.410    6.4946
   25.425    5.9329
   25.440    6.7404
   25.455    6.6702
   25.470    6.7579
   25.485    7.0037
   25.500    6.6175
   25.515    7.0915
   25.530    6.9686
   25.545    6.0383
   25.560    6.2665
   25.575    7.1441
   25.590    6.6175
   25.605    6.0558
   25.620    6.5473
   25.635    6.8282
   25.650    6.5824
   25.665    6.2138
   25.680    6.4244
   25.695    6.8106
   25.710    6.6175
   25.725    6.7930
   25.740    7.1968
   25.755    8.3202
   25.770    8.3202
   25.785    8.3377
   25.800    8.7941
   25.815    8.7590
   25.830    9.0750
   25.845    9.0223
   25.860    8.7239
   25.875    8.0569
   25.890    8.0042
   25.905    7.5478
   25.920    7.2670
   25.935    6.7228
   25.950    6.5122
   25.965    5.8101
   25.980    6.5298
   25.995    6.6175
   26.010    5.8803
   26.025    5.8101
   26.040    6.2665
   26.055    6.7228
   26.070    6.1962
   26.085    6.2665
   26.100    6.7930
   26.115    6.6526
   26.130    6.2665
   26.145    6.5649
   26.160    6.6000
   26.175    6.7053
   26.190    6.6351
   26.205    5.7574
   26.220    5.9505
   26.235    6.4420
   26.250    6.0207
   26.265    6.3191
   26.280    5.9681
   26.295    5.9505
   26.310    6.4595
   26.325    6.4771
   26.340    6.2313
   26.355    6.1085
   26.370    6.7579
   26.385    6.1436
   26.400    6.6877
   26.415    7.0388
   26.430    6.9335
   26.445    6.6351
   26.460    6.6526
   26.475    6.4595
   26.490    6.4420
   26.505    6.8457
   26.520    6.2840
   26.535    6.1085
   26.550    6.1611
   26.565    5.4941
   26.580    5.5819
   26.595    5.5819
   26.610    6.0909
   26.625    6.3191
   26.640    5.8803
   26.655    5.7223
   26.670    5.6345
   26.685    6.1260
   26.700    5.4766
   26.715    5.3186
   26.730    5.3537
   26.745    5.6170
   26.760    6.1260
   26.775    5.6345
   26.790    5.9329
   26.805    5.6697
   26.820    5.7750
   26.835    5.8276
   26.850    5.8627
   26.865    5.8452
   26.880    5.8452
   26.895    6.3542
   26.910    6.1260
   26.925    5.9681
   26.940    6.1787
   26.955    6.5122
   26.970    6.6877
   26.985    7.2670
   27.000    7.1792
   27.015    7.0739
   27.030    6.8808
   27.045    6.7755
   27.060    6.8633
   27.075    6.4244
   27.090    6.4244
   27.105    6.3718
   27.120    6.0734
   27.135    5.9681
   27.150    6.3542
   27.165    5.6521
   27.180    5.8101
   27.195    5.9856
   27.210    5.7574
   27.225    5.9856
   27.240    6.2313
   27.255    6.2665
   27.270    5.7925
   27.285    5.8101
   27.300    5.8101
   27.315    5.8803
   27.330    5.8803
   27.345    5.7399
   27.360    5.9856
   27.375    5.6521
   27.390    6.2138
   27.405    6.4946
   27.420    5.7399
   27.435    5.6521
   27.450    5.4766
   27.465    5.8452
   27.480    5.8978
   27.495    6.1260
   27.510    5.9505
   27.525    6.3542
   27.540    5.8978
   27.555    6.4946
   27.570    6.3016
   27.585    6.1611
   27.600    6.3893
   27.615    6.7228
   27.630    6.5122
   27.645    6.1260
   27.660    6.4771
   27.675    6.6175
   27.690    6.1260
   27.705    6.2138
   27.720    6.3016
   27.735    5.4941
   27.750    5.8803
   27.765    6.1260
   27.780    5.7574
   27.795    5.8627
   27.810    5.8452
   27.825    5.7399
   27.840    5.9681
   27.855    6.1787
   27.870    6.6175
   27.885    6.0734
   27.900    6.3016
   27.915    6.1962
   27.930    6.1611
   27.945    5.9154
   27.960    6.3367
   27.975    6.1787
   27.990    6.2313
   28.005    5.8978
   28.020    6.0734
   28.035    6.0207
   28.050    5.8452
   28.065    5.7399
   28.080    6.3191
   28.095    5.7925
   28.110    6.1436
   28.125    6.7404
   28.140    6.8984
   28.155    6.9335
   28.170    7.2670
   28.185    7.3547
   28.200    6.9861
   28.215    6.7228
   28.230    6.7053
   28.245    6.6877
   28.260    6.1085
   28.275    6.1085
   28.290    6.4244
   28.305    6.0383
   28.320    5.7925
   28.335    6.1260
   28.350    5.7925
   28.365    5.6521
   28.380    6.4946
   28.395    6.5122
   28.410    6.6526
   28.425    6.7404
   28.440    6.8633
   28.455    6.9159
   28.470    6.5298
   28.485    6.9159
   28.500    6.8808
   28.515    6.7053
   28.530    6.1787
   28.545    6.0558
   28.560    5.7048
   28.575    5.6521
   28.590    5.8452
   28.605    5.7750
   28.620    5.6697
   28.635    5.5994
   28.650    5.7223
   28.665    5.6697
   28.680    5.6521
   28.695    5.6697
   28.710    5.6872
   28.725    5.9154
   28.740    6.0032
   28.755    5.6872
   28.770    5.5292
   28.785    5.8627
   28.800    6.0032
   28.815    5.4590
   28.830    5.3888
   28.845    5.4415
   28.860    5.6872
   28.875    5.7399
   28.890    5.4941
   28.905    5.6697
   28.920    6.0032
   28.935    5.7223
   28.950    5.7223
   28.965    5.6697
   28.980    5.4064
   28.995    5.2484
   29.010    5.6521
   29.025    5.4941
   29.040    5.5819
   29.055    6.2840
   29.070    6.2313
   29.085    5.4239
   29.100    5.4590
   29.115    5.8627
   29.130    6.1085
   29.145    5.8276
   29.160    5.8452
   29.175    5.9154
   29.190    5.9505
   29.205    6.1611
   29.220    5.8978
   29.235    5.7750
   29.250    5.9154
   29.265    6.1787
   29.280    6.1787
   29.295    6.4420
   29.310    6.7930
   29.325    6.6000
   29.340    6.3718
   29.355    5.7925
   29.370    5.7399
   29.385    5.6872
   29.400    5.5468
   29.415    5.3712
   29.430    5.0728
   29.445    5.7574
   29.460    5.6521
   29.475    5.6521
   29.490    6.0207
   29.505    5.8627
   29.520    5.2133
   29.535    5.4415
   29.550    5.4766
   29.565    5.3537
   29.580    5.3537
   29.595    5.6872
   29.610    5.5117
   29.625    5.4941
   29.640    5.1606
   29.655    5.4766
   29.670    5.0904
   29.685    5.5117
   29.700    5.3537
   29.715    5.7925
   29.730    5.5468
   29.745    6.2489
   29.760    6.3191
   29.775    5.5117
   29.790    5.6697
   29.805    5.9154
   29.820    6.1260
   29.835    6.1260
   29.850    5.7925
   29.865    5.9681
   29.880    5.7750
   29.895    5.6170
   29.910    6.2313
   29.925    5.6170
   29.940    5.1606
   29.955    5.7048
   29.970    5.8627
   29.985    5.7750
   30.000    5.8978
   30.015    5.6170
   30.030    5.7399
   30.045    5.0904
   30.060    5.2835
   30.075    5.2308
   30.090    5.8276
   30.105    6.3191
   30.120    5.5819
   30.135    5.2835
   30.150    5.5994
   30.165    5.6521
   30.180    5.4590
   30.195    5.3010
   30.210    4.9500
   30.225    4.8095
   30.240    5.1606
   30.255    5.5819
   30.270    5.2484
   30.285    4.9324
   30.300    5.2484
   30.315    5.3537
   30.330    5.3010
   30.345    5.4941
   30.360    5.4941
   30.375    5.1606
   30.390    5.3010
   30.405    5.4064
   30.420    5.4941
   30.435    5.3712
   30.450    5.3186
   30.465    4.7744
   30.480    5.0026
   30.495    5.0553
   30.510    5.4415
   30.525    5.3712
   30.540    5.1255
   30.555    5.5117
   30.570    5.8452
   30.585    5.6170
   30.600    5.8978
   30.615    5.8978
   30.630    5.8276
   30.645    5.6521
   30.660    5.0904
   30.675    5.4064
   30.690    5.6521
   30.705    5.5292
   30.720    5.3361
   30.735    5.2133
   30.750    5.7399
   30.765    5.3537
   30.780    4.9851
   30.795    5.1255
   30.810    5.1431
   30.825    5.1255
   30.840    5.0904
   30.855    5.3712
   30.870    5.4415
   30.885    5.3361
   30.900    5.6345
   30.915    5.2835
   30.930    5.4239
   30.945    5.4766
   30.960    5.1080
   30.975    5.2133
   30.990    5.2835
   31.005    5.4064
   31.020    5.0553
   31.035    5.8978
   31.050    5.5643
   31.065    4.9149
   31.080    5.5468
   31.095    5.0728
   31.110    4.8447
   31.125    4.8447
   31.140    5.3186
   31.155    4.9149
   31.170    4.7569
   31.185    5.1606
   31.200    4.8447
   31.215    5.0728
   31.230    5.3361
   31.245    5.3361
   31.260    5.3010
   31.275    4.9500
   31.290    4.7920
   31.305    4.8973
   31.320    5.1606
   31.335    5.3186
   31.350    5.0026
   31.365    5.4766
   31.380    5.8101
   31.395    5.2659
   31.410    5.8101
   31.425    5.8627
   31.440    5.3010
   31.455    5.6170
   31.470    5.2133
   31.485    5.1255
   31.500    5.0728
   31.515    5.4415
   31.530    5.2133
   31.545    4.7393
   31.560    4.7744
   31.575    5.2659
   31.590    4.8622
   31.605    5.0728
   31.620    5.0553
   31.635    4.7920
   31.650    4.9675
   31.665    5.1782
   31.680    5.1255
   31.695    5.0728
   31.710    5.0904
   31.725    5.0377
   31.740    5.2835
   31.755    4.8271
   31.770    4.6516
   31.785    5.2835
   31.800    5.2133
   31.815    5.2484
   31.830    4.9149
   31.845    5.1431
   31.860    5.4239
   31.875    5.3712
   31.890    5.5292
   31.905    4.9851
   31.920    5.0553
   31.935    5.2835
   31.950    5.2659
   31.965    5.1782
   31.980    5.2133
   31.995    5.5643
   32.010    4.9851
   32.025    5.1431
   32.040    4.6867
   32.055    5.0377
   32.070    5.0728
   32.085    5.3537
   32.100    5.3186
   32.115    5.2308
   32.130    5.0728
   32.145    5.1255
   32.160    5.2659
   32.175    5.2659
   32.190    5.1606
   32.205    5.2308
   32.220    4.8798
   32.235    4.9851
   32.250    4.9149
   32.265    5.1606
   32.280    5.0026
   32.295    5.3010
   32.310    4.9500
   32.325    5.3537
   32.340    4.7042
   32.355    5.1782
   32.370    5.2133
   32.385    5.0202
   32.400    5.3186
   32.415    4.8622
   32.430    4.9149
   32.445    4.7218
   32.460    4.9500
   32.475    4.7218
   32.490    5.0377
   32.505    4.7393
   32.520    5.0026
   32.535    5.1957
   32.550    4.8271
   32.565    4.5111
   32.580    4.7042
   32.595    4.8095
   32.610    4.7218
   32.625    4.6691
   32.640    4.8798
   32.655    4.7042
   32.670    4.4234
   32.685    4.7393
   32.700    4.6691
   32.715    4.9851
   32.730    4.9851
   32.745    4.8973
   32.760    4.8973
   32.775    4.8973
   32.790    4.9851
   32.805    5.1255
   32.820    4.6165
   32.835    5.0728
   32.850    4.9851
   32.865    5.2835
   32.880    5.1255
   32.895    5.4590
   32.910    5.1606
   32.925    5.3888
   32.940    5.0904
   32.955    5.1606
   32.970    5.1782
   32.985    5.1255
   33.000    4.7393
   33.015    5.2835
   33.030    4.8973
   33.045    4.6867
   33.060    4.5989
   33.075    4.6867
   33.090    5.0026
   33.105    4.8271
   33.120    4.7920
   33.135    5.1431
   33.150    4.5638
   33.165    4.8447
   33.180    5.1782
   33.195    4.7569
   33.210    5.2484
   33.225    5.0553
   33.240    5.0904
   33.255    4.8447
   33.270    4.5814
   33.285    5.0026
   33.300    4.7218
   33.315    4.6691
   33.330    4.8622
   33.345    4.6867
   33.360    4.5287
   33.375    4.5287
   33.390    4.4234
   33.405    4.7218
   33.420    4.7042
   33.435    4.6867
   33.450    4.7042
   33.465    4.7744
   33.480    4.9324
   33.495    5.2484
   33.510    5.1431
   33.525    4.7042
   33.540    5.1080
   33.555    5.0728
   33.570    4.7744
   33.585    4.7042
   33.600    5.1606
   33.615    4.8798
   33.630    5.3537
   33.645    5.2484
   33.660    5.0377
   33.675    4.6516
   33.690    5.3361
   33.705    4.6165
   33.720    5.3537
   33.735    4.8447
   33.750    4.7218
   33.765    4.5111
   33.780    5.0202
   33.795    5.1782
   33.810    4.6516
   33.825    4.7042
   33.840    5.4064
   33.855    5.2484
   33.870    5.2308
   33.885    5.3888
   33.900    5.0553
   33.915    4.8973
   33.930    5.2659
   33.945    5.2308
   33.960    5.0904
   33.975    4.9324
   33.990    4.5111
   34.005    5.1255
   34.020    5.1606
   34.035    4.7218
   34.050    4.7393
   34.065    4.6340
   34.080    4.8271
   34.095    5.1080
   34.110    4.6867
   34.125    4.6165
   34.140    5.0202
   34.155    4.4760
   34.170    4.8973
   34.185    4.7569
   34.200    4.7920
   34.215    4.5111
   34.230    4.1776
   34.245    4.2303
   34.260    4.3883
   34.275    4.4058
   34.290    4.7920
   34.305    5.1080
   34.320    4.6340
   34.335    4.5814
   34.350    4.9149
   34.365    4.4234
   34.380    4.5287
   34.395    4.5111
   34.410    4.3356
   34.425    4.7218
   34.440    4.8447
   34.455    4.6867
   34.470    4.4585
   34.485    4.9149
   34.500    4.4936
   34.515    4.7744
   34.530    5.2308
   34.545    4.6516
   34.560    4.6516
   34.575    4.3532
   34.590    4.6165
   34.605    4.5814
   34.620    4.8095
   34.635    4.7218
   34.650    5.2484
   34.665    4.4234
   34.680    4.6516
   34.695    4.6165
   34.710    4.4409
   34.725    4.3181
   34.740    4.4585
   34.755    4.6691
   34.770    4.8798
   34.785    4.4936
   34.800    4.8095
   34.815    4.6340
   34.830    4.7393
   34.845    4.8271
   34.860    4.8095
   34.875    4.7042
   34.890    4.5638
   34.905    4.6867
   34.920    4.6165
   34.935    4.6165
   34.950    4.4234
   34.965    4.4058
   34.980    4.6340
   34.995    4.3181
   35.010    4.3181
   35.025    4.4585
   35.040    4.6867
   35.055    4.3707
   35.070    4.4760
   35.085    4.1776
   35.100    4.4409
   35.115    3.8968
   35.130    4.4058
   35.145    4.4936
   35.160    4.4936
   35.175    4.1074
   35.190    4.3005
   35.205    4.5111
   35.220    4.3181
   35.235    4.2303
   35.250    4.3707
   35.265    4.6516
   35.280    4.7744
   35.295    4.4585
   35.310    4.4936
   35.325    4.6516
   35.340    4.5463
   35.355    4.8271
   35.370    4.8271
   35.385    4.8095
   35.400    4.5111
   35.415    4.5287
   35.430    4.6340
   35.445    4.2303
   35.460    4.2654
   35.475    4.4234
   35.490    4.3356
   35.505    4.2830
   35.520    4.1952
   35.535    4.3883
   35.550    4.1425
   35.565    5.0728
   35.580    4.7218
   35.595    4.1250
   35.610    4.2127
   35.625    4.0899
   35.640    4.4760
   35.655    4.4058
   35.670    4.8447
   35.685    4.8447
   35.700    4.8973
   35.715    4.6165
   35.730    4.5111
   35.745    4.6165
   35.760    4.9149
   35.775    4.6516
   35.790    4.4585
   35.805    4.6340
   35.820    4.8095
   35.835    4.3883
   35.850    4.2830
   35.865    4.3532
   35.880    4.6516
   35.895    4.4234
   35.910    4.4760
   35.925    4.5287
   35.940    4.5638
   35.955    4.6691
   35.970    4.3005
   35.985    4.5989
   36.000    4.6165
   36.015    4.4409
   36.030    4.7744
   36.045    4.4760
   36.060    4.2830
   36.075    4.4936
   36.090    4.2127
   36.105    4.2303
   36.120    4.3532
   36.135    4.3883
   36.150    4.3707
   36.165    4.9324
   36.180    4.8447
   36.195    4.3883
   36.210    4.3356
   36.225    4.5463
   36.240    4.5287
   36.255    4.0372
   36.270    4.5111
   36.285    4.2478
   36.300    4.2127
   36.315    4.3707
   36.330    4.1250
   36.345    4.4058
   36.360    4.2654
   36.375    4.5287
   36.390    5.0026
   36.405    4.6867
   36.420    4.3707
   36.435    4.2127
   36.450    4.5463
   36.465    4.4760
   36.480    4.3532
   36.495    4.4585
   36.510    4.5638
   36.525    4.8622
   36.540    4.1425
   36.555    4.2478
   36.570    4.5111
   36.585    4.3883
   36.600    4.4058
   36.615    4.4409
   36.630    4.3532
   36.645    4.2830
   36.660    4.4058
   36.675    4.7042
   36.690    4.2478
   36.705    4.1250
   36.720    3.9143
   36.735    4.7569
   36.750    4.2127
   36.765    4.0548
   36.780    4.2830
   36.795    4.1776
   36.810    4.2478
   36.825    4.2654
   36.840    4.0197
   36.855    4.0548
   36.870    4.3707
   36.885    4.1776
   36.900    3.9670
   36.915    4.2830
   36.930    3.9846
   36.945    3.9143
   36.960    4.0723
   36.975    4.0899
   36.990    4.1601
   37.005    4.3883
   37.020    4.7042
   37.035    4.5111
   37.050    4.6691
   37.065    4.9149
   37.080    4.9675
   37.095    4.5989
   37.110    4.5814
   37.125    4.3356
   37.140    4.8095
   37.155    4.6691
   37.170    4.4936
   37.185    4.8973
   37.200    4.5814
   37.215    4.6691
   37.230    4.4409
   37.245    4.1776
   37.260    4.2478
   37.275    4.4234
   37.290    4.5111
   37.305    4.1776
   37.320    4.2478
   37.335    4.2478
   37.350    4.2654
   37.365    4.0899
   37.380    4.2830
   37.395    3.9670
   37.410    4.6516
   37.425    4.5287
   37.440    4.2478
   37.455    4.4058
   37.470    4.2654
   37.485    3.9143
   37.500    4.5814
   37.515    4.4409
   37.530    4.1074
   37.545    4.5287
   37.560    4.5463
   37.575    4.3532
   37.590    4.4058
   37.605    4.2654
   37.620    3.9494
   37.635    4.0548
   37.650    4.2303
   37.665    4.2303
   37.680    4.3181
   37.695    4.3181
   37.710    4.4409
   37.725    4.1250
   37.740    4.0021
   37.755    4.0899
   37.770    3.9494
   37.785    4.2303
   37.800    3.7915
   37.815    4.2303
   37.830    4.2654
   37.845    4.1250
   37.860    4.4058
   37.875    4.4585
   37.890    4.6165
   37.905    4.1776
   37.920    4.2478
   37.935    4.5287
   37.950    4.0197
   37.965    4.1601
   37.980    4.4058
   37.995    4.0021
   38.010    4.4409
   38.025    4.3532
   38.040    4.4936
   38.055    4.5989
   38.070    4.2303
   38.085    3.8617
   38.100    3.9494
   38.115    4.1601
   38.130    4.0723
   38.145    4.3181
   38.160    4.2478
   38.175    4.1250
   38.190    4.1074
   38.205    4.1776
   38.220    4.0548
   38.235    3.9319
   38.250    4.3356
   38.265    4.3356
   38.280    4.6340
   38.295    4.2303
   38.310    4.1952
   38.325    4.5287
   38.340    4.4409
   38.355    4.2127
   38.370    4.4936
   38.385    4.0021
   38.400    3.8266
   38.415    4.1601
   38.430    4.1425
   38.445    4.3181
   38.460    4.3356
   38.475    4.2654
   38.490    4.1425
   38.505    3.9494
   38.520    4.4409
   38.535    4.1250
   38.550    4.2127
   38.565    4.0197
   38.580    4.1250
   38.595    4.1601
   38.610    4.3356
   38.625    4.1074
   38.640    3.9143
   38.655    4.0372
   38.670    4.5814
   38.685    4.2478
   38.700    4.1601
   38.715    3.8968
   38.730    4.3356
   38.745    4.5111
   38.760    4.5638
   38.775    4.3532
   38.790    4.4760
   38.805    4.4936
   38.820    4.0899
   38.835    4.3356
   38.850    4.3883
   38.865    4.1776
   38.880    4.0899
   38.895    4.1776
   38.910    4.3181
   38.925    4.0021
   38.940    4.0548
   38.955    4.4058
   38.970    4.1952
   38.985    4.0021
   39.000    4.1250
   39.015    4.3532
   39.030    4.1250
   39.045    3.8090
   39.060    4.1250
   39.075    4.3532
   39.090    4.3883
   39.105    3.9319
   39.120    4.5463
   39.135    3.7037
   39.150    3.9846
   39.165    3.8441
   39.180    4.0723
   39.195    4.3005
   39.210    4.4760
   39.225    3.9494
   39.240    4.5111
   39.255    4.7218
   39.270    4.4409
   39.285    4.1952
   39.300    4.4409
   39.315    4.0548
   39.330    4.1776
   39.345    4.0723
   39.360    3.8968
   39.375    4.7042
   39.390    4.1952
   39.405    3.6510
   39.420    3.8266
   39.435    3.8441
   39.450    4.0723
   39.465    4.0723
   39.480    4.1074
   39.495    4.3181
   39.510    4.1776
   39.525    4.1952
   39.540    3.8792
   39.555    3.8792
   39.570    3.9846
   39.585    4.2303
   39.600    4.0548
   39.615    3.9494
   39.630    4.3356
   39.645    4.1601
   39.660    4.4409
   39.675    4.2478
   39.690    4.0197
   39.705    3.9143
   39.720    3.7213
   39.735    4.0197
   39.750    4.5287
   39.765    4.1074
   39.780    4.1074
   39.795    4.2654
   39.810    3.8968
   39.825    3.7739
   39.840    4.3181
   39.855    4.1601
   39.870    4.3181
   39.885    4.3356
   39.900    4.3181
   39.915    4.2830
   39.930    3.9670
   39.945    4.4585
   39.960    4.1425
   39.975    3.8792
   39.990    4.5463
