    1.500   18.8836
    1.515   19.5050
    1.530   18.2517
    1.545   17.9252
    1.560   18.7467
    1.575   18.1675
    1.590   17.9674
    1.605   18.1043
    1.620   17.9358
    1.635   18.1780
    1.650   18.3360
    1.665   18.1991
    1.680   17.3986
    1.695   17.3776
    1.710   16.8615
    1.725   16.8615
    1.740   17.5987
    1.755   17.1459
    1.770   16.9563
    1.785   16.9563
    1.800   16.5771
    1.815   16.9142
    1.830   16.5982
    1.845   16.1875
    1.860   15.7557
    1.875   16.5034
    1.890   16.5771
    1.905   16.6193
    1.920   15.9347
    1.935   15.9242
    1.950   16.4297
    1.965   16.3244
    1.980   16.4192
    1.995   15.7346
    2.010   15.6609
    2.025   15.1764
    2.040   16.0295
    2.055   15.8294
    2.070   15.3870
    2.085   15.3660
    2.100   15.9768
    2.115   16.1980
    2.130   16.3349
    2.145   16.1769
    2.160   16.3033
    2.175   16.4824
    2.190   16.1348
    2.205   16.3244
    2.220   16.5666
    2.235   16.7351
    2.250   16.1137
    2.265   15.7662
    2.280   16.3139
    2.295   16.5771
    2.310   17.1037
    2.325   17.1353
    2.340   16.9247
    2.355   17.0195
    2.370   16.9142
    2.385   17.0090
    2.400   17.1143
    2.415   17.7883
    2.430   17.9252
    2.445   17.4092
    2.460   17.7041
    2.475   17.9884
    2.490   18.1359
    2.505   18.5887
    2.520   18.4729
    2.535   18.1148
    2.550   18.9258
    2.565   19.2417
    2.580   19.5471
    2.595   19.6525
    2.610   19.9895
    2.625   20.6740
    2.640   20.3581
    2.655   20.6635
    2.670   20.3265
    2.685   21.0427
    2.700   21.4955
    2.715   22.1801
    2.730   22.7383
    2.745   22.2854
    2.760   23.0121
    2.775   23.2965
    2.790   23.2543
    2.805   24.1601
    2.820   24.9816
    2.835   25.1711
    2.850   24.6024
    2.865   26.3928
    2.880   26.6035
    2.895   27.6040
    2.910   28.0674
    2.925   28.2254
    2.940   29.5945
    2.955   30.3318
    2.970   30.4581
    2.985   32.0906
    3.000   32.1748
    3.015   33.4387
    3.030   33.7757
    3.045   34.8710
    3.060   35.0606
    3.075   36.0400
    3.090   37.9252
    3.105   38.6625
    3.120   40.6319
    3.135   41.3165
    3.150   42.0853
    3.165   43.2438
    3.180   45.8873
    3.195   47.1406
    3.210   49.3734
    3.225   51.2902
    3.240   52.9542
    3.255   55.3871
    3.270   57.6303
    3.285   59.0837
    3.300   63.0753
    3.315   66.3823
    3.330   70.5845
    3.345   73.5334
    3.360   77.1353
    3.375   81.4534
    3.390   84.3813
    3.405   89.2259
    3.420   94.5129
    3.435   96.8615
    3.450  100.3160
    3.465   99.5787
    3.480   97.9252
    3.495   93.0069
    3.510   85.7820
    3.525   77.2512
    3.540   69.2259
    3.555   61.8431
    3.570   54.7762
    3.585   50.1527
    3.600   46.8668
    3.615   43.9284
    3.630   42.3170
    3.645   40.9479
    3.660   40.1580
    3.675   39.5577
    3.690   39.6840
    3.705   39.0311
    3.720   40.1685
    3.735   40.2949
    3.750   41.0532
    3.765   42.1696
    3.780   41.7694
    3.795   42.8331
    3.810   43.6019
    3.825   45.7188
    3.840   46.7615
    3.855   48.3623
    3.870   48.6045
    3.885   48.8994
    3.900   48.1833
    3.915   47.3934
    3.930   45.3818
    3.945   43.8652
    3.960   43.6546
    3.975   44.0442
    3.990   43.0753
    4.005   41.7483
    4.020   40.9268
    4.035   41.0321
    4.050   39.2101
    4.065   38.1043
    4.080   36.1769
    4.095   36.4192
    4.110   34.7341
    4.125   32.8278
    4.140   30.7320
    4.155   29.8999
    4.170   28.3202
    4.185   27.7830
    4.200   25.1395
    4.215   24.0653
    4.230   23.2122
    4.245   21.9800
    4.260   20.7688
    4.275   20.3370
    4.290   18.9152
    4.305   17.7988
    4.320   17.0511
    4.335   15.8294
    4.350   15.1764
    4.365   14.6498
    4.380   14.0706
    4.395   13.5334
    4.410   12.9437
    4.425   12.5013
    4.440   11.8167
    4.455   11.4903
    4.470   11.5534
    4.485   11.0058
    4.500   10.8268
    4.515   10.4897
    4.530    9.4787
    4.545    9.3102
    4.560    9.7209
    4.575    9.0995
    4.590    8.8257
    4.605    9.3944
    4.620    9.0785
    4.635    8.4676
    4.650    8.2570
    4.665    8.2780
    4.680    8.7309
    4.695    8.0885
    4.710    8.6467
    4.725    8.0990
    4.740    8.0463
    4.755    7.8041
    4.770    7.9937
    4.785    7.4776
    4.800    7.5513
    4.815    7.4776
    4.830    7.7199
    4.845    7.3828
    4.860    7.7199
    4.875    7.2249
    4.890    7.0985
    4.905    7.3934
    4.920    7.1301
    4.935    7.4250
    4.950    6.8141
    4.965    6.8668
    4.980    7.3512
    4.995    7.2775
    5.010    6.8352
    5.025    7.2249
    5.040    6.9826
    5.055    6.8668
    5.070    6.8668
    5.085    6.8668
    5.100    6.8773
    5.115    6.9616
    5.130    6.6245
    5.145    7.0037
    5.160    7.2038
    5.175    7.5619
    5.190    6.9194
    5.205    6.5719
    5.220    6.9194
    5.235    6.9194
    5.250    6.8984
    5.265    7.1722
    5.280    6.9721
    5.295    6.9405
    5.310    6.5613
    5.325    6.9405
    5.340    6.6772
    5.355    7.3302
    5.370    7.3934
    5.385    7.3091
    5.400    7.7620
    5.415    7.9200
    5.430    7.8462
    5.445    8.0674
    5.460    8.1833
    5.475    8.5835
    5.490    9.0574
    5.505    8.0253
    5.520    7.7725
    5.535    7.6988
    5.550    6.7825
    5.565    6.4876
    5.580    6.0348
    5.595    6.0664
    5.610    5.8873
    5.625    5.7504
    5.640    5.5082
    5.655    5.6135
    5.670    5.6872
    5.685    5.5082
    5.700    5.7293
    5.715    5.8662
    5.730    5.7925
    5.745    5.7083
    5.760    5.6661
    5.775    5.9084
    5.790    6.1085
    5.805    5.6872
    5.820    5.4766
    5.835    5.8136
    5.850    5.7293
    5.865    6.1822
    5.880    6.2138
    5.895    5.8136
    5.910    5.6135
    5.925    5.4555
    5.940    6.0453
    5.955    5.9505
    5.970    5.6661
    5.985    5.6451
    6.000    5.9189
    6.015    5.5608
    6.030    6.1506
    6.045    5.6977
    6.060    5.7504
    6.075    5.6767
    6.090    5.7609
    6.105    5.7083
    6.120    5.6240
    6.135    5.6345
    6.150    5.7820
    6.165    5.8241
    6.180    5.8136
    6.195    5.6135
    6.210    5.8241
    6.225    5.8978
    6.240    5.9610
    6.255    5.6977
    6.270    5.8662
    6.285    6.0874
    6.300    6.0664
    6.315    6.1190
    6.330    6.1927
    6.345    6.1611
    6.360    6.0242
    6.375    5.8662
    6.390    6.5087
    6.405    6.5508
    6.420    6.6035
    6.435    6.6772
    6.450    6.4982
    6.465    6.2875
    6.480    6.3296
    6.495    6.4666
    6.510    6.5403
    6.525    6.7299
    6.540    6.4666
    6.555    6.9616
    6.570    7.0248
    6.585    7.3091
    6.600    7.5829
    6.615    7.4776
    6.630    7.3618
    6.645    8.0463
    6.660    7.6883
    6.675    7.5935
    6.690    8.5729
    6.705    8.6993
    6.720    8.8994
    6.735    8.8257
    6.750    9.5313
    6.765    9.3102
    6.780    9.3207
    6.795    9.4471
    6.810    9.6051
    6.825   10.4160
    6.840   10.8162
    6.855   11.2270
    6.870   11.1532
    6.885   12.0484
    6.900   12.3433
    6.915   12.3539
    6.930   12.7962
    6.945   13.3439
    6.960   13.6177
    6.975   13.5861
    6.990   13.5018
    7.005   12.8910
    7.020   12.2907
    7.035   11.4376
    7.050   10.3633
    7.065   10.0158
    7.080    9.0574
    7.095    8.8573
    7.110    8.2886
    7.125    8.2149
    7.140    7.4355
    7.155    7.5619
    7.170    7.4671
    7.185    6.9194
    7.200    7.2354
    7.215    6.7193
    7.230    6.8457
    7.245    6.4455
    7.260    6.5613
    7.275    6.8246
    7.290    6.4666
    7.305    6.1085
    7.320    6.4244
    7.335    6.5824
    7.350    6.7088
    7.365    6.6561
    7.380    6.7930
    7.395    6.3823
    7.410    6.4244
    7.425    6.3612
    7.440    6.2981
    7.455    6.4560
    7.470    6.5719
    7.485    6.6772
    7.500    6.6983
    7.515    6.4666
    7.530    6.5192
    7.545    6.9405
    7.560    6.9405
    7.575    6.8036
    7.590    6.5719
    7.605    6.7825
    7.620    6.8984
    7.635    6.8878
    7.650    7.1090
    7.665    7.2986
    7.680    7.1722
    7.695    7.3302
    7.710    7.1617
    7.725    7.3302
    7.740    7.6672
    7.755    8.2359
    7.770    7.7514
    7.785    7.9621
    7.800    7.8146
    7.815    8.3939
    7.830    7.9305
    7.845    8.0147
    7.860    8.0147
    7.875    7.7830
    7.890    7.8989
    7.905    7.9621
    7.920    7.9094
    7.935    7.9094
    7.950    8.0569
    7.965    8.3834
    7.980    8.2149
    7.995    8.1622
    8.010    8.3728
    8.025    8.1306
    8.040    8.2359
    8.055    8.0990
    8.070    7.9200
    8.085    7.8989
    8.100    8.3939
    8.115    8.0358
    8.130    7.8989
    8.145    7.8884
    8.160    8.0042
    8.175    8.4887
    8.190    8.1411
    8.205    8.0990
    8.220    7.3407
    8.235    7.4250
    8.250    7.7620
    8.265    7.5513
    8.280    7.5197
    8.295    7.6567
    8.310    7.2459
    8.325    6.9932
    8.340    7.7514
    8.355    7.3512
    8.370    7.2459
    8.385    7.1406
    8.400    7.0353
    8.415    6.8141
    8.430    7.0669
    8.445    7.2880
    8.460    7.1511
    8.475    6.8352
    8.490    6.7509
    8.505    6.6140
    8.520    6.6561
    8.535    6.8352
    8.550    6.7088
    8.565    6.4034
    8.580    6.5087
    8.595    6.7930
    8.610    6.1506
    8.625    6.2454
    8.640    6.3507
    8.655    6.3928
    8.670    6.2033
    8.685    6.0242
    8.700    6.3612
    8.715    6.3612
    8.730    5.9400
    8.745    5.9610
    8.760    5.9821
    8.775    5.8662
    8.790    5.6556
    8.805    5.6451
    8.820    5.4976
    8.835    5.7083
    8.850    5.7504
    8.865    5.7188
    8.880    6.0137
    8.895    5.8768
    8.910    5.9294
    8.925    5.8557
    8.940    5.5714
    8.955    5.4344
    8.970    5.3291
    8.985    5.4239
    9.000    5.4555
    9.015    5.4134
    9.030    5.6977
    9.045    5.7504
    9.060    5.6767
    9.075    5.7820
    9.090    5.5503
    9.105    5.1290
    9.120    5.4450
    9.135    5.3291
    9.150    5.5608
    9.165    5.5924
    9.180    5.8768
    9.195    5.5714
    9.210    5.4344
    9.225    5.4134
    9.240    5.5503
    9.255    5.6661
    9.270    5.4871
    9.285    5.4134
    9.300    5.3397
    9.315    5.6872
    9.330    5.2133
    9.345    5.3502
    9.360    6.0348
    9.375    5.4555
    9.390    5.7609
    9.405    5.7293
    9.420    5.6345
    9.435    5.9400
    9.450    5.5503
    9.465    5.5503
    9.480    5.9505
    9.495    6.3507
    9.510    6.1190
    9.525    5.9400
    9.540    6.2665
    9.555    6.4350
    9.570    5.8873
    9.585    5.8031
    9.600    5.5503
    9.615    5.6135
    9.630    5.6661
    9.645    5.0974
    9.660    5.1817
    9.675    5.1080
    9.690    5.2659
    9.705    5.2870
    9.720    5.3291
    9.735    5.0553
    9.750    4.6972
    9.765    4.9500
    9.780    5.3502
    9.795    5.2449
    9.810    5.1290
    9.825    5.0237
    9.840    5.0764
    9.855    4.7709
    9.870    5.2027
    9.885    5.1185
    9.900    5.0869
    9.915    5.2975
    9.930    4.9394
    9.945    4.9184
    9.960    4.7709
    9.975    5.0869
    9.990    4.9605
   10.005    5.4555
   10.020    5.1290
   10.035    4.9921
   10.050    5.0658
   10.065    5.5082
   10.080    5.0764
   10.095    5.2027
   10.110    4.8973
   10.125    5.0658
   10.140    5.0132
   10.155    5.2870
   10.170    5.2870
   10.185    5.2027
   10.200    5.0553
   10.215    5.1185
   10.230    5.3186
   10.245    5.3607
   10.260    5.6977
   10.275    5.3712
   10.290    5.5924
   10.305    5.6767
   10.320    5.6977
   10.335    5.5714
   10.350    5.2238
   10.365    6.0242
   10.380    5.8347
   10.395    6.0137
   10.410    5.5187
   10.425    5.6240
   10.440    5.7820
   10.455    5.5503
   10.470    5.5608
   10.485    5.2659
   10.500    5.8241
   10.515    5.5082
   10.530    5.7293
   10.545    5.6556
   10.560    5.5503
   10.575    5.3818
   10.590    5.4028
   10.605    5.0026
   10.620    5.2133
   10.635    5.1817
   10.650    5.1501
   10.665    5.3186
   10.680    5.0132
   10.695    5.0237
   10.710    5.4028
   10.725    4.9394
   10.740    5.3818
   10.755    5.4028
   10.770    5.0764
   10.785    5.4134
   10.800    5.3186
   10.815    5.1395
   10.830    5.2133
   10.845    5.0764
   10.860    4.9078
   10.875    5.0342
   10.890    5.0448
   10.905    5.2027
   10.920    5.4766
   10.935    5.2765
   10.950    5.2238
   10.965    5.5292
   10.980    5.3502
   10.995    5.2765
   11.010    5.3502
   11.025    5.8136
   11.040    5.3502
   11.055    5.4976
   11.070    5.2554
   11.085    5.3291
   11.100    5.0132
   11.115    5.1922
   11.130    4.6340
   11.145    4.8025
   11.160    4.8973
   11.175    4.9394
   11.190    5.1501
   11.205    4.9816
   11.220    5.2449
   11.235    5.0974
   11.250    5.0026
   11.265    5.0448
   11.280    5.5187
   11.295    5.2765
   11.310    5.1290
   11.325    5.0658
   11.340    5.2343
   11.355    5.0658
   11.370    4.9500
   11.385    5.2659
   11.400    5.2238
   11.415    5.0237
   11.430    4.9710
   11.445    5.2343
   11.460    5.1080
   11.475    5.1922
   11.490    5.3186
   11.505    5.0342
   11.520    5.3502
   11.535    5.1606
   11.550    5.3186
   11.565    5.4028
   11.580    5.3291
   11.595    5.4660
   11.610    5.0237
   11.625    5.2133
   11.640    5.4660
   11.655    5.2659
   11.670    5.4450
   11.685    5.5503
   11.700    5.4344
   11.715    5.4766
   11.730    5.2659
   11.745    5.3081
   11.760    5.2027
   11.775    5.3291
   11.790    5.4344
   11.805    5.2133
   11.820    5.3607
   11.835    5.1395
   11.850    5.2343
   11.865    5.4450
   11.880    5.3712
   11.895    5.1395
   11.910    5.2238
   11.925    5.1711
   11.940    5.0869
   11.955    5.0658
   11.970    5.0764
   11.985    5.5608
   12.000    5.3818
   12.015    5.0869
   12.030    5.3186
   12.045    5.1395
   12.060    5.3081
   12.075    5.3291
   12.090    5.4871
   12.105    5.1185
   12.120    5.4134
   12.135    5.4450
   12.150    5.1711
   12.165    5.1080
   12.180    5.4555
   12.195    5.2238
   12.210    5.2765
   12.225    5.3397
   12.240    5.2238
   12.255    5.2554
   12.270    5.4660
   12.285    5.4871
   12.300    4.9605
   12.315    5.4134
   12.330    5.3818
   12.345    5.0553
   12.360    5.4134
   12.375    5.3186
   12.390    4.9921
   12.405    5.2238
   12.420    5.3291
   12.435    5.4450
   12.450    5.4239
   12.465    5.1606
   12.480    5.4344
   12.495    5.4134
   12.510    5.2343
   12.525    5.2343
   12.540    5.3186
   12.555    5.0658
   12.570    5.0764
   12.585    5.3502
   12.600    5.4555
   12.615    5.3502
   12.630    5.5503
   12.645    5.1606
   12.660    5.2027
   12.675    5.1817
   12.690    5.1080
   12.705    5.5082
   12.720    5.2554
   12.735    5.2449
   12.750    5.2027
   12.765    5.1290
   12.780    5.7609
   12.795    5.4660
   12.810    5.1395
   12.825    5.2133
   12.840    5.1606
   12.855    5.2343
   12.870    5.2765
   12.885    5.3923
   12.900    5.6029
   12.915    5.4976
   12.930    5.6345
   12.945    5.7504
   12.960    5.3923
   12.975    5.2554
   12.990    5.3397
   13.005    5.3081
   13.020    4.9816
   13.035    5.2343
   13.050    4.9500
   13.065    5.0764
   13.080    5.1080
   13.095    5.1395
   13.110    5.3081
   13.125    5.3186
   13.140    5.2975
   13.155    5.4555
   13.170    5.0342
   13.185    5.3923
   13.200    5.0132
   13.215    4.8131
   13.230    5.1711
   13.245    4.9394
   13.260    5.0448
   13.275    5.2343
   13.290    5.3291
   13.305    5.2870
   13.320    5.4976
   13.335    5.2975
   13.350    5.0658
   13.365    5.0026
   13.380    4.9710
   13.395    5.2449
   13.410    5.3923
   13.425    5.3712
   13.440    5.5187
   13.455    5.4660
   13.470    5.0553
   13.485    5.3818
   13.500    5.1922
   13.515    5.0764
   13.530    4.9710
   13.545    5.1080
   13.560    4.8973
   13.575    5.2554
   13.590    4.9078
   13.605    5.0132
   13.620    4.8973
   13.635    4.8236
   13.650    5.1395
   13.665    5.0026
   13.680    4.8763
   13.695    5.1922
   13.710    5.4450
   13.725    5.2133
   13.740    5.3818
   13.755    5.0658
   13.770    4.9710
   13.785    5.1606
   13.800    4.9816
   13.815    5.0026
   13.830    4.8341
   13.845    5.1606
   13.860    5.4450
   13.875    5.2027
   13.890    5.2659
   13.905    4.6761
   13.920    5.0132
   13.935    5.2343
   13.950    5.2133
   13.965    5.2133
   13.980    4.8973
   13.995    4.9605
   14.010    4.9605
   14.025    5.3712
   14.040    5.2343
   14.055    5.3186
   14.070    5.0869
   14.085    4.9184
   14.100    4.9394
   14.115    4.8131
   14.130    4.7815
   14.145    5.0342
   14.160    4.8552
   14.175    5.2765
   14.190    4.9710
   14.205    5.0448
   14.220    4.7288
   14.235    4.8236
   14.250    4.9289
   14.265    4.8973
   14.280    5.0132
   14.295    4.8552
   14.310    4.5919
   14.325    4.8868
   14.340    5.3397
   14.355    4.9394
   14.370    4.6445
   14.385    4.7077
   14.400    4.7815
   14.415    4.6761
   14.430    5.1501
   14.445    4.7077
   14.460    4.8341
   14.475    5.1080
   14.490    5.1080
   14.505    4.9394
   14.520    4.7499
   14.535    4.9816
   14.550    4.7499
   14.565    4.8236
   14.580    4.9816
   14.595    5.1080
   14.610    4.8341
   14.625    4.6656
   14.640    4.6656
   14.655    5.0448
   14.670    5.1290
   14.685    4.6445
   14.700    4.6867
   14.715    5.0869
   14.730    4.9394
   14.745    4.8552
   14.760    4.7183
   14.775    4.8236
   14.790    4.7920
   14.805    4.8341
   14.820    4.8763
   14.835    4.9078
   14.850    4.8552
   14.865    4.8236
   14.880    4.7183
   14.895    4.5814
   14.910    4.7920
   14.925    4.8341
   14.940    4.8341
   14.955    5.0553
   14.970    4.5182
   14.985    4.5919
   15.000    4.5498
   15.015    4.7499
   15.030    4.6024
   15.045    4.9184
   15.060    4.9710
   15.075    4.9500
   15.090    4.7709
   15.105    4.7077
   15.120    4.4550
   15.135    4.6551
   15.150    5.1080
   15.165    4.7815
   15.180    4.8341
   15.195    4.5182
   15.210    4.9605
   15.225    5.0553
   15.240    5.1711
   15.255    4.9289
   15.270    4.9500
   15.285    5.0237
   15.300    4.9816
   15.315    4.7288
   15.330    4.8868
   15.345    5.1080
   15.360    4.8025
   15.375    5.0869
   15.390    5.0448
   15.405    4.6340
   15.420    4.6445
   15.435    4.6340
   15.450    4.8552
   15.465    4.9816
   15.480    4.9710
   15.495    5.0026
   15.510    5.0448
   15.525    4.7709
   15.540    4.8973
   15.555    4.6340
   15.570    4.7183
   15.585    4.8341
   15.600    5.0658
   15.615    5.0658
   15.630    4.6972
   15.645    5.0026
   15.660    4.7288
   15.675    4.9500
   15.690    4.9605
   15.705    4.8131
   15.720    4.9500
   15.735    4.6867
   15.750    4.8341
   15.765    4.9816
   15.780    4.8657
   15.795    5.0658
   15.810    5.0869
   15.825    5.1080
   15.840    4.8552
   15.855    4.7077
   15.870    4.3813
   15.885    4.7815
   15.900    5.1922
   15.915    4.9289
   15.930    4.6340
   15.945    4.8236
   15.960    5.0026
   15.975    4.8025
   15.990    5.2238
   16.005    5.2765
   16.020    4.9500
   16.035    4.9394
   16.050    4.7604
   16.065    4.6340
   16.080    4.9289
   16.095    5.1395
   16.110    4.8657
   16.125    4.5603
   16.140    4.7920
   16.155    5.0658
   16.170    5.1395
   16.185    5.3186
   16.200    4.9500
   16.215    4.7815
   16.230    4.9394
   16.245    4.7815
   16.260    4.7920
   16.275    4.5603
   16.290    4.9500
   16.305    4.8552
   16.320    5.0448
   16.335    5.0342
   16.350    5.0764
   16.365    4.8341
   16.380    4.6761
   16.395    5.0658
   16.410    5.0553
   16.425    5.0132
   16.440    5.0448
   16.455    4.8973
   16.470    4.9289
   16.485    4.6761
   16.500    4.8868
   16.515    4.5392
   16.530    4.5603
   16.545    5.0764
   16.560    4.7183
   16.575    4.9605
   16.590    4.9921
   16.605    4.8447
   16.620    4.8552
   16.635    4.8973
   16.650    4.8341
   16.665    4.8447
   16.680    4.8973
   16.695    4.5182
   16.710    4.5287
   16.725    4.7288
   16.740    4.7709
   16.755    4.7288
   16.770    4.6551
   16.785    4.7288
   16.800    4.6445
   16.815    4.5498
   16.830    4.8341
   16.845    5.1606
   16.860    4.7183
   16.875    4.8973
   16.890    5.0553
   16.905    4.7815
   16.920    4.6024
   16.935    4.9921
   16.950    5.0132
   16.965    4.7604
   16.980    5.3712
   16.995    4.7604
   17.010    5.0869
   17.025    4.7077
   17.040    4.9500
   17.055    5.0869
   17.070    4.9921
   17.085    4.8973
   17.100    4.9921
   17.115    5.0658
   17.130    4.9605
   17.145    4.4760
   17.160    4.6445
   17.175    4.9394
   17.190    4.7815
   17.205    5.0869
   17.220    4.6867
   17.235    4.8868
   17.250    4.7393
   17.265    4.5287
   17.280    4.9394
   17.295    4.7393
   17.310    4.4760
   17.325    4.6130
   17.340    4.6656
   17.355    4.9605
   17.370    4.9710
   17.385    5.0764
   17.400    5.0132
   17.415    4.9710
   17.430    5.0658
   17.445    4.7815
   17.460    4.6551
   17.475    5.0658
   17.490    4.8868
   17.505    5.0026
   17.520    4.8552
   17.535    4.8763
   17.550    5.0658
   17.565    4.6867
   17.580    4.8657
   17.595    4.8552
   17.610    4.8868
   17.625    4.8657
   17.640    4.8341
   17.655    4.7499
   17.670    5.0132
   17.685    4.9605
   17.700    4.9184
   17.715    4.6445
   17.730    4.7920
   17.745    4.9184
   17.760    4.7393
   17.775    4.7077
   17.790    4.8447
   17.805    4.9816
   17.820    4.8341
   17.835    4.7077
   17.850    5.0026
   17.865    4.8131
   17.880    4.9078
   17.895    4.8236
   17.910    4.9605
   17.925    4.9289
   17.940    4.7499
   17.955    5.1922
   17.970    5.0237
   17.985    5.0658
   18.000    5.0974
   18.015    5.2449
   18.030    5.1185
   18.045    4.9500
   18.060    4.4971
   18.075    4.6235
   18.090    4.4760
   18.105    4.9078
   18.120    4.8868
   18.135    4.4023
   18.150    4.8657
   18.165    5.0553
   18.180    5.0132
   18.195    5.2765
   18.210    4.6445
   18.225    4.8025
   18.240    4.6656
   18.255    4.6551
   18.270    5.0974
   18.285    5.1606
   18.300    5.0448
   18.315    4.8868
   18.330    4.9921
   18.345    5.2975
   18.360    4.9289
   18.375    4.7393
   18.390    4.7920
   18.405    4.9184
   18.420    4.9816
   18.435    4.9289
   18.450    4.8552
   18.465    5.2027
   18.480    5.0237
   18.495    4.8131
   18.510    5.0553
   18.525    4.7183
   18.540    4.9184
   18.555    5.2659
   18.570    4.9394
   18.585    5.0026
   18.600    4.7499
   18.615    4.7920
   18.630    4.9921
   18.645    5.0658
   18.660    4.9921
   18.675    4.7393
   18.690    4.6867
   18.705    5.0764
   18.720    5.1290
   18.735    4.9710
   18.750    4.8025
   18.765    4.8763
   18.780    4.7499
   18.795    4.9605
   18.810    4.7288
   18.825    4.8763
   18.840    4.8447
   18.855    5.3397
   18.870    4.9289
   18.885    5.1606
   18.900    5.2343
   18.915    5.0974
   18.930    5.0974
   18.945    5.3818
   18.960    5.3923
   18.975    5.0448
   18.990    4.9078
   19.005    4.9605
   19.020    5.2238
   19.035    5.4028
   19.050    5.3081
   19.065    4.8657
   19.080    5.0448
   19.095    5.2554
   19.110    5.0869
   19.125    4.7183
   19.140    5.1395
   19.155    5.0658
   19.170    4.9605
   19.185    5.2765
   19.200    5.5503
   19.215    5.2027
   19.230    5.0764
   19.245    4.8868
   19.260    4.9921
   19.275    5.5503
   19.290    5.3502
   19.305    4.7183
   19.320    4.9605
   19.335    4.7815
   19.350    5.0448
   19.365    4.9816
   19.380    5.1080
   19.395    5.0237
   19.410    4.9816
   19.425    4.8763
   19.440    5.0764
   19.455    4.9710
   19.470    4.9184
   19.485    5.0342
   19.500    5.0342
   19.515    5.5082
   19.530    5.7504
   19.545    5.4134
   19.560    5.0974
   19.575    5.4976
   19.590    5.2238
   19.605    5.2975
   19.620    5.2659
   19.635    5.3923
   19.650    5.2870
   19.665    5.0974
   19.680    4.8973
   19.695    4.8763
   19.710    5.1501
   19.725    5.2343
   19.740    5.3291
   19.755    5.0026
   19.770    5.1501
   19.785    5.1185
   19.800    5.0448
   19.815    4.9184
   19.830    5.1501
   19.845    5.0869
   19.860    5.0026
   19.875    5.2659
   19.890    5.2343
   19.905    5.3607
   19.920    5.5819
   19.935    5.2554
   19.950    5.3923
   19.965    5.3923
   19.980    5.1395
   19.995    5.0237
   20.010    5.4134
   20.025    5.2975
   20.040    5.1501
   20.055    5.3397
   20.070    5.1290
   20.085    5.1290
   20.100    5.5082
   20.115    5.3607
   20.130    5.4344
   20.145    5.0974
   20.160    5.3502
   20.175    5.3502
   20.190    4.8868
   20.205    4.9605
   20.220    5.1922
   20.235    5.3607
   20.250    5.2975
   20.265    5.0132
   20.280    5.4344
   20.295    5.2343
   20.310    5.1080
   20.325    5.0974
   20.340    5.4239
   20.355    5.2343
   20.370    5.4028
   20.385    5.6872
   20.400    5.6451
   20.415    5.4239
   20.430    5.4239
   20.445    5.1922
   20.460    5.6556
   20.475    5.4660
   20.490    5.4450
   20.505    5.3923
   20.520    5.1922
   20.535    5.4660
   20.550    5.3081
   20.565    5.6029
   20.580    5.3397
   20.595    5.2870
   20.610    5.4660
   20.625    5.1185
   20.640    4.8447
   20.655    4.9816
   20.670    5.1290
   20.685    5.4344
   20.700    5.6977
   20.715    5.3186
   20.730    5.0658
   20.745    5.0342
   20.760    5.0869
   20.775    5.2554
   20.790    5.1711
   20.805    5.2765
   20.820    5.6767
   20.835    5.2449
   20.850    5.0553
   20.865    5.4766
   20.880    5.7293
   20.895    4.9605
   20.910    5.1922
   20.925    5.3818
   20.940    5.2554
   20.955    5.6451
   20.970    5.2343
   20.985    5.3818
   21.000    5.3712
   21.015    5.2554
   21.030    5.4660
   21.045    5.5819
   21.060    5.1922
   21.075    5.2659
   21.090    5.1922
   21.105    5.4555
   21.120    5.4555
   21.135    5.1185
   21.150    5.4976
   21.165    5.3397
   21.180    5.4766
   21.195    5.2659
   21.210    5.2133
   21.225    5.6345
   21.240    5.5398
   21.255    5.3607
   21.270    5.4766
   21.285    5.5714
   21.300    5.4134
   21.315    5.2027
   21.330    5.3397
   21.345    5.2659
   21.360    5.2449
   21.375    5.2554
   21.390    5.3081
   21.405    5.1606
   21.420    5.2449
   21.435    4.8552
   21.450    5.1606
   21.465    5.5924
   21.480    5.8978
   21.495    5.5819
   21.510    5.2027
   21.525    5.2975
   21.540    5.3291
   21.555    5.5714
   21.570    5.3607
   21.585    5.3818
   21.600    5.0974
   21.615    5.1711
   21.630    5.1185
   21.645    5.6135
   21.660    5.6977
   21.675    5.4976
   21.690    5.4239
   21.705    5.3502
   21.720    5.2975
   21.735    5.2133
   21.750    5.2765
   21.765    5.2027
   21.780    5.2343
   21.795    5.1185
   21.810    5.5819
   21.825    5.3818
   21.840    5.0764
   21.855    5.1185
   21.870    5.0869
   21.885    5.6345
   21.900    5.4555
   21.915    5.2027
   21.930    5.6135
   21.945    5.5082
   21.960    5.4450
   21.975    5.5819
   21.990    5.4028
   22.005    5.4239
   22.020    5.0869
   22.035    5.3397
   22.050    5.1395
   22.065    5.1711
   22.080    5.3186
   22.095    5.3081
   22.110    5.3712
   22.125    5.3291
   22.140    5.4871
   22.155    5.3923
   22.170    5.1185
   22.185    5.3818
   22.200    5.4134
   22.215    5.0553
   22.230    5.0869
   22.245    5.2975
   22.260    4.9184
   22.275    5.1711
   22.290    5.0342
   22.305    5.2238
   22.320    5.4134
   22.335    5.3923
   22.350    5.5819
   22.365    5.2975
   22.380    4.8973
   22.395    5.2343
   22.410    5.0869
   22.425    5.1395
   22.440    5.6451
   22.455    5.3923
   22.470    5.3818
   22.485    5.4028
   22.500    5.3923
   22.515    5.3081
   22.530    5.3712
   22.545    5.2554
   22.560    5.2659
   22.575    5.4134
   22.590    5.5187
   22.605    5.2975
   22.620    5.4028
   22.635    5.3818
   22.650    5.3607
   22.665    5.5819
   22.680    5.0869
   22.695    5.1080
   22.710    5.5292
   22.725    5.4344
   22.740    5.3923
   22.755    5.3923
   22.770    5.4344
   22.785    5.5608
   22.800    5.3923
   22.815    5.2554
   22.830    5.4450
   22.845    4.6761
   22.860    5.0342
   22.875    5.2765
   22.890    5.2659
   22.905    5.1080
   22.920    5.3923
   22.935    5.5714
   22.950    5.3607
   22.965    5.1501
   22.980    5.0974
   22.995    5.3186
   23.010    5.3607
   23.025    5.3502
   23.040    5.1185
   23.055    5.2238
   23.070    5.3081
   23.085    5.5082
   23.100    5.2027
   23.115    5.0342
   23.130    5.0764
   23.145    5.4450
   23.160    5.4239
   23.175    5.0026
   23.190    5.5714
   23.205    5.6661
   23.220    5.1711
   23.235    4.9078
   23.250    5.2343
   23.265    5.2027
   23.280    5.1290
   23.295    5.3502
   23.310    5.3712
   23.325    5.4766
   23.340    5.6767
   23.355    5.3712
   23.370    4.8973
   23.385    5.0132
   23.400    5.1395
   23.415    5.0448
   23.430    5.4766
   23.445    5.4555
   23.460    5.3712
   23.475    5.3818
   23.490    5.4450
   23.505    5.2343
   23.520    5.4239
   23.535    5.1185
   23.550    5.1922
   23.565    5.0237
   23.580    5.3712
   23.595    5.2765
   23.610    5.4555
   23.625    5.0974
   23.640    5.2238
   23.655    4.9921
   23.670    5.0132
   23.685    5.2133
   23.700    5.4028
   23.715    5.0237
   23.730    5.0132
   23.745    4.7815
   23.760    5.1290
   23.775    4.9605
   23.790    5.0553
   23.805    4.8236
   23.820    4.9184
   23.835    4.8973
   23.850    5.0448
   23.865    5.0237
   23.880    4.8763
   23.895    5.1817
   23.910    5.0132
   23.925    5.1185
   23.940    5.3081
   23.955    5.3291
   23.970    5.3291
   23.985    4.9816
   24.000    5.2659
   24.015    4.9605
   24.030    5.0448
   24.045    5.6451
   24.060    5.1290
   24.075    5.2765
   24.090    5.0869
   24.105    4.7183
   24.120    5.2238
   24.135    5.0026
   24.150    5.0974
   24.165    5.1711
   24.180    5.2554
   24.195    4.9394
   24.210    5.1501
   24.225    4.8236
   24.240    4.8447
   24.255    5.1817
   24.270    4.9921
   24.285    5.1606
   24.300    5.1290
   24.315    4.8447
   24.330    5.1922
   24.345    5.0342
   24.360    4.6551
   24.375    4.8236
   24.390    5.0553
   24.405    4.9289
   24.420    4.8657
   24.435    4.8341
   24.450    4.9816
   24.465    4.8973
   24.480    5.0869
   24.495    5.5714
   24.510    5.4976
   24.525    5.2133
   24.540    5.1711
   24.555    5.2133
   24.570    4.9710
   24.585    5.0658
   24.600    5.1185
   24.615    5.2765
   24.630    4.6972
   24.645    5.0237
   24.660    5.2133
   24.675    4.8131
   24.690    5.0448
   24.705    4.9816
   24.720    4.9289
   24.735    5.0658
   24.750    5.0448
   24.765    4.8341
   24.780    4.8973
   24.795    4.8657
   24.810    4.8973
   24.825    5.0553
   24.840    5.0132
   24.855    5.2765
   24.870    5.0448
   24.885    4.9394
   24.900    4.8341
   24.915    4.8131
   24.930    4.8025
   24.945    5.0974
   24.960    5.3081
   24.975    4.8868
   24.990    5.0026
   25.005    5.1817
   25.020    4.9710
   25.035    4.7499
   25.050    4.8552
   25.065    4.9921
   25.080    5.1606
   25.095    4.9289
   25.110    4.8763
   25.125    4.9710
   25.140    5.0342
   25.155    4.8341
   25.170    5.2027
   25.185    4.7393
   25.200    4.6445
   25.215    4.8341
   25.230    5.0974
   25.245    4.8973
   25.260    4.6445
   25.275    4.9710
   25.290    4.8236
   25.305    4.7183
   25.320    4.5392
   25.335    4.8868
   25.350    4.9816
   25.365    4.6761
   25.380    5.0448
   25.395    4.8868
   25.410    4.7183
   25.425    4.8447
   25.440    4.8131
   25.455    4.8868
   25.470    4.6551
   25.485    4.4444
   25.500    4.8236
   25.515    5.0658
   25.530    4.6867
   25.545    4.5919
   25.560    4.7077
   25.575    4.6972
   25.590    5.2765
   25.605    4.7393
   25.620    4.6340
   25.635    4.7288
   25.650    4.6340
   25.665    4.7709
   25.680    4.7709
   25.695    4.7393
   25.710    4.5708
   25.725    4.4971
   25.740    4.7077
   25.755    4.7393
   25.770    4.8447
   25.785    4.8447
   25.800    4.6551
   25.815    4.8236
   25.830    4.7077
   25.845    4.6761
   25.860    4.7709
   25.875    4.7920
   25.890    4.4866
   25.905    4.6551
   25.920    4.7393
   25.935    4.6761
   25.950    4.9816
   25.965    5.0342
   25.980    4.8131
   25.995    4.7604
   26.010    5.1817
   26.025    4.5603
   26.040    4.7709
   26.055    4.7393
   26.070    4.4655
   26.085    4.9394
   26.100    4.7183
   26.115    4.6867
   26.130    4.4128
   26.145    4.3707
   26.160    4.7288
   26.175    4.7709
   26.190    4.8025
   26.205    4.7920
   26.220    4.7920
   26.235    4.7499
   26.250    4.5708
   26.265    4.7709
   26.280    4.4760
   26.295    4.7288
   26.310    4.7077
   26.325    4.6130
   26.340    4.8868
   26.355    4.8447
   26.370    4.4550
   26.385    4.2233
   26.400    4.4550
   26.415    4.6551
   26.430    4.4971
   26.445    4.2549
   26.460    4.6761
   26.475    4.6551
   26.490    4.7499
   26.505    5.0026
   26.520    4.9078
   26.535    4.4971
   26.550    4.6867
   26.565    4.6130
   26.580    4.6130
   26.595    4.5287
   26.610    4.7815
   26.625    4.2233
   26.640    4.3391
   26.655    4.5392
   26.670    4.5708
   26.685    4.4655
   26.700    4.5814
   26.715    4.8236
   26.730    4.5498
   26.745    4.7709
   26.760    4.6235
   26.775    4.5392
   26.790    4.5603
   26.805    4.5603
   26.820    4.6445
   26.835    4.3813
   26.850    4.5076
   26.865    4.5392
   26.880    4.7604
   26.895    4.2443
   26.910    4.2443
   26.925    4.8973
   26.940    4.6340
   26.955    4.3707
   26.970    4.7604
   26.985    4.6235
   27.000    4.5603
   27.015    4.4128
   27.030    4.4023
   27.045    4.4023
   27.060    4.6656
   27.075    4.4444
   27.090    4.4444
   27.105    4.3181
   27.120    4.6551
   27.135    4.6972
   27.150    4.8025
   27.165    4.4339
   27.180    4.5919
   27.195    4.5603
   27.210    4.6130
   27.225    4.5392
   27.240    4.4023
   27.255    4.5708
   27.270    4.4128
   27.285    4.4866
   27.300    4.4023
   27.315    4.6024
   27.330    4.7815
   27.345    4.7077
   27.360    4.5919
   27.375    4.4023
   27.390    4.5076
   27.405    4.3181
   27.420    4.4550
   27.435    4.4128
   27.450    4.2443
   27.465    4.5919
   27.480    4.3391
   27.495    4.4971
   27.510    4.3813
   27.525    4.2233
   27.540    4.2970
   27.555    4.3497
   27.570    4.3391
   27.585    4.5182
   27.600    4.5603
   27.615    4.2022
   27.630    4.1496
   27.645    4.5708
   27.660    4.4234
   27.675    4.4760
   27.690    4.6445
   27.705    4.4339
   27.720    4.3918
   27.735    4.2338
   27.750    4.6024
   27.765    4.6867
   27.780    4.8341
   27.795    4.2233
   27.810    4.2443
   27.825    4.2654
   27.840    4.5814
   27.855    4.7183
   27.870    4.4234
   27.885    4.3602
   27.900    4.5603
   27.915    4.6235
   27.930    4.3286
   27.945    4.3181
   27.960    4.4023
   27.975    4.5287
   27.990    4.4866
   28.005    4.4655
   28.020    4.8447
   28.035    4.8552
   28.050    4.2865
   28.065    4.5814
   28.080    4.5603
   28.095    4.6340
   28.110    4.5182
   28.125    4.3918
   28.140    4.7077
   28.155    4.8341
   28.170    4.2233
   28.185    4.6551
   28.200    4.6972
   28.215    4.7709
   28.230    4.5498
   28.245    4.7288
   28.260    4.5498
   28.275    4.4234
   28.290    4.4234
   28.305    4.1074
   28.320    4.3075
   28.335    4.4234
   28.350    4.6445
   28.365    4.6551
   28.380    4.6656
   28.395    4.2338
   28.410    4.5182
   28.425    4.4760
   28.440    4.3075
   28.455    4.7077
   28.470    4.7288
   28.485    4.5814
   28.500    4.3602
   28.515    4.0337
   28.530    4.3286
   28.545    4.4234
   28.560    4.4550
   28.575    4.2549
   28.590    4.4655
   28.605    4.4339
   28.620    4.3602
   28.635    4.6656
   28.650    4.7183
   28.665    4.4866
   28.680    4.3286
   28.695    4.4550
   28.710    4.5919
   28.725    4.5708
   28.740    4.1074
   28.755    4.0337
   28.770    4.1390
   28.785    4.4866
   28.800    4.2654
   28.815    3.9600
   28.830    4.0758
   28.845    4.4023
   28.860    4.1811
   28.875    4.3602
   28.890    4.6130
   28.905    4.4444
   28.920    4.2865
   28.935    4.4550
   28.950    4.4971
   28.965    4.4760
   28.980    4.5392
   28.995    4.4128
   29.010    4.2549
   29.025    4.4550
   29.040    4.2865
   29.055    4.5603
   29.070    4.5076
   29.085    4.4023
   29.100    4.3497
   29.115    4.2338
   29.130    4.4023
   29.145    4.4234
   29.160    4.4550
   29.175    4.5814
   29.190    4.1917
   29.205    4.4760
   29.220    4.3602
   29.235    4.1180
   29.250    4.2970
   29.265    4.0758
   29.280    4.5708
   29.295    4.3602
   29.310    4.2338
   29.325    4.2233
   29.340    4.5708
   29.355    4.5603
   29.370    4.3918
   29.385    4.1390
   29.400    4.2654
   29.415    4.1390
   29.430    4.2865
   29.445    4.0864
   29.460    4.2443
   29.475    4.2022
   29.490    4.4655
   29.505    4.4550
   29.520    4.3181
   29.535    4.2443
   29.550    4.2549
   29.565    4.0442
   29.580    4.0337
   29.595    4.2443
   29.610    4.1496
   29.625    4.3497
   29.640    4.4023
   29.655    4.4023
   29.670    4.1917
   29.685    4.4550
   29.700    4.3075
   29.715    4.3391
   29.730    4.1811
   29.745    4.2233
   29.760    4.3286
   29.775    4.2865
   29.790    4.4866
   29.805    4.3602
   29.820    3.9916
   29.835    4.3286
   29.850    4.2022
   29.865    3.8863
   29.880    4.1074
   29.895    4.2127
   29.910    4.1811
   29.925    4.2022
   29.940    4.2127
   29.955    3.8336
   29.970    4.0864
   29.985    4.5076
   30.000    4.0758
   30.015    4.1074
   30.030    4.4760
   30.045    3.9916
   30.060    3.8231
   30.075    4.0758
   30.090    4.6656
   30.105    3.9705
   30.120    4.0232
   30.135    4.1917
   30.150    4.2970
   30.165    4.2549
   30.180    4.0232
   30.195    4.4234
   30.210    4.3918
   30.225    4.0969
   30.240    4.5919
   30.255    4.2970
   30.270    4.4444
   30.285    4.3391
   30.300    4.1917
   30.315    3.9705
   30.330    4.0653
   30.345    3.8336
   30.360    3.9810
   30.375    3.9705
   30.390    4.0337
   30.405    4.2549
   30.420    4.5182
   30.435    4.3813
   30.450    4.2338
   30.465    3.8968
   30.480    4.2127
   30.495    4.1917
   30.510    4.2970
   30.525    4.1074
   30.540    4.0442
   30.555    4.0758
   30.570    4.2759
   30.585    4.1706
   30.600    4.2127
   30.615    4.3602
   30.630    4.2443
   30.645    3.8441
   30.660    4.0548
   30.675    3.9389
   30.690    4.0653
   30.705    4.2865
   30.720    4.4128
   30.735    4.4128
   30.750    4.2549
   30.765    3.9810
   30.780    4.1496
   30.795    4.3075
   30.810    4.1390
   30.825    4.2759
   30.840    4.0758
   30.855    3.8757
   30.870    4.1496
   30.885    3.8652
   30.900    4.2443
   30.915    4.0442
   30.930    3.8863
   30.945    3.9810
   30.960    4.2022
   30.975    3.9600
   30.990    3.8863
   31.005    4.1390
   31.020    4.0021
   31.035    4.2233
   31.050    4.1496
   31.065    3.9389
   31.080    4.4023
   31.095    4.2970
   31.110    3.9494
   31.125    4.1180
   31.140    4.2127
   31.155    3.7388
   31.170    3.9284
   31.185    4.0548
   31.200    3.7809
   31.215    4.0864
   31.230    4.0758
   31.245    3.8547
   31.260    4.0653
   31.275    4.0337
   31.290    4.2549
   31.305    4.0021
   31.320    4.2443
   31.335    4.3391
   31.350    3.9389
   31.365    4.0442
   31.380    3.8757
   31.395    4.0232
   31.410    3.8652
   31.425    4.1917
   31.440    4.0126
   31.455    4.0864
   31.470    4.0864
   31.485    3.8968
   31.500    3.8336
   31.515    4.2127
   31.530    3.9916
   31.545    3.9916
   31.560    4.0653
   31.575    4.2549
   31.590    4.2654
   31.605    4.1180
   31.620    4.1496
   31.635    4.1180
   31.650    3.9073
   31.665    4.0548
   31.680    4.1074
   31.695    4.3075
   31.710    4.2549
   31.725    4.2127
   31.740    4.2338
   31.755    4.0758
   31.770    4.1180
   31.785    4.1285
   31.800    4.3391
   31.815    4.1917
   31.830    4.2549
   31.845    4.0969
   31.860    4.0969
   31.875    4.2865
   31.890    4.1706
   31.905    4.2654
   31.920    4.2759
   31.935    4.2233
   31.950    4.2443
   31.965    4.3602
   31.980    4.4971
   31.995    4.4444
   32.010    4.6340
   32.025    4.5287
   32.040    4.8341
   32.055    4.8763
   32.070    4.7288
   32.085    4.5076
   32.100    4.3602
   32.115    4.7393
   32.130    4.7077
   32.145    4.6656
   32.160    4.3707
   32.175    4.4234
   32.190    4.4339
   32.205    4.1390
   32.220    4.2022
   32.235    4.1074
   32.250    3.9073
   32.265    3.8441
   32.280    3.9179
   32.295    4.0548
   32.310    4.0758
   32.325    3.8757
   32.340    3.8020
   32.355    3.8125
   32.370    3.7493
   32.385    3.6335
   32.400    3.9073
   32.415    4.4234
   32.430    3.9705
   32.445    4.1706
   32.460    3.8125
   32.475    4.0232
   32.490    3.9916
   32.505    3.7388
   32.520    3.9073
   32.535    3.7493
   32.550    3.6756
   32.565    3.8757
   32.580    4.0653
   32.595    3.9916
   32.610    3.8020
   32.625    3.6967
   32.640    3.5176
   32.655    3.8547
   32.670    3.7388
   32.685    3.8547
   32.700    3.7388
   32.715    3.8020
   32.730    3.8968
   32.745    4.0126
   32.760    3.9073
   32.775    3.9705
   32.790    3.9073
   32.805    4.0337
   32.820    3.7809
   32.835    3.6862
   32.850    3.6230
   32.865    3.8863
   32.880    3.6546
   32.895    3.6440
   32.910    3.6756
   32.925    4.0653
   32.940    4.2022
   32.955    4.0021
   32.970    4.0442
   32.985    4.0126
   33.000    3.7388
   33.015    3.5492
   33.030    3.7704
   33.045    4.1074
   33.060    3.9284
   33.075    3.7283
   33.090    3.9179
   33.105    3.9179
   33.120    3.8020
   33.135    3.6546
   33.150    3.5282
   33.165    3.7809
   33.180    3.6756
   33.195    3.4755
   33.210    3.7072
   33.225    3.5808
   33.240    3.6756
   33.255    3.6335
   33.270    3.8652
   33.285    3.6440
   33.300    3.5071
   33.315    3.7493
   33.330    3.8441
   33.345    3.8863
   33.360    3.9179
   33.375    3.6124
   33.390    3.3702
   33.405    3.7283
   33.420    3.3281
   33.435    3.4860
   33.450    4.0653
   33.465    3.6440
   33.480    3.4966
   33.495    3.5914
   33.510    3.7704
   33.525    3.7809
   33.540    3.7283
   33.555    3.5176
   33.570    4.0653
   33.585    3.8547
   33.600    3.7177
   33.615    3.5282
   33.630    3.8652
   33.645    3.8547
   33.660    3.5914
   33.675    3.9179
   33.690    3.9389
   33.705    4.0653
   33.720    4.0442
   33.735    3.8863
   33.750    3.8231
   33.765    3.7809
   33.780    3.5176
   33.795    3.3386
   33.810    3.7388
   33.825    3.5914
   33.840    3.6651
   33.855    3.8968
   33.870    3.7915
   33.885    3.8125
   33.900    3.4966
   33.915    3.7283
   33.930    3.7599
   33.945    3.8547
   33.960    3.5914
   33.975    3.5598
   33.990    3.6967
   34.005    3.4123
   34.020    3.6335
   34.035    3.8336
   34.050    3.6967
   34.065    3.8441
   34.080    3.9073
   34.095    3.9494
   34.110    3.4966
   34.125    3.5282
   34.140    3.5387
   34.155    3.5914
   34.170    3.4966
   34.185    3.5914
   34.200    3.5914
   34.215    3.6967
   34.230    3.5282
   34.245    3.5176
   34.260    3.8652
   34.275    3.6124
   34.290    3.6124
   34.305    3.6230
   34.320    3.6967
   34.335    3.6124
   34.350    3.5282
   34.365    3.6651
   34.380    3.3807
   34.395    3.4860
   34.410    3.5492
   34.425    3.5703
   34.440    3.5598
   34.455    3.6124
   34.470    3.8547
   34.485    3.5808
   34.500    3.6756
   34.515    3.6651
   34.530    3.2649
   34.545    3.6440
   34.560    3.4439
   34.575    3.7283
   34.590    3.5071
   34.605    3.1912
   34.620    3.7177
   34.635    3.6546
   34.650    3.6967
   34.665    3.7072
   34.680    3.4860
   34.695    3.5071
   34.710    3.4229
   34.725    3.6019
   34.740    3.7072
   34.755    3.3807
   34.770    3.6124
   34.785    3.6546
   34.800    3.6230
   34.815    3.6862
   34.830    3.5387
   34.845    3.5914
   34.860    3.4439
   34.875    3.4755
   34.890    3.5071
   34.905    3.5703
   34.920    3.7704
   34.935    3.4334
   34.950    3.5282
   34.965    3.5071
   34.980    3.3491
   34.995    3.6335
   35.010    3.4966
   35.025    3.2122
   35.040    3.4755
   35.055    3.4650
   35.070    3.4966
   35.085    3.5703
   35.100    3.2965
   35.115    3.4439
   35.130    3.4439
   35.145    3.4544
   35.160    3.7177
   35.175    3.5914
   35.190    3.5176
   35.205    3.2859
   35.220    3.6019
   35.235    3.7704
   35.250    3.3913
   35.265    3.3491
   35.280    3.7704
   35.295    3.4123
   35.310    3.3070
   35.325    3.6651
   35.340    3.6124
   35.355    3.4966
   35.370    3.3913
   35.385    3.6124
   35.400    3.8547
   35.415    3.6124
   35.430    3.4544
   35.445    3.4018
   35.460    3.4966
   35.475    3.2754
   35.490    3.7704
   35.505    3.4650
   35.520    3.7388
   35.535    3.5492
   35.550    3.2227
   35.565    3.6019
   35.580    3.8441
   35.595    3.5808
   35.610    3.6756
   35.625    3.5492
   35.640    3.2859
   35.655    3.2017
   35.670    3.4544
   35.685    3.4123
   35.700    3.0437
   35.715    3.3702
   35.730    3.5387
   35.745    3.5914
   35.760    3.0542
   35.775    3.3807
   35.790    3.4018
   35.805    3.4123
   35.820    3.4439
   35.835    3.5071
   35.850    3.5598
   35.865    3.1912
   35.880    3.3597
   35.895    3.0542
   35.910    3.1490
   35.925    3.3702
   35.940    3.5176
   35.955    3.3491
   35.970    3.2649
   35.985    3.2333
   36.000    3.3597
   36.015    3.2754
   36.030    3.5598
   36.045    3.3913
   36.060    3.3702
   36.075    3.4018
   36.090    3.5282
   36.105    3.6546
   36.120    3.4650
   36.135    3.2965
   36.150    3.3175
   36.165    3.4123
   36.180    3.6862
   36.195    3.1596
   36.210    3.3070
   36.225    3.3597
   36.240    3.1701
   36.255    3.4229
   36.270    3.3175
   36.285    3.0964
   36.300    3.4439
   36.315    3.6756
   36.330    3.5176
   36.345    3.4334
   36.360    3.2965
   36.375    3.5703
   36.390    3.4229
   36.405    3.4229
   36.420    3.1701
   36.435    3.1385
   36.450    3.4334
   36.465    3.3597
   36.480    3.3175
   36.495    3.2333
   36.510    3.3070
   36.525    3.5387
   36.540    3.4650
   36.555    3.2754
   36.570    3.2543
   36.585    3.4123
   36.600    3.4860
   36.615    3.1596
   36.630    3.2859
   36.645    3.4966
   36.660    3.2017
   36.675    3.3175
   36.690    3.3807
   36.705    3.5492
   36.720    3.6967
   36.735    3.3491
   36.750    3.2333
   36.765    3.3070
   36.780    3.3807
   36.795    3.3386
   36.810    3.1385
   36.825    3.1701
   36.840    3.2122
   36.855    3.2649
   36.870    3.3281
   36.885    3.1174
   36.900    3.2017
   36.915    3.3702
   36.930    3.2965
   36.945    3.2649
   36.960    3.3070
   36.975    3.3807
   36.990    3.4860
   37.005    3.1490
   37.020    3.4123
   37.035    3.2649
   37.050    3.3281
   37.065    3.6230
   37.080    3.6124
   37.095    3.5492
   37.110    3.2333
   37.125    3.2754
   37.140    3.4334
   37.155    3.4860
   37.170    3.3913
   37.185    3.3175
   37.200    3.1069
   37.215    3.0648
   37.230    3.2122
   37.245    3.1912
   37.260    3.5914
   37.275    3.7283
   37.290    3.7072
   37.305    3.0648
   37.320    3.1806
   37.335    3.1174
   37.350    3.2227
   37.365    3.1385
   37.380    3.2859
   37.395    2.9384
   37.410    3.0964
   37.425    3.2438
   37.440    3.0437
   37.455    3.0964
   37.470    3.2965
   37.485    3.1385
   37.500    3.2333
   37.515    3.5071
   37.530    3.2227
   37.545    3.0648
   37.560    3.0542
   37.575    3.3175
   37.590    3.5282
   37.605    3.5598
   37.620    3.3702
   37.635    3.5176
   37.650    3.3175
   37.665    3.1912
   37.680    3.1174
   37.695    3.3281
   37.710    3.3913
   37.725    3.0648
   37.740    2.8647
   37.755    3.2227
   37.770    3.2649
   37.785    3.2122
   37.800    3.2333
   37.815    3.3070
   37.830    3.0332
   37.845    3.1174
   37.860    3.4123
   37.875    2.9489
   37.890    3.3702
   37.905    3.1701
   37.920    3.3597
   37.935    3.4229
   37.950    3.2649
   37.965    3.0858
   37.980    3.0226
   37.995    3.2333
   38.010    3.1701
   38.025    3.5387
   38.040    3.2965
   38.055    3.3491
   38.070    3.3175
   38.085    3.2333
   38.100    3.0542
   38.115    3.0858
   38.130    3.3702
   38.145    3.0332
   38.160    3.1280
   38.175    3.2227
   38.190    3.3281
   38.205    2.9384
   38.220    3.1385
   38.235    3.1174
   38.250    3.2754
   38.265    3.4123
   38.280    3.2543
   38.295    3.2122
   38.310    3.3386
   38.325    3.4123
   38.340    3.3281
   38.355    3.2754
   38.370    2.9595
   38.385    3.1280
   38.400    2.9173
   38.415    3.0016
   38.430    2.9700
   38.445    3.2543
   38.460    3.0858
   38.475    3.1806
   38.490    3.0121
   38.505    3.2017
   38.520    3.1280
   38.535    3.1701
   38.550    3.2333
   38.565    3.1490
   38.580    3.0121
   38.595    3.2227
   38.610    3.2543
   38.625    3.3070
   38.640    3.2017
   38.655    3.3281
   38.670    3.1069
   38.685    3.2122
   38.700    3.3281
   38.715    3.5808
   38.730    3.5282
   38.745    3.2965
   38.760    3.2227
   38.775    3.1701
   38.790    3.2017
   38.805    3.4018
   38.820    3.0753
   38.835    2.9700
   38.850    3.0226
   38.865    2.9700
   38.880    3.0964
   38.895    3.2017
   38.910    3.2965
   38.925    3.1912
   38.940    3.0964
   38.955    2.7172
   38.970    2.9384
   38.985    3.1490
   39.000    3.2017
   39.015    3.0648
   39.030    3.2017
   39.045    3.3913
   39.060    3.5387
   39.075    3.3386
   39.090    3.4650
   39.105    3.0964
   39.120    3.3913
   39.135    3.2754
   39.150    3.0753
   39.165    3.3386
   39.180    3.2438
   39.195    3.0964
   39.210    2.8647
   39.225    3.2017
   39.240    3.2122
   39.255    3.0753
   39.270    3.2333
   39.285    3.2754
   39.300    3.2543
   39.315    3.2649
   39.330    3.1701
   39.345    3.4755
   39.360    3.3913
   39.375    3.3175
   39.390    3.2122
   39.405    3.1701
   39.420    3.2438
   39.435    3.1069
   39.450    3.0964
   39.465    3.3175
   39.480    3.2438
   39.495    3.0121
   39.510    3.1280
   39.525    3.3070
   39.540    2.9595
   39.555    3.0858
   39.570    3.3807
   39.585    3.2649
   39.600    3.0016
   39.615    3.1490
   39.630    3.0016
   39.645    2.9068
   39.660    3.3807
   39.675    3.0964
   39.690    3.0964
   39.705    2.8436
   39.720    2.9279
   39.735    2.9700
   39.750    3.2227
   39.765    3.1596
   39.780    3.1069
   39.795    3.1596
   39.810    3.2017
   39.825    3.2649
   39.840    3.0964
   39.855    3.1806
   39.870    3.0753
   39.885    2.8015
   39.900    3.0332
   39.915    3.0332
   39.930    3.1280
   39.945    3.1701
   39.960    3.0753
   39.975    2.8857
   39.990    2.9279
