    1.500    9.0363
    1.515    9.3734
    1.530    8.7098
    1.545    8.2780
    1.560    8.8046
    1.575    8.6151
    1.590    8.4044
    1.605    7.8357
    1.620    8.0042
    1.635    7.7409
    1.650    7.6145
    1.665    7.5724
    1.680    7.4250
    1.695    7.4250
    1.710    7.4671
    1.725    7.4882
    1.740    7.0248
    1.755    7.2143
    1.770    7.4776
    1.785    6.9405
    1.800    6.9616
    1.815    6.8246
    1.830    6.9826
    1.845    6.4560
    1.860    6.6561
    1.875    6.3191
    1.890    6.3402
    1.905    6.6245
    1.920    6.5824
    1.935    6.2559
    1.950    6.0242
    1.965    5.9610
    1.980    6.1717
    1.995    6.1401
    2.010    6.0979
    2.025    5.7504
    2.040    6.1717
    2.055    6.0242
    2.070    5.7399
    2.085    5.8768
    2.100    5.9505
    2.115    5.8452
    2.130    5.7715
    2.145    5.3712
    2.160    5.1711
    2.175    5.2133
    2.190    5.7504
    2.205    5.7504
    2.220    5.8978
    2.235    5.0764
    2.250    5.2238
    2.265    5.7504
    2.280    5.5924
    2.295    5.3502
    2.310    5.4660
    2.325    5.8136
    2.340    5.3186
    2.355    5.5924
    2.370    5.7399
    2.385    5.4239
    2.400    5.5503
    2.415    5.4344
    2.430    5.5503
    2.445    6.0664
    2.460    5.8136
    2.475    5.6029
    2.490    5.6767
    2.505    5.6977
    2.520    5.9716
    2.535    5.6451
    2.550    5.7504
    2.565    6.0137
    2.580    5.6977
    2.595    5.9084
    2.610    6.0137
    2.625    6.0242
    2.640    6.1506
    2.655    6.9194
    2.670    6.7720
    2.685    6.9826
    2.700    7.2143
    2.715    6.8562
    2.730    7.3196
    2.745    7.3407
    2.760    7.2986
    2.775    8.2043
    2.790    7.7830
    2.805    7.8357
    2.820    8.0147
    2.835    8.9837
    2.850    9.3523
    2.865    9.8262
    2.880    9.4365
    2.895    9.6367
    2.910   10.2896
    2.925   10.5951
    2.940   10.7741
    2.955   11.6588
    2.970   12.1011
    2.985   12.3855
    3.000   13.3123
    3.015   13.4176
    3.030   13.7125
    3.045   14.7867
    3.060   15.5766
    3.075   16.0716
    3.090   16.3244
    3.105   17.7567
    3.120   18.6835
    3.135   19.2733
    3.150   20.5477
    3.165   21.5692
    3.180   22.9595
    3.195   23.7493
    3.210   25.8978
    3.225   26.5613
    3.240   28.7309
    3.255   31.6588
    3.270   33.3439
    3.285   36.1559
    3.300   38.4834
    3.315   41.5271
    3.330   45.4239
    3.345   47.7725
    3.360   51.7746
    3.375   55.4924
    3.390   58.5571
    3.405   62.8225
    3.420   63.8441
    3.435   64.0758
    3.450   61.7588
    3.465   59.2206
    3.480   54.2707
    3.495   47.5724
    3.510   43.0753
    3.525   37.3460
    3.540   31.3428
    3.555   27.6883
    3.570   25.7820
    3.585   22.5171
    3.600   21.1374
    3.615   19.9263
    3.630   18.7362
    3.645   18.4097
    3.660   17.7567
    3.675   17.4618
    3.690   16.7667
    3.705   16.9563
    3.720   17.6198
    3.735   16.7983
    3.750   17.0616
    3.765   17.5987
    3.780   18.4834
    3.795   18.7572
    3.810   19.1048
    3.825   19.7262
    3.840   20.3370
    3.855   21.0637
    3.870   21.7062
    3.885   21.4323
    3.900   22.0116
    3.915   22.0116
    3.930   22.4961
    3.945   22.8541
    3.960   23.6546
    3.975   23.8547
    3.990   24.7393
    4.005   24.4339
    4.020   25.2238
    4.035   23.7809
    4.050   24.8552
    4.065   24.5708
    4.080   23.9705
    4.095   23.1385
    4.110   23.3281
    4.125   23.2227
    4.140   21.9589
    4.155   21.3481
    4.170   20.7162
    4.185   20.2738
    4.200   18.6203
    4.215   18.4729
    4.230   17.9463
    4.245   15.7557
    4.260   15.4186
    4.275   14.5340
    4.290   14.2917
    4.305   13.4281
    4.320   12.0274
    4.335   11.1638
    4.350   10.4792
    4.365    9.6893
    4.380    9.4787
    4.395    9.2154
    4.410    8.8468
    4.425    8.1201
    4.440    7.5724
    4.455    7.1301
    4.470    6.6561
    4.485    6.5613
    4.500    6.3191
    4.515    6.1085
    4.530    5.9716
    4.545    5.5503
    4.560    5.5608
    4.575    5.3397
    4.590    5.1395
    4.605    5.0342
    4.620    4.8341
    4.635    4.6445
    4.650    4.6445
    4.665    4.2022
    4.680    3.9073
    4.695    3.9179
    4.710    4.0442
    4.725    4.1811
    4.740    4.2127
    4.755    4.0442
    4.770    3.7599
    4.785    3.9600
    4.800    3.8336
    4.815    3.7388
    4.830    3.7072
    4.845    3.8125
    4.860    3.5598
    4.875    3.7809
    4.890    3.5808
    4.905    3.4544
    4.920    3.3702
    4.935    3.4439
    4.950    3.8441
    4.965    3.4334
    4.980    3.2754
    4.995    3.6019
    5.010    3.6230
    5.025    3.5176
    5.040    3.3913
    5.055    3.4123
    5.070    3.2122
    5.085    3.1596
    5.100    3.2543
    5.115    3.0648
    5.130    3.1806
    5.145    3.2017
    5.160    3.0753
    5.175    3.1701
    5.190    3.2122
    5.205    3.3281
    5.220    3.1701
    5.235    3.1069
    5.250    3.2754
    5.265    3.0332
    5.280    3.2543
    5.295    3.0332
    5.310    3.2859
    5.325    2.7383
    5.340    3.0648
    5.355    3.0016
    5.370    3.1806
    5.385    2.9068
    5.400    2.8963
    5.415    2.8331
    5.430    2.8225
    5.445    2.9700
    5.460    2.9068
    5.475    2.8436
    5.490    2.7488
    5.505    2.8331
    5.520    2.8120
    5.535    2.8857
    5.550    2.8541
    5.565    3.1174
    5.580    2.8647
    5.595    2.7383
    5.610    2.6014
    5.625    2.9910
    5.640    2.8436
    5.655    2.6856
    5.670    3.0332
    5.685    2.8963
    5.700    2.6435
    5.715    2.7067
    5.730    2.5592
    5.745    2.7909
    5.760    2.8541
    5.775    2.8225
    5.790    2.5592
    5.805    2.8120
    5.820    2.6540
    5.835    2.7909
    5.850    2.8963
    5.865    2.5276
    5.880    2.7593
    5.895    2.8647
    5.910    2.6962
    5.925    2.9489
    5.940    2.7067
    5.955    2.4645
    5.970    2.7172
    5.985    2.7804
    6.000    2.7278
    6.015    2.7909
    6.030    2.7172
    6.045    2.7804
    6.060    2.8331
    6.075    2.6856
    6.090    2.8015
    6.105    2.7699
    6.120    2.7067
    6.135    2.7699
    6.150    2.7593
    6.165    2.6224
    6.180    2.6962
    6.195    2.5066
    6.210    2.4645
    6.225    2.5382
    6.240    2.7278
    6.255    3.0648
    6.270    3.0016
    6.285    2.8647
    6.300    2.8331
    6.315    2.6014
    6.330    2.8015
    6.345    3.0226
    6.360    2.7909
    6.375    2.8963
    6.390    2.8857
    6.405    2.5698
    6.420    2.9068
    6.435    2.8752
    6.450    2.8015
    6.465    2.9279
    6.480    2.9595
    6.495    2.6330
    6.510    2.9279
    6.525    2.8331
    6.540    2.8647
    6.555    3.0226
    6.570    3.2227
    6.585    3.0121
    6.600    3.0753
    6.615    3.3597
    6.630    3.3807
    6.645    3.6019
    6.660    3.5387
    6.675    3.5914
    6.690    3.5808
    6.705    3.9494
    6.720    4.0969
    6.735    3.8863
    6.750    4.2654
    6.765    4.8447
    6.780    4.5287
    6.795    5.0237
    6.810    5.2027
    6.825    5.6661
    6.840    6.0874
    6.855    7.0248
    6.870    7.0774
    6.885    7.5829
    6.900    7.9831
    6.915    8.2570
    6.930    8.3307
    6.945    8.1095
    6.960    7.8041
    6.975    7.8989
    6.990    7.4671
    7.005    6.7930
    7.020    6.2875
    7.035    5.5924
    7.050    4.6867
    7.065    4.6551
    7.080    4.2759
    7.095    4.0442
    7.110    3.9494
    7.125    3.8441
    7.140    3.4018
    7.155    3.5492
    7.170    3.4860
    7.185    3.1912
    7.200    2.9805
    7.215    3.1385
    7.230    3.2122
    7.245    3.0226
    7.260    3.0016
    7.275    2.9384
    7.290    2.9805
    7.305    2.9910
    7.320    2.9489
    7.335    2.9700
    7.350    2.8541
    7.365    2.8120
    7.380    2.9384
    7.395    3.0858
    7.410    2.7909
    7.425    2.8015
    7.440    2.9700
    7.455    2.7067
    7.470    2.6751
    7.485    3.0858
    7.500    3.0542
    7.515    3.1174
    7.530    3.1701
    7.545    3.0753
    7.560    2.8541
    7.575    2.7593
    7.590    2.9805
    7.605    2.8225
    7.620    2.9700
    7.635    2.8120
    7.650    2.8541
    7.665    3.0753
    7.680    3.0437
    7.695    2.9805
    7.710    3.1280
    7.725    3.0964
    7.740    3.3491
    7.755    3.4966
    7.770    3.1385
    7.785    3.3070
    7.800    3.5282
    7.815    3.0226
    7.830    3.2438
    7.845    3.2649
    7.860    3.3597
    7.875    3.6124
    7.890    3.7177
    7.905    3.7493
    7.920    3.6230
    7.935    3.5176
    7.950    3.3070
    7.965    3.5282
    7.980    3.8652
    7.995    4.2022
    8.010    4.1496
    8.025    3.9600
    8.040    3.9810
    8.055    3.8757
    8.070    3.8020
    8.085    4.0021
    8.100    3.9179
    8.115    3.9389
    8.130    4.1285
    8.145    4.1601
    8.160    4.2022
    8.175    4.4550
    8.190    4.2127
    8.205    3.9810
    8.220    3.9389
    8.235    4.3075
    8.250    4.1390
    8.265    4.2549
    8.280    4.2443
    8.295    4.2549
    8.310    3.9179
    8.325    4.2549
    8.340    4.1180
    8.355    3.9916
    8.370    4.0232
    8.385    3.9916
    8.400    4.3497
    8.415    4.0442
    8.430    4.1706
    8.445    4.1917
    8.460    3.9494
    8.475    4.1496
    8.490    4.0548
    8.505    3.8547
    8.520    3.7915
    8.535    4.0337
    8.550    3.7915
    8.565    3.7599
    8.580    3.6335
    8.595    3.8125
    8.610    3.3070
    8.625    3.5387
    8.640    3.7072
    8.655    3.3175
    8.670    3.4966
    8.685    3.7072
    8.700    3.0648
    8.715    3.3807
    8.730    3.0753
    8.745    3.3597
    8.760    2.9910
    8.775    3.3175
    8.790    3.0542
    8.805    3.2543
    8.820    2.8752
    8.835    2.9068
    8.850    2.8752
    8.865    3.0753
    8.880    2.9279
    8.895    2.8963
    8.910    2.9068
    8.925    3.0226
    8.940    3.0121
    8.955    2.8015
    8.970    2.8015
    8.985    2.8120
    9.000    2.5487
    9.015    2.7699
    9.030    2.7699
    9.045    2.6330
    9.060    2.8857
    9.075    2.8541
    9.090    2.8857
    9.105    2.8647
    9.120    2.6856
    9.135    2.7804
    9.150    2.6330
    9.165    2.6646
    9.180    2.6330
    9.195    2.7278
    9.210    2.5066
    9.225    2.7488
    9.240    2.3907
    9.255    2.5698
    9.270    2.7909
    9.285    2.5487
    9.300    2.2854
    9.315    2.7383
    9.330    2.4645
    9.345    2.4855
    9.360    2.3591
    9.375    2.5066
    9.390    2.4013
    9.405    2.5066
    9.420    2.3591
    9.435    2.2643
    9.450    2.5698
    9.465    2.4855
    9.480    2.5171
    9.495    2.4329
    9.510    2.3802
    9.525    2.2117
    9.540    2.4750
    9.555    2.4539
    9.570    2.5276
    9.585    2.4223
    9.600    2.5487
    9.615    2.7067
    9.630    2.3591
    9.645    2.3170
    9.660    2.2538
    9.675    2.3170
    9.690    2.4223
    9.705    2.1906
    9.720    2.3802
    9.735    2.4645
    9.750    2.6014
    9.765    2.6014
    9.780    2.5382
    9.795    2.6751
    9.810    2.5382
    9.825    2.2854
    9.840    2.5066
    9.855    2.5382
    9.870    2.4329
    9.885    2.4961
    9.900    2.4961
    9.915    2.4013
    9.930    2.2959
    9.945    2.5382
    9.960    2.5487
    9.975    2.5382
    9.990    2.4223
   10.005    2.4539
   10.020    2.4118
   10.035    2.3170
   10.050    2.5066
   10.065    2.3170
   10.080    2.3697
   10.095    2.5066
   10.110    2.5803
   10.125    2.4329
   10.140    2.6646
   10.155    2.3697
   10.170    2.4118
   10.185    2.3381
   10.200    2.2959
   10.215    2.4539
   10.230    2.4539
   10.245    2.5803
   10.260    2.6540
   10.275    2.5171
   10.290    2.4223
   10.305    2.8225
   10.320    2.6119
   10.335    2.7593
   10.350    2.6646
   10.365    2.6330
   10.380    2.7699
   10.395    2.7804
   10.410    2.8436
   10.425    2.8015
   10.440    2.9489
   10.455    2.8541
   10.470    2.7172
   10.485    2.8331
   10.500    2.9173
   10.515    2.6330
   10.530    2.5276
   10.545    2.6856
   10.560    2.5487
   10.575    2.3907
   10.590    2.6224
   10.605    2.6014
   10.620    2.5171
   10.635    2.7488
   10.650    2.4434
   10.665    2.4434
   10.680    2.4434
   10.695    2.5803
   10.710    2.6330
   10.725    2.4645
   10.740    2.5382
   10.755    2.7172
   10.770    2.3381
   10.785    2.4118
   10.800    2.4013
   10.815    2.3170
   10.830    2.5487
   10.845    2.3381
   10.860    2.5066
   10.875    2.4750
   10.890    2.7278
   10.905    2.5276
   10.920    2.3697
   10.935    2.3381
   10.950    2.2749
   10.965    2.4118
   10.980    2.4645
   10.995    2.4118
   11.010    2.4539
   11.025    2.6751
   11.040    2.5382
   11.055    2.4750
   11.070    2.4118
   11.085    2.3591
   11.100    2.4118
   11.115    2.3065
   11.130    2.3907
   11.145    2.4645
   11.160    2.2959
   11.175    2.2959
   11.190    2.2538
   11.205    2.3697
   11.220    2.3170
   11.235    2.4750
   11.250    2.2117
   11.265    2.4434
   11.280    2.3802
   11.295    2.4118
   11.310    2.5382
   11.325    2.6435
   11.340    2.6014
   11.355    2.3907
   11.370    2.1485
   11.385    2.2538
   11.400    2.2538
   11.415    2.2959
   11.430    2.6224
   11.445    2.5592
   11.460    2.1485
   11.475    2.4013
   11.490    2.6014
   11.505    2.6962
   11.520    2.4013
   11.535    2.3802
   11.550    2.3907
   11.565    2.4434
   11.580    2.5066
   11.595    2.3697
   11.610    2.4539
   11.625    2.3802
   11.640    2.4013
   11.655    2.5803
   11.670    2.5171
   11.685    2.7804
   11.700    2.5382
   11.715    2.4013
   11.730    2.3802
   11.745    2.4539
   11.760    2.5487
   11.775    2.4118
   11.790    2.6330
   11.805    2.3486
   11.820    2.4855
   11.835    2.5803
   11.850    2.3802
   11.865    2.1906
   11.880    2.4434
   11.895    2.2643
   11.910    2.4750
   11.925    2.5276
   11.940    2.4223
   11.955    2.3907
   11.970    2.2117
   11.985    2.6014
   12.000    2.6014
   12.015    2.3591
   12.030    2.4118
   12.045    2.4645
   12.060    2.5592
   12.075    2.5803
   12.090    2.7067
   12.105    2.5698
   12.120    2.5382
   12.135    2.7067
   12.150    2.6014
   12.165    2.7488
   12.180    2.8647
   12.195    2.4539
   12.210    2.4223
   12.225    2.6119
   12.240    2.6962
   12.255    2.3907
   12.270    2.4539
   12.285    2.4855
   12.300    2.5698
   12.315    2.7278
   12.330    2.6646
   12.345    2.6224
   12.360    2.7593
   12.375    2.9173
   12.390    2.7172
   12.405    2.6751
   12.420    2.7699
   12.435    2.6014
   12.450    2.7488
   12.465    2.3802
   12.480    2.7067
   12.495    2.6330
   12.510    2.6856
   12.525    2.4961
   12.540    2.6224
   12.555    2.6646
   12.570    2.6330
   12.585    2.6435
   12.600    2.6646
   12.615    2.8436
   12.630    2.5803
   12.645    2.5276
   12.660    2.5487
   12.675    2.6014
   12.690    2.8963
   12.705    2.5803
   12.720    2.8857
   12.735    2.8647
   12.750    2.5698
   12.765    2.7488
   12.780    2.8120
   12.795    2.5382
   12.810    2.6646
   12.825    2.6962
   12.840    2.7172
   12.855    2.6224
   12.870    2.3170
   12.885    2.4961
   12.900    2.8015
   12.915    2.5908
   12.930    2.7804
   12.945    2.6435
   12.960    2.5592
   12.975    2.4750
   12.990    2.5592
   13.005    2.6224
   13.020    2.8436
   13.035    2.7699
   13.050    2.6540
   13.065    2.5276
   13.080    2.6014
   13.095    2.5908
   13.110    2.4118
   13.125    2.6224
   13.140    2.4855
   13.155    2.6540
   13.170    2.5592
   13.185    2.5592
   13.200    2.4961
   13.215    2.6435
   13.230    2.5908
   13.245    2.4750
   13.260    2.4329
   13.275    2.6856
   13.290    2.7383
   13.305    2.5908
   13.320    2.4118
   13.335    2.5276
   13.350    2.7172
   13.365    2.6435
   13.380    2.3802
   13.395    2.4961
   13.410    2.4539
   13.425    2.8225
   13.440    2.9173
   13.455    2.6856
   13.470    2.5487
   13.485    2.5382
   13.500    2.5908
   13.515    2.4855
   13.530    2.7067
   13.545    2.6856
   13.560    2.7067
   13.575    2.6962
   13.590    2.7593
   13.605    2.6014
   13.620    2.4855
   13.635    2.4223
   13.650    2.4855
   13.665    2.3697
   13.680    2.2012
   13.695    2.5487
   13.710    2.5487
   13.725    2.4329
   13.740    2.5592
   13.755    2.3065
   13.770    2.3907
   13.785    2.4750
   13.800    2.5276
   13.815    2.5487
   13.830    2.4013
   13.845    2.5382
   13.860    2.5276
   13.875    2.4434
   13.890    2.3907
   13.905    2.2328
   13.920    2.5803
   13.935    2.6751
   13.950    2.4539
   13.965    2.4855
   13.980    2.6224
   13.995    2.3275
   14.010    2.6435
   14.025    2.4329
   14.040    2.4329
   14.055    2.5276
   14.070    2.3381
   14.085    2.3275
   14.100    2.2012
   14.115    2.3170
   14.130    2.4118
   14.145    2.6014
   14.160    2.4645
   14.175    2.6014
   14.190    2.2433
   14.205    2.3275
   14.220    2.5066
   14.235    2.3907
   14.250    2.2538
   14.265    2.4539
   14.280    2.5698
   14.295    2.4539
   14.310    2.3170
   14.325    2.6224
   14.340    2.2854
   14.355    2.1485
   14.370    2.5487
   14.385    2.4118
   14.400    2.4223
   14.415    2.4118
   14.430    2.5908
   14.445    2.5382
   14.460    2.3591
   14.475    2.2959
   14.490    2.1696
   14.505    2.1906
   14.520    2.2433
   14.535    2.2328
   14.550    2.2433
   14.565    2.3802
   14.580    2.5066
   14.595    2.2433
   14.610    2.4118
   14.625    2.3907
   14.640    2.4961
   14.655    2.6224
   14.670    2.4539
   14.685    2.3591
   14.700    2.3170
   14.715    2.2854
   14.730    2.3170
   14.745    2.4855
   14.760    2.6540
   14.775    2.3697
   14.790    2.4645
   14.805    2.4329
   14.820    2.5276
   14.835    2.3065
   14.850    2.2328
   14.865    2.4223
   14.880    2.4434
   14.895    2.1274
   14.910    2.2433
   14.925    2.2959
   14.940    2.2749
   14.955    2.1906
   14.970    2.3697
   14.985    2.2959
   15.000    2.3170
   15.015    2.3065
   15.030    2.5382
   15.045    2.4013
   15.060    2.5171
   15.075    2.5276
   15.090    2.2433
   15.105    2.2749
   15.120    2.3065
   15.135    2.4013
   15.150    2.1801
   15.165    2.2854
   15.180    2.2222
   15.195    2.2328
   15.210    2.1801
   15.225    2.2538
   15.240    2.1801
   15.255    2.1064
   15.270    2.3381
   15.285    2.4118
   15.300    2.3802
   15.315    2.4855
   15.330    2.4539
   15.345    2.4118
   15.360    2.2433
   15.375    2.2854
   15.390    2.3907
   15.405    2.4855
   15.420    2.5276
   15.435    2.4223
   15.450    2.4645
   15.465    2.5382
   15.480    2.3802
   15.495    2.2222
   15.510    2.1064
   15.525    2.2749
   15.540    2.3381
   15.555    2.2012
   15.570    2.2222
   15.585    2.3907
   15.600    2.5276
   15.615    2.4750
   15.630    2.4961
   15.645    2.5487
   15.660    2.1906
   15.675    2.2854
   15.690    2.4013
   15.705    2.3697
   15.720    2.4539
   15.735    2.3907
   15.750    2.4223
   15.765    2.3170
   15.780    2.4329
   15.795    2.4223
   15.810    2.5171
   15.825    2.4750
   15.840    2.3802
   15.855    2.3591
   15.870    2.2749
   15.885    2.4329
   15.900    2.2854
   15.915    2.3065
   15.930    2.5698
   15.945    2.6014
   15.960    2.5066
   15.975    2.1801
   15.990    2.3170
   16.005    2.3381
   16.020    2.4329
   16.035    2.3381
   16.050    2.4855
   16.065    2.5382
   16.080    2.5908
   16.095    2.5276
   16.110    2.3486
   16.125    2.2854
   16.140    2.3065
   16.155    2.3486
   16.170    2.4013
   16.185    2.5382
   16.200    2.4539
   16.215    2.3065
   16.230    2.1380
   16.245    2.4961
   16.260    2.4855
   16.275    2.4223
   16.290    2.5066
   16.305    2.3170
   16.320    2.4013
   16.335    2.4750
   16.350    2.2749
   16.365    2.1274
   16.380    2.2538
   16.395    2.3697
   16.410    2.2117
   16.425    2.3697
   16.440    2.3802
   16.455    2.2959
   16.470    2.2749
   16.485    2.4118
   16.500    2.2749
   16.515    2.1380
   16.530    2.3802
   16.545    2.3381
   16.560    2.3170
   16.575    2.5382
   16.590    2.3065
   16.605    2.3697
   16.620    2.3170
   16.635    2.4223
   16.650    2.4013
   16.665    2.3486
   16.680    2.3802
   16.695    2.4961
   16.710    2.5803
   16.725    2.4118
   16.740    2.1801
   16.755    2.3170
   16.770    2.4539
   16.785    2.2433
   16.800    2.3802
   16.815    2.3381
   16.830    2.1380
   16.845    2.3907
   16.860    2.2538
   16.875    2.1906
   16.890    2.3697
   16.905    2.2643
   16.920    2.4013
   16.935    2.4013
   16.950    2.2433
   16.965    2.4961
   16.980    2.4961
   16.995    2.5382
   17.010    2.6014
   17.025    2.6435
   17.040    2.4223
   17.055    2.2643
   17.070    2.1590
   17.085    2.2959
   17.100    2.2328
   17.115    2.1485
   17.130    2.2012
   17.145    2.4118
   17.160    2.1906
   17.175    2.2117
   17.190    2.3907
   17.205    2.3697
   17.220    2.3907
   17.235    2.3486
   17.250    2.3275
   17.265    2.2749
   17.280    2.3275
   17.295    2.3275
   17.310    2.4750
   17.325    2.3802
   17.340    2.3697
   17.355    2.4434
   17.370    2.2643
   17.385    2.3697
   17.400    2.3381
   17.415    2.2117
   17.430    2.4434
   17.445    2.5276
   17.460    2.3907
   17.475    2.3697
   17.490    2.4750
   17.505    2.6962
   17.520    2.4329
   17.535    2.3907
   17.550    2.5487
   17.565    2.2749
   17.580    2.2433
   17.595    2.6224
   17.610    2.4855
   17.625    2.3591
   17.640    2.3907
   17.655    2.3907
   17.670    2.3065
   17.685    2.5803
   17.700    2.3697
   17.715    2.2117
   17.730    2.2643
   17.745    2.0642
   17.760    2.2433
   17.775    2.4539
   17.790    2.4013
   17.805    2.5698
   17.820    2.8120
   17.835    2.5592
   17.850    2.1696
   17.865    2.5066
   17.880    2.3381
   17.895    2.5908
   17.910    2.3275
   17.925    2.2538
   17.940    2.4961
   17.955    2.4750
   17.970    2.6119
   17.985    2.7172
   18.000    2.3065
   18.015    2.2222
   18.030    2.2959
   18.045    2.4223
   18.060    2.5276
   18.075    2.3065
   18.090    2.1906
   18.105    2.2328
   18.120    2.2749
   18.135    2.2959
   18.150    2.3802
   18.165    2.2854
   18.180    2.3802
   18.195    2.3275
   18.210    2.1485
   18.225    2.2433
   18.240    2.3697
   18.255    2.3381
   18.270    2.4961
   18.285    2.3697
   18.300    2.2538
   18.315    2.3486
   18.330    2.2222
   18.345    2.2643
   18.360    2.4961
   18.375    2.2328
   18.390    2.4855
   18.405    2.5066
   18.420    2.2328
   18.435    2.2538
   18.450    2.6856
   18.465    2.6962
   18.480    2.4118
   18.495    2.6330
   18.510    2.4855
   18.525    2.3275
   18.540    2.1590
   18.555    2.3591
   18.570    2.4750
   18.585    2.5276
   18.600    2.2538
   18.615    2.4223
   18.630    2.5382
   18.645    2.3591
   18.660    2.4855
   18.675    2.3802
   18.690    2.5382
   18.705    2.6224
   18.720    2.4434
   18.735    2.4750
   18.750    2.6962
   18.765    2.5171
   18.780    2.4013
   18.795    2.4855
   18.810    2.2538
   18.825    2.4539
   18.840    2.5276
   18.855    2.4539
   18.870    2.3381
   18.885    2.4750
   18.900    2.6751
   18.915    2.5276
   18.930    2.3275
   18.945    2.6014
   18.960    2.4434
   18.975    2.5171
   18.990    2.3486
   19.005    2.5276
   19.020    2.3275
   19.035    2.3697
   19.050    2.6119
   19.065    2.4855
   19.080    2.4750
   19.095    2.4750
   19.110    2.5171
   19.125    2.4855
   19.140    2.4434
   19.155    2.4855
   19.170    2.3381
   19.185    2.4645
   19.200    2.6751
   19.215    2.4645
   19.230    2.5592
   19.245    2.5487
   19.260    2.5171
   19.275    2.5276
   19.290    2.5382
   19.305    2.4118
   19.320    2.5066
   19.335    2.2854
   19.350    2.2538
   19.365    2.6751
   19.380    2.4961
   19.395    2.3591
   19.410    2.4013
   19.425    2.4855
   19.440    2.6119
   19.455    2.4855
   19.470    2.6224
   19.485    2.4961
   19.500    2.4961
   19.515    2.6014
   19.530    2.6224
   19.545    2.5908
   19.560    2.4855
   19.575    2.4118
   19.590    2.4329
   19.605    2.6014
   19.620    2.4539
   19.635    2.5066
   19.650    2.6540
   19.665    2.3802
   19.680    2.4434
   19.695    2.6751
   19.710    2.6540
   19.725    2.5698
   19.740    2.7172
   19.755    2.7278
   19.770    2.4961
   19.785    2.3907
   19.800    2.4855
   19.815    2.4645
   19.830    2.4223
   19.845    2.8331
   19.860    2.7067
   19.875    2.5276
   19.890    2.5698
   19.905    2.6224
   19.920    2.9805
   19.935    2.8120
   19.950    2.6119
   19.965    2.6962
   19.980    2.3591
   19.995    2.5171
   20.010    2.5487
   20.025    2.6119
   20.040    2.4855
   20.055    2.6540
   20.070    2.6119
   20.085    2.6224
   20.100    2.5803
   20.115    2.9173
   20.130    2.7488
   20.145    2.5908
   20.160    2.6119
   20.175    2.3697
   20.190    2.5171
   20.205    2.4329
   20.220    2.4750
   20.235    2.7172
   20.250    2.7804
   20.265    2.8963
   20.280    2.6856
   20.295    2.3697
   20.310    2.4961
   20.325    2.6751
   20.340    2.5382
   20.355    2.6962
   20.370    2.5698
   20.385    2.7804
   20.400    2.6540
   20.415    2.7593
   20.430    2.6435
   20.445    2.6540
   20.460    2.8857
   20.475    2.7804
   20.490    2.5066
   20.505    2.4750
   20.520    2.5908
   20.535    2.4750
   20.550    2.6119
   20.565    2.6856
   20.580    2.5698
   20.595    2.5066
   20.610    2.7172
   20.625    2.7172
   20.640    2.7909
   20.655    2.4329
   20.670    2.9805
   20.685    2.5382
   20.700    2.5487
   20.715    2.4013
   20.730    2.5171
   20.745    2.6856
   20.760    2.4961
   20.775    2.2959
   20.790    2.5066
   20.805    2.6962
   20.820    2.6962
   20.835    2.8541
   20.850    2.6435
   20.865    2.5908
   20.880    2.7804
   20.895    2.6646
   20.910    2.8647
   20.925    2.7172
   20.940    2.8225
   20.955    2.7172
   20.970    2.9384
   20.985    2.6751
   21.000    2.6435
   21.015    2.6856
   21.030    2.6435
   21.045    2.7383
   21.060    2.8120
   21.075    2.6646
   21.090    2.8120
   21.105    2.6856
   21.120    2.7278
   21.135    2.6435
   21.150    2.6856
   21.165    2.8857
   21.180    3.0753
   21.195    2.9173
   21.210    2.6962
   21.225    2.6119
   21.240    2.5803
   21.255    2.6435
   21.270    2.6646
   21.285    2.6224
   21.300    2.4961
   21.315    2.6856
   21.330    2.8963
   21.345    2.7067
   21.360    2.8857
   21.375    2.5698
   21.390    2.5803
   21.405    2.4855
   21.420    2.5908
   21.435    2.7278
   21.450    2.6435
   21.465    2.6856
   21.480    2.5171
   21.495    2.6751
   21.510    2.7909
   21.525    2.3697
   21.540    2.4013
   21.555    2.4223
   21.570    2.5592
   21.585    2.7699
   21.600    2.7593
   21.615    2.6014
   21.630    2.5066
   21.645    2.9068
   21.660    2.7488
   21.675    2.7909
   21.690    2.7067
   21.705    2.6014
   21.720    2.6014
   21.735    2.6330
   21.750    2.4118
   21.765    2.6014
   21.780    2.6435
   21.795    2.7383
   21.810    2.4329
   21.825    2.4645
   21.840    2.3802
   21.855    2.6330
   21.870    2.6119
   21.885    2.4329
   21.900    2.9384
   21.915    2.5592
   21.930    2.6962
   21.945    2.7067
   21.960    2.6856
   21.975    2.5276
   21.990    2.7067
   22.005    2.3381
   22.020    2.5592
   22.035    2.5276
   22.050    2.6435
   22.065    2.7593
   22.080    2.7804
   22.095    2.5382
   22.110    2.4750
   22.125    2.7593
   22.140    2.5803
   22.155    2.8015
   22.170    2.9173
   22.185    2.7804
   22.200    2.7067
   22.215    2.4539
   22.230    2.9173
   22.245    2.8647
   22.260    2.7067
   22.275    2.6646
   22.290    2.6540
   22.305    2.8541
   22.320    2.6646
   22.335    2.4645
   22.350    2.5592
   22.365    2.5382
   22.380    2.5171
   22.395    2.5171
   22.410    2.6435
   22.425    2.6540
   22.440    2.5592
   22.455    2.5908
   22.470    2.5382
   22.485    2.7909
   22.500    2.6119
   22.515    2.7699
   22.530    2.3907
   22.545    2.7488
   22.560    2.7593
   22.575    2.6962
   22.590    2.7383
   22.605    2.6435
   22.620    2.6119
   22.635    2.9173
   22.650    2.6224
   22.665    2.6646
   22.680    2.6646
   22.695    2.6751
   22.710    2.3907
   22.725    2.6014
   22.740    2.4750
   22.755    2.5592
   22.770    2.6646
   22.785    2.5487
   22.800    2.5171
   22.815    2.5908
   22.830    2.4329
   22.845    2.7488
   22.860    2.6856
   22.875    2.5908
   22.890    2.8015
   22.905    2.9910
   22.920    2.6119
   22.935    2.6435
   22.950    2.5276
   22.965    2.4961
   22.980    2.6014
   22.995    2.8225
   23.010    2.6224
   23.025    2.5487
   23.040    2.7593
   23.055    2.7699
   23.070    2.6014
   23.085    2.7278
   23.100    2.6751
   23.115    2.7593
   23.130    2.6962
   23.145    2.4329
   23.160    2.5487
   23.175    2.5487
   23.190    2.4434
   23.205    2.3591
   23.220    2.3065
   23.235    2.4223
   23.250    2.4961
   23.265    2.4645
   23.280    2.7488
   23.295    2.5066
   23.310    2.4013
   23.325    2.3907
   23.340    2.3802
   23.355    2.7488
   23.370    2.7593
   23.385    2.4434
   23.400    2.7172
   23.415    2.3275
   23.430    2.4855
   23.445    2.6540
   23.460    2.4855
   23.475    2.5066
   23.490    2.6119
   23.505    2.6014
   23.520    2.4750
   23.535    2.5803
   23.550    2.7488
   23.565    2.4329
   23.580    2.4539
   23.595    2.4329
   23.610    2.6435
   23.625    2.4645
   23.640    2.4645
   23.655    2.3381
   23.670    2.7067
   23.685    2.6224
   23.700    2.6330
   23.715    2.3275
   23.730    2.5066
   23.745    2.7804
   23.760    2.8647
   23.775    2.4645
   23.790    2.3697
   23.805    2.5487
   23.820    2.4645
   23.835    2.6119
   23.850    2.2117
   23.865    2.3170
   23.880    2.6330
   23.895    2.4329
   23.910    2.3381
   23.925    2.4013
   23.940    2.5487
   23.955    2.4645
   23.970    2.6330
   23.985    2.5803
   24.000    2.6646
   24.015    2.5382
   24.030    2.8120
   24.045    2.8331
   24.060    2.5171
   24.075    2.5487
   24.090    2.5382
   24.105    2.3275
   24.120    2.5487
   24.135    2.3170
   24.150    2.4013
   24.165    2.6330
   24.180    2.4434
   24.195    2.2328
   24.210    2.4961
   24.225    2.3275
   24.240    2.3381
   24.255    2.4855
   24.270    2.7383
   24.285    2.5487
   24.300    2.6014
   24.315    2.5066
   24.330    2.6224
   24.345    2.5592
   24.360    2.7172
   24.375    2.5487
   24.390    2.4855
   24.405    2.6856
   24.420    2.4118
   24.435    2.4539
   24.450    2.2433
   24.465    2.4329
   24.480    2.3170
   24.495    2.4750
   24.510    2.5803
   24.525    2.7699
   24.540    2.4539
   24.555    2.5276
   24.570    2.6435
   24.585    2.6014
   24.600    2.4223
   24.615    2.5803
   24.630    2.5171
   24.645    2.6014
   24.660    2.5803
   24.675    2.4855
   24.690    2.4434
   24.705    2.4750
   24.720    2.5592
   24.735    2.6962
   24.750    2.5382
   24.765    2.4118
   24.780    2.3275
   24.795    2.5066
   24.810    2.5382
   24.825    2.4118
   24.840    2.3486
   24.855    2.5803
   24.870    2.6119
   24.885    2.4329
   24.900    2.6014
   24.915    2.5592
   24.930    2.5487
   24.945    2.4750
   24.960    2.4855
   24.975    2.4961
   24.990    2.2854
   25.005    2.2012
   25.020    2.4223
   25.035    2.6224
   25.050    2.5803
   25.065    2.3381
   25.080    2.2538
   25.095    2.1801
   25.110    2.3381
   25.125    2.4223
   25.140    2.3275
   25.155    2.5171
   25.170    2.4434
   25.185    2.6540
   25.200    2.5066
   25.215    2.6224
   25.230    2.3381
   25.245    2.4329
   25.260    2.2117
   25.275    2.3697
   25.290    2.5803
   25.305    2.4750
   25.320    2.4223
   25.335    2.2643
   25.350    2.5803
   25.365    2.3697
   25.380    2.3907
   25.395    2.7172
   25.410    2.6751
   25.425    2.6435
   25.440    2.2749
   25.455    2.4539
   25.470    2.4539
   25.485    2.2433
   25.500    2.4434
   25.515    2.3591
   25.530    2.4329
   25.545    2.3907
   25.560    2.1380
   25.575    2.2538
   25.590    2.2012
   25.605    2.4961
   25.620    2.4223
   25.635    2.3802
   25.650    2.3170
   25.665    2.5698
   25.680    2.6962
   25.695    2.6540
   25.710    2.4329
   25.725    2.5066
   25.740    2.4118
   25.755    2.3697
   25.770    2.4539
   25.785    2.6435
   25.800    2.3381
   25.815    2.2117
   25.830    2.5171
   25.845    2.3591
   25.860    2.2538
   25.875    2.2433
   25.890    2.2538
   25.905    2.3907
   25.920    2.2012
   25.935    2.2643
   25.950    2.2854
   25.965    2.2117
   25.980    2.3065
   25.995    2.5171
   26.010    2.4961
   26.025    2.4329
   26.040    2.2959
   26.055    2.2012
   26.070    2.3170
   26.085    2.2222
   26.100    2.3591
   26.115    2.5592
   26.130    2.2117
   26.145    2.3065
   26.160    2.4750
   26.175    2.2854
   26.190    2.1801
   26.205    2.1906
   26.220    2.2433
   26.235    2.2433
   26.250    2.2433
   26.265    2.4329
   26.280    2.2959
   26.295    2.3170
   26.310    2.3486
   26.325    2.3170
   26.340    2.1590
   26.355    2.3275
   26.370    2.5276
   26.385    2.3065
   26.400    2.3065
   26.415    2.3907
   26.430    2.3381
   26.445    2.1169
   26.460    2.1380
   26.475    2.3170
   26.490    2.3907
   26.505    2.1801
   26.520    2.2222
   26.535    2.3275
   26.550    2.2328
   26.565    2.3486
   26.580    2.3065
   26.595    2.2854
   26.610    2.2012
   26.625    2.2328
   26.640    2.2643
   26.655    2.2433
   26.670    2.1906
   26.685    2.3170
   26.700    2.2433
   26.715    2.3170
   26.730    2.3170
   26.745    2.2538
   26.760    1.9695
   26.775    2.3591
   26.790    2.1906
   26.805    2.1696
   26.820    2.1696
   26.835    1.9484
   26.850    2.2328
   26.865    2.5382
   26.880    2.4855
   26.895    2.0853
   26.910    2.0011
   26.925    2.1380
   26.940    2.2643
   26.955    2.4223
   26.970    2.2538
   26.985    2.1696
   27.000    2.0748
   27.015    2.2643
   27.030    2.3697
   27.045    2.3802
   27.060    2.4223
   27.075    2.4539
   27.090    2.2012
   27.105    2.2643
   27.120    2.0853
   27.135    2.1906
   27.150    2.0116
   27.165    2.1380
   27.180    2.1380
   27.195    2.1801
   27.210    2.3591
   27.225    2.3170
   27.240    2.1696
   27.255    2.2012
   27.270    2.5487
   27.285    2.2012
   27.300    2.1274
   27.315    2.3381
   27.330    2.3591
   27.345    2.3907
   27.360    2.3697
   27.375    2.6014
   27.390    2.2012
   27.405    2.2959
   27.420    2.2433
   27.435    2.1169
   27.450    2.2538
   27.465    2.3170
   27.480    2.0011
   27.495    2.4013
   27.510    2.2538
   27.525    2.1801
   27.540    2.2012
   27.555    2.3065
   27.570    2.2328
   27.585    2.1380
   27.600    2.3065
   27.615    2.2643
   27.630    2.4434
   27.645    2.1590
   27.660    2.3381
   27.675    2.3591
   27.690    2.1590
   27.705    2.1380
   27.720    2.2117
   27.735    2.3591
   27.750    2.3381
   27.765    2.1380
   27.780    2.1696
   27.795    2.2643
   27.810    2.2643
   27.825    2.4750
   27.840    2.3802
   27.855    2.2433
   27.870    2.4855
   27.885    2.3275
   27.900    2.2749
   27.915    2.1169
   27.930    2.2749
   27.945    2.4434
   27.960    1.9800
   27.975    2.0221
   27.990    2.1590
   28.005    2.1169
   28.020    2.2012
   28.035    2.2328
   28.050    2.1380
   28.065    2.1169
   28.080    2.2222
   28.095    2.2538
   28.110    2.1169
   28.125    2.2328
   28.140    2.1169
   28.155    2.2433
   28.170    2.4013
   28.185    2.2117
   28.200    2.2433
   28.215    2.4118
   28.230    2.1906
   28.245    2.1590
   28.260    2.3697
   28.275    2.4539
   28.290    2.6435
   28.305    2.2222
   28.320    2.1485
   28.335    2.2959
   28.350    2.4645
   28.365    2.1169
   28.380    2.3802
   28.395    2.4118
   28.410    2.1064
   28.425    1.9484
   28.440    2.1906
   28.455    2.4013
   28.470    2.3907
   28.485    2.2433
   28.500    2.1590
   28.515    2.0642
   28.530    2.2854
   28.545    2.4013
   28.560    2.1801
   28.575    1.9484
   28.590    2.2012
   28.605    2.2012
   28.620    2.3170
   28.635    2.2749
   28.650    2.3486
   28.665    2.2959
   28.680    2.0958
   28.695    2.2012
   28.710    2.1274
   28.725    2.0853
   28.740    2.2222
   28.755    2.1801
   28.770    2.2959
   28.785    2.1590
   28.800    2.0853
   28.815    2.0011
   28.830    1.9589
   28.845    2.2538
   28.860    2.1906
   28.875    2.2643
   28.890    2.1380
   28.905    2.2012
   28.920    2.2222
   28.935    2.2328
   28.950    2.2012
   28.965    2.0221
   28.980    2.1064
   28.995    2.2749
   29.010    2.0958
   29.025    2.1801
   29.040    2.3065
   29.055    1.9800
   29.070    2.1274
   29.085    2.3907
   29.100    2.2854
   29.115    2.3381
   29.130    1.8009
   29.145    1.8536
   29.160    2.0642
   29.175    1.9695
   29.190    2.0748
   29.205    2.0853
   29.220    2.0958
   29.235    2.0853
   29.250    2.0326
   29.265    2.0432
   29.280    2.1590
   29.295    2.2222
   29.310    2.0432
   29.325    2.0537
   29.340    2.0853
   29.355    2.4223
   29.370    2.2749
   29.385    2.0853
   29.400    2.2433
   29.415    2.0432
   29.430    2.0116
   29.445    2.3486
   29.460    2.1801
   29.475    2.3170
   29.490    2.2117
   29.505    1.8747
   29.520    2.0011
   29.535    2.0853
   29.550    2.2749
   29.565    2.2433
   29.580    2.2012
   29.595    1.9905
   29.610    2.1169
   29.625    2.2643
   29.640    2.0748
   29.655    1.8852
   29.670    2.1169
   29.685    2.0748
   29.700    2.2117
   29.715    2.3381
   29.730    2.2959
   29.745    2.1485
   29.760    1.7167
   29.775    2.1064
   29.790    2.1274
   29.805    1.9589
   29.820    1.9905
   29.835    1.9379
   29.850    1.8957
   29.865    1.9695
   29.880    2.0642
   29.895    1.9168
   29.910    2.0116
   29.925    2.0748
   29.940    2.1169
   29.955    2.0537
   29.970    1.8641
   29.985    2.0221
   30.000    1.9589
   30.015    2.0958
   30.030    1.9063
   30.045    2.0537
   30.060    2.0221
   30.075    2.0432
   30.090    1.9905
   30.105    2.0326
   30.120    1.8747
   30.135    1.9168
   30.150    2.0537
   30.165    2.0853
   30.180    2.0432
   30.195    2.1801
   30.210    2.0958
   30.225    1.9379
   30.240    2.0326
   30.255    2.0432
   30.270    2.1801
   30.285    2.2433
   30.300    2.0642
   30.315    2.0432
   30.330    1.9695
   30.345    2.1906
   30.360    2.2643
   30.375    2.0011
   30.390    2.0958
   30.405    2.0221
   30.420    2.2012
   30.435    2.2538
   30.450    2.1801
   30.465    1.9905
   30.480    2.2222
   30.495    2.2643
   30.510    2.0432
   30.525    1.9168
   30.540    1.8431
   30.555    1.9273
   30.570    1.9379
   30.585    2.0642
   30.600    2.1696
   30.615    2.2117
   30.630    2.0537
   30.645    2.0116
   30.660    1.9800
   30.675    2.0221
   30.690    2.1380
   30.705    1.9589
   30.720    2.2643
   30.735    1.9484
   30.750    1.9168
   30.765    1.9695
   30.780    1.9695
   30.795    1.9695
   30.810    2.1380
   30.825    2.0432
   30.840    2.1380
   30.855    2.1906
   30.870    2.1274
   30.885    2.1274
   30.900    2.0537
   30.915    2.1801
   30.930    2.2433
   30.945    2.4434
   30.960    2.0011
   30.975    1.8852
   30.990    1.9484
   31.005    2.1380
   31.020    1.9168
   31.035    1.9800
   31.050    2.0853
   31.065    2.0537
   31.080    2.1485
   31.095    2.1380
   31.110    1.9800
   31.125    1.9063
   31.140    1.9589
   31.155    2.0116
   31.170    2.0326
   31.185    2.0958
   31.200    1.7799
   31.215    2.1169
   31.230    2.2117
   31.245    2.2222
   31.260    1.7904
   31.275    1.9695
   31.290    1.9379
   31.305    1.8431
   31.320    1.8957
   31.335    1.9800
   31.350    1.8957
   31.365    2.2012
   31.380    2.1169
   31.395    2.0326
   31.410    2.2328
   31.425    2.1906
   31.440    1.8220
   31.455    1.8852
   31.470    2.1064
   31.485    1.9484
   31.500    1.9905
   31.515    2.0853
   31.530    2.0642
   31.545    1.8957
   31.560    1.9379
   31.575    2.1906
   31.590    2.0537
   31.605    2.2012
   31.620    2.1696
   31.635    2.0958
   31.650    1.9484
   31.665    1.9695
   31.680    1.9379
   31.695    1.9063
   31.710    1.8536
   31.725    1.9589
   31.740    2.0748
   31.755    1.9484
   31.770    2.0642
   31.785    1.9168
   31.800    1.9063
   31.815    2.2012
   31.830    2.0642
   31.845    2.2012
   31.860    1.9063
   31.875    2.0221
   31.890    2.0537
   31.905    2.1380
   31.920    2.0748
   31.935    2.0748
   31.950    2.0326
   31.965    2.0537
   31.980    1.9379
   31.995    1.8957
   32.010    1.6956
   32.025    1.8536
   32.040    2.0748
   32.055    2.1169
   32.070    1.8957
   32.085    1.9168
   32.100    1.9589
   32.115    1.9168
   32.130    1.8431
   32.145    2.0011
   32.160    1.9905
   32.175    1.9484
   32.190    2.0748
   32.205    1.8747
   32.220    2.0748
   32.235    2.0958
   32.250    1.8641
   32.265    1.9168
   32.280    2.0326
   32.295    2.0537
   32.310    2.0326
   32.325    1.9905
   32.340    2.0748
   32.355    2.0642
   32.370    2.0221
   32.385    1.8220
   32.400    1.9168
   32.415    2.1064
   32.430    1.9273
   32.445    1.9379
   32.460    1.7694
   32.475    1.8536
   32.490    2.1696
   32.505    1.9484
   32.520    1.8852
   32.535    1.8220
   32.550    1.6640
   32.565    1.8115
   32.580    1.7167
   32.595    1.9589
   32.610    2.0958
   32.625    2.0116
   32.640    1.8115
   32.655    1.9484
   32.670    2.2538
   32.685    1.9589
   32.700    1.9273
   32.715    1.8431
   32.730    1.9695
   32.745    2.0116
   32.760    1.8747
   32.775    1.9273
   32.790    1.8115
   32.805    1.7694
   32.820    1.9695
   32.835    1.9273
   32.850    1.8747
   32.865    1.7694
   32.880    1.8957
   32.895    1.7799
   32.910    1.8536
   32.925    1.7167
   32.940    1.7694
   32.955    1.9379
   32.970    1.8431
   32.985    2.0116
   33.000    1.7799
   33.015    1.7588
   33.030    1.8852
   33.045    1.8747
   33.060    1.6746
   33.075    2.1590
   33.090    1.8115
   33.105    1.7799
   33.120    1.9695
   33.135    1.9800
   33.150    1.6746
   33.165    1.6851
   33.180    1.8009
   33.195    1.9063
   33.210    1.8641
   33.225    1.8325
   33.240    1.8009
   33.255    1.7062
   33.270    1.7483
   33.285    1.7694
   33.300    1.7799
   33.315    1.7167
   33.330    1.7167
   33.345    1.8431
   33.360    1.8536
   33.375    1.9063
   33.390    1.9589
   33.405    1.8220
   33.420    1.8641
   33.435    1.7378
   33.450    1.9484
   33.465    1.8747
   33.480    2.1274
   33.495    2.0116
   33.510    1.7904
   33.525    1.7799
   33.540    1.7378
   33.555    1.8115
   33.570    1.7062
   33.585    1.7167
   33.600    1.8115
   33.615    2.0537
   33.630    1.9695
   33.645    2.0116
   33.660    1.8115
   33.675    1.6008
   33.690    1.7167
   33.705    1.7588
   33.720    1.7272
   33.735    1.8852
   33.750    2.0853
   33.765    2.0326
   33.780    1.9905
   33.795    1.7904
   33.810    1.6535
   33.825    1.7062
   33.840    1.7483
   33.855    1.7167
   33.870    1.8957
   33.885    1.9063
   33.900    1.9168
   33.915    1.6008
   33.930    1.8325
   33.945    1.6008
   33.960    1.7272
   33.975    1.7378
   33.990    1.6956
   34.005    1.5377
   34.020    1.9695
   34.035    1.8115
   34.050    1.9695
   34.065    1.9379
   34.080    1.9168
   34.095    1.8009
   34.110    1.9800
   34.125    1.9484
   34.140    1.7272
   34.155    1.5482
   34.170    1.7062
   34.185    1.4850
   34.200    1.7588
   34.215    1.9484
   34.230    1.8747
   34.245    1.7694
   34.260    1.7483
   34.275    1.8536
   34.290    1.8115
   34.305    1.9063
   34.320    1.7799
   34.335    1.7062
   34.350    1.9484
   34.365    1.8325
   34.380    1.7904
   34.395    1.7799
   34.410    1.9063
   34.425    1.6956
   34.440    1.5692
   34.455    1.6324
   34.470    1.7694
   34.485    1.4955
   34.500    1.7062
   34.515    1.9273
   34.530    1.8431
   34.545    1.8325
   34.560    1.7588
   34.575    1.5692
   34.590    1.7272
   34.605    1.6746
   34.620    1.7062
   34.635    1.5166
   34.650    1.7062
   34.665    1.7799
   34.680    1.6640
   34.695    1.7483
   34.710    1.7483
   34.725    1.6114
   34.740    1.5587
   34.755    1.8009
   34.770    1.6535
   34.785    1.8325
   34.800    1.7483
   34.815    2.0116
   34.830    1.6746
   34.845    1.8852
   34.860    1.5798
   34.875    1.8641
   34.890    1.6324
   34.905    1.6008
   34.920    1.7272
   34.935    1.7483
   34.950    1.7062
   34.965    1.7062
   34.980    1.7167
   34.995    1.6640
   35.010    1.4323
   35.025    1.6430
   35.040    1.7062
   35.055    1.4955
   35.070    1.6535
   35.085    1.6535
   35.100    1.5798
   35.115    1.5903
   35.130    1.6008
   35.145    1.6008
   35.160    1.6114
   35.175    1.7272
   35.190    1.7904
   35.205    1.6746
   35.220    1.5377
   35.235    1.6956
   35.250    1.6430
   35.265    1.8536
   35.280    1.7062
   35.295    1.4429
   35.310    1.6430
   35.325    1.7167
   35.340    1.6219
   35.355    1.5061
   35.370    1.6430
   35.385    1.5798
   35.400    1.6535
   35.415    1.5692
   35.430    1.5587
   35.445    1.7799
   35.460    1.7694
   35.475    1.7378
   35.490    1.7062
   35.505    1.4429
   35.520    1.6851
   35.535    1.5692
   35.550    1.6851
   35.565    1.6535
   35.580    1.7378
   35.595    1.7694
   35.610    1.7378
   35.625    1.6219
   35.640    1.5903
   35.655    1.6956
   35.670    1.5903
   35.685    1.7167
   35.700    1.6956
   35.715    1.5587
   35.730    1.5692
   35.745    1.6008
   35.760    1.6430
   35.775    1.6430
   35.790    1.4429
   35.805    1.6430
   35.820    1.6956
   35.835    1.4955
   35.850    1.5798
   35.865    1.5692
   35.880    1.7167
   35.895    1.6324
   35.910    1.6956
   35.925    1.5903
   35.940    1.6430
   35.955    1.7378
   35.970    1.5166
   35.985    1.6324
   36.000    1.7588
   36.015    1.7904
   36.030    1.7378
   36.045    1.6535
   36.060    1.6324
   36.075    1.7167
   36.090    1.7272
   36.105    1.8115
   36.120    1.6956
   36.135    1.6430
   36.150    1.7483
   36.165    1.6746
   36.180    1.5692
   36.195    1.6114
   36.210    1.6114
   36.225    1.5903
   36.240    1.4007
   36.255    1.4218
   36.270    1.6535
   36.285    1.8431
   36.300    1.9695
   36.315    1.6640
   36.330    1.5692
   36.345    1.5271
   36.360    1.6324
   36.375    1.5692
   36.390    1.6114
   36.405    1.6746
   36.420    1.4955
   36.435    1.5377
   36.450    1.6535
   36.465    1.6219
   36.480    1.6324
   36.495    1.5692
   36.510    1.3902
   36.525    1.6008
   36.540    1.5271
   36.555    1.6219
   36.570    1.5271
   36.585    1.5271
   36.600    1.7378
   36.615    1.5798
   36.630    1.6008
   36.645    1.6114
   36.660    1.7588
   36.675    1.6430
   36.690    1.3797
   36.705    1.5587
   36.720    1.4955
   36.735    1.6219
   36.750    1.6851
   36.765    1.6219
   36.780    1.6324
   36.795    1.7167
   36.810    1.5692
   36.825    1.6114
   36.840    1.6746
   36.855    1.5798
   36.870    1.6114
   36.885    1.8115
   36.900    1.7588
   36.915    1.6956
   36.930    1.6851
   36.945    1.6430
   36.960    1.5692
   36.975    1.4955
   36.990    1.4850
   37.005    1.6430
   37.020    1.6324
   37.035    1.4113
   37.050    1.4323
   37.065    1.5482
   37.080    1.5903
   37.095    1.7272
   37.110    1.5798
   37.125    1.6746
   37.140    1.8747
   37.155    1.6746
   37.170    1.5798
   37.185    1.5061
   37.200    1.5271
   37.215    1.5061
   37.230    1.4323
   37.245    1.4429
   37.260    1.5271
   37.275    1.6324
   37.290    1.6851
   37.305    1.6114
   37.320    1.6535
   37.335    1.4429
   37.350    1.6008
   37.365    1.5798
   37.380    1.5166
   37.395    1.7694
   37.410    1.5587
   37.425    1.3165
   37.440    1.3797
   37.455    1.4429
   37.470    1.5271
   37.485    1.6640
   37.500    1.4850
   37.515    1.6746
   37.530    1.4955
   37.545    1.5692
   37.560    1.6219
   37.575    1.4218
   37.590    1.6114
   37.605    1.4639
   37.620    1.5271
   37.635    1.6430
   37.650    1.6640
   37.665    1.5692
   37.680    1.4534
   37.695    1.5377
   37.710    1.6008
   37.725    1.6324
   37.740    1.5166
   37.755    1.4218
   37.770    1.4007
   37.785    1.6640
   37.800    1.5166
   37.815    1.4639
   37.830    1.4534
   37.845    1.4745
   37.860    1.4639
   37.875    1.6535
   37.890    1.7483
   37.905    1.4007
   37.920    1.4323
   37.935    1.5271
   37.950    1.5798
   37.965    1.6430
   37.980    1.5061
   37.995    1.4639
   38.010    1.4218
   38.025    1.2322
   38.040    1.4113
   38.055    1.5692
   38.070    1.4429
   38.085    1.4745
   38.100    1.5482
   38.115    1.3586
   38.130    1.3375
   38.145    1.4007
   38.160    1.4850
   38.175    1.4534
   38.190    1.6114
   38.205    1.5166
   38.220    1.4745
   38.235    1.4429
   38.250    1.4745
   38.265    1.5903
   38.280    1.5377
   38.295    1.7378
   38.310    1.6008
   38.325    1.4007
   38.340    1.5271
   38.355    1.6008
   38.370    1.7167
   38.385    1.5482
   38.400    1.4745
   38.415    1.4639
   38.430    1.4850
   38.445    1.5061
   38.460    1.4850
   38.475    1.5271
   38.490    1.5482
   38.505    1.5061
   38.520    1.5903
   38.535    1.4323
   38.550    1.4639
   38.565    1.2217
   38.580    1.4218
   38.595    1.3902
   38.610    1.5587
   38.625    1.4850
   38.640    1.6219
   38.655    1.5061
   38.670    1.5061
   38.685    1.6008
   38.700    1.4218
   38.715    1.3586
   38.730    1.5166
   38.745    1.4534
   38.760    1.3797
   38.775    1.3165
   38.790    1.5166
   38.805    1.6324
   38.820    1.5377
   38.835    1.6324
   38.850    1.4113
   38.865    1.4218
   38.880    1.4745
   38.895    1.4639
   38.910    1.4955
   38.925    1.4639
   38.940    1.6008
   38.955    1.4429
   38.970    1.3165
   38.985    1.5587
   39.000    1.3691
   39.015    1.5692
   39.030    1.4850
   39.045    1.5692
   39.060    1.4850
   39.075    1.4534
   39.090    1.5061
   39.105    1.4218
   39.120    1.5271
   39.135    1.5692
   39.150    1.5798
   39.165    1.5798
   39.180    1.4534
   39.195    1.4113
   39.210    1.4850
   39.225    1.2112
   39.240    1.3902
   39.255    1.5271
   39.270    1.4955
   39.285    1.4429
   39.300    1.3797
   39.315    1.3902
   39.330    1.5587
   39.345    1.5377
   39.360    1.6008
   39.375    1.4323
   39.390    1.5271
   39.405    1.6008
   39.420    1.4534
   39.435    1.5377
   39.450    1.4955
   39.465    1.4639
   39.480    1.3165
   39.495    1.5798
   39.510    1.4429
   39.525    1.3902
   39.540    1.5377
   39.555    1.3270
   39.570    1.6008
   39.585    1.4639
   39.600    1.4850
   39.615    1.6956
   39.630    1.6430
   39.645    1.6746
   39.660    1.5692
   39.675    1.4007
   39.690    1.5482
   39.705    1.4745
   39.720    1.4639
   39.735    1.5061
   39.750    1.6219
   39.765    1.4429
   39.780    1.5377
   39.795    1.5482
   39.810    1.5482
   39.825    1.5377
   39.840    1.4955
   39.855    1.5482
   39.870    1.6114
   39.885    1.4639
   39.900    1.4639
   39.915    1.5061
   39.930    1.4323
   39.945    1.5482
   39.960    1.7799
   39.975    1.3691
   39.990    1.5271
