    1.500   11.1006
    1.515   11.2796
    1.530   10.9110
    1.545   11.4271
    1.560   11.2902
    1.575   10.6372
    1.590   10.9953
    1.605   10.3212
    1.620   10.3633
    1.635   10.3949
    1.650   10.1316
    1.665   10.4581
    1.680   10.3528
    1.695    9.7630
    1.710    9.6051
    1.725    9.7209
    1.740    9.7946
    1.755    9.8052
    1.770   10.1527
    1.785    9.5735
    1.800    9.2891
    1.815    9.0995
    1.830    9.3523
    1.845    9.1311
    1.860    8.7836
    1.875    8.9100
    1.890    9.2048
    1.905    8.9415
    1.920    8.7098
    1.935    8.7414
    1.950    8.8994
    1.965    8.5835
    1.980    8.1622
    1.995    8.7098
    2.010    8.4676
    2.025    8.5097
    2.040    8.0253
    2.055    7.8252
    2.070    8.2149
    2.085    8.4044
    2.100    8.7309
    2.115    7.9410
    2.130    7.8041
    2.145    7.7514
    2.160    7.6883
    2.175    7.9621
    2.190    8.0674
    2.205    7.7725
    2.220    7.2459
    2.235    7.5513
    2.250    7.4882
    2.265    7.7409
    2.280    7.8357
    2.295    7.5724
    2.310    7.2249
    2.325    7.1617
    2.340    7.7304
    2.355    7.1827
    2.370    7.1090
    2.385    7.2249
    2.400    7.3512
    2.415    7.3828
    2.430    7.3407
    2.445    7.0142
    2.460    7.0985
    2.475    6.9826
    2.490    7.3302
    2.505    6.9194
    2.520    7.0458
    2.535    7.0353
    2.550    7.1195
    2.565    6.9616
    2.580    7.0985
    2.595    6.7930
    2.610    6.8246
    2.625    7.2775
    2.640    6.8246
    2.655    6.6667
    2.670    6.7509
    2.685    6.8984
    2.700    6.8141
    2.715    6.4666
    2.730    6.8668
    2.745    6.7720
    2.760    6.4771
    2.775    6.5403
    2.790    6.7930
    2.805    6.5508
    2.820    6.7404
    2.835    6.6983
    2.850    6.6140
    2.865    6.3296
    2.880    6.6877
    2.895    6.6772
    2.910    6.6035
    2.925    6.6035
    2.940    6.5929
    2.955    6.7088
    2.970    6.3296
    2.985    6.3402
    3.000    6.9405
    3.015    6.9405
    3.030    7.1301
    3.045    7.2354
    3.060    6.6667
    3.075    6.5719
    3.090    7.0248
    3.105    6.8141
    3.120    6.7720
    3.135    6.6983
    3.150    6.5929
    3.165    7.1090
    3.180    7.2459
    3.195    7.1511
    3.210    7.5303
    3.225    7.6988
    3.240    7.5935
    3.255    7.2986
    3.270    7.4039
    3.285    7.7304
    3.300    7.7199
    3.315    7.7725
    3.330    8.3834
    3.345    8.5203
    3.360    8.2149
    3.375    8.4676
    3.390    8.6572
    3.405    8.5519
    3.420    8.7836
    3.435    9.2154
    3.450   10.0685
    3.465    9.7420
    3.480    9.7104
    3.495   10.1422
    3.510   10.2475
    3.525   10.5424
    3.540   11.1006
    3.555   10.8583
    3.570   10.7530
    3.585   10.7320
    3.600   10.6161
    3.615   10.6793
    3.630   10.8268
    3.645   10.5003
    3.660   10.2475
    3.675   10.1738
    3.690   10.3107
    3.705   10.0158
    3.720    9.9631
    3.735    9.7420
    3.750    9.4365
    3.765    9.3523
    3.780    9.0258
    3.795    9.2048
    3.810    9.4681
    3.825    9.0574
    3.840    9.1732
    3.855    8.7414
    3.870    8.2675
    3.885    8.1622
    3.900    8.2991
    3.915    8.0147
    3.930    7.8884
    3.945    7.9516
    3.960    8.1411
    3.975    8.0569
    3.990    7.7409
    4.005    7.9726
    4.020    8.0253
    4.035    7.6356
    4.050    7.7409
    4.065    7.5724
    4.080    7.5513
    4.095    7.4882
    4.110    7.2038
    4.125    7.2775
    4.140    7.5935
    4.155    7.7936
    4.170    7.3828
    4.185    7.2038
    4.200    6.9300
    4.215    7.0248
    4.230    7.2775
    4.245    7.3934
    4.260    7.2249
    4.275    7.2459
    4.290    6.8773
    4.305    7.2249
    4.320    7.1301
    4.335    6.8141
    4.350    7.1301
    4.365    7.3407
    4.380    6.9089
    4.395    7.0458
    4.410    7.0774
    4.425    7.0353
    4.440    7.0037
    4.455    6.6035
    4.470    6.7825
    4.485    7.0037
    4.500    6.7404
    4.515    6.6456
    4.530    6.9300
    4.545    6.7088
    4.560    6.7615
    4.575    7.3934
    4.590    6.9932
    4.605    6.8773
    4.620    6.6772
    4.635    7.1195
    4.650    7.3302
    4.665    7.1090
    4.680    6.9194
    4.695    7.2565
    4.710    7.0669
    4.725    7.0353
    4.740    7.1301
    4.755    7.4460
    4.770    7.0985
    4.785    7.1722
    4.800    6.9616
    4.815    7.0669
    4.830    7.0458
    4.845    6.9721
    4.860    6.8984
    4.875    6.6245
    4.890    6.5403
    4.905    6.6035
    4.920    6.3718
    4.935    6.9194
    4.950    7.1301
    4.965    7.1301
    4.980    6.9932
    4.995    7.0037
    5.010    7.4144
    5.025    7.1406
    5.040    7.1301
    5.055    7.1933
    5.070    7.4987
    5.085    7.4671
    5.100    7.4566
    5.115    7.8989
    5.130    7.5513
    5.145    7.5724
    5.160    7.4987
    5.175    7.2459
    5.190    7.7620
    5.205    8.2359
    5.220    8.0042
    5.235    7.7514
    5.250    8.1201
    5.265    8.2991
    5.280    8.5835
    5.295    8.2464
    5.310    8.0779
    5.325    7.9831
    5.340    8.1833
    5.355    8.7204
    5.370    8.0569
    5.385    8.1727
    5.400    8.2780
    5.415    8.5097
    5.430    8.2780
    5.445    8.6993
    5.460    8.8257
    5.475    8.5519
    5.490    8.7414
    5.505    9.0679
    5.520    8.8784
    5.535    8.9942
    5.550    8.6783
    5.565    8.4255
    5.580    8.7414
    5.595    8.7309
    5.610    9.0258
    5.625    8.6467
    5.640    8.6888
    5.655    8.3518
    5.670    8.8573
    5.685    8.6677
    5.700    8.8046
    5.715    8.5203
    5.730    8.4255
    5.745    8.5413
    5.760    8.4150
    5.775    8.0990
    5.790    7.9094
    5.805    8.4887
    5.820    7.7620
    5.835    8.0779
    5.850    7.7725
    5.865    7.5724
    5.880    7.7830
    5.895    7.4250
    5.910    7.6672
    5.925    7.6988
    5.940    7.3302
    5.955    7.3618
    5.970    7.2565
    5.985    7.0248
    6.000    6.7509
    6.015    7.1722
    6.030    7.0353
    6.045    6.8878
    6.060    6.8878
    6.075    6.5298
    6.090    6.6772
    6.105    6.6456
    6.120    6.6983
    6.135    6.1611
    6.150    6.3507
    6.165    6.2665
    6.180    6.2981
    6.195    6.0453
    6.210    6.3402
    6.225    6.4034
    6.240    6.5508
    6.255    6.4244
    6.270    6.3402
    6.285    6.1822
    6.300    6.1611
    6.315    6.2454
    6.330    6.3928
    6.345    5.8873
    6.360    5.7083
    6.375    5.7399
    6.390    5.9821
    6.405    5.9400
    6.420    6.0137
    6.435    5.8557
    6.450    5.9505
    6.465    6.3612
    6.480    6.0032
    6.495    5.9610
    6.510    5.7399
    6.525    5.9294
    6.540    6.0137
    6.555    5.6556
    6.570    6.0137
    6.585    5.8557
    6.600    5.5608
    6.615    5.9189
    6.630    6.0874
    6.645    5.6240
    6.660    5.5398
    6.675    6.0137
    6.690    5.8557
    6.705    5.6240
    6.720    5.4450
    6.735    6.0242
    6.750    5.5187
    6.765    5.2027
    6.780    5.3502
    6.795    5.4344
    6.810    5.4766
    6.825    5.0658
    6.840    5.8452
    6.855    5.7083
    6.870    5.6345
    6.885    5.2975
    6.900    5.2027
    6.915    5.0974
    6.930    5.2343
    6.945    4.9816
    6.960    5.0448
    6.975    5.3502
    6.990    4.9921
    7.005    5.2238
    7.020    5.6240
    7.035    5.7399
    7.050    5.2870
    7.065    5.9084
    7.080    5.6556
    7.095    5.4976
    7.110    5.5503
    7.125    5.2027
    7.140    5.8347
    7.155    5.7399
    7.170    5.6451
    7.185    5.2554
    7.200    5.1817
    7.215    5.5924
    7.230    5.7504
    7.245    5.3186
    7.260    5.4134
    7.275    5.0974
    7.290    5.1501
    7.305    4.9921
    7.320    5.0974
    7.335    5.0553
    7.350    5.1395
    7.365    5.1395
    7.380    5.4555
    7.395    5.6029
    7.410    4.9078
    7.425    4.8868
    7.440    5.1080
    7.455    5.0026
    7.470    4.8447
    7.485    4.9289
    7.500    4.7077
    7.515    4.5287
    7.530    4.6340
    7.545    4.6867
    7.560    4.5392
    7.575    4.7288
    7.590    4.4339
    7.605    4.4023
    7.620    4.2338
    7.635    4.2549
    7.650    4.4550
    7.665    4.6235
    7.680    4.5182
    7.695    4.6340
    7.710    4.7709
    7.725    4.5498
    7.740    4.5814
    7.755    4.6656
    7.770    4.5603
    7.785    4.6024
    7.800    4.6656
    7.815    4.5076
    7.830    4.3602
    7.845    3.9705
    7.860    4.2127
    7.875    4.3602
    7.890    4.2127
    7.905    4.2022
    7.920    4.3391
    7.935    4.2233
    7.950    4.2127
    7.965    4.1180
    7.980    4.0758
    7.995    4.3391
    8.010    4.0758
    8.025    4.0653
    8.040    3.7599
    8.055    3.8547
    8.070    4.4655
    8.085    4.1917
    8.100    4.1285
    8.115    3.9600
    8.130    3.8020
    8.145    3.9810
    8.160    4.1917
    8.175    4.0442
    8.190    4.0758
    8.205    3.9073
    8.220    4.1601
    8.235    4.0969
    8.250    4.2127
    8.265    3.9494
    8.280    3.6124
    8.295    3.7809
    8.310    3.9284
    8.325    3.8652
    8.340    3.8968
    8.355    3.8757
    8.370    3.6862
    8.385    3.9705
    8.400    3.8336
    8.415    3.7177
    8.430    3.5071
    8.445    3.7915
    8.460    3.6440
    8.475    3.5598
    8.490    3.6124
    8.505    3.8547
    8.520    4.0864
    8.535    3.9073
    8.550    3.7704
    8.565    3.6440
    8.580    3.6440
    8.595    3.6440
    8.610    3.5914
    8.625    3.4439
    8.640    3.5176
    8.655    3.7809
    8.670    3.7388
    8.685    3.6862
    8.700    3.6756
    8.715    3.8231
    8.730    3.5703
    8.745    3.0858
    8.760    3.3597
    8.775    3.5071
    8.790    3.4439
    8.805    3.4860
    8.820    3.5492
    8.835    3.2227
    8.850    3.4229
    8.865    3.4755
    8.880    3.5703
    8.895    3.4334
    8.910    3.8231
    8.925    3.4229
    8.940    3.6230
    8.955    4.0758
    8.970    3.6651
    8.985    3.5808
    9.000    3.4018
    9.015    3.8125
    9.030    3.6862
    9.045    3.5914
    9.060    3.4439
    9.075    3.6124
    9.090    3.6230
    9.105    3.4966
    9.120    3.6335
    9.135    3.5176
    9.150    3.5176
    9.165    3.6019
    9.180    3.4229
    9.195    3.2017
    9.210    3.2649
    9.225    3.4544
    9.240    3.7599
    9.255    3.6862
    9.270    3.4650
    9.285    3.4439
    9.300    3.6440
    9.315    3.6335
    9.330    3.6651
    9.345    3.5703
    9.360    3.4229
    9.375    3.4755
    9.390    3.5703
    9.405    3.5914
    9.420    3.6546
    9.435    3.3597
    9.450    3.3491
    9.465    3.2649
    9.480    3.3807
    9.495    3.3491
    9.510    3.5176
    9.525    3.0964
    9.540    3.6019
    9.555    3.5914
    9.570    3.5282
    9.585    3.3386
    9.600    3.5598
    9.615    3.2649
    9.630    3.0964
    9.645    3.2754
    9.660    3.2543
    9.675    3.2754
    9.690    3.3597
    9.705    3.4229
    9.720    3.5492
    9.735    3.5492
    9.750    3.4966
    9.765    3.6230
    9.780    3.4860
    9.795    3.5282
    9.810    3.3807
    9.825    3.2122
    9.840    3.5598
    9.855    3.2227
    9.870    3.2122
    9.885    3.3913
    9.900    3.2227
    9.915    3.2754
    9.930    3.4439
    9.945    3.5914
    9.960    3.4650
    9.975    3.4860
    9.990    3.6546
   10.005    3.3702
   10.020    3.6124
   10.035    3.5071
   10.050    3.6335
   10.065    3.4966
   10.080    3.7599
   10.095    3.5598
   10.110    3.2227
   10.125    3.2754
   10.140    3.4018
   10.155    3.2543
   10.170    3.5703
   10.185    3.4544
   10.200    3.2649
   10.215    3.6440
   10.230    3.7177
   10.245    3.6124
   10.260    3.3807
   10.275    3.6967
   10.290    3.7493
   10.305    3.3702
   10.320    3.4018
   10.335    3.3491
   10.350    3.6756
   10.365    3.3913
   10.380    3.6019
   10.395    3.9494
   10.410    3.4439
   10.425    3.3597
   10.440    3.5703
   10.455    3.6862
   10.470    3.4123
   10.485    3.5387
   10.500    3.6230
   10.515    3.3070
   10.530    3.0753
   10.545    3.2649
   10.560    3.3386
   10.575    3.5703
   10.590    3.7704
   10.605    3.7177
   10.620    3.4860
   10.635    3.7388
   10.650    3.8441
   10.665    3.6230
   10.680    3.5914
   10.695    3.5914
   10.710    3.8231
   10.725    3.6335
   10.740    3.6651
   10.755    3.5598
   10.770    3.7493
   10.785    3.8547
   10.800    3.7388
   10.815    3.5071
   10.830    3.5071
   10.845    3.5387
   10.860    3.8231
   10.875    3.8020
   10.890    3.6546
   10.905    3.5808
   10.920    3.5492
   10.935    3.3491
   10.950    3.8547
   10.965    3.8336
   10.980    3.7388
   10.995    3.5808
   11.010    3.7809
   11.025    3.9284
   11.040    3.9284
   11.055    3.6546
   11.070    3.3491
   11.085    3.6440
   11.100    3.8231
   11.115    3.7283
   11.130    3.6862
   11.145    3.8863
   11.160    3.8020
   11.175    3.6756
   11.190    3.6440
   11.205    3.7915
   11.220    3.7177
   11.235    3.7809
   11.250    3.8441
   11.265    3.7177
   11.280    3.8652
   11.295    3.7599
   11.310    3.5492
   11.325    3.6651
   11.340    3.6651
   11.355    3.9705
   11.370    3.9705
   11.385    3.6967
   11.400    3.4966
   11.415    3.6019
   11.430    3.4439
   11.445    3.5387
   11.460    3.7493
   11.475    3.6862
   11.490    3.6230
   11.505    3.4755
   11.520    3.7388
   11.535    3.7809
   11.550    3.7915
   11.565    3.8863
   11.580    3.7493
   11.595    4.0653
   11.610    3.6651
   11.625    3.4966
   11.640    3.7283
   11.655    3.7599
   11.670    3.8125
   11.685    3.5282
   11.700    3.6335
   11.715    3.8020
   11.730    3.6124
   11.745    3.6651
   11.760    3.5914
   11.775    3.4334
   11.790    3.5598
   11.805    3.4650
   11.820    3.3070
   11.835    3.4860
   11.850    3.7177
   11.865    3.9494
   11.880    3.7493
   11.895    3.6756
   11.910    3.8441
   11.925    3.9600
   11.940    3.5071
   11.955    3.5387
   11.970    3.6124
   11.985    3.7072
   12.000    3.7388
   12.015    3.7072
   12.030    3.7809
   12.045    3.6230
   12.060    3.5387
   12.075    3.4650
   12.090    3.8441
   12.105    3.5808
   12.120    3.7493
   12.135    3.5071
   12.150    3.4334
   12.165    3.7388
   12.180    3.6019
   12.195    3.5598
   12.210    3.3070
   12.225    3.5387
   12.240    3.5492
   12.255    3.8231
   12.270    3.3070
   12.285    3.4650
   12.300    3.4123
   12.315    3.7599
   12.330    3.8652
   12.345    3.6546
   12.360    3.6019
   12.375    3.4544
   12.390    3.4650
   12.405    3.4966
   12.420    3.5703
   12.435    3.5387
   12.450    3.6651
   12.465    3.5598
   12.480    3.5282
   12.495    3.5808
   12.510    3.7704
   12.525    3.4650
   12.540    3.6019
   12.555    3.4123
   12.570    3.2649
   12.585    3.0858
   12.600    3.2438
   12.615    3.6440
   12.630    3.8652
   12.645    3.4123
   12.660    3.3491
   12.675    3.3386
   12.690    3.1596
   12.705    3.1806
   12.720    3.6230
   12.735    3.6440
   12.750    3.4334
   12.765    3.6019
   12.780    3.3175
   12.795    3.7283
   12.810    3.4966
   12.825    3.5176
   12.840    3.1069
   12.855    3.1701
   12.870    3.5703
   12.885    3.2754
   12.900    3.2438
   12.915    3.4650
   12.930    3.5808
   12.945    3.2227
   12.960    3.4018
   12.975    3.4334
   12.990    3.4018
   13.005    3.5387
   13.020    3.6124
   13.035    3.2649
   13.050    3.1912
   13.065    3.1174
   13.080    3.4650
   13.095    3.5071
   13.110    3.4229
   13.125    3.3491
   13.140    3.4966
   13.155    3.3913
   13.170    3.2859
   13.185    3.3807
   13.200    3.1806
   13.215    3.1806
   13.230    3.8336
   13.245    3.3070
   13.260    3.6440
   13.275    3.4229
   13.290    3.4860
   13.305    3.1596
   13.320    3.2649
   13.335    3.3702
   13.350    3.3281
   13.365    3.5387
   13.380    3.4650
   13.395    3.2333
   13.410    3.1701
   13.425    3.5387
   13.440    3.4860
   13.455    3.5282
   13.470    3.5703
   13.485    3.4860
   13.500    3.2438
   13.515    3.5808
   13.530    3.7177
   13.545    3.3175
   13.560    3.5071
   13.575    3.7177
   13.590    3.8020
   13.605    3.6335
   13.620    3.0542
   13.635    3.5598
   13.650    3.6967
   13.665    3.5387
   13.680    3.6756
   13.695    3.8863
   13.710    3.5808
   13.725    3.4334
   13.740    3.4544
   13.755    3.3807
   13.770    3.6335
   13.785    3.4966
   13.800    3.5282
   13.815    3.3491
   13.830    3.4860
   13.845    3.4966
   13.860    3.4229
   13.875    3.3597
   13.890    3.2649
   13.905    3.7283
   13.920    3.8652
   13.935    3.3702
   13.950    3.4439
   13.965    3.4544
   13.980    3.4334
   13.995    3.7915
   14.010    3.8757
   14.025    3.8863
   14.040    3.8441
   14.055    3.5914
   14.070    3.6756
   14.085    3.8231
   14.100    3.8863
   14.115    4.0232
   14.130    3.7388
   14.145    3.6862
   14.160    3.6440
   14.175    3.6124
   14.190    3.5808
   14.205    3.9705
   14.220    3.9494
   14.235    3.8125
   14.250    3.8863
   14.265    3.9389
   14.280    3.8231
   14.295    3.7177
   14.310    3.8757
   14.325    4.1601
   14.340    4.1074
   14.355    3.9810
   14.370    4.2338
   14.385    4.0969
   14.400    4.2338
   14.415    4.3075
   14.430    3.9179
   14.445    3.7283
   14.460    3.9916
   14.475    3.8652
   14.490    3.8863
   14.505    3.8757
   14.520    3.9389
   14.535    3.5387
   14.550    3.8863
   14.565    3.8020
   14.580    3.8441
   14.595    3.6756
   14.610    3.8652
   14.625    3.8547
   14.640    3.8968
   14.655    3.5176
   14.670    3.7072
   14.685    3.5914
   14.700    3.9284
   14.715    3.5808
   14.730    3.6756
   14.745    3.7177
   14.760    3.8968
   14.775    3.6440
   14.790    3.9600
   14.805    3.4334
   14.820    3.5808
   14.835    3.4755
   14.850    3.7493
   14.865    3.8020
   14.880    3.5808
   14.895    3.6756
   14.910    3.4123
   14.925    3.6862
   14.940    3.3175
   14.955    3.7809
   14.970    3.6756
   14.985    3.3807
   15.000    3.6019
   15.015    3.4123
   15.030    3.5492
   15.045    3.6124
   15.060    3.6230
   15.075    3.6546
   15.090    3.5282
   15.105    3.3491
   15.120    3.3175
   15.135    3.6335
   15.150    3.4544
   15.165    3.6019
   15.180    3.2017
   15.195    3.2227
   15.210    3.6440
   15.225    3.7388
   15.240    3.3597
   15.255    3.4123
   15.270    3.2649
   15.285    3.1806
   15.300    3.2227
   15.315    3.7388
   15.330    3.4123
   15.345    3.2333
   15.360    3.3175
   15.375    3.3597
   15.390    3.2333
   15.405    3.3491
   15.420    3.4860
   15.435    3.5808
   15.450    3.5808
   15.465    3.4334
   15.480    3.2438
   15.495    3.4018
   15.510    3.1912
   15.525    3.2227
   15.540    3.5071
   15.555    3.5914
   15.570    3.2017
   15.585    3.4123
   15.600    3.4966
   15.615    3.4439
   15.630    3.7915
   15.645    3.2859
   15.660    3.3702
   15.675    3.0016
   15.690    3.0648
   15.705    3.1596
   15.720    3.3807
   15.735    3.0648
   15.750    3.5703
   15.765    3.5914
   15.780    3.5492
   15.795    3.2859
   15.810    3.3913
   15.825    3.4650
   15.840    3.5598
   15.855    3.5387
   15.870    3.5176
   15.885    3.7388
   15.900    3.4439
   15.915    3.4123
   15.930    3.3702
   15.945    3.5598
   15.960    3.4229
   15.975    3.6335
   15.990    3.2859
   16.005    3.3491
   16.020    3.4123
   16.035    3.1174
   16.050    3.2649
   16.065    3.4966
   16.080    3.4650
   16.095    3.3702
   16.110    3.4123
   16.125    3.3702
   16.140    3.3597
   16.155    3.1912
   16.170    3.5598
   16.185    3.3281
   16.200    3.5071
   16.215    3.3175
   16.230    3.4229
   16.245    3.5598
   16.260    3.5914
   16.275    3.5387
   16.290    3.4229
   16.305    3.5914
   16.320    3.7072
   16.335    3.3491
   16.350    3.5703
   16.365    3.4544
   16.380    3.4860
   16.395    3.4123
   16.410    3.5071
   16.425    3.6967
   16.440    3.4755
   16.455    3.6546
   16.470    3.4018
   16.485    3.5176
   16.500    3.4439
   16.515    3.3070
   16.530    3.5703
   16.545    3.6440
   16.560    3.5071
   16.575    3.5808
   16.590    3.5282
   16.605    3.6335
   16.620    3.4334
   16.635    3.4018
   16.650    3.4334
   16.665    3.3491
   16.680    3.4966
   16.695    3.1280
   16.710    3.2438
   16.725    3.3597
   16.740    3.2965
   16.755    3.3386
   16.770    3.4229
   16.785    3.4123
   16.800    3.6440
   16.815    3.3807
   16.830    3.5808
   16.845    3.9389
   16.860    3.7388
   16.875    3.3175
   16.890    3.4544
   16.905    3.1174
   16.920    3.2754
   16.935    3.6230
   16.950    3.3807
   16.965    3.5914
   16.980    3.5176
   16.995    3.6440
   17.010    3.2122
   17.025    3.2965
   17.040    3.3807
   17.055    3.2754
   17.070    3.3175
   17.085    3.5914
   17.100    3.2543
   17.115    3.3491
   17.130    3.4439
   17.145    3.2754
   17.160    3.1806
   17.175    3.7704
   17.190    3.6440
   17.205    3.3807
   17.220    3.5492
   17.235    3.6440
   17.250    3.4755
   17.265    3.1174
   17.280    3.2965
   17.295    3.5071
   17.310    3.2965
   17.325    3.3913
   17.340    3.4018
   17.355    3.2965
   17.370    3.5703
   17.385    3.5282
   17.400    3.4544
   17.415    3.1385
   17.430    3.2859
   17.445    3.3597
   17.460    3.5387
   17.475    3.5387
   17.490    3.6019
   17.505    3.4229
   17.520    3.3175
   17.535    3.2227
   17.550    3.4123
   17.565    3.5808
   17.580    3.4966
   17.595    3.4544
   17.610    3.1912
   17.625    3.1701
   17.640    3.3702
   17.655    3.5282
   17.670    3.5282
   17.685    3.3807
   17.700    3.4650
   17.715    3.3070
   17.730    3.1912
   17.745    3.2438
   17.760    3.4018
   17.775    3.4544
   17.790    3.2438
   17.805    3.5282
   17.820    3.3597
   17.835    3.3281
   17.850    3.5914
   17.865    3.5914
   17.880    3.6862
   17.895    3.5387
   17.910    3.5071
   17.925    3.7388
   17.940    3.6019
   17.955    3.5492
   17.970    3.2965
   17.985    3.5914
   18.000    3.4860
   18.015    3.4860
   18.030    3.5914
   18.045    3.4755
   18.060    3.4650
   18.075    3.6651
   18.090    3.4544
   18.105    3.3913
   18.120    3.4229
   18.135    3.3597
   18.150    3.4018
   18.165    3.6335
   18.180    3.4966
   18.195    3.3386
   18.210    3.5176
   18.225    3.6651
   18.240    3.4123
   18.255    3.4755
   18.270    3.3491
   18.285    3.5071
   18.300    3.5071
   18.315    3.1912
   18.330    3.4755
   18.345    3.4544
   18.360    3.6967
   18.375    3.5387
   18.390    3.2649
   18.405    3.3175
   18.420    3.4123
   18.435    3.3913
   18.450    3.5282
   18.465    3.5176
   18.480    3.5176
   18.495    3.5282
   18.510    3.5808
   18.525    3.3386
   18.540    3.2649
   18.555    3.7388
   18.570    3.8125
   18.585    3.7072
   18.600    3.4018
   18.615    3.3702
   18.630    3.4544
   18.645    3.6019
   18.660    3.8863
   18.675    3.9389
   18.690    3.9600
   18.705    3.6967
   18.720    3.6019
   18.735    3.6651
   18.750    3.4755
   18.765    3.6230
   18.780    3.6651
   18.795    3.7599
   18.810    3.3597
   18.825    3.2965
   18.840    3.2017
   18.855    3.1596
   18.870    3.4123
   18.885    3.6756
   18.900    3.4123
   18.915    3.3702
   18.930    3.5282
   18.945    3.3913
   18.960    3.2859
   18.975    3.6756
   18.990    3.5176
   19.005    3.7072
   19.020    3.5598
   19.035    3.5703
   19.050    3.7599
   19.065    3.2438
   19.080    3.7072
   19.095    3.3702
   19.110    3.4439
   19.125    3.1490
   19.140    3.1280
   19.155    3.1912
   19.170    3.3491
   19.185    3.4966
   19.200    3.3175
   19.215    3.1912
   19.230    3.3175
   19.245    3.6230
   19.260    3.2754
   19.275    3.2333
   19.290    3.3175
   19.305    3.2122
   19.320    3.2333
   19.335    3.3070
   19.350    3.2122
   19.365    3.3807
   19.380    3.2017
   19.395    3.3807
   19.410    3.4229
   19.425    3.3386
   19.440    3.3070
   19.455    3.0858
   19.470    3.2649
   19.485    3.3175
   19.500    3.3491
   19.515    3.4544
   19.530    3.4018
   19.545    3.4018
   19.560    3.2017
   19.575    3.2227
   19.590    3.0226
   19.605    3.3491
   19.620    3.4544
   19.635    3.5176
   19.650    3.5808
   19.665    3.1701
   19.680    3.1069
   19.695    3.1385
   19.710    3.0964
   19.725    3.4650
   19.740    3.2122
   19.755    3.1701
   19.770    3.3281
   19.785    3.1806
   19.800    3.1490
   19.815    3.4018
   19.830    3.4755
   19.845    3.3175
   19.860    3.1806
   19.875    3.2859
   19.890    3.2649
   19.905    3.0542
   19.920    3.1174
   19.935    3.2649
   19.950    3.0437
   19.965    3.1490
   19.980    3.2543
   19.995    2.9910
   20.010    3.0753
   20.025    3.0753
   20.040    3.4229
   20.055    3.2543
   20.070    3.5071
   20.085    3.0858
   20.100    3.2859
   20.115    3.2122
   20.130    3.1174
   20.145    3.1490
   20.160    3.2017
   20.175    3.1385
   20.190    3.4439
   20.205    3.2122
   20.220    3.2649
   20.235    3.1701
   20.250    3.2122
   20.265    3.0226
   20.280    3.4755
   20.295    3.5914
   20.310    3.0332
   20.325    3.1490
   20.340    3.0121
   20.355    3.4755
   20.370    3.3702
   20.385    3.3702
   20.400    3.6862
   20.415    3.7599
   20.430    3.3386
   20.445    3.2333
   20.460    3.0648
   20.475    3.1701
   20.490    3.2017
   20.505    3.2017
   20.520    3.1174
   20.535    3.3175
   20.550    3.2965
   20.565    3.0332
   20.580    3.2754
   20.595    3.0753
   20.610    3.1385
   20.625    2.8225
   20.640    3.0437
   20.655    3.1490
   20.670    3.3386
   20.685    3.1701
   20.700    2.9700
   20.715    2.9173
   20.730    3.2438
   20.745    3.0437
   20.760    2.9805
   20.775    2.8120
   20.790    2.9910
   20.805    3.1806
   20.820    2.9384
   20.835    3.0648
   20.850    2.9384
   20.865    3.2965
   20.880    3.1385
   20.895    2.9805
   20.910    2.9279
   20.925    2.8752
   20.940    3.0542
   20.955    2.8857
   20.970    3.0648
   20.985    2.9910
   21.000    2.9068
   21.015    3.0332
   21.030    3.0332
   21.045    2.8331
   21.060    3.0753
   21.075    3.2333
   21.090    3.0016
   21.105    3.1174
   21.120    3.2965
   21.135    3.2333
   21.150    2.9489
   21.165    3.0016
   21.180    3.1385
   21.195    3.0016
   21.210    3.0016
   21.225    2.9700
   21.240    3.1280
   21.255    3.1280
   21.270    2.9068
   21.285    2.9068
   21.300    3.1385
   21.315    3.0753
   21.330    2.9805
   21.345    3.2543
   21.360    2.8120
   21.375    2.7067
   21.390    2.8225
   21.405    2.7067
   21.420    3.0964
   21.435    3.0437
   21.450    3.0016
   21.465    2.9805
   21.480    2.9910
   21.495    3.1174
   21.510    2.8963
   21.525    2.7593
   21.540    3.0542
   21.555    3.1806
   21.570    3.1701
   21.585    2.9068
   21.600    3.2438
   21.615    3.4334
   21.630    3.1069
   21.645    3.1912
   21.660    3.0437
   21.675    3.2122
   21.690    3.0964
   21.705    2.7804
   21.720    3.0542
   21.735    3.0648
   21.750    3.1806
   21.765    2.8647
   21.780    2.7488
   21.795    3.2649
   21.810    2.9700
   21.825    2.9068
   21.840    2.7909
   21.855    2.8963
   21.870    2.7699
   21.885    2.8225
   21.900    2.9805
   21.915    2.8120
   21.930    2.7909
   21.945    2.8331
   21.960    2.8120
   21.975    2.9068
   21.990    2.9068
   22.005    2.6962
   22.020    2.8436
   22.035    3.0542
   22.050    2.9805
   22.065    2.8963
   22.080    2.7278
   22.095    2.7488
   22.110    2.9700
   22.125    3.0753
   22.140    2.9489
   22.155    2.9173
   22.170    2.8015
   22.185    3.0648
   22.200    2.9489
   22.215    3.0437
   22.230    3.0332
   22.245    2.9700
   22.260    2.9173
   22.275    3.1385
   22.290    2.9279
   22.305    2.7278
   22.320    2.8752
   22.335    3.0542
   22.350    3.0437
   22.365    2.9279
   22.380    3.0437
   22.395    3.0648
   22.410    2.7909
   22.425    2.6751
   22.440    2.8225
   22.455    2.7278
   22.470    2.6119
   22.485    2.5382
   22.500    2.6962
   22.515    2.8120
   22.530    2.8120
   22.545    2.7699
   22.560    2.6119
   22.575    2.8541
   22.590    2.8963
   22.605    2.9173
   22.620    2.4855
   22.635    2.7383
   22.650    2.8647
   22.665    3.0226
   22.680    2.5276
   22.695    2.6014
   22.710    2.6540
   22.725    2.8120
   22.740    2.5698
   22.755    2.9384
   22.770    2.7383
   22.785    2.5803
   22.800    2.7593
   22.815    2.7278
   22.830    2.3486
   22.845    2.5908
   22.860    2.6224
   22.875    2.9595
   22.890    2.9068
   22.905    2.8436
   22.920    2.8647
   22.935    2.9805
   22.950    2.7699
   22.965    2.7699
   22.980    2.9068
   22.995    2.8857
   23.010    2.8120
   23.025    2.7383
   23.040    2.6856
   23.055    2.6014
   23.070    2.6540
   23.085    2.6751
   23.100    2.8963
   23.115    2.6962
   23.130    2.8015
   23.145    2.7488
   23.160    2.8225
   23.175    3.0542
   23.190    2.8752
   23.205    2.5908
   23.220    2.7067
   23.235    2.6119
   23.250    2.6962
   23.265    2.7278
   23.280    2.6224
   23.295    2.6119
   23.310    2.6330
   23.325    2.6856
   23.340    2.6646
   23.355    2.7172
   23.370    2.7172
   23.385    2.5803
   23.400    2.7172
   23.415    2.5592
   23.430    2.7909
   23.445    2.4329
   23.460    2.4750
   23.475    2.7067
   23.490    2.4329
   23.505    2.6014
   23.520    2.6856
   23.535    2.6014
   23.550    2.7593
   23.565    2.4118
   23.580    2.3697
   23.595    2.6224
   23.610    2.6330
   23.625    2.7278
   23.640    2.5382
   23.655    2.7383
   23.670    2.7488
   23.685    2.8752
   23.700    2.6014
   23.715    2.4645
   23.730    2.5487
   23.745    2.5487
   23.760    2.6435
   23.775    2.6751
   23.790    2.6224
   23.805    2.7067
   23.820    2.5276
   23.835    2.6224
   23.850    2.6751
   23.865    2.5803
   23.880    2.3907
   23.895    2.4013
   23.910    2.5276
   23.925    2.5171
   23.940    2.4750
   23.955    2.5171
   23.970    2.7699
   23.985    2.3486
   24.000    2.1169
   24.015    2.4329
   24.030    2.6330
   24.045    2.6751
   24.060    2.4013
   24.075    2.4118
   24.090    2.5382
   24.105    2.5487
   24.120    2.5171
   24.135    2.5276
   24.150    2.5698
   24.165    2.4539
   24.180    2.6540
   24.195    2.5592
   24.210    2.3381
   24.225    2.7172
   24.240    2.7593
   24.255    2.4961
   24.270    2.6646
   24.285    2.5908
   24.300    2.5382
   24.315    2.4434
   24.330    2.2222
   24.345    2.3907
   24.360    2.4013
   24.375    2.4855
   24.390    2.4855
   24.405    2.4013
   24.420    2.3907
   24.435    2.4855
   24.450    2.4118
   24.465    2.3907
   24.480    2.2117
   24.495    2.3170
   24.510    2.5803
   24.525    2.4434
   24.540    2.4434
   24.555    2.2538
   24.570    2.3170
   24.585    2.4750
   24.600    2.4539
   24.615    2.3697
   24.630    2.2433
   24.645    2.3381
   24.660    2.8541
   24.675    2.4329
   24.690    2.3381
   24.705    2.5276
   24.720    2.3697
   24.735    2.5276
   24.750    2.3697
   24.765    2.2643
   24.780    2.4013
   24.795    2.3275
   24.810    2.3907
   24.825    2.0853
   24.840    2.3275
   24.855    2.3065
   24.870    2.3697
   24.885    2.4434
   24.900    2.4855
   24.915    2.4750
   24.930    2.3591
   24.945    2.2749
   24.960    2.4329
   24.975    2.5066
   24.990    2.3802
   25.005    2.3170
   25.020    2.5171
   25.035    2.3591
   25.050    2.4539
   25.065    2.1380
   25.080    2.0958
   25.095    2.1906
   25.110    2.1906
   25.125    2.3486
   25.140    2.3170
   25.155    2.4750
   25.170    2.3381
   25.185    2.3170
   25.200    2.6330
   25.215    2.2854
   25.230    2.2433
   25.245    2.5382
   25.260    2.5066
   25.275    2.3275
   25.290    2.3802
   25.305    2.5592
   25.320    2.2749
   25.335    2.3065
   25.350    2.5592
   25.365    2.2222
   25.380    2.3170
   25.395    2.3907
   25.410    2.3065
   25.425    2.3381
   25.440    2.3591
   25.455    2.5276
   25.470    2.5382
   25.485    2.2433
   25.500    2.2538
   25.515    2.4434
   25.530    2.4223
   25.545    2.2433
   25.560    2.2433
   25.575    2.3802
   25.590    2.5803
   25.605    2.1274
   25.620    2.1590
   25.635    2.1274
   25.650    2.3170
   25.665    2.4434
   25.680    2.4013
   25.695    2.1590
   25.710    2.0853
   25.725    2.1274
   25.740    2.2643
   25.755    2.4434
   25.770    2.1485
   25.785    2.5698
   25.800    2.4118
   25.815    2.2117
   25.830    2.3065
   25.845    2.0642
   25.860    2.2222
   25.875    2.5066
   25.890    2.3907
   25.905    2.4539
   25.920    2.2433
   25.935    2.3486
   25.950    2.3591
   25.965    2.2328
   25.980    2.2643
   25.995    2.1485
   26.010    2.3486
   26.025    2.3275
   26.040    2.0011
   26.055    2.1485
   26.070    2.1064
   26.085    2.1485
   26.100    2.2749
   26.115    2.0432
   26.130    2.1906
   26.145    2.2854
   26.160    2.1064
   26.175    2.2854
   26.190    2.3381
   26.205    2.0011
   26.220    2.3486
   26.235    2.2538
   26.250    2.2222
   26.265    1.9800
   26.280    2.2222
   26.295    2.3907
   26.310    2.3486
   26.325    2.3907
   26.340    2.4855
   26.355    2.2749
   26.370    2.1906
   26.385    2.1906
   26.400    1.9905
   26.415    2.3170
   26.430    2.2538
   26.445    2.1485
   26.460    2.0853
   26.475    2.1696
   26.490    2.0326
   26.505    2.0221
   26.520    2.2328
   26.535    2.0432
   26.550    2.1064
   26.565    2.1064
   26.580    2.4223
   26.595    2.3381
   26.610    2.1485
   26.625    2.3170
   26.640    2.2012
   26.655    2.2433
   26.670    2.1485
   26.685    2.2328
   26.700    2.1801
   26.715    1.9695
   26.730    2.1380
   26.745    2.1169
   26.760    2.1696
   26.775    2.1380
   26.790    2.2222
   26.805    2.1801
   26.820    2.3591
   26.835    1.9800
   26.850    2.1380
   26.865    2.0011
   26.880    2.0748
   26.895    2.3065
   26.910    2.1485
   26.925    2.4118
   26.940    2.0221
   26.955    1.9484
   26.970    2.0537
   26.985    2.2328
   27.000    2.2222
   27.015    2.1380
   27.030    2.1906
   27.045    2.1380
   27.060    2.1380
   27.075    2.1590
   27.090    2.0853
   27.105    2.0748
   27.120    2.0221
   27.135    2.0958
   27.150    2.0326
   27.165    1.9589
   27.180    1.9063
   27.195    2.0326
   27.210    1.9905
   27.225    1.9695
   27.240    1.8957
   27.255    2.1485
   27.270    1.9800
   27.285    2.2854
   27.300    2.0958
   27.315    1.9800
   27.330    1.9379
   27.345    1.9695
   27.360    2.0958
   27.375    2.2222
   27.390    1.9589
   27.405    1.8115
   27.420    1.9695
   27.435    2.1064
   27.450    2.1590
   27.465    2.0432
   27.480    2.1696
   27.495    1.9800
   27.510    1.9800
   27.525    1.9695
   27.540    2.0642
   27.555    2.3065
   27.570    1.8852
   27.585    1.8220
   27.600    2.0116
   27.615    2.1380
   27.630    1.9379
   27.645    1.9905
   27.660    2.1064
   27.675    2.0853
   27.690    1.9168
   27.705    1.8536
   27.720    1.9484
   27.735    2.0958
   27.750    1.8852
   27.765    1.9379
   27.780    1.9379
   27.795    1.7904
   27.810    1.8325
   27.825    1.9484
   27.840    1.8325
   27.855    1.9484
   27.870    1.9379
   27.885    1.8536
   27.900    1.9589
   27.915    2.0748
   27.930    1.9905
   27.945    2.0011
   27.960    1.8115
   27.975    1.8325
   27.990    1.8852
   28.005    2.0116
   28.020    1.7167
   28.035    2.0642
   28.050    2.0748
   28.065    1.9589
   28.080    2.0642
   28.095    2.0853
   28.110    1.8431
   28.125    1.7588
   28.140    1.8852
   28.155    2.0537
   28.170    1.9273
   28.185    1.7062
   28.200    1.7272
   28.215    1.8325
   28.230    1.7799
   28.245    1.8325
   28.260    1.8325
   28.275    1.9800
   28.290    1.9273
   28.305    1.6640
   28.320    1.7167
   28.335    1.8009
   28.350    1.8641
   28.365    1.9168
   28.380    1.9379
   28.395    2.0537
   28.410    2.1274
   28.425    1.8957
   28.440    1.6324
   28.455    1.7799
   28.470    2.0748
   28.485    2.1169
   28.500    2.2012
   28.515    2.0116
   28.530    1.8431
   28.545    1.7904
   28.560    1.6640
   28.575    1.8852
   28.590    1.9484
   28.605    1.9695
   28.620    1.8009
   28.635    2.1801
   28.650    1.7904
   28.665    1.9168
   28.680    2.0642
   28.695    1.9695
   28.710    1.8747
   28.725    1.8220
   28.740    1.9589
   28.755    1.8115
   28.770    1.8641
   28.785    1.9695
   28.800    1.8115
   28.815    1.7378
   28.830    1.9589
   28.845    1.9484
   28.860    2.0537
   28.875    1.9695
   28.890    1.8641
   28.905    1.6430
   28.920    1.9484
   28.935    1.9379
   28.950    2.0537
   28.965    2.1064
   28.980    2.0326
   28.995    2.3907
   29.010    2.0958
   29.025    2.1590
   29.040    2.2749
   29.055    1.9379
   29.070    1.8220
   29.085    1.7483
   29.100    1.7378
   29.115    2.1380
   29.130    2.0011
   29.145    1.8431
   29.160    1.9589
   29.175    1.7904
   29.190    1.7799
   29.205    1.6535
   29.220    1.5798
   29.235    1.5166
   29.250    2.0221
   29.265    1.7694
   29.280    1.8641
   29.295    1.9063
   29.310    1.8220
   29.325    1.7483
   29.340    1.7167
   29.355    1.5903
   29.370    1.5166
   29.385    1.5798
   29.400    1.7904
   29.415    1.7588
   29.430    1.9168
   29.445    1.6956
   29.460    1.6008
   29.475    1.7904
   29.490    1.8220
   29.505    1.5692
   29.520    1.7694
   29.535    1.6746
   29.550    1.8957
   29.565    1.8009
   29.580    1.6430
   29.595    1.6746
   29.610    1.4534
   29.625    1.4745
   29.640    1.4955
   29.655    1.4639
   29.670    1.6219
   29.685    1.5271
   29.700    1.7694
   29.715    1.4007
   29.730    1.4534
   29.745    1.7167
   29.760    1.8536
   29.775    1.7062
   29.790    1.6324
   29.805    1.6640
   29.820    1.5692
   29.835    1.3902
   29.850    1.4218
   29.865    1.4534
   29.880    1.6851
   29.895    1.6008
   29.910    1.5377
   29.925    1.6219
   29.940    1.4745
   29.955    1.6008
   29.970    1.6219
   29.985    1.6324
   30.000    1.5061
   30.015    1.5798
   30.030    1.7799
   30.045    1.6008
   30.060    1.6008
   30.075    1.3902
   30.090    1.5903
   30.105    1.4745
   30.120    1.4323
   30.135    1.5587
   30.150    1.4850
   30.165    1.3375
   30.180    1.5587
   30.195    1.8852
   30.210    1.4534
   30.225    1.5166
   30.240    1.5798
   30.255    1.8220
   30.270    1.4850
   30.285    1.5377
   30.300    1.3691
   30.315    1.5903
   30.330    1.6219
   30.345    1.3270
   30.360    1.5061
   30.375    1.5903
   30.390    1.4955
   30.405    1.6956
   30.420    1.4850
   30.435    1.4323
   30.450    1.5798
   30.465    1.3586
   30.480    1.3165
   30.495    1.5166
   30.510    1.6535
   30.525    1.4745
   30.540    1.5271
   30.555    1.4850
   30.570    1.5377
   30.585    1.4534
   30.600    1.6008
   30.615    1.6008
   30.630    1.6640
   30.645    1.5692
   30.660    1.5482
   30.675    1.7062
   30.690    1.6956
   30.705    1.4429
   30.720    1.3586
   30.735    1.5798
   30.750    1.5166
   30.765    1.5798
   30.780    1.3797
   30.795    1.2849
   30.810    1.4745
   30.825    1.2638
   30.840    1.3481
   30.855    1.3060
   30.870    1.2954
   30.885    1.3060
   30.900    1.4955
   30.915    1.5587
   30.930    1.4850
   30.945    1.4534
   30.960    1.4113
   30.975    1.3270
   30.990    1.5061
   31.005    1.5482
   31.020    1.3481
   31.035    1.6008
   31.050    1.5903
   31.065    1.4955
   31.080    1.3586
   31.095    1.3691
   31.110    1.2849
   31.125    1.5692
   31.140    1.4850
   31.155    1.1585
   31.170    1.6219
   31.185    1.5798
   31.200    1.6114
   31.215    1.4113
   31.230    1.6008
   31.245    1.4218
   31.260    1.4323
   31.275    1.3902
   31.290    1.5271
   31.305    1.4429
   31.320    1.4007
   31.335    1.4113
   31.350    1.4007
   31.365    1.2006
   31.380    1.3691
   31.395    1.2322
   31.410    1.3270
   31.425    1.1901
   31.440    1.4534
   31.455    1.4639
   31.470    1.3902
   31.485    1.3060
   31.500    1.3691
   31.515    1.3060
   31.530    1.2428
   31.545    1.2638
   31.560    1.3797
   31.575    1.4429
   31.590    1.3691
   31.605    1.4323
   31.620    1.2954
   31.635    1.2744
   31.650    1.3797
   31.665    1.0532
   31.680    1.3270
   31.695    1.5166
   31.710    1.3165
   31.725    1.3270
   31.740    1.3060
   31.755    1.2954
   31.770    1.3586
   31.785    1.2428
   31.800    1.4429
   31.815    1.4850
   31.830    1.4113
   31.845    1.3797
   31.860    1.4113
   31.875    1.3797
   31.890    1.4745
   31.905    1.4429
   31.920    1.4323
   31.935    1.5482
   31.950    1.2533
   31.965    1.4113
   31.980    1.2849
   31.995    1.4534
   32.010    1.2954
   32.025    1.3375
   32.040    1.2217
   32.055    1.4218
   32.070    1.4850
   32.085    1.4639
   32.100    1.7378
   32.115    1.7588
   32.130    2.0221
   32.145    1.9484
   32.160    1.7272
   32.175    1.6219
   32.190    1.3481
   32.205    1.4429
   32.220    1.3481
   32.235    1.3586
   32.250    1.1585
   32.265    1.2112
   32.280    1.2428
   32.295    1.2006
   32.310    1.1480
   32.325    1.2638
   32.340    1.3691
   32.355    1.2112
   32.370    1.2217
   32.385    1.1690
   32.400    1.2533
   32.415    1.2322
   32.430    1.2954
   32.445    1.3270
   32.460    1.2428
   32.475    1.2006
   32.490    1.2006
   32.505    1.2428
   32.520    1.2638
   32.535    1.2322
   32.550    1.2849
   32.565    1.3375
   32.580    1.3060
   32.595    1.2533
   32.610    1.4007
   32.625    1.3481
   32.640    1.4323
   32.655    1.2638
   32.670    1.1058
   32.685    1.3270
   32.700    1.3797
   32.715    1.3481
   32.730    1.4007
   32.745    1.2638
   32.760    1.2849
   32.775    1.2112
   32.790    1.2322
   32.805    1.2112
   32.820    1.1690
   32.835    1.1796
   32.850    1.3165
   32.865    1.1690
   32.880    1.1796
   32.895    1.3481
   32.910    1.2638
   32.925    1.1690
   32.940    1.0953
   32.955    1.2006
   32.970    1.3270
   32.985    1.2217
   33.000    1.2533
   33.015    1.1901
   33.030    1.2954
   33.045    1.2533
   33.060    1.3165
   33.075    1.1796
   33.090    1.2322
   33.105    1.2217
   33.120    1.1901
   33.135    1.2217
   33.150    1.3586
   33.165    1.3060
   33.180    1.2006
   33.195    1.1690
   33.210    1.2112
   33.225    1.2849
   33.240    1.3165
   33.255    1.2533
   33.270    1.0953
   33.285    1.1796
   33.300    1.1585
   33.315    1.0953
   33.330    1.3481
   33.345    1.2954
   33.360    1.2533
   33.375    1.3270
   33.390    1.0953
   33.405    1.1480
   33.420    1.3375
   33.435    1.0953
   33.450    1.1058
   33.465    1.0637
   33.480    1.1796
   33.495    1.1585
   33.510    1.1374
   33.525    1.2849
   33.540    1.1901
   33.555    1.1164
   33.570    1.1901
   33.585    1.2006
   33.600    1.2849
   33.615    1.1164
   33.630    1.0953
   33.645    1.2112
   33.660    1.1690
   33.675    1.1690
   33.690    1.0848
   33.705    1.0848
   33.720    1.0848
   33.735    1.0637
   33.750    1.1690
   33.765    1.2112
   33.780    1.1690
   33.795    1.0532
   33.810    1.1480
   33.825    1.2638
   33.840    1.2638
   33.855    1.2322
   33.870    1.2217
   33.885    1.1480
   33.900    1.2428
   33.915    1.1480
   33.930    1.1585
   33.945    1.3902
   33.960    1.2849
   33.975    1.1480
   33.990    1.2533
   34.005    1.3797
   34.020    1.2638
   34.035    1.1480
   34.050    1.0321
   34.065    1.2006
   34.080    1.0953
   34.095    1.2428
   34.110    1.2322
   34.125    1.1796
   34.140    1.1796
   34.155    1.0848
   34.170    1.0321
   34.185    1.2428
   34.200    1.0637
   34.215    1.1690
   34.230    1.1164
   34.245    1.1374
   34.260    1.0321
   34.275    1.1480
   34.290    1.1058
   34.305    1.1796
   34.320    1.1269
   34.335    1.0216
   34.350    1.0005
   34.365    1.0848
   34.380    1.1058
   34.395    0.9900
   34.410    1.0005
   34.425    1.1058
   34.440    1.0637
   34.455    1.1480
   34.470    0.9795
   34.485    1.1269
   34.500    1.1269
   34.515    1.0427
   34.530    1.1058
   34.545    1.0321
   34.560    1.1374
   34.575    1.1058
   34.590    1.1269
   34.605    1.0427
   34.620    1.1269
   34.635    1.1058
   34.650    1.0427
   34.665    1.0848
   34.680    1.1058
   34.695    1.1164
   34.710    1.1480
   34.725    1.0216
   34.740    1.1690
   34.755    1.0427
   34.770    1.2428
   34.785    1.1164
   34.800    0.9689
   34.815    1.0742
   34.830    1.1585
   34.845    1.1796
   34.860    1.1058
   34.875    1.0111
   34.890    1.0111
   34.905    1.2112
   34.920    1.1269
   34.935    1.0005
   34.950    1.2217
   34.965    1.0532
   34.980    1.1164
   34.995    1.3481
   35.010    1.1480
   35.025    1.3060
   35.040    1.2533
   35.055    1.1901
   35.070    1.2744
   35.085    1.1796
   35.100    1.1690
   35.115    1.1585
   35.130    1.1690
   35.145    1.3165
   35.160    1.1374
   35.175    0.9795
   35.190    1.1164
   35.205    1.0637
   35.220    1.0005
   35.235    1.0953
   35.250    1.1374
   35.265    1.0321
   35.280    1.1269
   35.295    1.2006
   35.310    1.0637
   35.325    1.0427
   35.340    1.0637
   35.355    0.9900
   35.370    1.0427
   35.385    1.2322
   35.400    1.1164
   35.415    1.1374
   35.430    1.0427
   35.445    0.9795
   35.460    1.1269
   35.475    1.1058
   35.490    1.1374
   35.505    1.1164
   35.520    1.0637
   35.535    0.9900
   35.550    1.0532
   35.565    1.1480
   35.580    1.0532
   35.595    1.1374
   35.610    1.1585
   35.625    1.0953
   35.640    1.0637
   35.655    1.0953
   35.670    1.2217
   35.685    1.0005
   35.700    1.0848
   35.715    1.0953
   35.730    1.1901
   35.745    1.0637
   35.760    1.0427
   35.775    1.0321
   35.790    0.9584
   35.805    1.0321
   35.820    1.1269
   35.835    1.1901
   35.850    1.1901
   35.865    1.0848
   35.880    1.2322
   35.895    1.0742
   35.910    1.1269
   35.925    0.9795
   35.940    0.9584
   35.955    1.1796
   35.970    1.3060
   35.985    1.1585
   36.000    1.1269
   36.015    1.0848
   36.030    1.1164
   36.045    1.1690
   36.060    1.2849
   36.075    1.0953
   36.090    1.1269
   36.105    0.9689
   36.120    1.0848
   36.135    1.0953
   36.150    1.0321
   36.165    1.3691
   36.180    1.1269
   36.195    1.1269
   36.210    1.0532
   36.225    1.0321
   36.240    1.0427
   36.255    1.2322
   36.270    1.0532
   36.285    1.0637
   36.300    0.9795
   36.315    1.0532
   36.330    1.0005
   36.345    1.1901
   36.360    1.0637
   36.375    1.0427
   36.390    1.1058
   36.405    1.0427
   36.420    1.3060
   36.435    1.1058
   36.450    1.2006
   36.465    1.1374
   36.480    1.3060
   36.495    1.2112
   36.510    1.2322
   36.525    1.0848
   36.540    1.0111
   36.555    1.0005
   36.570    1.1164
   36.585    0.9795
   36.600    1.2744
   36.615    1.0848
   36.630    1.0637
   36.645    1.0953
   36.660    1.0532
   36.675    1.1058
   36.690    1.1901
   36.705    1.0321
   36.720    0.9689
   36.735    0.9584
   36.750    1.1164
   36.765    1.0111
   36.780    1.1164
   36.795    1.0532
   36.810    1.0637
   36.825    1.0216
   36.840    0.9795
   36.855    1.0216
   36.870    0.9689
   36.885    0.9584
   36.900    1.1058
   36.915    1.0532
   36.930    0.9689
   36.945    0.9373
   36.960    1.0005
   36.975    0.9479
   36.990    1.1058
   37.005    1.0111
   37.020    0.9900
   37.035    0.9689
   37.050    0.9479
   37.065    0.9584
   37.080    1.0848
   37.095    0.9057
   37.110    1.0848
   37.125    1.0532
   37.140    0.9795
   37.155    1.0637
   37.170    1.0216
   37.185    1.1164
   37.200    1.2006
   37.215    1.0848
   37.230    1.0953
   37.245    1.1585
   37.260    0.9900
   37.275    1.0953
   37.290    1.0637
   37.305    1.0321
   37.320    0.8531
   37.335    0.8952
   37.350    1.0427
   37.365    1.0848
   37.380    1.0111
   37.395    1.0953
   37.410    1.0953
   37.425    1.0848
   37.440    1.0216
   37.455    0.9900
   37.470    0.9689
   37.485    0.9163
   37.500    1.0216
   37.515    1.0532
   37.530    1.0427
   37.545    1.1480
   37.560    1.0005
   37.575    0.8847
   37.590    1.0848
   37.605    1.0321
   37.620    1.1058
   37.635    1.0848
   37.650    0.9584
   37.665    0.9268
   37.680    0.8425
   37.695    1.0848
   37.710    0.9373
   37.725    0.9900
   37.740    0.9584
   37.755    0.9373
   37.770    1.0637
   37.785    1.0427
   37.800    0.9584
   37.815    1.0111
   37.830    1.1058
   37.845    1.0111
   37.860    1.0216
   37.875    0.9689
   37.890    1.0427
   37.905    1.0742
   37.920    1.0848
   37.935    0.9900
   37.950    1.1164
   37.965    0.8952
   37.980    0.9584
   37.995    1.0111
   38.010    0.9900
   38.025    1.0427
   38.040    1.1269
   38.055    0.9689
   38.070    0.9479
   38.085    1.0216
   38.100    1.0111
   38.115    1.2112
   38.130    1.0427
   38.145    0.9900
   38.160    0.9163
   38.175    0.9795
   38.190    1.0216
   38.205    0.9373
   38.220    0.8425
   38.235    0.9268
   38.250    0.9584
   38.265    0.9900
   38.280    1.0427
   38.295    1.1164
   38.310    1.0111
   38.325    1.0848
   38.340    1.1269
   38.355    0.9584
   38.370    1.0111
   38.385    0.9373
   38.400    1.0321
   38.415    1.0637
   38.430    1.0532
   38.445    0.8636
   38.460    1.0111
   38.475    0.9268
   38.490    1.0532
   38.505    1.0005
   38.520    1.0005
   38.535    1.0532
   38.550    1.0005
   38.565    0.9584
   38.580    1.0005
   38.595    1.0427
   38.610    1.2428
   38.625    1.0953
   38.640    1.1269
   38.655    0.9689
   38.670    1.1269
   38.685    0.9479
   38.700    0.9900
   38.715    0.9268
   38.730    1.0321
   38.745    1.0005
   38.760    0.9479
   38.775    1.0321
   38.790    1.0111
   38.805    0.9900
   38.820    0.7478
   38.835    0.9057
   38.850    1.0111
   38.865    1.1269
   38.880    1.0321
   38.895    1.0321
   38.910    0.9689
   38.925    0.9479
   38.940    1.0742
   38.955    1.0637
   38.970    1.0005
   38.985    0.7688
   39.000    0.9163
   39.015    1.1480
   39.030    1.1585
   39.045    0.9689
   39.060    1.0111
   39.075    1.0742
   39.090    1.0111
   39.105    1.0005
   39.120    0.9584
   39.135    0.8952
   39.150    1.0005
   39.165    0.9795
   39.180    0.8847
   39.195    1.0005
   39.210    0.9163
   39.225    0.9584
   39.240    0.9373
   39.255    0.9689
   39.270    0.9479
   39.285    0.8741
   39.300    1.0005
   39.315    1.0427
   39.330    1.0427
   39.345    0.9900
   39.360    0.9163
   39.375    1.0216
   39.390    1.1164
   39.405    0.9268
   39.420    0.9584
   39.435    0.9795
   39.450    0.8847
   39.465    0.8531
   39.480    1.0321
   39.495    0.8952
   39.510    0.7794
   39.525    0.8952
   39.540    1.0848
   39.555    0.9479
   39.570    0.8636
   39.585    0.9163
   39.600    1.0321
   39.615    0.8741
   39.630    1.0427
   39.645    0.9373
   39.660    1.0216
   39.675    0.8952
   39.690    0.8004
   39.705    0.8215
   39.720    0.8425
   39.735    0.7899
   39.750    0.9479
   39.765    0.9373
   39.780    1.0427
   39.795    0.8531
   39.810    1.0427
   39.825    0.9689
   39.840    1.0848
   39.855    0.9689
   39.870    0.8847
   39.885    0.8320
   39.900    1.0321
   39.915    0.8215
   39.930    0.9057
   39.945    1.0216
   39.960    0.8952
   39.975    0.8636
   39.990    0.8636
