    1.500   18.0621
    1.515   18.4308
    1.530   17.6935
    1.545   16.7808
    1.560   16.0435
    1.575   16.3770
    1.590   15.9558
    1.605   15.0957
    1.620   15.4467
    1.635   16.2366
    1.650   16.1489
    1.665   15.9207
    1.680   15.1659
    1.695   14.2882
    1.710   14.8675
    1.725   14.9728
    1.740   14.2882
    1.755   14.0249
    1.770   14.0425
    1.785   14.1127
    1.800   13.1999
    1.815   13.1648
    1.830   13.5685
    1.845   13.6914
    1.860   12.8138
    1.875   12.6382
    1.890   12.6207
    1.905   11.7606
    1.920   12.1994
    1.935   11.4622
    1.950   11.6728
    1.965   11.9186
    1.980   12.4803
    1.995   12.3223
    2.010   12.1643
    2.025   11.8483
    2.040   11.8132
    2.055   11.0760
    2.070   10.9180
    2.085   10.6372
    2.100   10.9180
    2.115   10.5494
    2.130   10.9005
    2.145   10.8654
    2.160   10.6547
    2.175   10.5143
    2.190   10.4968
    2.205   10.2335
    2.220   10.9180
    2.235   10.9882
    2.250   10.6547
    2.265   10.1457
    2.280    9.5313
    2.295    9.7771
    2.310    9.5489
    2.325    9.9702
    2.340    9.6542
    2.355    9.8473
    2.370   10.0579
    2.385    9.9351
    2.400   10.1281
    2.415    9.6015
    2.430    9.7420
    2.445    9.7946
    2.460    9.9702
    2.475    9.4436
    2.490    9.9877
    2.505   10.1808
    2.520    9.2329
    2.535    9.1101
    2.550    9.6191
    2.565    8.8994
    2.580    9.3382
    2.595    8.6537
    2.610    8.6712
    2.625    8.6888
    2.640    9.3207
    2.655    8.8292
    2.670    8.5659
    2.685    8.3377
    2.700    8.6537
    2.715    8.8994
    2.730    8.7590
    2.745    8.6712
    2.760    8.1973
    2.775    8.4781
    2.790    8.5308
    2.805    8.3728
    2.820    8.3553
    2.835    8.7765
    2.850    9.0925
    2.865    8.8819
    2.880    8.4606
    2.895    8.1622
    2.910    8.4255
    2.925    8.7239
    2.940    8.8292
    2.955    8.2324
    2.970    8.8994
    2.985    8.6712
    3.000    8.3728
    3.015    8.2149
    3.030    8.1622
    3.045    8.3377
    3.060    8.1973
    3.075    7.9340
    3.090    8.2324
    3.105    8.3904
    3.120    7.7058
    3.135    7.6883
    3.150    7.8287
    3.165    7.8111
    3.180    8.3026
    3.195    8.1797
    3.210    8.5835
    3.225    8.4255
    3.240    8.1446
    3.255    8.3728
    3.270    8.1622
    3.285    7.9340
    3.300    8.3202
    3.315    7.8989
    3.330    7.6532
    3.345    8.0920
    3.360    7.8462
    3.375    7.8989
    3.390    8.0042
    3.405    7.9691
    3.420    7.3723
    3.435    7.7058
    3.450    8.0920
    3.465    7.2845
    3.480    7.8462
    3.495    7.8287
    3.510    8.3377
    3.525    7.8111
    3.540    7.4074
    3.555    7.4776
    3.570    7.8462
    3.585    7.5654
    3.600    7.9164
    3.615    8.2324
    3.630    7.7058
    3.645    8.1797
    3.660    8.0920
    3.675    7.8989
    3.690    8.0393
    3.705    8.4430
    3.720    8.1622
    3.735    8.0569
    3.750    8.4255
    3.765    8.6186
    3.780    7.8989
    3.795    7.8638
    3.810    7.8111
    3.825    7.8287
    3.840    7.8287
    3.855    7.8111
    3.870    7.6356
    3.885    7.3021
    3.900    7.6532
    3.915    7.8638
    3.930    7.9691
    3.945    7.8813
    3.960    8.1973
    3.975    8.2500
    3.990    7.8462
    4.005    7.8813
    4.020    8.3377
    4.035    7.5127
    4.050    7.6883
    4.065    8.4957
    4.080    8.3377
    4.095    7.7234
    4.110    7.7936
    4.125    7.6707
    4.140    8.0042
    4.155    7.8813
    4.170    8.0569
    4.185    7.8638
    4.200    7.8287
    4.215    8.0920
    4.230    8.0920
    4.245    7.6883
    4.260    7.8287
    4.275    7.9691
    4.290    8.0218
    4.305    8.3553
    4.320    8.5484
    4.335    8.1095
    4.350    7.7936
    4.365    8.0218
    4.380    7.5478
    4.395    7.5478
    4.410    7.7936
    4.425    7.8462
    4.440    7.6883
    4.455    7.8638
    4.470    8.7941
    4.485    8.4781
    4.500    8.1271
    4.515    8.4079
    4.530    7.6180
    4.545    8.2500
    4.560    8.1973
    4.575    7.8638
    4.590    7.8813
    4.605    7.3547
    4.620    7.9164
    4.635    8.1622
    4.650    7.9691
    4.665    8.0744
    4.680    8.2324
    4.695    8.0218
    4.710    8.3904
    4.725    8.0042
    4.740    7.7760
    4.755    8.1095
    4.770    7.9867
    4.785    7.8989
    4.800    7.9164
    4.815    8.2324
    4.830    8.5835
    4.845    7.9516
    4.860    8.1973
    4.875    8.0744
    4.890    8.6010
    4.905    8.6888
    4.920    8.4781
    4.935    8.2851
    4.950    8.3728
    4.965    8.4255
    4.980    8.7765
    4.995    9.2505
    5.010    8.6010
    5.025    9.3382
    5.040    9.3207
    5.055    8.8819
    5.070    8.9521
    5.085    8.9345
    5.100    9.6542
    5.115    9.0223
    5.130    9.8297
    5.145    9.4436
    5.160    9.7946
    5.175    9.6542
    5.190    9.5489
    5.205    9.6718
    5.220    9.4787
    5.235    9.6015
    5.250    9.6367
    5.265    9.9351
    5.280   10.0930
    5.295   10.2686
    5.310    9.8824
    5.325   10.0579
    5.340   10.1106
    5.355   10.0404
    5.370   10.9882
    5.385   10.5670
    5.400   10.7249
    5.415   10.8829
    5.430   10.4616
    5.445   10.9005
    5.460   10.3212
    5.475   10.3212
    5.490   10.8829
    5.505   11.3042
    5.520   10.6723
    5.535   10.8303
    5.550   10.6021
    5.565   11.0233
    5.580   11.0058
    5.595   10.8829
    5.610   10.4090
    5.625   10.2510
    5.640   10.0930
    5.655    9.9877
    5.670    9.3031
    5.685    9.4787
    5.700   10.1281
    5.715   10.3212
    5.730    9.9877
    5.745   10.0579
    5.760   10.3739
    5.775   10.4441
    5.790    9.4260
    5.805    9.5313
    5.820    9.2680
    5.835    9.4260
    5.850    8.9872
    5.865    9.3031
    5.880    9.5138
    5.895    8.7590
    5.910    8.6361
    5.925    8.1446
    5.940    8.5659
    5.955    8.2675
    5.970    8.6888
    5.985    8.7765
    6.000    8.9872
    6.015    8.4957
    6.030    7.8638
    6.045    8.0569
    6.060    8.4430
    6.075    8.0569
    6.090    8.1446
    6.105    7.9691
    6.120    7.9691
    6.135    7.7760
    6.150    7.8638
    6.165    8.0569
    6.180    7.7409
    6.195    7.9691
    6.210    8.3377
    6.225    7.6180
    6.240    7.6180
    6.255    7.9867
    6.270    8.1797
    6.285    8.1271
    6.300    7.8287
    6.315    7.9164
    6.330    8.2324
    6.345    8.1271
    6.360    7.7936
    6.375    7.6356
    6.390    8.0393
    6.405    7.4601
    6.420    7.6005
    6.435    7.2845
    6.450    7.2670
    6.465    7.6005
    6.480    7.5829
    6.495    6.9159
    6.510    7.3196
    6.525    7.3547
    6.540    7.1968
    6.555    7.3547
    6.570    6.7930
    6.585    7.1792
    6.600    7.2319
    6.615    6.9686
    6.630    6.9159
    6.645    6.8457
    6.660    6.6351
    6.675    7.0915
    6.690    6.8457
    6.705    7.6005
    6.720    6.3542
    6.735    7.0212
    6.750    6.8984
    6.765    6.8984
    6.780    6.6877
    6.795    6.5649
    6.810    6.8984
    6.825    6.4946
    6.840    6.7053
    6.855    6.7228
    6.870    6.6877
    6.885    6.4946
    6.900    6.3542
    6.915    6.6877
    6.930    6.8984
    6.945    6.5298
    6.960    6.4595
    6.975    7.0739
    6.990    7.0739
    7.005    6.1787
    7.020    6.7053
    7.035    6.6351
    7.050    6.0383
    7.065    6.3893
    7.080    6.4244
    7.095    6.6351
    7.110    6.3367
    7.125    6.9686
    7.140    6.8106
    7.155    6.4244
    7.170    6.9510
    7.185    6.4946
    7.200    6.4771
    7.215    6.7579
    7.230    6.6175
    7.245    6.4244
    7.260    6.5649
    7.275    6.1085
    7.290    6.1436
    7.305    6.2313
    7.320    5.9681
    7.335    5.7574
    7.350    5.6521
    7.365    6.1436
    7.380    6.3016
    7.395    5.8101
    7.410    6.2489
    7.425    6.4420
    7.440    6.1962
    7.455    6.2665
    7.470    6.3542
    7.485    5.9154
    7.500    5.9856
    7.515    5.8101
    7.530    5.5468
    7.545    5.8452
    7.560    5.9329
    7.575    5.7925
    7.590    5.7399
    7.605    6.1260
    7.620    5.7750
    7.635    5.7048
    7.650    5.7574
    7.665    6.1787
    7.680    5.7399
    7.695    6.0734
    7.710    6.0734
    7.725    6.0207
    7.740    5.5994
    7.755    5.3010
    7.770    5.3712
    7.785    5.6521
    7.800    5.9505
    7.815    5.7048
    7.830    5.4941
    7.845    5.1606
    7.860    5.1255
    7.875    5.2659
    7.890    5.3888
    7.905    6.0558
    7.920    5.6170
    7.935    5.5819
    7.950    5.2835
    7.965    5.4239
    7.980    5.8452
    7.995    5.8452
    8.010    5.7750
    8.025    5.5292
    8.040    5.4064
    8.055    5.5819
    8.070    5.3361
    8.085    5.3010
    8.100    5.1606
    8.115    5.2484
    8.130    5.0904
    8.145    5.1255
    8.160    5.7574
    8.175    6.1962
    8.190    5.2484
    8.205    5.3010
    8.220    5.2133
    8.235    5.3186
    8.250    5.6872
    8.265    5.6872
    8.280    5.0377
    8.295    4.9675
    8.310    5.0553
    8.325    5.5117
    8.340    5.2308
    8.355    5.2308
    8.370    5.5468
    8.385    5.1431
    8.400    5.2133
    8.415    5.0728
    8.430    5.1957
    8.445    5.1255
    8.460    5.0377
    8.475    5.3361
    8.490    5.7223
    8.505    5.2484
    8.520    5.4415
    8.535    5.6521
    8.550    5.5468
    8.565    5.5117
    8.580    5.1606
    8.595    5.2308
    8.610    5.1782
    8.625    5.0202
    8.640    5.0202
    8.655    5.0553
    8.670    5.2133
    8.685    5.1957
    8.700    4.7042
    8.715    4.7042
    8.730    4.8622
    8.745    5.3712
    8.760    5.1606
    8.775    4.8622
    8.790    4.5989
    8.805    4.7569
    8.820    4.4760
    8.835    5.1431
    8.850    5.3537
    8.865    5.0026
    8.880    4.9149
    8.895    4.6165
    8.910    4.7569
    8.925    4.8973
    8.940    5.2308
    8.955    5.4941
    8.970    5.2484
    8.985    4.7920
    9.000    5.1606
    9.015    5.1606
    9.030    5.1782
    9.045    5.0377
    9.060    5.0377
    9.075    5.2659
    9.090    5.1080
    9.105    5.0026
    9.120    5.0202
    9.135    4.6340
    9.150    4.7042
    9.165    4.9851
    9.180    5.0904
    9.195    5.2484
    9.210    5.0904
    9.225    5.0202
    9.240    4.6340
    9.255    4.9500
    9.270    4.9149
    9.285    4.4234
    9.300    4.7393
    9.315    4.9500
    9.330    4.8271
    9.345    4.6165
    9.360    4.6691
    9.375    4.6691
    9.390    5.4590
    9.405    5.3537
    9.420    5.2308
    9.435    5.3537
    9.450    4.6867
    9.465    4.4409
    9.480    4.7569
    9.495    5.3361
    9.510    5.5819
    9.525    4.7744
    9.540    5.2308
    9.555    4.8095
    9.570    4.7744
    9.585    5.0904
    9.600    4.7744
    9.615    5.2484
    9.630    5.3712
    9.645    5.1431
    9.660    4.7920
    9.675    4.6867
    9.690    4.4409
    9.705    5.0377
    9.720    5.1606
    9.735    5.1431
    9.750    5.0026
    9.765    5.0728
    9.780    5.0553
    9.795    4.9851
    9.810    4.6867
    9.825    4.8095
    9.840    4.5111
    9.855    4.8095
    9.870    5.0202
    9.885    5.0026
    9.900    4.9149
    9.915    4.7744
    9.930    4.9851
    9.945    5.0904
    9.960    4.9500
    9.975    5.2133
    9.990    4.8973
   10.005    4.6165
   10.020    5.1080
   10.035    4.8095
   10.050    4.7218
   10.065    5.3186
   10.080    5.2133
   10.095    5.0377
   10.110    5.0728
   10.125    4.9149
   10.140    4.8447
   10.155    4.9851
   10.170    5.1431
   10.185    5.1080
   10.200    4.7744
   10.215    4.8447
   10.230    5.0377
   10.245    5.3010
   10.260    5.2484
   10.275    5.2133
   10.290    4.7744
   10.305    4.9149
   10.320    5.4239
   10.335    4.7744
   10.350    4.9324
   10.365    5.0202
   10.380    4.4409
   10.395    4.6867
   10.410    5.0728
   10.425    4.9851
   10.440    5.6170
   10.455    5.6345
   10.470    5.1606
   10.485    4.9149
   10.500    5.0728
   10.515    4.8798
   10.530    4.8271
   10.545    4.6691
   10.560    5.2133
   10.575    5.3361
   10.590    5.0026
   10.605    5.4239
   10.620    4.8798
   10.635    4.6691
   10.650    5.0202
   10.665    4.7744
   10.680    4.9851
   10.695    5.0202
   10.710    5.2308
   10.725    5.1080
   10.740    4.8798
   10.755    4.8271
   10.770    5.1957
   10.785    5.2835
   10.800    4.9675
   10.815    5.4415
   10.830    5.0026
   10.845    5.2835
   10.860    4.9324
   10.875    4.9675
   10.890    4.8447
   10.905    5.2133
   10.920    5.4590
   10.935    5.3010
   10.950    5.3888
   10.965    5.4766
   10.980    5.1255
   10.995    5.2659
   11.010    5.4590
   11.025    5.3186
   11.040    5.4415
   11.055    4.9324
   11.070    5.1255
   11.085    5.2308
   11.100    5.1255
   11.115    5.3712
   11.130    5.2484
   11.145    5.4415
   11.160    5.5117
   11.175    5.4590
   11.190    4.9851
   11.205    5.4766
   11.220    5.4415
   11.235    5.0728
   11.250    5.2484
   11.265    4.8447
   11.280    4.8973
   11.295    4.8798
   11.310    5.1606
   11.325    5.2835
   11.340    5.4415
   11.355    5.0553
   11.370    4.9851
   11.385    5.1782
   11.400    5.2484
   11.415    4.7920
   11.430    5.3186
   11.445    4.8447
   11.460    4.8973
   11.475    5.0202
   11.490    5.1957
   11.505    4.9851
   11.520    5.3010
   11.535    5.2308
   11.550    4.9500
   11.565    5.1431
   11.580    5.0026
   11.595    5.2659
   11.610    5.4415
   11.625    5.9856
   11.640    5.3010
   11.655    5.2835
   11.670    4.5814
   11.685    5.1782
   11.700    4.8622
   11.715    5.2484
   11.730    5.0377
   11.745    5.6872
   11.760    5.2484
   11.775    4.8798
   11.790    5.1957
   11.805    4.9675
   11.820    5.1957
   11.835    5.1255
   11.850    5.0553
   11.865    4.9851
   11.880    5.3186
   11.895    5.2308
   11.910    5.2308
   11.925    5.2133
   11.940    5.0728
   11.955    5.4239
   11.970    4.9149
   11.985    5.4415
   12.000    5.2659
   12.015    5.2133
   12.030    5.4415
   12.045    4.8622
   12.060    5.1080
   12.075    4.7218
   12.090    4.5989
   12.105    4.7042
   12.120    4.9500
   12.135    5.0202
   12.150    5.1782
   12.165    4.9149
   12.180    4.9500
   12.195    4.9851
   12.210    5.1255
   12.225    5.2308
   12.240    4.6691
   12.255    4.9324
   12.270    5.1431
   12.285    5.0904
   12.300    4.8095
   12.315    4.4234
   12.330    4.8973
   12.345    5.0553
   12.360    5.2308
   12.375    4.7744
   12.390    4.9324
   12.405    4.8095
   12.420    4.7218
   12.435    5.0904
   12.450    4.6340
   12.465    4.4409
   12.480    4.7393
   12.495    4.8447
   12.510    4.8973
   12.525    4.8798
   12.540    4.9675
   12.555    4.9675
   12.570    4.5638
   12.585    4.7744
   12.600    4.9149
   12.615    5.0026
   12.630    4.7218
   12.645    5.0728
   12.660    4.8798
   12.675    4.7042
   12.690    4.5814
   12.705    4.9500
   12.720    4.8095
   12.735    4.5638
   12.750    4.6867
   12.765    4.8095
   12.780    4.6340
   12.795    4.8271
   12.810    4.9149
   12.825    5.0377
   12.840    4.8973
   12.855    4.6867
   12.870    5.3712
   12.885    5.2308
   12.900    5.1080
   12.915    4.8622
   12.930    4.6165
   12.945    4.6340
   12.960    5.1080
   12.975    4.5287
   12.990    4.6691
   13.005    4.5111
   13.020    4.5287
   13.035    4.6165
   13.050    4.9149
   13.065    4.8271
   13.080    4.7569
   13.095    5.0377
   13.110    4.6165
   13.125    4.5463
   13.140    4.8973
   13.155    4.8973
   13.170    4.5287
   13.185    4.8095
   13.200    4.9149
   13.215    4.7042
   13.230    4.8271
   13.245    4.9851
   13.260    4.7569
   13.275    4.3356
   13.290    4.2303
   13.305    4.4760
   13.320    4.8973
   13.335    4.8798
   13.350    4.9675
   13.365    4.5638
   13.380    4.8798
   13.395    4.9149
   13.410    5.0026
   13.425    4.9500
   13.440    4.9851
   13.455    4.8095
   13.470    4.7744
   13.485    4.8447
   13.500    4.9675
   13.515    5.2835
   13.530    4.9851
   13.545    5.2133
   13.560    4.9149
   13.575    4.8798
   13.590    4.9324
   13.605    4.5638
   13.620    4.6691
   13.635    4.9500
   13.650    4.5814
   13.665    4.7393
   13.680    4.3707
   13.695    4.4585
   13.710    5.0202
   13.725    5.3186
   13.740    5.1080
   13.755    4.3883
   13.770    4.7920
   13.785    5.3186
   13.800    4.6516
   13.815    4.4760
   13.830    4.8095
   13.845    5.0904
   13.860    5.1080
   13.875    4.9675
   13.890    4.5989
   13.905    4.6165
   13.920    4.5111
   13.935    4.4058
   13.950    4.4936
   13.965    4.9851
   13.980    5.3361
   13.995    5.1606
   14.010    5.1080
   14.025    5.0377
   14.040    4.8973
   14.055    5.1957
   14.070    5.0904
   14.085    4.8798
   14.100    4.4760
   14.115    5.0202
   14.130    5.2308
   14.145    5.3186
   14.160    5.0377
   14.175    5.2308
   14.190    4.8622
   14.205    5.1957
   14.220    5.3537
   14.235    5.2835
   14.250    5.2484
   14.265    5.7223
   14.280    5.6170
   14.295    5.7750
   14.310    5.3712
   14.325    5.4941
   14.340    5.1957
   14.355    5.0202
   14.370    5.3361
   14.385    5.3186
   14.400    5.1782
   14.415    5.2835
   14.430    4.8447
   14.445    4.8798
   14.460    5.1957
   14.475    5.1606
   14.490    5.1782
   14.505    5.0377
   14.520    5.2835
   14.535    5.3361
   14.550    5.7048
   14.565    5.5819
   14.580    5.7223
   14.595    5.1255
   14.610    5.3186
   14.625    5.2133
   14.640    4.7393
   14.655    4.7920
   14.670    5.3537
   14.685    5.3010
   14.700    5.2835
   14.715    5.3010
   14.730    5.6697
   14.745    5.0904
   14.760    5.2133
   14.775    4.9149
   14.790    4.8447
   14.805    5.5117
   14.820    5.3712
   14.835    5.1431
   14.850    5.2484
   14.865    5.1431
   14.880    5.2659
   14.895    4.8271
   14.910    5.2659
   14.925    4.7744
   14.940    4.9149
   14.955    4.9149
   14.970    4.6516
   14.985    4.5463
   15.000    4.6165
   15.015    4.6340
   15.030    4.9149
   15.045    4.6340
   15.060    5.0202
   15.075    4.9675
   15.090    5.0202
   15.105    4.5638
   15.120    4.7393
   15.135    4.8798
   15.150    4.8447
   15.165    4.9675
   15.180    5.0377
   15.195    4.9675
   15.210    4.6867
   15.225    4.4585
   15.240    4.4234
   15.255    4.5638
   15.270    4.5287
   15.285    4.3883
   15.300    4.2830
   15.315    4.9324
   15.330    4.6867
   15.345    4.6867
   15.360    4.7218
   15.375    4.6867
   15.390    4.8447
   15.405    4.9149
   15.420    4.4234
   15.435    4.4234
   15.450    4.4409
   15.465    4.4760
   15.480    4.3181
   15.495    4.2478
   15.510    4.3532
   15.525    4.7042
   15.540    4.7393
   15.555    4.8271
   15.570    4.6691
   15.585    4.8798
   15.600    4.6691
   15.615    4.4936
   15.630    4.4760
   15.645    4.5463
   15.660    4.7744
   15.675    5.0377
   15.690    4.4936
   15.705    4.3532
   15.720    4.7744
   15.735    4.9500
   15.750    4.2654
   15.765    4.4409
   15.780    4.4585
   15.795    4.4585
   15.810    4.8447
   15.825    4.9675
   15.840    4.9675
   15.855    4.3005
   15.870    4.1074
   15.885    4.8095
   15.900    4.4234
   15.915    4.5463
   15.930    4.9851
   15.945    4.7042
   15.960    4.7744
   15.975    4.3005
   15.990    4.2127
   16.005    4.4234
   16.020    4.6165
   16.035    4.9675
   16.050    4.4936
   16.065    4.7920
   16.080    4.6340
   16.095    4.9500
   16.110    4.6165
   16.125    4.7218
   16.140    4.7744
   16.155    4.9324
   16.170    4.5111
   16.185    4.7218
   16.200    4.5287
   16.215    4.5989
   16.230    4.6867
   16.245    5.0026
   16.260    4.8271
   16.275    4.9324
   16.290    4.9149
   16.305    4.7569
   16.320    4.7218
   16.335    4.5287
   16.350    4.5989
   16.365    4.5287
   16.380    4.3883
   16.395    4.7218
   16.410    4.9851
   16.425    4.6340
   16.440    4.5638
   16.455    4.7218
   16.470    4.4409
   16.485    4.7218
   16.500    4.8095
   16.515    4.6691
   16.530    4.4234
   16.545    4.9149
   16.560    4.6691
   16.575    4.7744
   16.590    4.7393
   16.605    4.8973
   16.620    5.0377
   16.635    4.6516
   16.650    4.6340
   16.665    4.5814
   16.680    4.7218
   16.695    4.4585
   16.710    4.4234
   16.725    4.4936
   16.740    5.0904
   16.755    4.6516
   16.770    4.2654
   16.785    4.4585
   16.800    4.9500
   16.815    4.4936
   16.830    4.5989
   16.845    4.7569
   16.860    4.6867
   16.875    4.7569
   16.890    4.9851
   16.905    4.8271
   16.920    4.4409
   16.935    4.5638
   16.950    4.8271
   16.965    4.4409
   16.980    4.2830
   16.995    4.4936
   17.010    4.3532
   17.025    4.6691
   17.040    4.2127
   17.055    4.9149
   17.070    4.3532
   17.085    4.5287
   17.100    4.6340
   17.115    4.6867
   17.130    4.7042
   17.145    4.6165
   17.160    4.5111
   17.175    4.6867
   17.190    4.8095
   17.205    4.3883
   17.220    4.8271
   17.235    4.7218
   17.250    5.1606
   17.265    4.4760
   17.280    4.3883
   17.295    4.6165
   17.310    4.7393
   17.325    4.8271
   17.340    4.9500
   17.355    4.6340
   17.370    4.5463
   17.385    4.5463
   17.400    5.0377
   17.415    4.9500
   17.430    4.6516
   17.445    4.1601
   17.460    4.4936
   17.475    4.6691
   17.490    4.6340
   17.505    4.6691
   17.520    4.8447
   17.535    4.3707
   17.550    4.4760
   17.565    4.6867
   17.580    4.7569
   17.595    4.3356
   17.610    4.4585
   17.625    4.4058
   17.640    4.6165
   17.655    4.5111
   17.670    4.5287
   17.685    4.4936
   17.700    4.4760
   17.715    4.8447
   17.730    4.4936
   17.745    4.4760
   17.760    4.5287
   17.775    4.4409
   17.790    4.8798
   17.805    4.7042
   17.820    4.7042
   17.835    4.8447
   17.850    4.7042
   17.865    4.3707
   17.880    5.0553
   17.895    4.9500
   17.910    4.6340
   17.925    4.5111
   17.940    5.2484
   17.955    4.6165
   17.970    4.1425
   17.985    4.3181
   18.000    4.9149
   18.015    4.9324
   18.030    4.4936
   18.045    4.6340
   18.060    4.5989
   18.075    4.7744
   18.090    4.7042
   18.105    5.0728
   18.120    4.8095
   18.135    4.6691
   18.150    4.7042
   18.165    5.1255
   18.180    5.1606
   18.195    4.6691
   18.210    4.5111
   18.225    4.5111
   18.240    4.5814
   18.255    4.7393
   18.270    4.5814
   18.285    4.5638
   18.300    4.5989
   18.315    5.0026
   18.330    4.3707
   18.345    4.1601
   18.360    4.7393
   18.375    4.4058
   18.390    4.6165
   18.405    4.3707
   18.420    4.6691
   18.435    4.4936
   18.450    4.4234
   18.465    4.3532
   18.480    4.3356
   18.495    4.4760
   18.510    4.7218
   18.525    4.6340
   18.540    4.2654
   18.555    4.0548
   18.570    4.2830
   18.585    4.7218
   18.600    4.3883
   18.615    4.7569
   18.630    4.5287
   18.645    4.3181
   18.660    4.6165
   18.675    4.7569
   18.690    4.7218
   18.705    4.6340
   18.720    4.4585
   18.735    4.2478
   18.750    4.6867
   18.765    4.7393
   18.780    4.3181
   18.795    4.8973
   18.810    4.6691
   18.825    4.4585
   18.840    4.4058
   18.855    4.3532
   18.870    4.5463
   18.885    4.8973
   18.900    4.2654
   18.915    4.4058
   18.930    4.6691
   18.945    4.9500
   18.960    5.1782
   18.975    4.6340
   18.990    4.8798
   19.005    4.5989
   19.020    4.8447
   19.035    4.7042
   19.050    4.9500
   19.065    4.7569
   19.080    4.7218
   19.095    4.4234
   19.110    4.6165
   19.125    4.6867
   19.140    4.4585
   19.155    4.5463
   19.170    4.6340
   19.185    4.3356
   19.200    4.5814
   19.215    4.3005
   19.230    4.6867
   19.245    4.3532
   19.260    4.3005
   19.275    4.4936
   19.290    4.2303
   19.305    4.4936
   19.320    4.7920
   19.335    4.1250
   19.350    4.4234
   19.365    4.2303
   19.380    4.1601
   19.395    4.3005
   19.410    4.5638
   19.425    4.5638
   19.440    4.3181
   19.455    4.3356
   19.470    4.3181
   19.485    4.2478
   19.500    4.6516
   19.515    4.6691
   19.530    4.5287
   19.545    4.5814
   19.560    4.4058
   19.575    4.4234
   19.590    4.6691
   19.605    4.4409
   19.620    4.4234
   19.635    4.4760
   19.650    4.2654
   19.665    4.2654
   19.680    4.1601
   19.695    4.1425
   19.710    4.1601
   19.725    4.3181
   19.740    5.0377
   19.755    4.6691
   19.770    4.2654
   19.785    4.2654
   19.800    4.2830
   19.815    4.5638
   19.830    4.5111
   19.845    4.0899
   19.860    4.0899
   19.875    4.3005
   19.890    4.4936
   19.905    4.2654
   19.920    4.3707
   19.935    3.9670
   19.950    4.4234
   19.965    4.5287
   19.980    4.6516
   19.995    4.1952
   20.010    4.4936
   20.025    4.2478
   20.040    3.9670
   20.055    4.0723
   20.070    4.0197
   20.085    4.4409
   20.100    4.0372
   20.115    4.3181
   20.130    4.1776
   20.145    4.4058
   20.160    4.3356
   20.175    4.3883
   20.190    4.4936
   20.205    4.1250
   20.220    4.3532
   20.235    4.4936
   20.250    4.3356
   20.265    4.3356
   20.280    3.9670
   20.295    4.4234
   20.310    4.2830
   20.325    4.2830
   20.340    4.3883
   20.355    4.2127
   20.370    3.9143
   20.385    3.8792
   20.400    4.3005
   20.415    4.4936
   20.430    4.3005
   20.445    3.9494
   20.460    4.3883
   20.475    3.9846
   20.490    3.7739
   20.505    4.1250
   20.520    4.0197
   20.535    4.0899
   20.550    4.1776
   20.565    4.0548
   20.580    4.1074
   20.595    3.9846
   20.610    4.3707
   20.625    4.5989
   20.640    4.2654
   20.655    3.7213
   20.670    4.6691
   20.685    4.1425
   20.700    4.3005
   20.715    4.5287
   20.730    4.0899
   20.745    3.9319
   20.760    4.1250
   20.775    4.1601
   20.790    4.1952
   20.805    4.1074
   20.820    4.2654
   20.835    4.5463
   20.850    4.1425
   20.865    4.2654
   20.880    4.1601
   20.895    4.0372
   20.910    4.3356
   20.925    4.5287
   20.940    4.1250
   20.955    4.7218
   20.970    4.1250
   20.985    3.8792
   21.000    4.0548
   21.015    4.4585
   21.030    4.2654
   21.045    4.1425
   21.060    4.5463
   21.075    4.1250
   21.090    4.1250
   21.105    4.0197
   21.120    3.9670
   21.135    3.8792
   21.150    4.1601
   21.165    3.9846
   21.180    4.0899
   21.195    4.2127
   21.210    3.8266
   21.225    4.2478
   21.240    3.9846
   21.255    4.0021
   21.270    4.2127
   21.285    4.1601
   21.300    4.3356
   21.315    4.0548
   21.330    3.9670
   21.345    4.1776
   21.360    3.8792
   21.375    4.1601
   21.390    4.1425
   21.405    4.4585
   21.420    4.0372
   21.435    4.1425
   21.450    4.2127
   21.465    4.0021
   21.480    3.8617
   21.495    4.2127
   21.510    4.0372
   21.525    4.0899
   21.540    4.4760
   21.555    4.0548
   21.570    3.9846
   21.585    4.1952
   21.600    4.1601
   21.615    4.2127
   21.630    4.4585
   21.645    3.9143
   21.660    3.9143
   21.675    4.3532
   21.690    4.5989
   21.705    4.0197
   21.720    4.0021
   21.735    4.0548
   21.750    3.6686
   21.765    4.3005
   21.780    4.5287
   21.795    3.8792
   21.810    4.1425
   21.825    4.4760
   21.840    3.8968
   21.855    3.6159
   21.870    4.1952
   21.885    4.0899
   21.900    4.0197
   21.915    3.7739
   21.930    4.1425
   21.945    4.1250
   21.960    4.1250
   21.975    4.2478
   21.990    4.0021
   22.005    3.5457
   22.020    4.1425
   22.035    3.7037
   22.050    3.8968
   22.065    3.7739
   22.080    4.2127
   22.095    3.8968
   22.110    3.9143
   22.125    4.1074
   22.140    4.1250
   22.155    4.3005
   22.170    4.0197
   22.185    4.2830
   22.200    3.8617
   22.215    3.7388
   22.230    3.9319
   22.245    4.5287
   22.260    3.8617
   22.275    4.0723
   22.290    3.9846
   22.305    3.8968
   22.320    3.8266
   22.335    3.6159
   22.350    3.9494
   22.365    3.6686
   22.380    3.7037
   22.395    4.1250
   22.410    3.6510
   22.425    3.8617
   22.440    4.1601
   22.455    3.8266
   22.470    4.1074
   22.485    3.7388
   22.500    3.9846
   22.515    3.7915
   22.530    4.3181
   22.545    3.9494
   22.560    4.0548
   22.575    3.8792
   22.590    4.0372
   22.605    3.8266
   22.620    4.0899
   22.635    3.9846
   22.650    3.7915
   22.665    4.2303
   22.680    3.9846
   22.695    3.8441
   22.710    3.7213
   22.725    4.1425
   22.740    3.8090
   22.755    3.9143
   22.770    4.0021
   22.785    3.9494
   22.800    3.9319
   22.815    3.6510
   22.830    3.8441
   22.845    4.0197
   22.860    3.8968
   22.875    3.8792
   22.890    3.7213
   22.905    4.0372
   22.920    3.8792
   22.935    3.5984
   22.950    3.8090
   22.965    3.4931
   22.980    3.5633
   22.995    3.7915
   23.010    3.9143
   23.025    3.9319
   23.040    3.7915
   23.055    3.7037
   23.070    3.6510
   23.085    3.8968
   23.100    3.6159
   23.115    3.8968
   23.130    3.9143
   23.145    3.7739
   23.160    3.9319
   23.175    3.5984
   23.190    3.9494
   23.205    3.8441
   23.220    3.3702
   23.235    3.5808
   23.250    3.5984
   23.265    4.0723
   23.280    3.4404
   23.295    3.4404
   23.310    3.4404
   23.325    3.6335
   23.340    4.5989
   23.355    3.8266
   23.370    3.7739
   23.385    3.3351
   23.400    3.9494
   23.415    3.5633
   23.430    3.7564
   23.445    3.8266
   23.460    3.7564
   23.475    3.4931
   23.490    3.6862
   23.505    3.5282
   23.520    3.8617
   23.535    3.7915
   23.550    3.6159
   23.565    3.8968
   23.580    4.0197
   23.595    3.4404
   23.610    3.4053
   23.625    3.3702
   23.640    3.7037
   23.655    3.4580
   23.670    3.5808
   23.685    4.0021
   23.700    3.5808
   23.715    3.9846
   23.730    4.0021
   23.745    3.4755
   23.760    3.4404
   23.775    3.5106
   23.790    3.7739
   23.805    3.3877
   23.820    3.4580
   23.835    3.8441
   23.850    3.8792
   23.865    3.4755
   23.880    4.0899
   23.895    3.4229
   23.910    3.6159
   23.925    3.5106
   23.940    3.6159
   23.955    3.6862
   23.970    3.4580
   23.985    3.7915
   24.000    3.5457
   24.015    3.6862
   24.030    3.7037
   24.045    3.5633
   24.060    3.6510
   24.075    3.2649
   24.090    3.5984
   24.105    3.4931
   24.120    3.4580
   24.135    3.4755
   24.150    3.4404
   24.165    3.5457
   24.180    3.7388
   24.195    3.6510
   24.210    3.2122
   24.225    3.5808
   24.240    3.5106
   24.255    3.6686
   24.270    3.8792
   24.285    3.5106
   24.300    3.1596
   24.315    3.3351
   24.330    4.0021
   24.345    3.6862
   24.360    3.4931
   24.375    3.2649
   24.390    3.1596
   24.405    3.3877
   24.420    3.5633
   24.435    3.6510
   24.450    3.8266
   24.465    3.7915
   24.480    3.8617
   24.495    3.7739
   24.510    3.5633
   24.525    3.0367
   24.540    3.0191
   24.555    3.4229
   24.570    3.7564
   24.585    3.2824
   24.600    3.4229
   24.615    3.4580
   24.630    3.6159
   24.645    3.4053
   24.660    3.5633
   24.675    3.5282
   24.690    3.4580
   24.705    3.4580
   24.720    3.4580
   24.735    3.3175
   24.750    3.1596
   24.765    3.5633
   24.780    3.3526
   24.795    3.3526
   24.810    3.5106
   24.825    3.6686
   24.840    3.6335
   24.855    3.4755
   24.870    3.2649
   24.885    3.3702
   24.900    3.7213
   24.915    3.6510
   24.930    2.9489
   24.945    3.1596
   24.960    3.5282
   24.975    3.3702
   24.990    3.1771
   25.005    3.3702
   25.020    3.3000
   25.035    3.5282
   25.050    3.5106
   25.065    3.6335
   25.080    3.1420
   25.095    3.3702
   25.110    3.4229
   25.125    3.4580
   25.140    3.2473
   25.155    3.1245
   25.170    3.4229
   25.185    3.7739
   25.200    3.7564
   25.215    3.3702
   25.230    3.1069
   25.245    3.2473
   25.260    3.4755
   25.275    3.3877
   25.290    3.4404
   25.305    3.5106
   25.320    3.1069
   25.335    3.4931
   25.350    3.4053
   25.365    3.0016
   25.380    3.3175
   25.395    3.5984
   25.410    3.3702
   25.425    3.7037
   25.440    3.3702
   25.455    3.0718
   25.470    3.1245
   25.485    3.3526
   25.500    3.2298
   25.515    3.6510
   25.530    3.5282
   25.545    3.6686
   25.560    3.3702
   25.575    3.1947
   25.590    3.4053
   25.605    3.2298
   25.620    3.1947
   25.635    3.6510
   25.650    3.2649
   25.665    3.3175
   25.680    3.2298
   25.695    3.4931
   25.710    3.5106
   25.725    3.6335
   25.740    3.4580
   25.755    3.2649
   25.770    3.0016
   25.785    3.4755
   25.800    3.3526
   25.815    3.3351
   25.830    3.2649
   25.845    3.1771
   25.860    3.5633
   25.875    3.5106
   25.890    3.4053
   25.905    3.7037
   25.920    3.3351
   25.935    2.9840
   25.950    3.1947
   25.965    3.2824
   25.980    3.4229
   25.995    3.4580
   26.010    3.3175
   26.025    3.1771
   26.040    3.3526
   26.055    3.6159
   26.070    3.4580
   26.085    3.3702
   26.100    3.1420
   26.115    3.2824
   26.130    3.3702
   26.145    3.1420
   26.160    3.5457
   26.175    3.0016
   26.190    3.2649
   26.205    3.1245
   26.220    3.3175
   26.235    3.2824
   26.250    3.5633
   26.265    2.9489
   26.280    3.2298
   26.295    3.4053
   26.310    3.0191
   26.325    2.8787
   26.340    2.8963
   26.355    3.0542
   26.370    3.5633
   26.385    3.3877
   26.400    3.2122
   26.415    3.1947
   26.430    3.1245
   26.445    3.5457
   26.460    3.1596
   26.475    3.0718
   26.490    3.2122
   26.505    3.3877
   26.520    2.8436
   26.535    3.1771
   26.550    3.3351
   26.565    3.3702
   26.580    3.1420
   26.595    3.2298
   26.610    3.2649
   26.625    3.2824
   26.640    3.3000
   26.655    3.3175
   26.670    3.4404
   26.685    2.9314
   26.700    3.3175
   26.715    3.0718
   26.730    3.3000
   26.745    3.1069
   26.760    2.9314
   26.775    3.3351
   26.790    3.3702
   26.805    3.4053
   26.820    3.2122
   26.835    3.1596
   26.850    3.0718
   26.865    3.1245
   26.880    3.2649
   26.895    3.1947
   26.910    3.0893
   26.925    2.9314
   26.940    3.2473
   26.955    2.9138
   26.970    3.0191
   26.985    2.8436
   27.000    3.3175
   27.015    2.8260
   27.030    3.2649
   27.045    3.1596
   27.060    2.8963
   27.075    2.9665
   27.090    2.8963
   27.105    2.9314
   27.120    2.7909
   27.135    2.9138
   27.150    3.1420
   27.165    3.1596
   27.180    2.9665
   27.195    2.7909
   27.210    3.0367
   27.225    3.1420
   27.240    3.1069
   27.255    3.0893
   27.270    3.2473
   27.285    3.2473
   27.300    2.9314
   27.315    2.7558
   27.330    3.0893
   27.345    3.1596
   27.360    3.3000
   27.375    2.8787
   27.390    2.7909
   27.405    3.0191
   27.420    2.9314
   27.435    3.0893
   27.450    3.1420
   27.465    3.0191
   27.480    2.5979
   27.495    2.7734
   27.510    2.7558
   27.525    3.3526
   27.540    3.2298
   27.555    3.0718
   27.570    3.0367
   27.585    2.8787
   27.600    2.9840
   27.615    2.9138
   27.630    2.6505
   27.645    2.8612
   27.660    2.6681
   27.675    2.6856
   27.690    2.8612
   27.705    2.8436
   27.720    2.6505
   27.735    3.2122
   27.750    3.1771
   27.765    3.0016
   27.780    3.0542
   27.795    3.2298
   27.810    2.9840
   27.825    3.0893
   27.840    3.1771
   27.855    3.0542
   27.870    2.8787
   27.885    2.8787
   27.900    2.8612
   27.915    2.9138
   27.930    3.0542
   27.945    3.1420
   27.960    3.0016
   27.975    3.1771
   27.990    3.4755
   28.005    3.4053
   28.020    3.4580
   28.035    3.1420
   28.050    2.8260
   28.065    3.1947
   28.080    3.0893
   28.095    2.7383
   28.110    2.5979
   28.125    2.5979
   28.140    2.7032
   28.155    2.7909
   28.170    3.1596
   28.185    2.7032
   28.200    2.9665
   28.215    2.7383
   28.230    2.9138
   28.245    2.9314
   28.260    2.8436
   28.275    2.3697
   28.290    2.6856
   28.305    2.8787
   28.320    2.7909
   28.335    3.0191
   28.350    2.8260
   28.365    2.6505
   28.380    2.8260
   28.395    2.8085
   28.410    2.6681
   28.425    2.8612
   28.440    3.0542
   28.455    2.9840
   28.470    3.2298
   28.485    3.1069
   28.500    2.8260
   28.515    2.8260
   28.530    2.9665
   28.545    2.8436
   28.560    2.8260
   28.575    2.8787
   28.590    2.6154
   28.605    2.5803
   28.620    2.4574
   28.635    2.8963
   28.650    3.0016
   28.665    2.9314
   28.680    3.0016
   28.695    3.1245
   28.710    3.0016
   28.725    2.9665
   28.740    2.7734
   28.755    2.7383
   28.770    2.9314
   28.785    3.1069
   28.800    2.8436
   28.815    3.0191
   28.830    3.2122
   28.845    3.2649
   28.860    3.0367
   28.875    3.0542
   28.890    2.8963
   28.905    2.9489
   28.920    3.3351
   28.935    3.4931
   28.950    3.5106
   28.965    2.9489
   28.980    2.9314
   28.995    3.0191
   29.010    3.0367
   29.025    2.8260
   29.040    2.7909
   29.055    2.7383
   29.070    2.6330
   29.085    2.6330
   29.100    3.0367
   29.115    3.1596
   29.130    2.7558
   29.145    2.6856
   29.160    2.7032
   29.175    2.8787
   29.190    2.6681
   29.205    2.6154
   29.220    2.6856
   29.235    2.7032
   29.250    2.7558
   29.265    2.7207
   29.280    2.8436
   29.295    2.7207
   29.310    2.6330
   29.325    2.4399
   29.340    3.0016
   29.355    2.8436
   29.370    2.8436
   29.385    2.3346
   29.400    2.4223
   29.415    2.6330
   29.430    2.7032
   29.445    2.5979
   29.460    2.8436
   29.475    2.4574
   29.490    2.5276
   29.505    2.4223
   29.520    2.6505
   29.535    2.9314
   29.550    2.6505
   29.565    2.7734
   29.580    2.7032
   29.595    2.7383
   29.610    2.7207
   29.625    2.5101
   29.640    2.5276
   29.655    2.3872
   29.670    2.5628
   29.685    2.5101
   29.700    2.8787
   29.715    2.5452
   29.730    2.5452
   29.745    2.5101
   29.760    2.5452
   29.775    2.5276
   29.790    2.4048
   29.805    2.3346
   29.820    2.6681
   29.835    2.1590
   29.850    2.4048
   29.865    2.7032
   29.880    2.5101
   29.895    2.3697
   29.910    2.4574
   29.925    2.2819
   29.940    2.4048
   29.955    2.5101
   29.970    2.5979
   29.985    2.5803
   30.000    2.4750
   30.015    2.1590
   30.030    2.5803
   30.045    2.4399
   30.060    2.3170
   30.075    2.7207
   30.090    2.5452
   30.105    2.5803
   30.120    2.4048
   30.135    2.1766
   30.150    2.1415
   30.165    2.3170
   30.180    2.4925
   30.195    2.3872
   30.210    2.3872
   30.225    2.7207
   30.240    2.2643
   30.255    2.1064
   30.270    2.4925
   30.285    3.0191
   30.300    2.5276
   30.315    2.5628
   30.330    2.4399
   30.345    2.2819
   30.360    2.0888
   30.375    2.2117
   30.390    2.2643
   30.405    2.4399
   30.420    2.4048
   30.435    2.4048
   30.450    2.4223
   30.465    2.5101
   30.480    2.4048
   30.495    2.3697
   30.510    2.6856
   30.525    2.4925
   30.540    2.5979
   30.555    2.3170
   30.570    2.5803
   30.585    2.4048
   30.600    2.2819
   30.615    2.2643
   30.630    2.5628
   30.645    2.3170
   30.660    2.5628
   30.675    2.5803
   30.690    2.2995
   30.705    2.4048
   30.720    2.2643
   30.735    2.5276
   30.750    2.7032
   30.765    2.5628
   30.780    2.5452
   30.795    2.1766
   30.810    2.1064
   30.825    2.0888
   30.840    2.2468
   30.855    2.3697
   30.870    2.6505
   30.885    2.5803
   30.900    2.2819
   30.915    2.6681
   30.930    2.3170
   30.945    2.7383
   30.960    2.2643
   30.975    2.5628
   30.990    2.2995
   31.005    2.1766
   31.020    2.4223
   31.035    2.1064
   31.050    2.1941
   31.065    2.3521
   31.080    2.2292
   31.095    2.1415
   31.110    2.1590
   31.125    2.1941
   31.140    2.2292
   31.155    2.0888
   31.170    2.1766
   31.185    2.2643
   31.200    2.4048
   31.215    2.2819
   31.230    2.4574
   31.245    2.1239
   31.260    2.0888
   31.275    2.1415
   31.290    2.1064
   31.305    2.2292
   31.320    2.1239
   31.335    2.2292
   31.350    2.6154
   31.365    2.2468
   31.380    2.1941
   31.395    2.1415
   31.410    2.2643
   31.425    2.2643
   31.440    2.4574
   31.455    2.1766
   31.470    2.3521
   31.485    1.9133
   31.500    2.0186
   31.515    1.9835
   31.530    2.1064
   31.545    2.3170
   31.560    2.4399
   31.575    2.2643
   31.590    2.0888
   31.605    2.3521
   31.620    2.3521
   31.635    1.7202
   31.650    2.4223
   31.665    2.2117
   31.680    2.1415
   31.695    2.4399
   31.710    2.1590
   31.725    2.3697
   31.740    2.3346
   31.755    2.0713
   31.770    2.2643
   31.785    2.4574
   31.800    2.2995
   31.815    2.0537
   31.830    2.3346
   31.845    2.1766
   31.860    2.0888
   31.875    2.2468
   31.890    2.4048
   31.905    2.2468
   31.920    2.5276
   31.935    2.4399
   31.950    2.3346
   31.965    2.4399
   31.980    2.1590
   31.995    2.3872
   32.010    2.3697
   32.025    2.3697
   32.040    2.0362
   32.055    2.4750
   32.070    2.7909
   32.085    2.5101
   32.100    2.4925
   32.115    2.5452
   32.130    2.3872
   32.145    2.3521
   32.160    2.2819
   32.175    2.0537
   32.190    2.1766
   32.205    2.4048
   32.220    2.4223
   32.235    2.1941
   32.250    2.0011
   32.265    2.2292
   32.280    2.2643
   32.295    2.0713
   32.310    2.2117
   32.325    1.8080
   32.340    1.9133
   32.355    2.2819
   32.370    2.1239
   32.385    2.2468
   32.400    2.1941
   32.415    2.2292
   32.430    2.3346
   32.445    2.5101
   32.460    2.3170
   32.475    2.1766
   32.490    2.2292
   32.505    2.2643
   32.520    2.2995
   32.535    2.1590
   32.550    2.1415
   32.565    2.3872
   32.580    2.0362
   32.595    2.2117
   32.610    2.1766
   32.625    2.2468
   32.640    1.9484
   32.655    2.1239
   32.670    2.1941
   32.685    2.0362
   32.700    2.0888
   32.715    2.1064
   32.730    2.0888
   32.745    2.1064
   32.760    1.9659
   32.775    2.0186
   32.790    2.1239
   32.805    2.1239
   32.820    2.0362
   32.835    2.1590
   32.850    2.1415
   32.865    1.8782
   32.880    2.1239
   32.895    2.3697
   32.910    2.1590
   32.925    2.2643
   32.940    2.2117
   32.955    2.0888
   32.970    2.2468
   32.985    2.2117
   33.000    2.1590
   33.015    2.2819
   33.030    2.0888
   33.045    1.8957
   33.060    1.9659
   33.075    2.0888
   33.090    1.8431
   33.105    2.0537
   33.120    1.7378
   33.135    2.3346
   33.150    2.2292
   33.165    2.2292
   33.180    2.1064
   33.195    2.0537
   33.210    2.0011
   33.225    2.0537
   33.240    2.0362
   33.255    2.2117
   33.270    2.0537
   33.285    1.8255
   33.300    1.9484
   33.315    2.0011
   33.330    2.0362
   33.345    1.8080
   33.360    2.0011
   33.375    1.8957
   33.390    1.9308
   33.405    2.0713
   33.420    2.1064
   33.435    2.3697
   33.450    2.0011
   33.465    2.0713
   33.480    2.0186
   33.495    1.8782
   33.510    1.8606
   33.525    2.1590
   33.540    2.2468
   33.555    2.1064
   33.570    1.8606
   33.585    1.9308
   33.600    1.9659
   33.615    1.7904
   33.630    1.5973
   33.645    1.6675
   33.660    2.0362
   33.675    2.0011
   33.690    2.1064
   33.705    1.8606
   33.720    2.0888
   33.735    2.1590
   33.750    2.1239
   33.765    1.9835
   33.780    2.1415
   33.795    2.1590
   33.810    2.0186
   33.825    2.0713
   33.840    2.2117
   33.855    2.2468
   33.870    1.9133
   33.885    2.2819
   33.900    1.8080
   33.915    2.0888
   33.930    2.2468
   33.945    2.0888
   33.960    2.0011
   33.975    1.8782
   33.990    2.0713
   34.005    2.1064
   34.020    1.5271
   34.035    1.7027
   34.050    2.0888
   34.065    1.8782
   34.080    1.7553
   34.095    1.6149
   34.110    2.0537
   34.125    2.2117
   34.140    2.0888
   34.155    1.9484
   34.170    1.8782
   34.185    1.6851
   34.200    1.7378
   34.215    1.8080
   34.230    1.8431
   34.245    1.8606
   34.260    1.8080
   34.275    1.9835
   34.290    2.2117
   34.305    1.8782
   34.320    2.0186
   34.335    2.1239
   34.350    1.9308
   34.365    1.8606
   34.380    2.1064
   34.395    1.7378
   34.410    1.7553
   34.425    1.7904
   34.440    1.8431
   34.455    2.0537
   34.470    2.0011
   34.485    2.1941
   34.500    2.3170
   34.515    1.8080
   34.530    1.7553
   34.545    1.7553
   34.560    1.8957
   34.575    2.0011
   34.590    1.7378
   34.605    2.0011
   34.620    1.9835
   34.635    1.7729
   34.650    1.6500
   34.665    1.7553
   34.680    2.0537
   34.695    2.2468
   34.710    2.1590
   34.725    2.1415
   34.740    1.7378
   34.755    1.8080
   34.770    1.8782
   34.785    2.0011
   34.800    2.1415
   34.815    2.0713
   34.830    1.9659
   34.845    1.9835
   34.860    1.9659
   34.875    1.9308
   34.890    1.7904
   34.905    1.7202
   34.920    1.7202
   34.935    1.9835
   34.950    2.1064
   34.965    2.1239
   34.980    1.9133
   34.995    1.9133
   35.010    1.7904
   35.025    1.7553
   35.040    1.9484
   35.055    1.8431
   35.070    1.8957
   35.085    2.0713
   35.100    2.1239
   35.115    1.8080
   35.130    1.8606
   35.145    1.9308
   35.160    2.0713
   35.175    2.1064
   35.190    1.9835
   35.205    1.8431
   35.220    1.9484
   35.235    2.0011
   35.250    1.8782
   35.265    2.0011
   35.280    1.8080
   35.295    1.6851
   35.310    2.0011
   35.325    2.0362
   35.340    1.7904
   35.355    1.5973
   35.370    1.8255
   35.385    1.8080
   35.400    1.9484
   35.415    2.0362
   35.430    1.8957
   35.445    1.6149
   35.460    1.7027
   35.475    1.7553
   35.490    1.7027
   35.505    1.7378
   35.520    2.0186
   35.535    1.5622
   35.550    1.5973
   35.565    1.6149
   35.580    1.9308
   35.595    2.0888
   35.610    2.1064
   35.625    1.9308
   35.640    1.9659
   35.655    1.9835
   35.670    1.9308
   35.685    1.7904
   35.700    1.8606
   35.715    1.8606
   35.730    1.7904
   35.745    1.5973
   35.760    2.0011
   35.775    1.8782
   35.790    1.9133
   35.805    1.9835
   35.820    1.8606
   35.835    1.8606
   35.850    1.7027
   35.865    1.8957
   35.880    1.8606
   35.895    1.8606
   35.910    2.1239
   35.925    2.0011
   35.940    1.9835
   35.955    2.0537
   35.970    1.5447
   35.985    1.7553
   36.000    1.9835
   36.015    1.8255
   36.030    1.7904
   36.045    1.7202
   36.060    2.0011
   36.075    1.9308
   36.090    1.7729
   36.105    2.0011
   36.120    1.9484
   36.135    2.0888
   36.150    1.9835
   36.165    2.0011
   36.180    2.1239
   36.195    1.8606
   36.210    1.7904
   36.225    1.7027
   36.240    1.8080
   36.255    1.7904
   36.270    1.8255
   36.285    1.9484
   36.300    1.8080
   36.315    2.0011
   36.330    2.1415
   36.345    1.8606
   36.360    1.6675
   36.375    1.7202
   36.390    1.7729
   36.405    1.8080
   36.420    2.0011
   36.435    1.6851
   36.450    2.0011
   36.465    2.0537
   36.480    1.9484
   36.495    1.8957
   36.510    1.7553
   36.525    1.9659
   36.540    2.0362
   36.555    1.7904
   36.570    1.7553
   36.585    1.5798
   36.600    1.7904
   36.615    1.9835
   36.630    1.7904
   36.645    1.7553
   36.660    1.8080
   36.675    1.6851
   36.690    1.7378
   36.705    2.2995
   36.720    1.9484
   36.735    1.9133
   36.750    1.8957
   36.765    2.2468
   36.780    1.9133
   36.795    1.8606
   36.810    1.5096
   36.825    1.6675
   36.840    2.0537
   36.855    1.8080
   36.870    1.7202
   36.885    1.8080
   36.900    1.8782
   36.915    1.6324
   36.930    1.6675
   36.945    1.9835
   36.960    1.8431
   36.975    1.7378
   36.990    1.8782
   37.005    1.6675
   37.020    2.0713
   37.035    1.8957
   37.050    1.8431
   37.065    1.7378
   37.080    1.7027
   37.095    1.7027
   37.110    2.0537
   37.125    1.7378
   37.140    1.8255
   37.155    1.8431
   37.170    1.8606
   37.185    1.5798
   37.200    1.5622
   37.215    1.5271
   37.230    1.5622
   37.245    1.6675
   37.260    1.9133
   37.275    1.6675
   37.290    1.7904
   37.305    1.9659
   37.320    1.7904
   37.335    1.7027
   37.350    1.6500
   37.365    1.8782
   37.380    1.8782
   37.395    1.7027
   37.410    1.5973
   37.425    1.6675
   37.440    1.5973
   37.455    1.5271
   37.470    1.8957
   37.485    1.8782
   37.500    1.7378
   37.515    1.8782
   37.530    1.9659
   37.545    1.8255
   37.560    1.7904
   37.575    1.6675
   37.590    1.8255
   37.605    1.7904
   37.620    1.9484
   37.635    1.8080
   37.650    2.0888
   37.665    1.8782
   37.680    1.4569
   37.695    1.8606
   37.710    1.9484
   37.725    2.0537
   37.740    1.8431
   37.755    2.0537
   37.770    1.8255
   37.785    1.9133
   37.800    1.6149
   37.815    2.1064
   37.830    1.8782
   37.845    1.7378
   37.860    2.0888
   37.875    1.9308
   37.890    1.8606
   37.905    1.7904
   37.920    1.7553
   37.935    1.5973
   37.950    1.5622
   37.965    1.6324
   37.980    1.6324
   37.995    1.3516
   38.010    1.7729
   38.025    1.9133
   38.040    1.8255
   38.055    2.0537
   38.070    1.8957
   38.085    1.9308
   38.100    1.9133
   38.115    1.7729
   38.130    1.9835
   38.145    2.2995
   38.160    1.8080
   38.175    1.8255
   38.190    2.1590
   38.205    1.9835
   38.220    1.7729
   38.235    1.7378
   38.250    1.7378
   38.265    1.7027
   38.280    1.7378
   38.295    1.7378
   38.310    1.6149
   38.325    1.7202
   38.340    1.9484
   38.355    1.9659
   38.370    1.7202
   38.385    2.0011
   38.400    1.8957
   38.415    1.5973
   38.430    1.9484
   38.445    1.8431
   38.460    1.7027
   38.475    1.6324
   38.490    1.6675
   38.505    1.8080
   38.520    1.6149
   38.535    1.7027
   38.550    1.7553
   38.565    1.8431
   38.580    1.7904
   38.595    1.7027
   38.610    1.8782
   38.625    1.7202
   38.640    1.8606
   38.655    1.7027
   38.670    1.8957
   38.685    1.7729
   38.700    1.7729
   38.715    1.7378
   38.730    1.8080
   38.745    1.8782
   38.760    1.5973
   38.775    1.5798
   38.790    1.6149
   38.805    1.4920
   38.820    1.5622
   38.835    1.6675
   38.850    1.8782
   38.865    1.6149
   38.880    1.8606
   38.895    1.7202
   38.910    1.5798
   38.925    2.1064
   38.940    1.7378
   38.955    1.6500
   38.970    1.6500
   38.985    1.7553
   39.000    1.7553
   39.015    1.8606
   39.030    1.7027
   39.045    1.4218
   39.060    1.5798
   39.075    1.8431
   39.090    1.8957
   39.105    1.8431
   39.120    1.7904
   39.135    1.5798
   39.150    1.6500
   39.165    1.7904
   39.180    1.9484
   39.195    1.7202
   39.210    1.5622
   39.225    1.7904
   39.240    1.7729
   39.255    1.7729
   39.270    1.8255
   39.285    1.5973
   39.300    1.7553
   39.315    1.7553
   39.330    1.8255
   39.345    1.6149
   39.360    1.7729
   39.375    1.6851
   39.390    1.5622
   39.405    1.8957
   39.420    1.8080
   39.435    1.7904
   39.450    1.5622
   39.465    1.6324
   39.480    1.6149
   39.495    1.4745
   39.510    1.7027
   39.525    1.5798
   39.540    1.7904
   39.555    1.8606
   39.570    1.7553
   39.585    1.6851
   39.600    1.9133
   39.615    1.5973
   39.630    1.6324
   39.645    1.8080
   39.660    1.6324
   39.675    1.5447
   39.690    1.8255
   39.705    1.7553
   39.720    1.8782
   39.735    1.6675
   39.750    1.6149
   39.765    1.7378
   39.780    1.5622
   39.795    1.7027
   39.810    1.7378
   39.825    1.5798
   39.840    1.7904
   39.855    1.6500
   39.870    1.5973
   39.885    1.5622
   39.900    1.7027
   39.915    1.8782
   39.930    1.4920
   39.945    1.8080
   39.960    1.5798
   39.975    1.4920
   39.990    1.6500
