    1.500   22.1906
    1.515   22.5382
    1.530   21.8431
    1.545   21.9905
    1.560   22.2328
    1.575   22.2433
    1.590   21.1058
    1.605   21.4955
    1.620   21.7167
    1.635   22.0326
    1.650   21.2744
    1.665   20.4213
    1.680   20.5687
    1.695   20.0632
    1.710   20.4318
    1.725   20.6846
    1.740   19.8631
    1.755   20.6635
    1.770   20.4318
    1.785   20.6846
    1.800   19.6630
    1.815   18.9573
    1.830   19.5787
    1.845   19.6840
    1.860   19.4734
    1.875   19.6946
    1.890   19.2944
    1.905   19.5682
    1.920   19.6314
    1.935   19.5682
    1.950   19.3576
    1.965   18.7046
    1.980   18.9784
    1.995   19.3470
    2.010   19.4945
    2.025   19.5155
    2.040   18.6414
    2.055   18.7572
    2.070   19.0943
    2.085   19.3365
    2.100   19.2944
    2.115   19.4418
    2.130   18.7362
    2.145   19.4523
    2.160   19.3365
    2.175   18.9047
    2.190   19.5366
    2.205   18.9573
    2.220   19.3154
    2.235   19.4945
    2.250   18.8626
    2.265   19.5366
    2.280   19.1785
    2.295   19.5998
    2.310   19.3997
    2.325   19.2944
    2.340   19.0205
    2.355   19.4839
    2.370   19.6525
    2.385   18.8731
    2.400   20.1159
    2.415   19.6419
    2.430   19.8420
    2.445   20.4529
    2.460   20.1053
    2.475   19.6525
    2.490   19.6103
    2.505   18.9152
    2.520   19.4207
    2.535   18.9258
    2.550   18.3570
    2.565   17.2722
    2.580   17.2301
    2.595   17.4724
    2.610   17.0405
    2.625   17.1143
    2.640   16.5456
    2.655   15.9136
    2.670   16.9247
    2.685   16.8615
    2.700   15.9242
    2.715   15.9768
    2.730   16.1769
    2.745   16.4824
    2.760   16.6614
    2.775   15.7978
    2.790   15.6609
    2.805   15.6714
    2.820   16.1453
    2.835   16.1980
    2.850   15.8083
    2.865   15.3133
    2.880   15.3555
    2.895   15.7135
    2.910   14.8394
    2.925   14.9447
    2.940   14.8289
    2.955   14.3444
    2.970   14.4181
    2.985   14.8289
    3.000   14.4708
    3.015   13.9968
    3.030   13.7862
    3.045   13.8599
    3.060   13.8494
    3.075   14.1969
    3.090   13.3123
    3.105   13.8494
    3.120   14.0600
    3.135   13.4071
    3.150   13.3860
    3.165   13.2175
    3.180   13.2807
    3.195   13.0279
    3.210   13.0911
    3.225   13.5756
    3.240   13.0174
    3.255   13.0174
    3.270   13.0700
    3.285   12.7436
    3.300   12.4487
    3.315   12.7014
    3.330   12.7541
    3.345   12.3012
    3.360   12.4487
    3.375   12.3539
    3.390   12.7646
    3.405   12.6698
    3.420   12.6488
    3.435   12.5434
    3.450   11.7957
    3.465   12.0274
    3.480   11.5640
    3.495   11.7852
    3.510   12.2486
    3.525   11.4376
    3.540   11.6904
    3.555   11.7641
    3.570   11.4165
    3.585   10.9110
    3.600   10.9005
    3.615   11.2270
    3.630   12.0695
    3.645   11.4271
    3.660   11.4060
    3.675   11.0163
    3.690   11.1216
    3.705   11.4271
    3.720   10.9110
    3.735   10.7214
    3.750   11.1848
    3.765   11.3112
    3.780   11.1532
    3.795   11.3112
    3.810   10.6793
    3.825   10.9005
    3.840   11.2270
    3.855   10.8689
    3.870   11.0058
    3.885   10.9953
    3.900   10.5635
    3.915   11.0795
    3.930   10.6161
    3.945   10.3002
    3.960   10.6582
    3.975   10.6161
    3.990   10.5003
    4.005   10.7741
    4.020   10.7741
    4.035   10.8689
    4.050   10.6477
    4.065   10.6161
    4.080   11.2796
    4.095   10.6793
    4.110   10.7741
    4.125   10.9531
    4.140   10.8057
    4.155   10.4687
    4.170   10.9110
    4.185   10.6477
    4.200   10.5529
    4.215   10.2791
    4.230   10.3318
    4.245   10.3002
    4.260   10.8583
    4.275   10.4371
    4.290   10.6582
    4.305   10.3318
    4.320   10.3949
    4.335   10.6266
    4.350    9.9526
    4.365   10.2791
    4.380    9.9315
    4.395   10.2791
    4.410   10.3528
    4.425    9.9526
    4.440    9.9947
    4.455   10.6056
    4.470   10.3949
    4.485   10.0263
    4.500   10.6477
    4.515   10.8162
    4.530    9.9947
    4.545   10.7004
    4.560   10.4581
    4.575   10.5213
    4.590   10.9215
    4.605   10.4897
    4.620   10.6793
    4.635   10.3318
    4.650   10.2686
    4.665   10.4476
    4.680   10.6688
    4.695   10.2475
    4.710   10.7530
    4.725   11.1954
    4.740   10.1211
    4.755   11.1111
    4.770   10.5003
    4.785   10.4687
    4.800   10.2264
    4.815   10.8162
    4.830   10.9110
    4.845   11.4060
    4.860   10.6582
    4.875   10.8373
    4.890   10.8583
    4.905   11.0479
    4.920   11.1954
    4.935   11.2270
    4.950   11.6061
    4.965   11.5324
    4.980   12.1011
    4.995   12.7436
    5.010   12.2064
    5.025   11.8589
    5.040   11.8062
    5.055   11.9010
    5.070   12.1432
    5.085   11.7009
    5.100   10.8268
    5.115   11.0795
    5.130   10.9637
    5.145   10.9531
    5.160   10.8162
    5.175   10.5319
    5.190   10.8268
    5.205   10.5845
    5.220   10.2686
    5.235   10.4792
    5.250   10.6266
    5.265    9.9421
    5.280   10.1843
    5.295   10.3002
    5.310   10.5951
    5.325   10.4687
    5.340   10.2159
    5.355   10.1211
    5.370   10.0474
    5.385   10.4581
    5.400   10.2475
    5.415   10.1106
    5.430   10.3002
    5.445   10.6898
    5.460   10.5740
    5.475   10.4055
    5.490   10.6898
    5.505   10.8478
    5.520   10.6898
    5.535   11.1322
    5.550   10.8583
    5.565   10.7741
    5.580   10.9742
    5.595   10.6056
    5.610   10.8057
    5.625   10.7109
    5.640   10.8268
    5.655   10.8268
    5.670   10.7846
    5.685   11.0795
    5.700   10.5003
    5.715   10.0790
    5.730   10.3423
    5.745   10.5951
    5.760   10.3212
    5.775   10.2580
    5.790   10.4371
    5.805   10.2370
    5.820   10.5108
    5.835   10.8689
    5.850   11.1848
    5.865   10.9847
    5.880   11.0479
    5.895   11.4376
    5.910   10.6898
    5.925   10.5951
    5.940   10.3318
    5.955   10.4160
    5.970   10.3002
    5.985    9.8999
    6.000   10.1001
    6.015    9.9842
    6.030    9.9105
    6.045    9.7736
    6.060    9.4155
    6.075    9.8473
    6.090    9.3839
    6.105    9.4576
    6.120    9.2891
    6.135    9.2154
    6.150    9.6367
    6.165    9.7104
    6.180    9.8052
    6.195    9.8157
    6.210    9.4365
    6.225    9.7525
    6.240    9.3418
    6.255    9.4471
    6.270    9.4260
    6.285    9.6472
    6.300    9.8894
    6.315    9.7104
    6.330    9.7946
    6.345    9.7104
    6.360    9.8894
    6.375   10.1106
    6.390   10.0263
    6.405    9.8684
    6.420   10.0895
    6.435   10.0579
    6.450    9.7525
    6.465   10.0158
    6.480    9.8684
    6.495   10.5319
    6.510   10.1843
    6.525   10.2264
    6.540   10.5635
    6.555   10.6056
    6.570   10.4581
    6.585   10.1001
    6.600   11.0058
    6.615   10.4897
    6.630   10.1948
    6.645   10.3844
    6.660   10.7004
    6.675   10.7214
    6.690   10.9637
    6.705   10.7109
    6.720   11.0690
    6.735   11.1954
    6.750   11.5429
    6.765   11.3955
    6.780   11.4165
    6.795   11.9958
    6.810   12.0063
    6.825   11.9221
    6.840   12.3117
    6.855   11.6588
    6.870   11.8905
    6.885   11.6798
    6.900   12.1748
    6.915   12.3749
    6.930   12.2486
    6.945   12.0484
    6.960   12.0063
    6.975   12.0274
    6.990   11.4481
    7.005   11.5324
    7.020   11.8273
    7.035   11.4376
    7.050   11.4376
    7.065   11.2164
    7.080   11.5429
    7.095   10.8899
    7.110   10.7320
    7.125   10.8162
    7.140   10.3423
    7.155   10.3528
    7.170   10.3739
    7.185   10.4476
    7.200    9.9105
    7.215    9.7946
    7.230   10.2791
    7.245   10.1106
    7.260    9.9526
    7.275    9.9947
    7.290    9.7525
    7.305    9.6261
    7.320    9.7630
    7.335    9.7525
    7.350   10.1843
    7.365    9.8684
    7.380    9.6261
    7.395    9.5313
    7.410   10.2475
    7.425   10.2686
    7.440   10.3633
    7.455   10.2791
    7.470    9.8578
    7.485   10.1316
    7.500    9.9947
    7.515   10.0790
    7.530    9.7104
    7.545   10.1948
    7.560   10.0369
    7.575    9.6472
    7.590    9.6156
    7.605   10.2370
    7.620    9.8157
    7.635    9.4471
    7.650    9.6367
    7.665    9.7104
    7.680    9.8999
    7.695    9.4997
    7.710    9.7525
    7.725   10.1527
    7.740    9.6682
    7.755    9.5103
    7.770    9.6682
    7.785    9.3312
    7.800    9.5945
    7.815    9.6261
    7.830    9.4892
    7.845    9.9842
    7.860    9.8473
    7.875    9.6893
    7.890    9.7630
    7.905   10.1632
    7.920    9.2259
    7.935    9.6788
    7.950    9.9842
    7.965    9.7104
    7.980    9.5524
    7.995    9.6261
    8.010    9.7946
    8.025    9.6893
    8.040    9.9842
    8.055    9.4050
    8.070    9.6472
    8.085    9.5313
    8.100    9.7104
    8.115    9.4681
    8.130    9.3944
    8.145    9.6577
    8.160    9.4681
    8.175    9.3734
    8.190    9.2680
    8.205    9.2891
    8.220    9.5103
    8.235    9.8789
    8.250    9.4681
    8.265    8.7941
    8.280    9.2364
    8.295    9.2364
    8.310    9.5524
    8.325    9.0574
    8.340    9.6051
    8.355    9.8157
    8.370    9.5313
    8.385   10.0053
    8.400    9.5735
    8.415   10.0263
    8.430   10.0053
    8.445    9.8262
    8.460    9.6472
    8.475    9.6367
    8.490   10.0263
    8.505   10.0895
    8.520   10.0895
    8.535    9.4681
    8.550   10.0895
    8.565   10.1948
    8.580   10.2054
    8.595   10.3844
    8.610   10.7004
    8.625   11.0795
    8.640   11.3217
    8.655   11.2164
    8.670   11.5113
    8.685   11.7114
    8.700   11.3217
    8.715   11.0163
    8.730   10.3107
    8.745   10.1632
    8.760    9.9421
    8.775    9.9210
    8.790    9.9526
    8.805    9.9210
    8.820    9.9631
    8.835    9.4787
    8.850    9.5524
    8.865    9.7841
    8.880    9.2575
    8.895   10.0158
    8.910   10.0158
    8.925   10.4792
    8.940   10.0895
    8.955    9.6682
    8.970    9.8684
    8.985   10.0685
    9.000   10.0053
    9.015    9.7104
    9.030   10.1316
    9.045    9.9105
    9.060    9.6472
    9.075   10.0474
    9.090    9.6367
    9.105    9.3102
    9.120    9.5419
    9.135    9.6261
    9.150    9.2996
    9.165    9.7104
    9.180    9.5945
    9.195    9.1627
    9.210    9.5419
    9.225    9.7420
    9.240   10.1211
    9.255    9.6472
    9.270    9.7946
    9.285    9.8684
    9.300   10.0685
    9.315   10.7952
    9.330   10.5424
    9.345   10.3528
    9.360   10.1843
    9.375   10.4687
    9.390   10.3318
    9.405   10.1527
    9.420   10.5424
    9.435   10.1527
    9.450   10.2264
    9.465   10.0579
    9.480   10.4055
    9.495   10.3739
    9.510   10.1211
    9.525   10.3212
    9.540   10.1948
    9.555   10.1948
    9.570   10.1001
    9.585   10.6372
    9.600   10.9426
    9.615   10.7952
    9.630   11.0163
    9.645   10.8478
    9.660   11.0269
    9.675   10.7320
    9.690   10.9426
    9.705   10.8162
    9.720   10.5108
    9.735   10.4160
    9.750   10.5845
    9.765    9.9737
    9.780   10.6582
    9.795   11.4692
    9.810   10.4160
    9.825   10.2896
    9.840   10.6582
    9.855   11.3007
    9.870   10.4371
    9.885   10.4897
    9.900   10.3739
    9.915   10.7846
    9.930   11.0585
    9.945   11.4797
    9.960   11.0585
    9.975   11.1111
    9.990   11.6798
   10.005   11.4481
   10.020   10.7109
   10.035   10.6266
   10.050   11.1322
   10.065   11.1427
   10.080   10.6372
   10.095   11.1322
   10.110   10.7109
   10.125   10.9215
   10.140   10.8899
   10.155   11.0163
   10.170   11.1848
   10.185   11.1954
   10.200   11.0479
   10.215   10.6056
   10.230   10.8689
   10.245   11.9115
   10.260   12.0274
   10.275   12.0379
   10.290   12.3012
   10.305   12.4487
   10.320   13.4071
   10.335   12.4592
   10.350   12.3117
   10.365   11.9221
   10.380   12.1748
   10.395   11.9537
   10.410   12.0800
   10.425   11.8062
   10.440   11.6272
   10.455   11.8062
   10.470   11.8799
   10.485   11.0269
   10.500   11.1532
   10.515   11.5429
   10.530   11.0058
   10.545   10.2686
   10.560   10.7320
   10.575   10.0579
   10.590   10.6372
   10.605   10.5319
   10.620   10.1001
   10.635   10.4897
   10.650   10.5635
   10.665   10.2054
   10.680   10.6266
   10.695   10.1843
   10.710   10.2580
   10.725   10.2370
   10.740   10.6161
   10.755   10.0790
   10.770   10.3318
   10.785   10.2475
   10.800   10.2159
   10.815   10.7109
   10.830   10.6477
   10.845   10.3318
   10.860   10.4687
   10.875   10.6898
   10.890   10.2264
   10.905   10.1948
   10.920   10.5424
   10.935   10.8583
   10.950   10.9847
   10.965   10.8583
   10.980   11.0269
   10.995   11.1006
   11.010   11.3112
   11.025   11.4271
   11.040   11.1322
   11.055   11.6482
   11.070   11.8167
   11.085   11.2902
   11.100   11.8062
   11.115   12.3855
   11.130   12.1854
   11.145   11.5956
   11.160   11.7220
   11.175   11.8905
   11.190   11.7325
   11.205   12.0590
   11.220   11.4376
   11.235   11.0795
   11.250   11.2270
   11.265   10.8478
   11.280   10.3844
   11.295   10.0579
   11.310   10.2264
   11.325    9.6261
   11.340    9.7841
   11.355   10.3949
   11.370    9.6893
   11.385    9.5313
   11.400    9.4260
   11.415    9.3734
   11.430    9.3839
   11.445    9.7104
   11.460    9.8157
   11.475    9.5524
   11.490    9.2154
   11.505    9.7104
   11.520    9.3628
   11.535    9.2891
   11.550    9.7946
   11.565    9.9737
   11.580    9.7104
   11.595    9.3312
   11.610    9.8894
   11.625    9.5945
   11.640    9.1943
   11.655    9.7104
   11.670    9.6998
   11.685    9.7104
   11.700    9.2996
   11.715    9.4471
   11.730    9.5945
   11.745    9.6788
   11.760   10.4055
   11.775    9.7946
   11.790    9.7104
   11.805    9.4155
   11.820    9.5629
   11.835    9.5629
   11.850    9.3418
   11.865    9.0047
   11.880    9.2575
   11.895    9.8789
   11.910    9.1417
   11.925    9.0258
   11.940    9.0469
   11.955    8.7730
   11.970    8.8152
   11.985    8.8994
   12.000    8.8362
   12.015    8.7730
   12.030    9.0890
   12.045    9.1838
   12.060    9.2364
   12.075    9.0679
   12.090    8.2043
   12.105    8.7836
   12.120    8.6256
   12.135    8.8784
   12.150    8.9521
   12.165    9.2154
   12.180    8.6361
   12.195    9.0469
   12.210    8.8994
   12.225    9.1943
   12.240    8.7309
   12.255    8.9205
   12.270    8.9415
   12.285    8.6361
   12.300    8.8889
   12.315    8.6467
   12.330    8.8152
   12.345    9.6998
   12.360    9.1311
   12.375    8.9837
   12.390    9.0258
   12.405    9.4787
   12.420    9.5945
   12.435    9.0679
   12.450    9.4471
   12.465    9.2470
   12.480    9.3102
   12.495    9.4787
   12.510    9.6156
   12.525    9.4365
   12.540    8.7730
   12.555    9.0153
   12.570    8.9731
   12.585    9.0574
   12.600    8.9521
   12.615    9.0679
   12.630    9.4155
   12.645    8.7941
   12.660    8.7836
   12.675    9.0469
   12.690    9.1311
   12.705    9.2048
   12.720    8.7625
   12.735    9.0574
   12.750    9.0047
   12.765    8.5413
   12.780    8.9626
   12.795    9.2786
   12.810    8.6993
   12.825    9.0469
   12.840    8.7730
   12.855    8.2780
   12.870    8.3939
   12.885    8.8152
   12.900    8.3096
   12.915    8.3202
   12.930    8.2675
   12.945    8.4044
   12.960    8.7098
   12.975    8.6467
   12.990    8.2254
   13.005    8.2886
   13.020    8.4466
   13.035    8.4466
   13.050    8.2570
   13.065    8.1411
   13.080    8.8046
   13.095    8.3412
   13.110    8.1517
   13.125    8.8046
   13.140    8.5624
   13.155    8.4571
   13.170    8.8362
   13.185    8.4992
   13.200    8.6783
   13.215    8.5940
   13.230    8.5835
   13.245    8.4255
   13.260    8.7204
   13.275    8.8784
   13.290    9.2154
   13.305    9.0574
   13.320    8.7520
   13.335    8.9521
   13.350    8.8678
   13.365    8.5097
   13.380    8.4255
   13.395    8.8573
   13.410    8.8994
   13.425    9.2786
   13.440    9.2680
   13.455    8.5413
   13.470    9.0153
   13.485    8.4781
   13.500    8.4360
   13.515    8.6256
   13.530    8.5413
   13.545    8.4571
   13.560    8.3518
   13.575    8.6572
   13.590    7.9937
   13.605    8.2464
   13.620    8.1095
   13.635    8.3202
   13.650    8.8889
   13.665    8.4992
   13.680    8.0569
   13.695    8.0358
   13.710    8.4466
   13.725    8.5835
   13.740    8.2464
   13.755    8.2464
   13.770    8.6572
   13.785    8.2254
   13.800    8.4571
   13.815    8.5413
   13.830    8.3096
   13.845    8.4781
   13.860    8.7309
   13.875    8.4150
   13.890    8.4466
   13.905    8.3518
   13.920    8.3939
   13.935    8.1833
   13.950    8.5519
   13.965    8.8257
   13.980    8.3202
   13.995    8.5835
   14.010    8.2570
   14.025    8.5835
   14.040    8.2149
   14.055    8.2570
   14.070    8.2570
   14.085    8.3096
   14.100    8.5097
   14.115    8.4887
   14.130    8.3834
   14.145    8.4781
   14.160    8.7414
   14.175    8.2886
   14.190    8.1938
   14.205    8.7520
   14.220    8.7309
   14.235    8.6783
   14.250    8.3623
   14.265    8.3518
   14.280    8.3834
   14.295    8.4887
   14.310    8.7730
   14.325    9.0785
   14.340    8.8257
   14.355    8.2043
   14.370    8.2780
   14.385    8.6993
   14.400    8.3096
   14.415    8.1727
   14.430    8.4466
   14.445    8.6467
   14.460    8.7098
   14.475    8.6888
   14.490    8.6783
   14.505    8.5097
   14.520    8.3096
   14.535    8.1411
   14.550    8.0885
   14.565    8.5413
   14.580    8.4466
   14.595    8.4255
   14.610    8.7098
   14.625    8.7941
   14.640    8.2886
   14.655    8.1727
   14.670    7.9937
   14.685    8.0358
   14.700    8.2991
   14.715    8.2464
   14.730    8.0358
   14.745    8.1727
   14.760    8.6361
   14.775    8.8152
   14.790    8.4360
   14.805    8.6888
   14.820    8.3728
   14.835    8.1727
   14.850    8.3623
   14.865    8.3307
   14.880    8.3412
   14.895    8.9100
   14.910    8.9731
   14.925    9.0469
   14.940    8.8889
   14.955    8.8889
   14.970    9.4365
   14.985    9.5208
   15.000    9.6261
   15.015    9.7314
   15.030    9.4997
   15.045    9.9105
   15.060    9.7630
   15.075    9.8473
   15.090    9.5840
   15.105    9.2786
   15.120    8.8468
   15.135    9.2996
   15.150    8.8573
   15.165    8.6151
   15.180    8.2991
   15.195    8.5519
   15.210    8.3623
   15.225    8.6677
   15.240    8.6572
   15.255    8.4360
   15.270    8.7836
   15.285    8.6045
   15.300    8.3939
   15.315    8.4887
   15.330    8.3202
   15.345    8.3623
   15.360    8.3939
   15.375    8.4150
   15.390    8.3518
   15.405    8.6572
   15.420    8.4044
   15.435    8.3096
   15.450    8.2254
   15.465    8.3728
   15.480    8.3623
   15.495    8.0779
   15.510    8.2464
   15.525    8.2149
   15.540    8.2149
   15.555    8.0463
   15.570    8.2043
   15.585    8.3412
   15.600    8.2780
   15.615    8.1833
   15.630    8.3307
   15.645    8.0779
   15.660    8.2254
   15.675    8.0042
   15.690    8.8678
   15.705    8.5413
   15.720    8.3939
   15.735    8.1517
   15.750    8.0779
   15.765    7.9305
   15.780    8.3834
   15.795    8.8889
   15.810    8.6783
   15.825    8.5519
   15.840    8.5413
   15.855    9.0469
   15.870    9.1311
   15.885    8.5519
   15.900    8.4255
   15.915    9.2786
   15.930    9.4260
   15.945    9.6893
   15.960    9.1522
   15.975    9.6472
   15.990    9.2154
   16.005    9.1101
   16.020    9.1627
   16.035    9.1943
   16.050    9.2786
   16.065    8.8994
   16.080    8.9205
   16.095    8.8889
   16.110    8.6677
   16.125    8.6888
   16.140    8.6151
   16.155    8.8889
   16.170    8.8362
   16.185    8.8152
   16.200    8.6677
   16.215    8.5308
   16.230    8.5835
   16.245    8.5308
   16.260    8.1411
   16.275    8.7836
   16.290    8.3518
   16.305    8.3307
   16.320    8.5308
   16.335    8.3834
   16.350    8.4992
   16.365    8.2464
   16.380    8.6677
   16.395    8.8257
   16.410    8.5835
   16.425    8.5835
   16.440    8.6783
   16.455    8.7414
   16.470    8.9205
   16.485    9.0995
   16.500    8.1201
   16.515    8.2675
   16.530    8.6361
   16.545    9.0574
   16.560    8.4150
   16.575    8.6467
   16.590    8.8362
   16.605    8.5835
   16.620    8.3202
   16.635    8.3096
   16.650    8.4887
   16.665    8.6151
   16.680    8.3202
   16.695    8.8152
   16.710    8.5097
   16.725    8.2886
   16.740    8.5729
   16.755    8.5835
   16.770    8.3939
   16.785    8.1622
   16.800    8.6888
   16.815    8.4571
   16.830    8.3518
   16.845    8.4992
   16.860    8.3518
   16.875    8.2991
   16.890    8.6677
   16.905    8.5413
   16.920    8.2043
   16.935    8.4781
   16.950    8.6572
   16.965    8.2359
   16.980    8.3623
   16.995    8.2043
   17.010    8.5624
   17.025    8.4781
   17.040    8.2254
   17.055    8.4887
   17.070    8.2886
   17.085    8.1727
   17.100    8.1727
   17.115    8.4360
   17.130    8.2991
   17.145    8.6572
   17.160    8.3412
   17.175    8.4887
   17.190    8.4781
   17.205    8.2886
   17.220    8.5413
   17.235    9.1732
   17.250    8.4781
   17.265    8.6045
   17.280    8.4992
   17.295    8.6256
   17.310    8.8046
   17.325    8.4044
   17.340    8.8257
   17.355    8.9837
   17.370    9.1627
   17.385    9.0047
   17.400    9.2470
   17.415    8.8257
   17.430    8.9626
   17.445    9.1417
   17.460    8.9310
   17.475    8.4255
   17.490    8.4992
   17.505    8.8152
   17.520    8.6467
   17.535    8.2991
   17.550    8.4466
   17.565    8.4887
   17.580    8.9731
   17.595    8.9626
   17.610    8.7836
   17.625    8.8046
   17.640    8.4992
   17.655    8.2570
   17.670    8.4676
   17.685    8.6467
   17.700    8.5203
   17.715    9.0363
   17.730    8.4676
   17.745    8.9415
   17.760    8.7941
   17.775    8.6256
   17.790    8.5729
   17.805    8.9731
   17.820    8.7941
   17.835    8.8046
   17.850    8.8573
   17.865    8.8152
   17.880    9.0258
   17.895    8.4571
   17.910    8.9310
   17.925    8.8889
   17.940    9.2364
   17.955    9.2891
   17.970    9.1522
   17.985    9.2996
   18.000    9.1627
   18.015    9.1206
   18.030    9.2891
   18.045    9.4576
   18.060    9.3418
   18.075    9.4365
   18.090    9.3734
   18.105    9.7314
   18.120   10.2475
   18.135   10.1843
   18.150    9.9526
   18.165   10.0053
   18.180    9.9947
   18.195    9.4892
   18.210    9.6051
   18.225    9.7525
   18.240   10.0790
   18.255   10.1738
   18.270   10.1211
   18.285    9.8262
   18.300    9.4997
   18.315    9.3418
   18.330    9.3102
   18.345    9.1943
   18.360    9.4787
   18.375    9.2891
   18.390    9.3418
   18.405    8.8468
   18.420    8.6045
   18.435    8.6151
   18.450    8.7204
   18.465    8.4150
   18.480    8.4150
   18.495    8.2359
   18.510    8.3834
   18.525    8.2464
   18.540    8.6783
   18.555    8.2149
   18.570    8.5835
   18.585    8.5413
   18.600    8.4360
   18.615    8.2149
   18.630    8.4992
   18.645    8.1517
   18.660    8.2149
   18.675    8.0253
   18.690    8.3307
   18.705    8.0885
   18.720    7.9516
   18.735    8.2991
   18.750    8.5413
   18.765    8.1095
   18.780    8.3412
   18.795    8.5203
   18.810    8.0569
   18.825    8.5624
   18.840    8.2570
   18.855    8.0569
   18.870    9.0995
   18.885    8.7941
   18.900    9.1101
   18.915    8.9205
   18.930    8.5624
   18.945    9.2364
   18.960    9.3839
   18.975    9.6051
   18.990   10.3528
   19.005   10.6056
   19.020   10.6266
   19.035   10.4897
   19.050   10.6688
   19.065   10.3423
   19.080   10.0579
   19.095    9.6682
   19.110    9.1838
   19.125    8.5308
   19.140    8.3623
   19.155    8.7730
   19.170    8.3834
   19.185    8.4676
   19.200    8.6467
   19.215    8.5835
   19.230    8.8152
   19.245    8.8362
   19.260    8.5308
   19.275    8.4676
   19.290    8.4255
   19.305    8.4466
   19.320    8.3728
   19.335    8.0253
   19.350    8.5940
   19.365    8.5940
   19.380    8.8678
   19.395    8.6677
   19.410    8.3834
   19.425    8.6361
   19.440    8.3307
   19.455    8.4992
   19.470    8.9100
   19.485    8.3939
   19.500    8.5519
   19.515    8.7941
   19.530    8.9521
   19.545    8.9521
   19.560    8.8257
   19.575    8.5413
   19.590    8.7414
   19.605    8.8784
   19.620    8.6467
   19.635    8.7098
   19.650    8.1938
   19.665    8.4255
   19.680    8.7836
   19.695    8.3728
   19.710    8.6888
   19.725    8.5203
   19.740    8.2359
   19.755    8.4571
   19.770    8.8046
   19.785    8.6361
   19.800    8.5729
   19.815    8.1411
   19.830    8.6993
   19.845    8.8257
   19.860    8.7414
   19.875    8.5203
   19.890    8.9837
   19.905    8.9521
   19.920    8.3096
   19.935    8.5308
   19.950    9.0258
   19.965    8.5624
   19.980    8.0253
   19.995    8.4360
   20.010    8.2991
   20.025    8.5413
   20.040    8.2149
   20.055    8.2675
   20.070    8.8889
   20.085    8.4676
   20.100    8.4466
   20.115    9.1838
   20.130    8.7098
   20.145    8.0674
   20.160    8.1201
   20.175    8.1938
   20.190    8.3518
   20.205    8.2570
   20.220    8.3939
   20.235    8.3518
   20.250    8.5624
   20.265    8.4255
   20.280    8.2043
   20.295    8.2675
   20.310    8.6256
   20.325    8.3202
   20.340    8.6045
   20.355    8.4571
   20.370    8.6361
   20.385    8.5097
   20.400    8.5097
   20.415    8.6888
   20.430    8.5624
   20.445    8.5097
   20.460    8.5308
   20.475    8.1727
   20.490    8.1095
   20.505    8.0779
   20.520    8.7836
   20.535    8.5940
   20.550    8.4992
   20.565    8.3834
   20.580    8.5413
   20.595    8.1411
   20.610    8.7730
   20.625    8.8046
   20.640    8.3096
   20.655    8.3728
   20.670    8.4571
   20.685    8.5835
   20.700    8.8468
   20.715    8.5729
   20.730    8.5097
   20.745    8.4992
   20.760    8.2464
   20.775    8.6045
   20.790    8.9731
   20.805    8.7941
   20.820    8.8152
   20.835    8.5940
   20.850    8.8994
   20.865    8.6993
   20.880    8.4887
   20.895    8.7520
   20.910    8.8994
   20.925    8.7625
   20.940    8.5940
   20.955    8.6256
   20.970    8.9310
   20.985    8.5519
   21.000    8.0147
   21.015    8.5940
   21.030    8.9100
   21.045    8.5940
   21.060    8.3728
   21.075    8.4992
   21.090    8.6151
   21.105    8.4781
   21.120    9.2470
   21.135    9.2048
   21.150    8.8889
   21.165    8.8152
   21.180    9.3628
   21.195    9.1522
   21.210    8.8257
   21.225    8.7941
   21.240    9.0363
   21.255    8.9626
   21.270    8.7730
   21.285    8.7520
   21.300    8.8362
   21.315    9.4681
   21.330    8.4992
   21.345    8.7730
   21.360    8.8784
   21.375    8.8362
   21.390    8.7204
   21.405    8.7941
   21.420    8.4676
   21.435    8.8784
   21.450    9.1101
   21.465    8.8573
   21.480    8.8152
   21.495    8.8468
   21.510    9.3523
   21.525    9.0363
   21.540    8.9205
   21.555    8.8152
   21.570    8.4781
   21.585    8.9415
   21.600    8.7204
   21.615    9.1311
   21.630    9.0363
   21.645    9.0469
   21.660    8.5835
   21.675    8.8468
   21.690    8.8046
   21.705    8.6677
   21.720    8.5835
   21.735    9.0469
   21.750    8.5413
   21.765    8.6151
   21.780    9.0153
   21.795    8.9731
   21.810    9.2364
   21.825    8.9731
   21.840    8.5519
   21.855    8.8152
   21.870    9.0258
   21.885    8.8994
   21.900    9.3418
   21.915    8.9415
   21.930    8.9731
   21.945    9.0679
   21.960    8.9837
   21.975    8.6361
   21.990    8.4781
   22.005    8.4571
   22.020    8.3728
   22.035    8.3728
   22.050    8.5519
   22.065    8.7941
   22.080    8.4571
   22.095    9.2048
   22.110    8.8678
   22.125    8.4781
   22.140    8.5413
   22.155    8.6993
   22.170    8.1095
   22.185    8.3096
   22.200    8.8152
   22.215    8.5835
   22.230    8.8046
   22.245    8.2675
   22.260    8.6783
   22.275    8.6888
   22.290    8.5413
   22.305    9.2680
   22.320    9.0363
   22.335    9.0890
   22.350    8.8573
   22.365    8.4255
   22.380    8.5203
   22.395    8.7309
   22.410    9.2259
   22.425    8.9942
   22.440    8.6677
   22.455    8.3728
   22.470    8.8362
   22.485    8.9521
   22.500    9.1732
   22.515    8.8152
   22.530    8.6467
   22.545    8.6572
   22.560    8.6256
   22.575    9.0469
   22.590    8.9100
   22.605    8.4992
   22.620    8.6256
   22.635    8.4466
   22.650    8.7941
   22.665    8.7520
   22.680    8.7625
   22.695    9.0153
   22.710    8.8784
   22.725    8.6888
   22.740    8.7414
   22.755    8.4150
   22.770    8.4360
   22.785    8.6151
   22.800    8.7098
   22.815    8.7204
   22.830    8.7098
   22.845    9.0047
   22.860    8.5940
   22.875    8.7625
   22.890    8.7941
   22.905    9.0679
   22.920    9.1627
   22.935    8.8362
   22.950    8.6677
   22.965    9.0469
   22.980    8.8046
   22.995    9.0574
   23.010    9.2048
   23.025    8.6361
   23.040    9.1417
   23.055    9.3944
   23.070    9.2680
   23.085    9.4787
   23.100    9.6051
   23.115    9.0785
   23.130    9.4681
   23.145    9.3418
   23.160    9.4997
   23.175   10.1316
   23.190   10.2686
   23.205    9.5419
   23.220    9.7736
   23.235    9.1838
   23.250    9.0258
   23.265    8.6361
   23.280    9.2364
   23.295    8.9205
   23.310    8.2359
   23.325    8.6361
   23.340    9.2786
   23.355    9.3523
   23.370    9.1206
   23.385    9.1101
   23.400    8.7730
   23.415    9.0047
   23.430    9.5313
   23.445    9.0153
   23.460    8.8994
   23.475    8.5624
   23.490    8.8784
   23.505    8.8468
   23.520    8.3623
   23.535    8.6467
   23.550    8.9310
   23.565    9.1627
   23.580    8.9415
   23.595    8.6888
   23.610    8.7625
   23.625    9.0258
   23.640    9.1417
   23.655    9.0785
   23.670    8.8152
   23.685    8.8573
   23.700    8.6572
   23.715    8.8152
   23.730    8.6677
   23.745    8.3518
   23.760    8.0885
   23.775    8.2886
   23.790    8.5097
   23.805    8.5624
   23.820    8.7836
   23.835    8.4887
   23.850    8.6572
   23.865    8.6572
   23.880    8.9521
   23.895    8.7836
   23.910    8.7204
   23.925    9.0574
   23.940    8.3202
   23.955    8.2570
   23.970    8.3307
   23.985    8.3096
   24.000    8.6783
   24.015    8.9100
   24.030    9.2470
   24.045    8.0779
   24.060    8.5413
   24.075    8.8468
   24.090    8.7309
   24.105    8.2991
   24.120    8.5308
   24.135    8.9942
   24.150    8.7730
   24.165    8.3412
   24.180    8.5097
   24.195    8.3939
   24.210    8.7836
   24.225    8.6256
   24.240    8.5835
   24.255    8.7730
   24.270    8.3518
   24.285    8.8678
   24.300    8.4150
   24.315    8.7730
   24.330    8.4044
   24.345    8.5097
   24.360    8.6572
   24.375    8.5413
   24.390    8.0253
   24.405    8.2359
   24.420    8.7414
   24.435    8.4150
   24.450    8.4150
   24.465    8.7836
   24.480    8.2991
   24.495    8.6151
   24.510    8.2780
   24.525    8.6467
   24.540    8.4466
   24.555    8.4676
   24.570    8.5729
   24.585    8.9942
   24.600    8.2149
   24.615    8.4887
   24.630    8.5519
   24.645    8.4571
   24.660    8.4781
   24.675    9.0995
   24.690    8.6151
   24.705    8.5624
   24.720    8.3412
   24.735    8.7309
   24.750    8.8152
   24.765    7.9726
   24.780    8.6888
   24.795    8.6256
   24.810    8.4150
   24.825    9.0047
   24.840    8.8257
   24.855    8.3623
   24.870    8.6677
   24.885    8.3096
   24.900    8.8468
   24.915    8.4571
   24.930    8.8468
   24.945    8.6256
   24.960    8.7520
   24.975    8.7309
   24.990    8.6151
   25.005    8.7730
   25.020    9.0469
   25.035    9.2048
   25.050    9.0047
   25.065    8.9521
   25.080    8.8678
   25.095    8.9731
   25.110    9.0153
   25.125    9.4681
   25.140    9.1417
   25.155    9.2680
   25.170    9.0363
   25.185    9.1417
   25.200    9.2364
   25.215    9.1838
   25.230    9.3523
   25.245    9.2575
   25.260    9.2680
   25.275    9.3839
   25.290    9.5524
   25.305    9.6682
   25.320    9.0258
   25.335    8.7414
   25.350    8.6993
   25.365    8.9310
   25.380    9.1206
   25.395    9.1838
   25.410    8.9310
   25.425    8.3202
   25.440    8.3728
   25.455    8.8784
   25.470    8.5203
   25.485    8.9310
   25.500    8.9626
   25.515    8.9205
   25.530    8.7520
   25.545    8.4150
   25.560    8.5835
   25.575    8.5097
   25.590    8.8994
   25.605    8.5203
   25.620    8.8046
   25.635    9.0153
   25.650    8.8468
   25.665    8.9100
   25.680    8.6151
   25.695    7.8673
   25.710    8.5413
   25.725    8.6572
   25.740    8.6783
   25.755    8.4466
   25.770    8.4360
   25.785    8.5097
   25.800    8.2780
   25.815    8.4887
   25.830    8.2780
   25.845    8.2780
   25.860    8.2991
   25.875    8.4571
   25.890    8.3412
   25.905    8.0885
   25.920    8.3834
   25.935    8.3939
   25.950    8.4571
   25.965    8.2464
   25.980    7.9831
   25.995    8.2675
   26.010    8.2043
   26.025    8.1411
   26.040    8.3096
   26.055    7.8041
   26.070    8.5729
   26.085    8.3939
   26.100    8.7836
   26.115    8.8046
   26.130    8.2886
   26.145    8.0990
   26.160    8.2359
   26.175    7.9516
   26.190    8.3202
   26.205    8.2359
   26.220    8.4466
   26.235    8.1833
   26.250    8.5519
   26.265    8.5097
   26.280    8.1201
   26.295    8.2359
   26.310    8.5940
   26.325    7.7409
   26.340    8.2780
   26.355    8.4781
   26.370    8.4255
   26.385    8.3834
   26.400    8.4044
   26.415    8.2254
   26.430    8.2570
   26.445    8.3202
   26.460    8.2254
   26.475    8.4044
   26.490    8.5203
   26.505    8.3518
   26.520    7.9200
   26.535    8.1517
   26.550    8.2254
   26.565    8.2991
   26.580    8.2675
   26.595    8.2464
   26.610    8.3202
   26.625    8.3834
   26.640    8.4360
   26.655    8.3518
   26.670    8.3096
   26.685    8.5624
   26.700    8.6677
   26.715    8.7098
   26.730    8.4992
   26.745    8.7730
   26.760    8.5624
   26.775    8.4781
   26.790    9.0258
   26.805    8.4466
   26.820    8.9310
   26.835    8.9837
   26.850    8.6045
   26.865    8.3834
   26.880    8.2254
   26.895    8.0779
   26.910    8.3202
   26.925    8.3412
   26.940    8.5835
   26.955    8.4360
   26.970    8.1201
   26.985    8.5624
   27.000    8.1201
   27.015    8.1517
   27.030    7.9516
   27.045    8.1411
   27.060    8.2149
   27.075    8.0358
   27.090    8.0358
   27.105    8.2780
   27.120    8.5940
   27.135    8.4255
   27.150    8.1938
   27.165    8.4887
   27.180    8.7730
   27.195    8.2991
   27.210    8.3307
   27.225    8.2464
   27.240    8.8362
   27.255    8.4571
   27.270    8.0990
   27.285    7.5829
   27.300    7.7514
   27.315    8.0779
   27.330    8.1411
   27.345    8.4255
   27.360    8.2254
   27.375    7.7620
   27.390    7.9305
   27.405    8.0674
   27.420    8.2570
   27.435    8.0990
   27.450    8.0779
   27.465    7.7725
   27.480    7.6567
   27.495    7.8884
   27.510    8.2149
   27.525    8.7730
   27.540    8.3202
   27.555    7.9200
   27.570    7.7620
   27.585    7.9621
   27.600    8.2043
   27.615    7.9305
   27.630    7.6988
   27.645    7.9831
   27.660    8.1517
   27.675    8.3728
   27.690    8.2254
   27.705    8.0042
   27.720    7.8884
   27.735    7.9305
   27.750    8.0779
   27.765    7.8568
   27.780    7.7409
   27.795    7.7620
   27.810    7.7409
   27.825    7.6883
   27.840    7.7830
   27.855    8.1833
   27.870    8.1727
   27.885    8.2043
   27.900    8.2570
   27.915    8.5097
   27.930    7.9200
   27.945    8.3202
   27.960    8.0674
   27.975    8.2991
   27.990    9.0785
   28.005    9.7736
   28.020    9.3628
   28.035    9.2786
   28.050    9.3839
   28.065    9.5945
   28.080    9.5735
   28.095    9.2996
   28.110    9.0469
   28.125    8.8678
   28.140    8.5308
   28.155    8.3518
   28.170    8.1833
   28.185    8.0569
   28.200    7.9094
   28.215    7.8884
   28.230    8.0885
   28.245    8.3939
   28.260    7.9094
   28.275    7.6988
   28.290    8.0990
   28.305    8.3202
   28.320    8.2464
   28.335    8.0463
   28.350    7.9410
   28.365    7.9305
   28.380    7.8884
   28.395    8.0253
   28.410    7.7304
   28.425    8.4150
   28.440    8.0147
   28.455    7.6461
   28.470    8.0885
   28.485    7.9094
   28.500    8.0358
   28.515    8.1833
   28.530    8.1411
   28.545    7.6251
   28.560    7.6988
   28.575    8.0042
   28.590    7.5092
   28.605    7.6145
   28.620    7.6040
   28.635    7.6040
   28.650    8.0569
   28.665    7.7304
   28.680    7.7409
   28.695    7.9726
   28.710    7.6777
   28.725    7.9937
   28.740    7.7409
   28.755    7.3512
   28.770    7.3407
   28.785    7.4039
   28.800    7.6777
   28.815    7.5829
   28.830    7.6356
   28.845    7.3723
   28.860    7.0774
   28.875    7.8146
   28.890    7.8357
   28.905    8.0674
   28.920    8.2780
   28.935    8.5413
   28.950    8.3412
   28.965    8.7414
   28.980    9.0469
   28.995    9.1732
   29.010    8.7204
   29.025    8.8046
   29.040    9.2259
   29.055    9.2048
   29.070    8.9415
   29.085    8.6151
   29.100    8.1095
   29.115    8.2675
   29.130    7.9726
   29.145    7.7830
   29.160    7.4882
   29.175    7.4144
   29.190    7.5724
   29.205    7.5408
   29.220    7.5619
   29.235    7.6988
   29.250    7.5935
   29.265    7.5724
   29.280    7.9094
   29.295    8.0253
   29.310    7.8041
   29.325    7.6145
   29.340    7.5303
   29.355    7.7199
   29.370    7.8357
   29.385    8.0358
   29.400    8.0147
   29.415    7.9621
   29.430    7.7725
   29.445    7.7093
   29.460    7.6988
   29.475    7.8252
   29.490    8.0885
   29.505    7.8989
   29.520    7.2986
   29.535    7.9621
   29.550    7.4882
   29.565    7.6251
   29.580    7.7936
   29.595    7.5513
   29.610    7.6145
   29.625    7.7409
   29.640    7.3934
   29.655    7.6461
   29.670    7.7304
   29.685    7.6145
   29.700    7.1406
   29.715    7.3091
   29.730    7.8462
   29.745    7.6988
   29.760    7.5303
   29.775    7.5935
   29.790    7.3934
   29.805    7.3091
   29.820    7.6777
   29.835    7.7936
   29.850    7.8462
   29.865    7.6040
   29.880    7.8673
   29.895    7.3934
   29.910    7.1301
   29.925    7.3723
   29.940    7.9621
   29.955    7.6883
   29.970    7.5935
   29.985    7.1511
   30.000    7.7936
   30.015    7.7514
   30.030    7.9200
   30.045    7.6356
   30.060    7.1090
   30.075    7.3407
   30.090    7.5092
   30.105    7.3828
   30.120    7.1090
   30.135    7.3512
   30.150    7.7514
   30.165    7.6567
   30.180    7.4987
   30.195    7.7620
   30.210    7.4566
   30.225    7.3407
   30.240    7.4039
   30.255    7.6356
   30.270    7.4566
   30.285    7.9410
   30.300    7.5303
   30.315    7.2775
   30.330    7.3091
   30.345    7.5935
   30.360    7.5197
   30.375    7.7725
   30.390    7.7936
   30.405    7.4250
   30.420    7.6567
   30.435    7.4776
   30.450    7.6356
   30.465    7.3618
   30.480    7.6672
   30.495    7.4882
   30.510    7.4671
   30.525    7.8568
   30.540    7.4987
   30.555    7.4250
   30.570    7.1617
   30.585    7.5513
   30.600    7.4987
   30.615    7.6567
   30.630    7.6356
   30.645    7.6040
   30.660    7.5724
   30.675    7.6672
   30.690    7.1617
   30.705    7.4250
   30.720    7.2775
   30.735    7.4776
   30.750    7.6040
   30.765    7.6145
   30.780    7.5408
   30.795    7.4355
   30.810    7.3828
   30.825    6.9721
   30.840    7.4987
   30.855    7.4355
   30.870    7.8989
   30.885    7.9094
   30.900    7.5829
   30.915    7.9305
   30.930    7.4987
   30.945    7.8041
   30.960    7.6040
   30.975    7.3828
   30.990    7.1090
   31.005    7.3723
   31.020    7.3091
   31.035    7.4987
   31.050    7.6145
   31.065    7.5619
   31.080    7.2986
   31.095    7.2143
   31.110    7.5197
   31.125    7.4671
   31.140    7.4039
   31.155    7.3302
   31.170    7.3091
   31.185    7.0248
   31.200    7.3196
   31.215    7.5619
   31.230    7.1827
   31.245    6.9721
   31.260    7.1511
   31.275    7.1195
   31.290    7.7093
   31.305    7.2565
   31.320    7.3618
   31.335    7.4355
   31.350    7.4776
   31.365    7.3618
   31.380    7.3302
   31.395    7.3618
   31.410    7.4355
   31.425    7.3302
   31.440    7.0248
   31.455    7.0879
   31.470    7.4776
   31.485    7.2880
   31.500    7.4460
   31.515    7.5197
   31.530    7.1722
   31.545    6.9300
   31.560    6.8141
   31.575    6.9300
   31.590    7.1511
   31.605    7.2880
   31.620    7.6145
   31.635    7.5408
   31.650    7.4039
   31.665    7.1301
   31.680    7.2775
   31.695    7.0879
   31.710    7.4039
   31.725    7.2880
   31.740    7.2986
   31.755    6.8246
   31.770    7.7830
   31.785    7.6567
   31.800    7.1617
   31.815    7.4250
   31.830    7.3618
   31.845    7.5724
   31.860    7.4671
   31.875    7.5829
   31.890    7.4987
   31.905    7.5408
   31.920    7.6567
   31.935    7.6988
   31.950    7.3407
   31.965    7.5724
   31.980    7.3407
   31.995    7.6251
   32.010    7.8041
   32.025    8.2464
   32.040    8.9837
   32.055    8.4466
   32.070    9.4260
   32.085    9.3207
   32.100    9.9421
   32.115   10.2054
   32.130   10.1948
   32.145    9.8157
   32.160   10.0685
   32.175   10.1001
   32.190   10.4581
   32.205    9.4681
   32.220    8.4887
   32.235    8.3834
   32.250    8.3728
   32.265    8.2570
   32.280    7.6251
   32.295    7.6145
   32.310    7.4776
   32.325    7.2038
   32.340    7.3512
   32.355    7.2354
   32.370    7.2143
   32.385    7.3723
   32.400    7.3828
   32.415    7.6251
   32.430    7.6461
   32.445    7.6672
   32.460    7.3828
   32.475    7.7199
   32.490    8.2675
   32.505    7.5513
   32.520    6.8773
   32.535    7.4355
   32.550    7.4355
   32.565    7.5724
   32.580    7.4039
   32.595    7.4776
   32.610    7.2143
   32.625    7.1195
   32.640    6.8352
   32.655    7.4671
   32.670    7.4882
   32.685    7.0985
   32.700    6.7299
   32.715    7.1195
   32.730    7.0037
   32.745    7.6567
   32.760    7.7620
   32.775    7.4039
   32.790    7.3934
   32.805    7.2249
   32.820    7.0879
   32.835    7.4882
   32.850    7.3618
   32.865    7.1301
   32.880    7.1195
   32.895    6.9616
   32.910    7.1406
   32.925    7.0248
   32.940    7.0669
   32.955    7.1827
   32.970    6.9510
   32.985    7.1195
   33.000    7.2354
   33.015    7.2880
   33.030    6.6667
   33.045    6.4034
   33.060    6.9510
   33.075    7.2249
   33.090    7.1722
   33.105    7.2459
   33.120    7.0669
   33.135    6.8984
   33.150    6.8562
   33.165    6.6245
   33.180    6.8668
   33.195    6.8878
   33.210    7.0458
   33.225    7.2880
   33.240    7.1617
   33.255    7.1406
   33.270    7.0353
   33.285    7.2986
   33.300    7.0037
   33.315    6.8984
   33.330    6.9616
   33.345    6.8141
   33.360    7.1511
   33.375    7.3512
   33.390    6.7720
   33.405    6.7930
   33.420    7.1511
   33.435    6.7825
   33.450    6.7720
   33.465    6.9089
   33.480    7.3828
   33.495    7.4776
   33.510    7.4250
   33.525    7.1406
   33.540    6.9405
   33.555    6.6351
   33.570    6.5613
   33.585    6.9826
   33.600    7.3828
   33.615    7.0774
   33.630    6.9721
   33.645    7.2249
   33.660    7.4776
   33.675    7.0774
   33.690    7.4250
   33.705    6.8562
   33.720    7.2986
   33.735    7.1406
   33.750    7.1090
   33.765    7.4250
   33.780    7.7199
   33.795    7.8041
   33.810    8.1727
   33.825    8.1306
   33.840    8.5097
   33.855    8.9310
   33.870    8.7098
   33.885    7.6988
   33.900    7.9621
   33.915    7.9516
   33.930    8.0463
   33.945    7.8146
   33.960    7.8357
   33.975    8.0358
   33.990    7.4355
   34.005    7.0985
   34.020    7.2143
   34.035    7.2038
   34.050    7.2249
   34.065    7.6145
   34.080    7.4250
   34.095    7.3828
   34.110    7.1722
   34.125    7.2459
   34.140    7.2670
   34.155    7.0985
   34.170    7.1933
   34.185    6.4139
   34.200    7.0248
   34.215    7.0879
   34.230    6.9089
   34.245    6.7825
   34.260    7.0142
   34.275    7.0774
   34.290    6.9510
   34.305    6.8457
   34.320    6.9089
   34.335    7.0774
   34.350    6.8457
   34.365    7.2143
   34.380    7.1827
   34.395    6.8036
   34.410    7.0669
   34.425    6.7193
   34.440    6.6667
   34.455    7.0985
   34.470    6.8246
   34.485    6.8878
   34.500    6.8984
   34.515    6.5298
   34.530    6.8457
   34.545    7.0142
   34.560    6.8036
   34.575    6.7299
   34.590    7.0669
   34.605    7.1511
   34.620    6.7193
   34.635    7.0563
   34.650    7.1090
   34.665    6.6351
   34.680    7.0037
   34.695    7.0563
   34.710    6.4139
   34.725    6.8036
   34.740    7.2670
   34.755    7.1511
   34.770    6.9405
   34.785    6.9721
   34.800    6.7615
   34.815    7.0458
   34.830    6.6772
   34.845    6.7509
   34.860    6.8352
   34.875    7.0669
   34.890    6.8878
   34.905    6.6561
   34.920    6.9932
   34.935    6.9300
   34.950    6.8773
   34.965    6.8141
   34.980    6.9510
   34.995    7.0985
   35.010    7.3091
   35.025    7.1617
   35.040    6.4982
   35.055    6.8773
   35.070    7.0458
   35.085    6.8036
   35.100    6.9194
   35.115    6.6667
   35.130    6.6983
   35.145    6.9194
   35.160    6.7193
   35.175    6.6140
   35.190    6.5192
   35.205    7.1090
   35.220    6.9405
   35.235    7.0774
   35.250    7.0563
   35.265    7.0985
   35.280    7.0353
   35.295    7.5408
   35.310    6.6667
   35.325    7.0669
   35.340    7.2143
   35.355    6.9826
   35.370    6.8984
   35.385    6.9616
   35.400    7.3934
   35.415    6.7299
   35.430    6.8562
   35.445    6.7193
   35.460    6.7825
   35.475    6.6035
   35.490    6.8036
   35.505    6.4666
   35.520    7.1511
   35.535    7.0985
   35.550    7.0774
   35.565    7.2880
   35.580    6.9616
   35.595    7.0353
   35.610    7.4355
   35.625    7.1406
   35.640    6.7299
   35.655    6.8668
   35.670    6.8562
   35.685    6.9194
   35.700    7.0142
   35.715    7.0142
   35.730    6.7720
   35.745    7.0774
   35.760    7.1090
   35.775    7.0037
   35.790    7.1511
   35.805    7.0458
   35.820    6.8141
   35.835    6.6772
   35.850    7.1301
   35.865    7.0248
   35.880    7.0879
   35.895    6.6245
   35.910    6.7299
   35.925    6.6772
   35.940    7.1301
   35.955    6.8668
   35.970    7.0458
   35.985    7.0458
   36.000    6.7299
   36.015    6.6772
   36.030    7.1827
   36.045    7.1195
   36.060    6.9510
   36.075    6.8457
   36.090    6.6667
   36.105    6.4350
   36.120    6.7509
   36.135    6.8246
   36.150    6.6983
   36.165    6.9194
   36.180    6.9089
   36.195    6.9721
   36.210    6.7720
   36.225    7.3934
   36.240    6.8668
   36.255    6.8457
   36.270    6.9300
   36.285    7.0669
   36.300    7.0669
   36.315    6.8562
   36.330    6.6983
   36.345    7.1511
   36.360    7.4250
   36.375    7.3723
   36.390    6.9826
   36.405    7.0037
   36.420    6.9721
   36.435    6.8352
   36.450    6.7404
   36.465    6.6456
   36.480    6.4139
   36.495    6.6351
   36.510    6.6772
   36.525    6.9194
   36.540    6.9300
   36.555    6.7615
   36.570    6.8562
   36.585    7.0353
   36.600    6.8984
   36.615    6.6561
   36.630    6.7615
   36.645    6.7404
   36.660    6.8984
   36.675    6.7615
   36.690    6.7509
   36.705    6.7299
   36.720    7.0774
   36.735    7.2354
   36.750    6.9300
   36.765    6.9405
   36.780    6.7509
   36.795    6.9721
   36.810    6.5613
   36.825    6.5298
   36.840    6.7509
   36.855    6.6667
   36.870    6.7825
   36.885    6.9616
   36.900    7.0037
   36.915    7.2565
   36.930    7.0669
   36.945    6.9405
   36.960    6.4982
   36.975    6.4560
   36.990    6.8246
   37.005    6.9300
   37.020    6.2559
   37.035    6.9510
   37.050    7.1933
   37.065    7.0353
   37.080    6.8352
   37.095    7.0458
   37.110    6.9405
   37.125    7.1301
   37.140    6.7193
   37.155    6.7299
   37.170    6.9826
   37.185    6.6877
   37.200    6.8984
   37.215    6.8141
   37.230    6.6667
   37.245    6.7404
   37.260    6.8878
   37.275    6.8036
   37.290    6.5719
   37.305    6.5298
   37.320    6.4876
   37.335    6.5929
   37.350    6.4666
   37.365    6.6983
   37.380    6.3191
   37.395    7.0985
   37.410    6.9300
   37.425    6.6140
   37.440    7.1722
   37.455    7.2354
   37.470    6.7404
   37.485    6.4876
   37.500    6.4560
   37.515    6.6245
   37.530    6.6983
   37.545    7.2775
   37.560    6.9089
   37.575    6.8773
   37.590    6.7509
   37.605    6.5403
   37.620    6.6140
   37.635    6.9616
   37.650    6.9300
   37.665    6.8878
   37.680    6.6772
   37.695    6.6772
   37.710    6.6561
   37.725    6.7088
   37.740    6.6456
   37.755    6.8984
   37.770    6.4771
   37.785    6.2770
   37.800    6.7088
   37.815    6.7509
   37.830    6.4455
   37.845    6.8141
   37.860    6.9616
   37.875    6.6772
   37.890    6.8352
   37.905    6.6667
   37.920    6.4771
   37.935    6.8036
   37.950    6.7299
   37.965    6.9826
   37.980    6.8352
   37.995    6.7825
   38.010    6.4244
   38.025    6.6456
   38.040    6.8773
   38.055    6.7193
   38.070    6.6983
   38.085    6.5929
   38.100    6.6667
   38.115    6.4139
   38.130    6.8562
   38.145    6.6667
   38.160    6.8352
   38.175    6.7509
   38.190    6.7193
   38.205    6.8457
   38.220    6.6983
   38.235    6.6772
   38.250    6.2349
   38.265    6.5192
   38.280    6.5298
   38.295    6.6561
   38.310    6.7299
   38.325    7.0142
   38.340    6.7930
   38.355    6.5929
   38.370    7.1617
   38.385    6.9932
   38.400    7.0458
   38.415    6.8352
   38.430    6.7615
   38.445    6.6245
   38.460    6.6561
   38.475    7.2249
   38.490    7.0037
   38.505    6.9721
   38.520    7.1301
   38.535    6.8352
   38.550    7.0985
   38.565    7.1195
   38.580    6.9194
   38.595    7.3091
   38.610    7.1406
   38.625    7.3723
   38.640    7.5829
   38.655    7.6356
   38.670    7.8041
   38.685    7.4987
   38.700    7.6251
   38.715    7.1722
   38.730    7.0879
   38.745    6.6140
   38.760    6.8773
   38.775    6.7930
   38.790    6.1717
   38.805    7.0879
   38.820    7.0774
   38.835    6.8773
   38.850    6.8036
   38.865    6.5613
   38.880    6.7404
   38.895    6.8984
   38.910    6.6351
   38.925    6.7930
   38.940    6.8457
   38.955    6.7509
   38.970    7.0353
   38.985    6.8352
   39.000    6.7299
   39.015    6.5824
   39.030    6.5403
   39.045    6.6877
   39.060    6.5403
   39.075    6.7299
   39.090    6.3612
   39.105    6.2559
   39.120    6.6035
   39.135    6.5087
   39.150    6.8562
   39.165    6.5192
   39.180    6.8141
   39.195    6.8141
   39.210    7.0985
   39.225    6.5824
   39.240    6.6245
   39.255    6.6456
   39.270    6.6877
   39.285    6.6983
   39.300    6.3823
   39.315    6.9721
   39.330    6.7404
   39.345    6.9932
   39.360    6.3823
   39.375    5.7188
   39.390    6.4350
   39.405    6.8562
   39.420    6.6561
   39.435    6.5824
   39.450    6.5508
   39.465    6.2665
   39.480    6.8457
   39.495    6.7299
   39.510    6.8352
   39.525    6.8352
   39.540    6.8246
   39.555    6.5298
   39.570    6.5613
   39.585    6.8246
   39.600    6.5613
   39.615    6.7930
   39.630    6.6667
   39.645    6.4139
   39.660    6.8457
   39.675    6.4771
   39.690    6.7930
   39.705    6.8984
   39.720    6.8457
   39.735    6.8352
   39.750    6.7088
   39.765    6.6035
   39.780    6.7825
   39.795    6.7825
   39.810    6.3507
   39.825    6.8668
   39.840    6.4876
   39.855    6.7825
   39.870    6.9616
   39.885    6.6772
   39.900    6.3718
   39.915    6.5824
   39.930    6.6035
   39.945    6.1717
   39.960    6.5087
   39.975    6.5087
   39.990    6.5087
