    1.500   16.0084
    1.515   16.3665
    1.530   15.6503
    1.545   15.2817
    1.560   14.7235
    1.575   14.3444
    1.590   13.6704
    1.605   13.9337
    1.620   13.7125
    1.635   13.8915
    1.650   13.4492
    1.665   13.2596
    1.680   13.0279
    1.695   12.3644
    1.710   12.5434
    1.725   12.0906
    1.740   11.6588
    1.755   11.6798
    1.770   11.2586
    1.785   11.1322
    1.800   11.0269
    1.815   10.8268
    1.830   10.3633
    1.845   10.3107
    1.860   10.5213
    1.875   10.4055
    1.890    9.8157
    1.905   10.1001
    1.920   10.0158
    1.935    9.7736
    1.950    9.5419
    1.965    9.8157
    1.980    9.1627
    1.995    9.0258
    2.010    8.7520
    2.025    9.1522
    2.040    9.3312
    2.055    8.9415
    2.070    8.5940
    2.085    8.4992
    2.100    8.1727
    2.115    8.2254
    2.130    7.8357
    2.145    8.2780
    2.160    8.2149
    2.175    7.9831
    2.190    8.0674
    2.205    7.8357
    2.220    7.7514
    2.235    7.8146
    2.250    7.7830
    2.265    7.8778
    2.280    7.5092
    2.295    7.2670
    2.310    7.2670
    2.325    7.4355
    2.340    7.0879
    2.355    7.1511
    2.370    7.3091
    2.385    7.0985
    2.400    6.6667
    2.415    6.7615
    2.430    7.2565
    2.445    6.9721
    2.460    7.4987
    2.475    7.3828
    2.490    6.6983
    2.505    6.7299
    2.520    6.5508
    2.535    6.8141
    2.550    6.8878
    2.565    6.6245
    2.580    6.7509
    2.595    6.7404
    2.610    6.7615
    2.625    6.2875
    2.640    6.5719
    2.655    6.2665
    2.670    6.1506
    2.685    6.2559
    2.700    5.9716
    2.715    6.3191
    2.730    6.2559
    2.745    6.4244
    2.760    6.2770
    2.775    5.9716
    2.790    6.2033
    2.805    5.9926
    2.820    5.9294
    2.835    6.0664
    2.850    5.6556
    2.865    6.1190
    2.880    5.8768
    2.895    5.8347
    2.910    5.7188
    2.925    5.6240
    2.940    5.8136
    2.955    6.2454
    2.970    6.1717
    2.985    5.8557
    3.000    5.6451
    3.015    5.7083
    3.030    5.9716
    3.045    5.4871
    3.060    5.9505
    3.075    5.4871
    3.090    5.5292
    3.105    5.5714
    3.120    5.9610
    3.135    5.7820
    3.150    5.6872
    3.165    5.4239
    3.180    5.2343
    3.195    5.7083
    3.210    5.6345
    3.225    5.8031
    3.240    5.4976
    3.255    5.7925
    3.270    6.0137
    3.285    5.9716
    3.300    5.4660
    3.315    5.6767
    3.330    6.0242
    3.345    5.5292
    3.360    5.6661
    3.375    5.5082
    3.390    5.2765
    3.405    5.4028
    3.420    5.2554
    3.435    5.4660
    3.450    5.4660
    3.465    5.2659
    3.480    5.4660
    3.495    5.8347
    3.510    5.5819
    3.525    5.1711
    3.540    5.3607
    3.555    5.6977
    3.570    5.4239
    3.585    5.6135
    3.600    5.3712
    3.615    5.2449
    3.630    5.6556
    3.645    5.5503
    3.660    5.5819
    3.675    5.6661
    3.690    5.5819
    3.705    5.5187
    3.720    5.4344
    3.735    5.3081
    3.750    5.2659
    3.765    5.4239
    3.780    5.6135
    3.795    5.6556
    3.810    5.4028
    3.825    5.7504
    3.840    5.8347
    3.855    5.8452
    3.870    5.8557
    3.885    6.1506
    3.900    5.8873
    3.915    5.7925
    3.930    6.1295
    3.945    5.3291
    3.960    5.6556
    3.975    5.3818
    3.990    5.6872
    4.005    5.5819
    4.020    5.6029
    4.035    5.4871
    4.050    5.5924
    4.065    5.4239
    4.080    5.6767
    4.095    5.0132
    4.110    5.2554
    4.125    5.2238
    4.140    5.0764
    4.155    5.5398
    4.170    5.5398
    4.185    5.4239
    4.200    5.4766
    4.215    5.5082
    4.230    5.3607
    4.245    5.6556
    4.260    5.3923
    4.275    5.3291
    4.290    5.2343
    4.305    5.2343
    4.320    5.3397
    4.335    5.1922
    4.350    5.5819
    4.365    5.2765
    4.380    5.1711
    4.395    5.4660
    4.410    5.9505
    4.425    5.7820
    4.440    5.7399
    4.455    5.5082
    4.470    5.3923
    4.485    5.7609
    4.500    5.4134
    4.515    5.6240
    4.530    5.8031
    4.545    5.4871
    4.560    5.4976
    4.575    5.3186
    4.590    5.2343
    4.605    5.3502
    4.620    5.4134
    4.635    5.4555
    4.650    5.5082
    4.665    5.6872
    4.680    5.3712
    4.695    5.3607
    4.710    5.3502
    4.725    5.5082
    4.740    5.8031
    4.755    5.4450
    4.770    5.4976
    4.785    6.0453
    4.800    6.0558
    4.815    5.8347
    4.830    5.4239
    4.845    5.5082
    4.860    5.4976
    4.875    5.6556
    4.890    5.5503
    4.905    5.6240
    4.920    5.7293
    4.935    5.6240
    4.950    5.9189
    4.965    5.6767
    4.980    5.5608
    4.995    5.6661
    5.010    5.8873
    5.025    6.1190
    5.040    6.1401
    5.055    5.9821
    5.070    6.0242
    5.085    6.0453
    5.100    6.1085
    5.115    6.1822
    5.130    6.0558
    5.145    6.1506
    5.160    6.1401
    5.175    6.3402
    5.190    6.7088
    5.205    6.3928
    5.220    6.3402
    5.235    6.5403
    5.250    6.2981
    5.265    6.7193
    5.280    6.8984
    5.295    6.9510
    5.310    6.5298
    5.325    6.3507
    5.340    6.3296
    5.355    6.6772
    5.370    7.0879
    5.385    6.9721
    5.400    6.7299
    5.415    6.5508
    5.430    7.2986
    5.445    7.2459
    5.460    7.0248
    5.475    6.9194
    5.490    6.9932
    5.505    7.3091
    5.520    7.5303
    5.535    7.6461
    5.550    7.7725
    5.565    7.7514
    5.580    7.3196
    5.595    7.4144
    5.610    7.4144
    5.625    6.9616
    5.640    7.4566
    5.655    7.1511
    5.670    6.8984
    5.685    6.6456
    5.700    6.4034
    5.715    6.3718
    5.730    6.6772
    5.745    6.7193
    5.760    6.5403
    5.775    6.5824
    5.790    6.4455
    5.805    6.6245
    5.820    6.5719
    5.835    6.4666
    5.850    5.9505
    5.865    6.0874
    5.880    5.9189
    5.895    5.6872
    5.910    5.7083
    5.925    6.0874
    5.940    5.9610
    5.955    5.7188
    5.970    5.5608
    5.985    5.7504
    6.000    5.6872
    6.015    5.9505
    6.030    5.6556
    6.045    5.6556
    6.060    5.5082
    6.075    5.3818
    6.090    5.4134
    6.105    5.6240
    6.120    5.6029
    6.135    5.6345
    6.150    5.5187
    6.165    4.8236
    6.180    4.9078
    6.195    5.1185
    6.210    5.1711
    6.225    4.8973
    6.240    5.0026
    6.255    5.2343
    6.270    5.2343
    6.285    5.1922
    6.300    5.2554
    6.315    4.8657
    6.330    5.1185
    6.345    5.1817
    6.360    5.1080
    6.375    5.2554
    6.390    5.2870
    6.405    5.1185
    6.420    4.9710
    6.435    4.7920
    6.450    5.2238
    6.465    4.6551
    6.480    4.9394
    6.495    4.8552
    6.510    5.1185
    6.525    5.0658
    6.540    4.6024
    6.555    4.8763
    6.570    4.7077
    6.585    4.7077
    6.600    4.6130
    6.615    4.5603
    6.630    4.6656
    6.645    5.0869
    6.660    4.9394
    6.675    4.6972
    6.690    4.5182
    6.705    4.4760
    6.720    4.4760
    6.735    4.7499
    6.750    4.6761
    6.765    5.0869
    6.780    5.0869
    6.795    4.8131
    6.810    4.6024
    6.825    4.6656
    6.840    4.7604
    6.855    4.6445
    6.870    4.4866
    6.885    4.5076
    6.900    4.7920
    6.915    5.0026
    6.930    4.7920
    6.945    4.6867
    6.960    4.4866
    6.975    4.0864
    6.990    4.5603
    7.005    4.3918
    7.020    4.6340
    7.035    4.4760
    7.050    4.4971
    7.065    4.4655
    7.080    4.3075
    7.095    4.2127
    7.110    4.4234
    7.125    4.2654
    7.140    4.1917
    7.155    4.3391
    7.170    4.5392
    7.185    4.5182
    7.200    4.6024
    7.215    4.6340
    7.230    4.5814
    7.245    4.1706
    7.260    4.2970
    7.275    3.9810
    7.290    4.4866
    7.305    4.7604
    7.320    4.2865
    7.335    4.2443
    7.350    3.8231
    7.365    3.9073
    7.380    3.9810
    7.395    4.0758
    7.410    4.0021
    7.425    4.3286
    7.440    4.3602
    7.455    4.0969
    7.470    4.0021
    7.485    4.1390
    7.500    3.9916
    7.515    3.9705
    7.530    4.0864
    7.545    3.9073
    7.560    3.8547
    7.575    4.0337
    7.590    3.8968
    7.605    3.7599
    7.620    3.9600
    7.635    3.7493
    7.650    3.7915
    7.665    3.7915
    7.680    4.1706
    7.695    3.9916
    7.710    4.0864
    7.725    3.8125
    7.740    3.7072
    7.755    4.0653
    7.770    3.8020
    7.785    4.0021
    7.800    4.0232
    7.815    3.8863
    7.830    3.8652
    7.845    3.7809
    7.860    3.7704
    7.875    3.8231
    7.890    3.8125
    7.905    3.4334
    7.920    3.7493
    7.935    3.7177
    7.950    3.6862
    7.965    3.7809
    7.980    3.6967
    7.995    3.7915
    8.010    3.7809
    8.025    3.6230
    8.040    3.5914
    8.055    3.5387
    8.070    3.5176
    8.085    3.3702
    8.100    3.8757
    8.115    3.7915
    8.130    3.3913
    8.145    3.5282
    8.160    3.7283
    8.175    3.7072
    8.190    3.5282
    8.205    3.7704
    8.220    3.5808
    8.235    3.5176
    8.250    3.5808
    8.265    3.6756
    8.280    3.5808
    8.295    3.5282
    8.310    3.5492
    8.325    3.7072
    8.340    3.8125
    8.355    3.5703
    8.370    3.7493
    8.385    3.7283
    8.400    3.7072
    8.415    3.7283
    8.430    3.7388
    8.445    3.5914
    8.460    3.4544
    8.475    3.6756
    8.490    3.2754
    8.505    3.3386
    8.520    3.5808
    8.535    3.3702
    8.550    3.3386
    8.565    3.4966
    8.580    3.8441
    8.595    3.3807
    8.610    3.3702
    8.625    3.3281
    8.640    3.3281
    8.655    3.3070
    8.670    3.3597
    8.685    3.4229
    8.700    3.0437
    8.715    3.2017
    8.730    3.4755
    8.745    3.4229
    8.760    3.3491
    8.775    3.5492
    8.790    3.6335
    8.805    3.6862
    8.820    3.5808
    8.835    3.4966
    8.850    3.3702
    8.865    3.3386
    8.880    3.3597
    8.895    3.3913
    8.910    3.3597
    8.925    3.4439
    8.940    3.3175
    8.955    3.4860
    8.970    3.4966
    8.985    3.5703
    9.000    3.6440
    9.015    3.4439
    9.030    3.2965
    9.045    3.5387
    9.060    3.5598
    9.075    3.3702
    9.090    3.4123
    9.105    3.4650
    9.120    3.2438
    9.135    3.4018
    9.150    3.4966
    9.165    3.6651
    9.180    3.1912
    9.195    3.2965
    9.210    3.2227
    9.225    3.2227
    9.240    3.3702
    9.255    3.4650
    9.270    3.3386
    9.285    3.5914
    9.300    3.5808
    9.315    3.4755
    9.330    3.3175
    9.345    3.4650
    9.360    3.4334
    9.375    3.4018
    9.390    3.2754
    9.405    3.2333
    9.420    3.3597
    9.435    3.5914
    9.450    3.4123
    9.465    3.6440
    9.480    3.3491
    9.495    3.2333
    9.510    3.6124
    9.525    3.3491
    9.540    3.3491
    9.555    3.4439
    9.570    3.4650
    9.585    3.3281
    9.600    3.4966
    9.615    3.3070
    9.630    3.4439
    9.645    3.3913
    9.660    3.2438
    9.675    3.3913
    9.690    3.2859
    9.705    3.3491
    9.720    3.5387
    9.735    3.5703
    9.750    3.2649
    9.765    3.4966
    9.780    3.6440
    9.795    3.1701
    9.810    3.0332
    9.825    3.2227
    9.840    3.3913
    9.855    3.4544
    9.870    3.2438
    9.885    3.1701
    9.900    3.3913
    9.915    3.4334
    9.930    3.2438
    9.945    3.3597
    9.960    3.3807
    9.975    3.1174
    9.990    3.2859
   10.005    3.3281
   10.020    3.2649
   10.035    3.4755
   10.050    3.5176
   10.065    3.4123
   10.080    3.4650
   10.095    3.3702
   10.110    3.6546
   10.125    3.4018
   10.140    3.4123
   10.155    3.6335
   10.170    3.4439
   10.185    3.3491
   10.200    3.2227
   10.215    3.3807
   10.230    3.4755
   10.245    3.4229
   10.260    3.4860
   10.275    3.2543
   10.290    3.4334
   10.305    3.5176
   10.320    3.3807
   10.335    3.4544
   10.350    3.2333
   10.365    3.5282
   10.380    3.6230
   10.395    3.3913
   10.410    3.3491
   10.425    3.4966
   10.440    3.3702
   10.455    3.2438
   10.470    3.3175
   10.485    3.4018
   10.500    3.1596
   10.515    3.3913
   10.530    3.4544
   10.545    3.5492
   10.560    3.5492
   10.575    3.5387
   10.590    3.7283
   10.605    3.6019
   10.620    3.5492
   10.635    3.4650
   10.650    3.3491
   10.665    3.3175
   10.680    3.4860
   10.695    3.2649
   10.710    3.6124
   10.725    3.4650
   10.740    3.5282
   10.755    3.5282
   10.770    3.5703
   10.785    3.5071
   10.800    3.6230
   10.815    3.6756
   10.830    4.0126
   10.845    3.5598
   10.860    3.7072
   10.875    3.4966
   10.890    3.2438
   10.905    3.4229
   10.920    3.5176
   10.935    3.2754
   10.950    3.3807
   10.965    3.6230
   10.980    3.3807
   10.995    3.3702
   11.010    3.4966
   11.025    3.5598
   11.040    3.7809
   11.055    3.6335
   11.070    3.9179
   11.085    3.8863
   11.100    3.7388
   11.115    3.5914
   11.130    3.3913
   11.145    3.6019
   11.160    3.6124
   11.175    3.7915
   11.190    3.4755
   11.205    3.4650
   11.220    3.7599
   11.235    3.6967
   11.250    3.6546
   11.265    3.5914
   11.280    3.2754
   11.295    3.4650
   11.310    3.6230
   11.325    3.5703
   11.340    3.2859
   11.355    3.2438
   11.370    3.7704
   11.385    3.5282
   11.400    3.6230
   11.415    3.5914
   11.430    3.5071
   11.445    3.6651
   11.460    3.3913
   11.475    3.2122
   11.490    3.4334
   11.505    3.4334
   11.520    3.2649
   11.535    3.3491
   11.550    3.5808
   11.565    3.2543
   11.580    3.4439
   11.595    3.5914
   11.610    3.5703
   11.625    3.5282
   11.640    3.1912
   11.655    3.5071
   11.670    3.4334
   11.685    3.2649
   11.700    3.3597
   11.715    3.5598
   11.730    3.7283
   11.745    3.6019
   11.760    3.3807
   11.775    3.4650
   11.790    3.5492
   11.805    3.1490
   11.820    3.1280
   11.835    3.5387
   11.850    3.4018
   11.865    3.2965
   11.880    3.3807
   11.895    3.2859
   11.910    3.2438
   11.925    3.3491
   11.940    3.0858
   11.955    3.2122
   11.970    3.2333
   11.985    3.4544
   12.000    3.5071
   12.015    3.4334
   12.030    3.2649
   12.045    2.9489
   12.060    3.3386
   12.075    3.3702
   12.090    3.2859
   12.105    3.4544
   12.120    3.4018
   12.135    3.5598
   12.150    3.6230
   12.165    3.5282
   12.180    3.3386
   12.195    3.2649
   12.210    3.2965
   12.225    3.2438
   12.240    3.0121
   12.255    3.2017
   12.270    3.2438
   12.285    3.1806
   12.300    3.0226
   12.315    3.3597
   12.330    3.4755
   12.345    3.3913
   12.360    3.1806
   12.375    3.3175
   12.390    3.5282
   12.405    3.4755
   12.420    3.2965
   12.435    3.4544
   12.450    3.4860
   12.465    3.5176
   12.480    3.4439
   12.495    3.2333
   12.510    3.2649
   12.525    3.1069
   12.540    3.4229
   12.555    3.5282
   12.570    3.1280
   12.585    3.1596
   12.600    3.2333
   12.615    3.2543
   12.630    3.1280
   12.645    3.0964
   12.660    3.3281
   12.675    3.1385
   12.690    3.1385
   12.705    3.1701
   12.720    3.2122
   12.735    3.5176
   12.750    3.5387
   12.765    3.2859
   12.780    3.1385
   12.795    3.2333
   12.810    3.5598
   12.825    3.2859
   12.840    3.2965
   12.855    3.0648
   12.870    3.1701
   12.885    3.0964
   12.900    3.3597
   12.915    3.2017
   12.930    3.3070
   12.945    3.0121
   12.960    3.2543
   12.975    3.3070
   12.990    3.2754
   13.005    3.0332
   13.020    3.0648
   13.035    3.3281
   13.050    3.3386
   13.065    3.1174
   13.080    2.9068
   13.095    3.1174
   13.110    3.5703
   13.125    3.2333
   13.140    3.4123
   13.155    3.2333
   13.170    3.0226
   13.185    3.3386
   13.200    2.9384
   13.215    3.0753
   13.230    3.2965
   13.245    3.2438
   13.260    3.4018
   13.275    3.3597
   13.290    3.3702
   13.305    3.1806
   13.320    3.2543
   13.335    3.1912
   13.350    3.1596
   13.365    3.1912
   13.380    3.1069
   13.395    3.1490
   13.410    3.0437
   13.425    3.0858
   13.440    3.1280
   13.455    2.9805
   13.470    2.9805
   13.485    2.9173
   13.500    3.1174
   13.515    3.3070
   13.530    3.1174
   13.545    2.9910
   13.560    3.2227
   13.575    3.1912
   13.590    3.4334
   13.605    3.2649
   13.620    3.1069
   13.635    3.0753
   13.650    3.2543
   13.665    3.4123
   13.680    3.2122
   13.695    3.1280
   13.710    3.3597
   13.725    3.5071
   13.740    3.4439
   13.755    3.5387
   13.770    3.2649
   13.785    3.2122
   13.800    3.3491
   13.815    3.5387
   13.830    3.2965
   13.845    3.3913
   13.860    3.3175
   13.875    3.4439
   13.890    3.1912
   13.905    3.5176
   13.920    3.4966
   13.935    3.3281
   13.950    3.1596
   13.965    3.3175
   13.980    2.9805
   13.995    3.4860
   14.010    3.4123
   14.025    3.4650
   14.040    3.3807
   14.055    3.4544
   14.070    3.6651
   14.085    3.5914
   14.100    3.3386
   14.115    3.5598
   14.130    3.4439
   14.145    3.1596
   14.160    3.4439
   14.175    3.3386
   14.190    3.5492
   14.205    3.3175
   14.220    3.3913
   14.235    3.3175
   14.250    3.5598
   14.265    3.4650
   14.280    3.3702
   14.295    3.5598
   14.310    3.5492
   14.325    3.4229
   14.340    3.6124
   14.355    3.6862
   14.370    3.5598
   14.385    3.6124
   14.400    3.7493
   14.415    3.2227
   14.430    3.4229
   14.445    3.6967
   14.460    3.7177
   14.475    3.6440
   14.490    3.4860
   14.505    3.5387
   14.520    3.6124
   14.535    3.4860
   14.550    3.7388
   14.565    3.5282
   14.580    3.3491
   14.595    3.3281
   14.610    3.7493
   14.625    3.5598
   14.640    3.4966
   14.655    3.3597
   14.670    3.7915
   14.685    3.5703
   14.700    3.6756
   14.715    3.5492
   14.730    3.3386
   14.745    3.2227
   14.760    3.8863
   14.775    3.3070
   14.790    3.4650
   14.805    3.4018
   14.820    3.3175
   14.835    3.3491
   14.850    3.3597
   14.865    2.9384
   14.880    3.2754
   14.895    3.2227
   14.910    3.0753
   14.925    3.2017
   14.940    3.3281
   14.955    3.2649
   14.970    3.3702
   14.985    3.2543
   15.000    3.1490
   15.015    3.3702
   15.030    3.1806
   15.045    3.3597
   15.060    3.3070
   15.075    3.2122
   15.090    3.3175
   15.105    3.1385
   15.120    3.0858
   15.135    3.1806
   15.150    3.5387
   15.165    3.4544
   15.180    3.5492
   15.195    3.3281
   15.210    3.2438
   15.225    3.0542
   15.240    3.0226
   15.255    3.0226
   15.270    2.8120
   15.285    2.9805
   15.300    3.1280
   15.315    3.4018
   15.330    3.3281
   15.345    3.0858
   15.360    3.1174
   15.375    3.3807
   15.390    3.2438
   15.405    3.2754
   15.420    2.8647
   15.435    2.9595
   15.450    3.1385
   15.465    3.4123
   15.480    3.1912
   15.495    3.1806
   15.510    3.2543
   15.525    3.0542
   15.540    3.1174
   15.555    3.1912
   15.570    3.1912
   15.585    3.2017
   15.600    3.0648
   15.615    3.1069
   15.630    3.1912
   15.645    2.9384
   15.660    2.7804
   15.675    3.2438
   15.690    3.1806
   15.705    3.0437
   15.720    3.5071
   15.735    3.1174
   15.750    3.4860
   15.765    3.2965
   15.780    3.1490
   15.795    3.1701
   15.810    3.1806
   15.825    3.1701
   15.840    2.8752
   15.855    2.9068
   15.870    3.0226
   15.885    3.0964
   15.900    3.5387
   15.915    3.0542
   15.930    3.0858
   15.945    3.0332
   15.960    3.0226
   15.975    3.1280
   15.990    3.0437
   16.005    2.9489
   16.020    3.3175
   16.035    3.0964
   16.050    3.3597
   16.065    2.9489
   16.080    3.1701
   16.095    2.9173
   16.110    3.0226
   16.125    3.3281
   16.140    2.9595
   16.155    3.2122
   16.170    3.1806
   16.185    3.3281
   16.200    3.2965
   16.215    3.4229
   16.230    3.4860
   16.245    3.2965
   16.260    3.1280
   16.275    3.1490
   16.290    3.1912
   16.305    3.1596
   16.320    3.1174
   16.335    3.4018
   16.350    3.1174
   16.365    3.2017
   16.380    3.1385
   16.395    3.1385
   16.410    3.2649
   16.425    3.2227
   16.440    3.1069
   16.455    3.1069
   16.470    3.0542
   16.485    2.9279
   16.500    3.3175
   16.515    3.3597
   16.530    2.9910
   16.545    3.1174
   16.560    3.1385
   16.575    3.3175
   16.590    3.4650
   16.605    3.4018
   16.620    3.2333
   16.635    3.0648
   16.650    3.2859
   16.665    3.1490
   16.680    3.2543
   16.695    3.4123
   16.710    3.2122
   16.725    2.9910
   16.740    3.0542
   16.755    3.1069
   16.770    3.0648
   16.785    2.9805
   16.800    3.0121
   16.815    3.2859
   16.830    3.0332
   16.845    3.3491
   16.860    3.2017
   16.875    3.0648
   16.890    3.2543
   16.905    3.0226
   16.920    2.8331
   16.935    3.0753
   16.950    3.1069
   16.965    3.1701
   16.980    3.1280
   16.995    2.9910
   17.010    3.0542
   17.025    3.0648
   17.040    3.3281
   17.055    3.2649
   17.070    3.2649
   17.085    3.0753
   17.100    3.1069
   17.115    3.0964
   17.130    3.0016
   17.145    3.4334
   17.160    3.0332
   17.175    3.0226
   17.190    2.9068
   17.205    3.2649
   17.220    2.7278
   17.235    3.0753
   17.250    2.9910
   17.265    3.0332
   17.280    3.1912
   17.295    3.2017
   17.310    3.1280
   17.325    3.2649
   17.340    3.1912
   17.355    3.0648
   17.370    3.0332
   17.385    3.1280
   17.400    3.2122
   17.415    3.0858
   17.430    3.1701
   17.445    3.1280
   17.460    2.8963
   17.475    2.8647
   17.490    3.0648
   17.505    3.2122
   17.520    3.3913
   17.535    3.3070
   17.550    3.1280
   17.565    3.0332
   17.580    3.0332
   17.595    3.2754
   17.610    3.0753
   17.625    2.9910
   17.640    3.4334
   17.655    3.3597
   17.670    3.0332
   17.685    2.8647
   17.700    3.0437
   17.715    3.1385
   17.730    3.1596
   17.745    3.1280
   17.760    2.9700
   17.775    3.1385
   17.790    3.3597
   17.805    3.3070
   17.820    3.0332
   17.835    3.0648
   17.850    2.8752
   17.865    2.8120
   17.880    3.1069
   17.895    3.1174
   17.910    3.3070
   17.925    3.1701
   17.940    3.2017
   17.955    3.1174
   17.970    2.8015
   17.985    2.8120
   18.000    2.8647
   18.015    3.0964
   18.030    3.1912
   18.045    3.2227
   18.060    3.0016
   18.075    3.0121
   18.090    3.1490
   18.105    3.1806
   18.120    3.0648
   18.135    3.0016
   18.150    3.1174
   18.165    3.0858
   18.180    3.2859
   18.195    3.3070
   18.210    2.9700
   18.225    3.0753
   18.240    3.1174
   18.255    2.9910
   18.270    3.0542
   18.285    3.0437
   18.300    3.0437
   18.315    3.0858
   18.330    2.8120
   18.345    3.1490
   18.360    3.1806
   18.375    3.0753
   18.390    3.0858
   18.405    3.1596
   18.420    3.2227
   18.435    3.0542
   18.450    2.9595
   18.465    2.9805
   18.480    3.0964
   18.495    2.8857
   18.510    2.9910
   18.525    3.2122
   18.540    3.2017
   18.555    3.2333
   18.570    3.1385
   18.585    3.1280
   18.600    2.8120
   18.615    3.0226
   18.630    3.2333
   18.645    2.9384
   18.660    3.1385
   18.675    3.1490
   18.690    3.1385
   18.705    3.2017
   18.720    2.9700
   18.735    3.1701
   18.750    3.1385
   18.765    2.8225
   18.780    3.0332
   18.795    3.1385
   18.810    3.0964
   18.825    2.9173
   18.840    2.9279
   18.855    2.9910
   18.870    3.1912
   18.885    3.2649
   18.900    3.0016
   18.915    3.1701
   18.930    3.0753
   18.945    3.1069
   18.960    3.3386
   18.975    3.3702
   18.990    3.1806
   19.005    3.3702
   19.020    2.9910
   19.035    2.8015
   19.050    3.0121
   19.065    2.7804
   19.080    2.8857
   19.095    2.8752
   19.110    3.0964
   19.125    2.9595
   19.140    2.8331
   19.155    2.9279
   19.170    3.1174
   19.185    3.2333
   19.200    2.9279
   19.215    3.1806
   19.230    3.2017
   19.245    3.1806
   19.260    3.2438
   19.275    2.9700
   19.290    3.0226
   19.305    2.8963
   19.320    3.0016
   19.335    2.9384
   19.350    2.6962
   19.365    2.9068
   19.380    2.9805
   19.395    3.2438
   19.410    3.1596
   19.425    3.1385
   19.440    2.9384
   19.455    2.9595
   19.470    3.1069
   19.485    2.7488
   19.500    2.7278
   19.515    3.1069
   19.530    3.0016
   19.545    2.8225
   19.560    3.1806
   19.575    3.1490
   19.590    3.0226
   19.605    3.0648
   19.620    3.0332
   19.635    2.8857
   19.650    3.0648
   19.665    2.9595
   19.680    2.9489
   19.695    2.8752
   19.710    2.8015
   19.725    2.9805
   19.740    3.0016
   19.755    2.9173
   19.770    3.0964
   19.785    2.9068
   19.800    3.0121
   19.815    2.8015
   19.830    3.0753
   19.845    2.8331
   19.860    2.8331
   19.875    2.7278
   19.890    2.8015
   19.905    3.0753
   19.920    2.8857
   19.935    2.9910
   19.950    2.9384
   19.965    2.6751
   19.980    2.9384
   19.995    3.1174
   20.010    2.9489
   20.025    3.0332
   20.040    2.9805
   20.055    2.9173
   20.070    2.7699
   20.085    2.7909
   20.100    3.0858
   20.115    2.6962
   20.130    2.7172
   20.145    2.8120
   20.160    2.8120
   20.175    3.1069
   20.190    3.1806
   20.205    2.8120
   20.220    2.7383
   20.235    3.2333
   20.250    3.1490
   20.265    2.9384
   20.280    2.8963
   20.295    2.9700
   20.310    3.1280
   20.325    2.9384
   20.340    2.6962
   20.355    3.0226
   20.370    2.8436
   20.385    2.8331
   20.400    2.8225
   20.415    2.8857
   20.430    2.8120
   20.445    2.8015
   20.460    2.7804
   20.475    2.8225
   20.490    2.8331
   20.505    2.7488
   20.520    2.9910
   20.535    2.9700
   20.550    3.1069
   20.565    2.8647
   20.580    2.8752
   20.595    2.9700
   20.610    2.9068
   20.625    2.8857
   20.640    2.8225
   20.655    3.0016
   20.670    2.8331
   20.685    2.5171
   20.700    2.7804
   20.715    2.9595
   20.730    2.5698
   20.745    2.9279
   20.760    2.9805
   20.775    3.0016
   20.790    2.9595
   20.805    3.0226
   20.820    2.9910
   20.835    2.8647
   20.850    2.9068
   20.865    2.7804
   20.880    2.9805
   20.895    2.7383
   20.910    2.7699
   20.925    2.6751
   20.940    2.8752
   20.955    2.9279
   20.970    2.6330
   20.985    2.7699
   21.000    2.6751
   21.015    2.5592
   21.030    2.7172
   21.045    2.9910
   21.060    2.8541
   21.075    2.4645
   21.090    2.5487
   21.105    2.8225
   21.120    2.7699
   21.135    2.7278
   21.150    2.8647
   21.165    2.8541
   21.180    2.7278
   21.195    3.0437
   21.210    2.9384
   21.225    2.8541
   21.240    2.8752
   21.255    2.7488
   21.270    2.7278
   21.285    2.7593
   21.300    2.7278
   21.315    2.9173
   21.330    2.7909
   21.345    2.8331
   21.360    2.8120
   21.375    3.0226
   21.390    2.8752
   21.405    2.6435
   21.420    2.7909
   21.435    2.7699
   21.450    3.0858
   21.465    2.8857
   21.480    2.8331
   21.495    3.2017
   21.510    2.7172
   21.525    2.4961
   21.540    2.9173
   21.555    2.6856
   21.570    2.8015
   21.585    2.5066
   21.600    2.6646
   21.615    2.7278
   21.630    2.7278
   21.645    2.8541
   21.660    2.5592
   21.675    2.4434
   21.690    2.6119
   21.705    2.9489
   21.720    2.7909
   21.735    2.9700
   21.750    2.6435
   21.765    2.7804
   21.780    2.7488
   21.795    2.6224
   21.810    2.9279
   21.825    2.4645
   21.840    2.7804
   21.855    2.6435
   21.870    2.8857
   21.885    2.7383
   21.900    2.6540
   21.915    2.5487
   21.930    2.5276
   21.945    2.9595
   21.960    3.0437
   21.975    3.1596
   21.990    2.8752
   22.005    2.7804
   22.020    2.7804
   22.035    2.6646
   22.050    2.6962
   22.065    2.9068
   22.080    2.8857
   22.095    2.7699
   22.110    2.7172
   22.125    2.9068
   22.140    2.9384
   22.155    2.6330
   22.170    2.6119
   22.185    2.7488
   22.200    3.0542
   22.215    2.8436
   22.230    2.7067
   22.245    2.9068
   22.260    2.8120
   22.275    2.8857
   22.290    2.8541
   22.305    2.5382
   22.320    2.6435
   22.335    2.7909
   22.350    2.5803
   22.365    2.7488
   22.380    2.6856
   22.395    2.5698
   22.410    2.8225
   22.425    2.4855
   22.440    2.5171
   22.455    2.5382
   22.470    2.5698
   22.485    2.6856
   22.500    2.5908
   22.515    2.4750
   22.530    2.8225
   22.545    2.7278
   22.560    2.7488
   22.575    2.7804
   22.590    2.6224
   22.605    2.7909
   22.620    2.6962
   22.635    2.7488
   22.650    2.5382
   22.665    2.7172
   22.680    2.5171
   22.695    2.7699
   22.710    2.8120
   22.725    2.8857
   22.740    2.6962
   22.755    2.5698
   22.770    2.8120
   22.785    2.3697
   22.800    2.6119
   22.815    2.8752
   22.830    2.6856
   22.845    2.5908
   22.860    2.5487
   22.875    2.6540
   22.890    2.5592
   22.905    2.5803
   22.920    2.5487
   22.935    2.6856
   22.950    2.6962
   22.965    2.6751
   22.980    2.4750
   22.995    2.4961
   23.010    2.4434
   23.025    2.5592
   23.040    2.5487
   23.055    2.6224
   23.070    2.4645
   23.085    2.5382
   23.100    2.4750
   23.115    2.8331
   23.130    2.7067
   23.145    2.4329
   23.160    2.4223
   23.175    2.5803
   23.190    2.5803
   23.205    2.5276
   23.220    2.5487
   23.235    2.6224
   23.250    2.5066
   23.265    2.4329
   23.280    2.4118
   23.295    2.4329
   23.310    2.6119
   23.325    2.7804
   23.340    2.6014
   23.355    2.4961
   23.370    2.3170
   23.385    2.3802
   23.400    2.2538
   23.415    2.4645
   23.430    2.5908
   23.445    2.3381
   23.460    2.3170
   23.475    2.4855
   23.490    2.3802
   23.505    2.6540
   23.520    2.4118
   23.535    2.4329
   23.550    2.5487
   23.565    2.4013
   23.580    2.5803
   23.595    2.6014
   23.610    2.3907
   23.625    2.4329
   23.640    2.5908
   23.655    2.5698
   23.670    2.7172
   23.685    2.7909
   23.700    2.5276
   23.715    2.3381
   23.730    2.4434
   23.745    2.4750
   23.760    2.4013
   23.775    2.6014
   23.790    2.4434
   23.805    2.4329
   23.820    2.4434
   23.835    2.5698
   23.850    2.3591
   23.865    2.5276
   23.880    2.5487
   23.895    2.5592
   23.910    2.4645
   23.925    2.1485
   23.940    2.2959
   23.955    2.5487
   23.970    2.4118
   23.985    2.4961
   24.000    2.3591
   24.015    2.2538
   24.030    2.2222
   24.045    2.4539
   24.060    2.5066
   24.075    2.5592
   24.090    2.5382
   24.105    2.4961
   24.120    2.6540
   24.135    2.6646
   24.150    2.4961
   24.165    2.6224
   24.180    2.5382
   24.195    2.4645
   24.210    2.3907
   24.225    2.6014
   24.240    2.5382
   24.255    2.3486
   24.270    2.3275
   24.285    2.4645
   24.300    2.3486
   24.315    2.2433
   24.330    2.5066
   24.345    2.5276
   24.360    2.2749
   24.375    2.4750
   24.390    2.2538
   24.405    2.1801
   24.420    2.4434
   24.435    2.5276
   24.450    2.3275
   24.465    2.3486
   24.480    2.7383
   24.495    2.6646
   24.510    2.6435
   24.525    2.5487
   24.540    2.3591
   24.555    2.4329
   24.570    2.4329
   24.585    2.4750
   24.600    2.3802
   24.615    2.5276
   24.630    2.4750
   24.645    2.4434
   24.660    2.2012
   24.675    2.2643
   24.690    2.3381
   24.705    2.3591
   24.720    2.4013
   24.735    2.3697
   24.750    2.0642
   24.765    1.9800
   24.780    2.2012
   24.795    2.4118
   24.810    2.4013
   24.825    2.3486
   24.840    2.5803
   24.855    2.5487
   24.870    2.5066
   24.885    2.7383
   24.900    2.6330
   24.915    2.5382
   24.930    2.5698
   24.945    2.4118
   24.960    2.3591
   24.975    2.5171
   24.990    2.4329
   25.005    2.3907
   25.020    2.3802
   25.035    2.1169
   25.050    2.5171
   25.065    2.4434
   25.080    2.3381
   25.095    2.4539
   25.110    2.3486
   25.125    2.5487
   25.140    2.3907
   25.155    2.2854
   25.170    2.5487
   25.185    2.4539
   25.200    2.1906
   25.215    2.3591
   25.230    2.4118
   25.245    2.2538
   25.260    2.2538
   25.275    2.4961
   25.290    2.4223
   25.305    2.3065
   25.320    2.3381
   25.335    2.4539
   25.350    2.3381
   25.365    1.9484
   25.380    2.1590
   25.395    2.3486
   25.410    2.3275
   25.425    2.4013
   25.440    2.3907
   25.455    2.3065
   25.470    2.1801
   25.485    2.1801
   25.500    2.2222
   25.515    2.4539
   25.530    2.4013
   25.545    2.4329
   25.560    2.4223
   25.575    2.4539
   25.590    2.3170
   25.605    2.2012
   25.620    2.0537
   25.635    2.2222
   25.650    2.2854
   25.665    2.0958
   25.680    2.3065
   25.695    2.6856
   25.710    2.4539
   25.725    2.3907
   25.740    2.2433
   25.755    2.4118
   25.770    2.2854
   25.785    2.3381
   25.800    2.4013
   25.815    2.2012
   25.830    2.4329
   25.845    2.3275
   25.860    2.2328
   25.875    2.2959
   25.890    2.3486
   25.905    2.1906
   25.920    2.0958
   25.935    2.1906
   25.950    2.3065
   25.965    2.3802
   25.980    2.3907
   25.995    2.4118
   26.010    2.2222
   26.025    2.2854
   26.040    2.2854
   26.055    2.0642
   26.070    2.2328
   26.085    2.2749
   26.100    2.2117
   26.115    2.4750
   26.130    2.4118
   26.145    2.2222
   26.160    2.1801
   26.175    2.1906
   26.190    2.1169
   26.205    2.1380
   26.220    2.0537
   26.235    2.3697
   26.250    2.4329
   26.265    2.3065
   26.280    2.2222
   26.295    2.1801
   26.310    2.0958
   26.325    2.2854
   26.340    2.1801
   26.355    2.3381
   26.370    2.4329
   26.385    2.2433
   26.400    2.0958
   26.415    2.0432
   26.430    2.0432
   26.445    2.0748
   26.460    2.2643
   26.475    2.4013
   26.490    2.2749
   26.505    2.2749
   26.520    2.3802
   26.535    2.3170
   26.550    2.2538
   26.565    2.0011
   26.580    2.1801
   26.595    2.3170
   26.610    2.1801
   26.625    2.0537
   26.640    1.9695
   26.655    2.0432
   26.670    2.0853
   26.685    2.1485
   26.700    2.1485
   26.715    2.3381
   26.730    2.2538
   26.745    1.9695
   26.760    2.3065
   26.775    2.2117
   26.790    2.1801
   26.805    2.1274
   26.820    2.1274
   26.835    2.2538
   26.850    2.2643
   26.865    2.3275
   26.880    2.2012
   26.895    2.2117
   26.910    1.9800
   26.925    2.2117
   26.940    2.3591
   26.955    2.2222
   26.970    2.4329
   26.985    2.2749
   27.000    2.1380
   27.015    2.1801
   27.030    1.8431
   27.045    1.9905
   27.060    2.0748
   27.075    1.9063
   27.090    2.0642
   27.105    2.3697
   27.120    2.3591
   27.135    2.2854
   27.150    2.2012
   27.165    2.2117
   27.180    2.0432
   27.195    2.1696
   27.210    2.0432
   27.225    2.0432
   27.240    2.0432
   27.255    2.2328
   27.270    2.2959
   27.285    2.4329
   27.300    2.2538
   27.315    1.9063
   27.330    2.1906
   27.345    2.0537
   27.360    2.0958
   27.375    2.0326
   27.390    2.2012
   27.405    2.1485
   27.420    2.1274
   27.435    1.9273
   27.450    2.2012
   27.465    2.1274
   27.480    2.0116
   27.495    2.0748
   27.510    2.1590
   27.525    2.2328
   27.540    2.1380
   27.555    1.9800
   27.570    2.0221
   27.585    2.0011
   27.600    2.2538
   27.615    2.1064
   27.630    2.2012
   27.645    2.2117
   27.660    2.2222
   27.675    2.2222
   27.690    2.2538
   27.705    2.3275
   27.720    1.9484
   27.735    2.0642
   27.750    2.0642
   27.765    1.8431
   27.780    1.8536
   27.795    1.9800
   27.810    2.0537
   27.825    2.0011
   27.840    2.1064
   27.855    1.9484
   27.870    2.1274
   27.885    2.0537
   27.900    1.8641
   27.915    2.0958
   27.930    1.9168
   27.945    1.8641
   27.960    1.9695
   27.975    1.8957
   27.990    2.0748
   28.005    2.0642
   28.020    1.9800
   28.035    2.2433
   28.050    2.0221
   28.065    1.9905
   28.080    1.7904
   28.095    1.9695
   28.110    2.0116
   28.125    2.0853
   28.140    1.9273
   28.155    1.8641
   28.170    2.2538
   28.185    2.0011
   28.200    1.9168
   28.215    1.9695
   28.230    1.9168
   28.245    2.0642
   28.260    2.1169
   28.275    1.8536
   28.290    1.9168
   28.305    1.8957
   28.320    1.8009
   28.335    1.9484
   28.350    1.9589
   28.365    1.9800
   28.380    1.9800
   28.395    2.0537
   28.410    2.2222
   28.425    2.0537
   28.440    1.9589
   28.455    1.8325
   28.470    1.9168
   28.485    1.8009
   28.500    1.8431
   28.515    2.0011
   28.530    1.9695
   28.545    2.2222
   28.560    2.1485
   28.575    2.0326
   28.590    1.9800
   28.605    2.1906
   28.620    1.9800
   28.635    1.8536
   28.650    2.0011
   28.665    2.1064
   28.680    2.3170
   28.695    1.9168
   28.710    1.9589
   28.725    2.0326
   28.740    2.0011
   28.755    1.8431
   28.770    2.0221
   28.785    2.1485
   28.800    1.9273
   28.815    1.9273
   28.830    2.0011
   28.845    2.0853
   28.860    2.0011
   28.875    2.1064
   28.890    2.0326
   28.905    1.6851
   28.920    2.1169
   28.935    2.2328
   28.950    2.1696
   28.965    1.9379
   28.980    2.0853
   28.995    2.0116
   29.010    2.0221
   29.025    2.0642
   29.040    1.9800
   29.055    2.0326
   29.070    2.0853
   29.085    2.0432
   29.100    2.0958
   29.115    1.7904
   29.130    1.8747
   29.145    2.0642
   29.160    1.8641
   29.175    2.0748
   29.190    1.9484
   29.205    1.8641
   29.220    1.8325
   29.235    1.8747
   29.250    1.7378
   29.265    1.8641
   29.280    1.8957
   29.295    2.1485
   29.310    2.2643
   29.325    1.8220
   29.340    1.8115
   29.355    1.8115
   29.370    1.9063
   29.385    1.6640
   29.400    1.9589
   29.415    1.7588
   29.430    1.9589
   29.445    1.7272
   29.460    1.7904
   29.475    1.8957
   29.490    1.9063
   29.505    2.1485
   29.520    1.9800
   29.535    1.8747
   29.550    1.7167
   29.565    1.7799
   29.580    1.7167
   29.595    1.7694
   29.610    1.8747
   29.625    1.7062
   29.640    1.7062
   29.655    1.9905
   29.670    1.9800
   29.685    1.8957
   29.700    1.6956
   29.715    1.8957
   29.730    1.6746
   29.745    1.8431
   29.760    1.8115
   29.775    1.8115
   29.790    1.6219
   29.805    1.7062
   29.820    1.8115
   29.835    1.9063
   29.850    1.9063
   29.865    1.8220
   29.880    1.6956
   29.895    1.6324
   29.910    1.6956
   29.925    1.6430
   29.940    1.8957
   29.955    1.5587
   29.970    1.5903
   29.985    1.8957
   30.000    1.7694
   30.015    1.6956
   30.030    1.7378
   30.045    1.6114
   30.060    1.6851
   30.075    1.7483
   30.090    1.8431
   30.105    1.7272
   30.120    1.8009
   30.135    1.6746
   30.150    1.7167
   30.165    1.7272
   30.180    1.8009
   30.195    1.6219
   30.210    1.6535
   30.225    1.7378
   30.240    1.8220
   30.255    2.0853
   30.270    2.0853
   30.285    1.8957
   30.300    1.7167
   30.315    1.8115
   30.330    2.0116
   30.345    1.6008
   30.360    1.8747
   30.375    1.6746
   30.390    1.6219
   30.405    1.9273
   30.420    1.7062
   30.435    1.7694
   30.450    1.6219
   30.465    1.7483
   30.480    1.7694
   30.495    1.5271
   30.510    1.8957
   30.525    1.8431
   30.540    1.9695
   30.555    1.8641
   30.570    1.8220
   30.585    1.5587
   30.600    1.7272
   30.615    1.5587
   30.630    1.5903
   30.645    1.5903
   30.660    1.5166
   30.675    1.6219
   30.690    1.9905
   30.705    1.8009
   30.720    1.9800
   30.735    1.5692
   30.750    1.7167
   30.765    1.8115
   30.780    1.7694
   30.795    1.5903
   30.810    1.7272
   30.825    1.7272
   30.840    1.7062
   30.855    1.4850
   30.870    1.5271
   30.885    1.7062
   30.900    1.7904
   30.915    1.5482
   30.930    1.5482
   30.945    1.5903
   30.960    1.7272
   30.975    1.5798
   30.990    1.6114
   31.005    1.6430
   31.020    1.6535
   31.035    1.5903
   31.050    1.6219
   31.065    1.8747
   31.080    1.7483
   31.095    1.6430
   31.110    1.6008
   31.125    1.3902
   31.140    1.6114
   31.155    1.6324
   31.170    1.6640
   31.185    1.6851
   31.200    1.3902
   31.215    1.5271
   31.230    1.6114
   31.245    1.4955
   31.260    1.5166
   31.275    1.6324
   31.290    1.7378
   31.305    1.7167
   31.320    1.6430
   31.335    1.5903
   31.350    1.7378
   31.365    1.7483
   31.380    1.6640
   31.395    1.6219
   31.410    1.5692
   31.425    1.6324
   31.440    1.5798
   31.455    1.5903
   31.470    1.5377
   31.485    1.7483
   31.500    1.7904
   31.515    1.6324
   31.530    1.8431
   31.545    1.6640
   31.560    1.6640
   31.575    1.4534
   31.590    1.6430
   31.605    1.5798
   31.620    1.4955
   31.635    1.5798
   31.650    1.7588
   31.665    1.6851
   31.680    1.5692
   31.695    1.6535
   31.710    1.6746
   31.725    1.6746
   31.740    1.5903
   31.755    1.6114
   31.770    1.6746
   31.785    1.7272
   31.800    1.6640
   31.815    1.8431
   31.830    1.6956
   31.845    1.6219
   31.860    1.6746
   31.875    1.6219
   31.890    1.7799
   31.905    1.7062
   31.920    1.4534
   31.935    1.6008
   31.950    1.4955
   31.965    1.5798
   31.980    1.6114
   31.995    1.6008
   32.010    1.6219
   32.025    1.6535
   32.040    1.8431
   32.055    1.7904
   32.070    1.7062
   32.085    1.9273
   32.100    1.9800
   32.115    1.8852
   32.130    1.5798
   32.145    1.5482
   32.160    1.4639
   32.175    1.5587
   32.190    1.5798
   32.205    1.6008
   32.220    1.7272
   32.235    1.6008
   32.250    1.6640
   32.265    1.4639
   32.280    1.5377
   32.295    1.4639
   32.310    1.6746
   32.325    1.6114
   32.340    1.6535
   32.355    1.6851
   32.370    1.5692
   32.385    1.3060
   32.400    1.5798
   32.415    1.4639
   32.430    1.6219
   32.445    1.4639
   32.460    1.5692
   32.475    1.3060
   32.490    1.5482
   32.505    1.6324
   32.520    1.3797
   32.535    1.4007
   32.550    1.6956
   32.565    1.6746
   32.580    1.4955
   32.595    1.5271
   32.610    1.7167
   32.625    1.5587
   32.640    1.5587
   32.655    1.4955
   32.670    1.5587
   32.685    1.5271
   32.700    1.4745
   32.715    1.5166
   32.730    1.3586
   32.745    1.4745
   32.760    1.6219
   32.775    1.3270
   32.790    1.4007
   32.805    1.4113
   32.820    1.5377
   32.835    1.5482
   32.850    1.5271
   32.865    1.3375
   32.880    1.3060
   32.895    1.4218
   32.910    1.3902
   32.925    1.5166
   32.940    1.4218
   32.955    1.5061
   32.970    1.5903
   32.985    1.5061
   33.000    1.3902
   33.015    1.5377
   33.030    1.5271
   33.045    1.6851
   33.060    1.6219
   33.075    1.4007
   33.090    1.4323
   33.105    1.4639
   33.120    1.4429
   33.135    1.5166
   33.150    1.5692
   33.165    1.3375
   33.180    1.1690
   33.195    1.3691
   33.210    1.5482
   33.225    1.4429
   33.240    1.4639
   33.255    1.5271
   33.270    1.4218
   33.285    1.3481
   33.300    1.3375
   33.315    1.3165
   33.330    1.4218
   33.345    1.2217
   33.360    1.3481
   33.375    1.5061
   33.390    1.5587
   33.405    1.7483
   33.420    1.6535
   33.435    1.6324
   33.450    1.4955
   33.465    1.4534
   33.480    1.2849
   33.495    1.4639
   33.510    1.5377
   33.525    1.5166
   33.540    1.4113
   33.555    1.5166
   33.570    1.4850
   33.585    1.5798
   33.600    1.5482
   33.615    1.5166
   33.630    1.6324
   33.645    1.6114
   33.660    1.2744
   33.675    1.3060
   33.690    1.3165
   33.705    1.4323
   33.720    1.4218
   33.735    1.5061
   33.750    1.5377
   33.765    1.5482
   33.780    1.3270
   33.795    1.4323
   33.810    1.5061
   33.825    1.6535
   33.840    1.7062
   33.855    1.5166
   33.870    1.3902
   33.885    1.4007
   33.900    1.6219
   33.915    1.5166
   33.930    1.4323
   33.945    1.3165
   33.960    1.5166
   33.975    1.3481
   33.990    1.6640
   34.005    1.4429
   34.020    1.4955
   34.035    1.5166
   34.050    1.4113
   34.065    1.3691
   34.080    1.5061
   34.095    1.4007
   34.110    1.4218
   34.125    1.4323
   34.140    1.4218
   34.155    1.4639
   34.170    1.1374
   34.185    1.1585
   34.200    1.3586
   34.215    1.3060
   34.230    1.4639
   34.245    1.4113
   34.260    1.3270
   34.275    1.3691
   34.290    1.3375
   34.305    1.2744
   34.320    1.4113
   34.335    1.3902
   34.350    1.4323
   34.365    1.4639
   34.380    1.4955
   34.395    1.3165
   34.410    1.4745
   34.425    1.4639
   34.440    1.5061
   34.455    1.5377
   34.470    1.4429
   34.485    1.4007
   34.500    1.4113
   34.515    1.4323
   34.530    1.3481
   34.545    1.2533
   34.560    1.3691
   34.575    1.4429
   34.590    1.3691
   34.605    1.3375
   34.620    1.2322
   34.635    1.2638
   34.650    1.4113
   34.665    1.3270
   34.680    1.4429
   34.695    1.3481
   34.710    1.3375
   34.725    1.2849
   34.740    1.3375
   34.755    1.4113
   34.770    1.3691
   34.785    1.3375
   34.800    1.4534
   34.815    1.3165
   34.830    1.4639
   34.845    1.3270
   34.860    1.4955
   34.875    1.5061
   34.890    1.5166
   34.905    1.2638
   34.920    1.5271
   34.935    1.4850
   34.950    1.2744
   34.965    1.3481
   34.980    1.3481
   34.995    1.3586
   35.010    1.3270
   35.025    1.2744
   35.040    1.3797
   35.055    1.3375
   35.070    1.4323
   35.085    1.4113
   35.100    1.3060
   35.115    1.4007
   35.130    1.4429
   35.145    1.2744
   35.160    1.3375
   35.175    1.2638
   35.190    1.3902
   35.205    1.4007
   35.220    1.4639
   35.235    1.3060
   35.250    1.3902
   35.265    1.4745
   35.280    1.3586
   35.295    1.3902
   35.310    1.4745
   35.325    1.3691
   35.340    1.3902
   35.355    1.4955
   35.370    1.3481
   35.385    1.3902
   35.400    1.5377
   35.415    1.4955
   35.430    1.2638
   35.445    1.2006
   35.460    1.3270
   35.475    1.3797
   35.490    1.5587
   35.505    1.3481
   35.520    1.3797
   35.535    1.3902
   35.550    1.4850
   35.565    1.3691
   35.580    1.1796
   35.595    1.4534
   35.610    1.4850
   35.625    1.4007
   35.640    1.3270
   35.655    1.2954
   35.670    1.2112
   35.685    1.3902
   35.700    1.4429
   35.715    1.5482
   35.730    1.4955
   35.745    1.3691
   35.760    1.2954
   35.775    1.2006
   35.790    1.3165
   35.805    1.4429
   35.820    1.4534
   35.835    1.3060
   35.850    1.3375
   35.865    1.5903
   35.880    1.4113
   35.895    1.5061
   35.910    1.5903
   35.925    1.5482
   35.940    1.3165
   35.955    1.4218
   35.970    1.4639
   35.985    1.4534
   36.000    1.5377
   36.015    1.3270
   36.030    1.3902
   36.045    1.4955
   36.060    1.6114
   36.075    1.2428
   36.090    1.2849
   36.105    1.2849
   36.120    1.4218
   36.135    1.5798
   36.150    1.4218
   36.165    1.2849
   36.180    1.3481
   36.195    1.3481
   36.210    1.5587
   36.225    1.6746
   36.240    1.4113
   36.255    1.4955
   36.270    1.4534
   36.285    1.3586
   36.300    1.4218
   36.315    1.3375
   36.330    1.2744
   36.345    1.3691
   36.360    1.5587
   36.375    1.4323
   36.390    1.2849
   36.405    1.3165
   36.420    1.1901
   36.435    1.1901
   36.450    1.3691
   36.465    1.4639
   36.480    1.4218
   36.495    1.4850
   36.510    1.3691
   36.525    1.2744
   36.540    1.2744
   36.555    1.4534
   36.570    1.4113
   36.585    1.4113
   36.600    1.2744
   36.615    1.3691
   36.630    1.2217
   36.645    1.2849
   36.660    1.6008
   36.675    1.3691
   36.690    1.3060
   36.705    1.4639
   36.720    1.5166
   36.735    1.3060
   36.750    1.1480
   36.765    1.2006
   36.780    1.3586
   36.795    1.4113
   36.810    1.3586
   36.825    1.3165
   36.840    1.1796
   36.855    1.4429
   36.870    1.3902
   36.885    1.3270
   36.900    1.3586
   36.915    1.4850
   36.930    1.3691
   36.945    1.3270
   36.960    1.4007
   36.975    1.3586
   36.990    1.3165
   37.005    1.4113
   37.020    1.4218
   37.035    1.1585
   37.050    1.3586
   37.065    1.2217
   37.080    1.2428
   37.095    1.2533
   37.110    1.3797
   37.125    1.3481
   37.140    1.3270
   37.155    1.2849
   37.170    1.2744
   37.185    1.2428
   37.200    1.4639
   37.215    1.2428
   37.230    1.2533
   37.245    1.2112
   37.260    1.2428
   37.275    1.3165
   37.290    1.2638
   37.305    1.2322
   37.320    1.3270
   37.335    1.4113
   37.350    1.2954
   37.365    1.2006
   37.380    1.2112
   37.395    1.3270
   37.410    1.3165
   37.425    1.4850
   37.440    1.2954
   37.455    1.2954
   37.470    1.3165
   37.485    1.2217
   37.500    1.3797
   37.515    1.3165
   37.530    1.1796
   37.545    1.2217
   37.560    1.3902
   37.575    1.4955
   37.590    1.3797
   37.605    1.2849
   37.620    1.3270
   37.635    1.1901
   37.650    1.1269
   37.665    1.2744
   37.680    1.3691
   37.695    1.4745
   37.710    1.4323
   37.725    1.3270
   37.740    1.3797
   37.755    1.2849
   37.770    1.2428
   37.785    1.2954
   37.800    1.3375
   37.815    1.3902
   37.830    1.4745
   37.845    1.3902
   37.860    1.4218
   37.875    1.2744
   37.890    1.2954
   37.905    1.4850
   37.920    1.4007
   37.935    1.3481
   37.950    1.3586
   37.965    1.4745
   37.980    1.2533
   37.995    1.2533
   38.010    1.3375
   38.025    1.3902
   38.040    1.4323
   38.055    1.4113
   38.070    1.3165
   38.085    1.4323
   38.100    1.5061
   38.115    1.2638
   38.130    1.1585
   38.145    1.1901
   38.160    1.2112
   38.175    1.2112
   38.190    1.3270
   38.205    1.4007
   38.220    1.1374
   38.235    1.3481
   38.250    1.1690
   38.265    1.2428
   38.280    1.3165
   38.295    1.4007
   38.310    1.2217
   38.325    1.3060
   38.340    1.1480
   38.355    1.2954
   38.370    1.3375
   38.385    1.4113
   38.400    1.3481
   38.415    1.3375
   38.430    1.4007
   38.445    1.4323
   38.460    1.2428
   38.475    1.2428
   38.490    1.1690
   38.505    1.4218
   38.520    1.1901
   38.535    1.2849
   38.550    1.4323
   38.565    1.5061
   38.580    1.4007
   38.595    1.3270
   38.610    1.4534
   38.625    1.1690
   38.640    1.1269
   38.655    1.1480
   38.670    1.2533
   38.685    1.2638
   38.700    1.0637
   38.715    1.2112
   38.730    1.3270
   38.745    1.1901
   38.760    1.2744
   38.775    1.3481
   38.790    1.3797
   38.805    1.2006
   38.820    1.0848
   38.835    1.0427
   38.850    1.2638
   38.865    1.3375
   38.880    1.2849
   38.895    1.2217
   38.910    1.2638
   38.925    1.2006
   38.940    1.2006
   38.955    1.1585
   38.970    1.2112
   38.985    1.1901
   39.000    1.2428
   39.015    1.2638
   39.030    1.3691
   39.045    1.1901
   39.060    1.1796
   39.075    1.3060
   39.090    1.2744
   39.105    1.2954
   39.120    1.1480
   39.135    1.1058
   39.150    1.1690
   39.165    1.1480
   39.180    1.1585
   39.195    1.4113
   39.210    1.3902
   39.225    1.2112
   39.240    1.3165
   39.255    1.3165
   39.270    1.3060
   39.285    1.2849
   39.300    1.3165
   39.315    1.2638
   39.330    1.1901
   39.345    1.2006
   39.360    1.3270
   39.375    1.2849
   39.390    1.1796
   39.405    1.0321
   39.420    1.3691
   39.435    1.2112
   39.450    1.1901
   39.465    1.1269
   39.480    1.1269
   39.495    1.2006
   39.510    1.3270
   39.525    1.2217
   39.540    1.2638
   39.555    1.2744
   39.570    1.1585
   39.585    1.1690
   39.600    1.2006
   39.615    1.3586
   39.630    1.2744
   39.645    1.3270
   39.660    1.4007
   39.675    1.3797
   39.690    1.2849
   39.705    1.1269
   39.720    1.2217
   39.735    1.2112
   39.750    1.2217
   39.765    1.1901
   39.780    1.3060
   39.795    1.1374
   39.810    1.3270
   39.825    1.3375
   39.840    1.2744
   39.855    1.2533
   39.870    1.2744
   39.885    1.3691
   39.900    1.2744
   39.915    1.2744
   39.930    1.3060
   39.945    1.2744
   39.960    1.2217
   39.975    1.1690
   39.990    1.2638
