    1.500   17.6514
    1.515   17.8199
    1.530   17.4934
    1.545   17.9989
    1.560   17.4934
    1.575   17.4724
    1.590   17.5040
    1.605   16.7562
    1.620   17.1037
    1.635   16.4613
    1.650   16.3139
    1.665   15.6714
    1.680   16.0400
    1.695   15.7241
    1.710   15.3239
    1.725   15.3870
    1.740   15.2923
    1.755   15.5240
    1.770   15.4713
    1.785   14.7025
    1.800   14.7446
    1.815   14.9447
    1.830   14.8499
    1.845   14.5866
    1.860   14.3339
    1.875   14.5445
    1.890   14.3971
    1.905   13.9547
    1.920   13.6914
    1.935   13.7862
    1.950   13.3228
    1.965   13.4597
    1.980   13.8178
    1.995   13.7757
    2.010   13.5018
    2.025   13.3860
    2.040   13.2807
    2.055   13.0806
    2.070   12.8910
    2.085   13.1859
    2.100   12.6698
    2.115   13.2280
    2.130   13.1754
    2.145   13.0595
    2.160   12.8489
    2.175   12.5118
    2.190   12.0590
    2.205   12.6382
    2.220   12.1854
    2.235   11.9642
    2.250   11.7325
    2.265   12.0484
    2.280   11.9747
    2.295   12.1748
    2.310   12.1327
    2.325   11.5640
    2.340   11.7009
    2.355   11.7430
    2.370   11.2691
    2.385   10.8162
    2.400   11.7641
    2.415   11.7536
    2.430   11.6798
    2.445   11.4271
    2.460   11.2796
    2.475   11.4271
    2.490   11.1006
    2.505   11.2691
    2.520   11.2164
    2.535   11.1427
    2.550   10.8794
    2.565   11.2059
    2.580   11.0690
    2.595   11.1638
    2.610   11.3639
    2.625   11.0795
    2.640   11.5956
    2.655   11.0795
    2.670   11.1216
    2.685   10.6793
    2.700   11.3744
    2.715   11.4481
    2.730   11.1216
    2.745   10.5319
    2.760   10.5529
    2.775   11.1111
    2.790   10.7320
    2.805   11.1848
    2.820   11.3323
    2.835   11.3955
    2.850   11.4797
    2.865   10.9005
    2.880   11.4903
    2.895   10.6793
    2.910   11.5113
    2.925   11.7009
    2.940   12.1959
    2.955   11.6272
    2.970   11.5640
    2.985   11.0900
    3.000   11.0374
    3.015   11.8483
    3.030   11.5113
    3.045   11.7430
    3.060   12.1011
    3.075   11.7220
    3.090   12.4276
    3.105   12.8278
    3.120   12.5434
    3.135   12.7330
    3.150   12.9015
    3.165   13.3017
    3.180   13.0806
    3.195   13.2912
    3.210   13.7230
    3.225   13.3965
    3.240   13.6704
    3.255   13.5650
    3.270   14.5024
    3.285   14.4286
    3.300   14.3971
    3.315   14.7341
    3.330   15.4292
    3.345   15.5134
    3.360   16.1032
    3.375   16.2823
    3.390   16.6719
    3.405   16.3349
    3.420   17.1985
    3.435   17.0616
    3.450   17.1459
    3.465   17.8620
    3.480   19.0732
    3.495   19.5261
    3.510   19.6419
    3.525   20.1896
    3.540   20.1474
    3.555   21.2638
    3.570   21.0848
    3.585   21.6219
    3.600   22.6330
    3.615   24.2127
    3.630   24.9500
    3.645   26.1506
    3.660   26.9510
    3.675   28.1306
    3.690   29.5419
    3.705   31.3639
    3.720   31.9431
    3.735   34.0811
    3.750   36.4824
    3.765   39.5682
    3.780   41.2006
    3.795   45.7820
    3.810   50.6688
    3.825   56.7246
    3.840   62.1380
    3.855   67.6145
    3.870   70.5740
    3.885   70.9847
    3.900   64.2443
    3.915   52.7646
    3.930   38.5045
    3.945   24.8025
    3.960   17.3670
    3.975   13.9442
    3.990   12.4487
    4.005   10.9953
    4.020   10.7320
    4.035   10.2159
    4.050    9.5629
    4.065    9.3102
    4.080    9.3102
    4.095    8.5519
    4.110    8.6361
    4.125    8.2254
    4.140    8.2675
    4.155    8.0253
    4.170    8.2886
    4.185    8.1938
    4.200    8.2675
    4.215    7.8462
    4.230    7.7936
    4.245    8.0569
    4.260    7.6461
    4.275    7.4566
    4.290    7.6356
    4.305    7.5197
    4.320    7.1933
    4.335    7.2986
    4.350    7.8989
    4.365    7.7725
    4.380    7.2143
    4.395    7.0774
    4.410    7.3828
    4.425    7.1617
    4.440    6.9194
    4.455    7.1827
    4.470    7.2459
    4.485    6.8141
    4.500    7.0669
    4.515    7.4776
    4.530    7.2670
    4.545    7.0353
    4.560    6.8878
    4.575    6.9616
    4.590    7.3723
    4.605    7.2880
    4.620    6.9405
    4.635    7.3091
    4.650    7.3512
    4.665    7.4144
    4.680    7.4987
    4.695    7.4671
    4.710    7.4776
    4.725    7.3302
    4.740    7.0774
    4.755    7.5724
    4.770    7.5197
    4.785    7.1827
    4.800    7.4566
    4.815    7.5724
    4.830    7.8884
    4.845    7.7620
    4.860    7.5619
    4.875    7.7199
    4.890    7.1933
    4.905    7.7936
    4.920    7.8252
    4.935    7.5829
    4.950    7.7199
    4.965    7.9937
    4.980    8.0147
    4.995    8.4150
    5.010    8.0569
    5.025    8.1622
    5.040    8.0147
    5.055    8.2780
    5.070    8.6783
    5.085    8.9837
    5.100    8.9837
    5.115    9.0995
    5.130    9.2048
    5.145    9.8157
    5.160   10.0369
    5.175    9.9737
    5.190    9.3944
    5.205   10.1001
    5.220   10.4897
    5.235   10.1948
    5.250   10.8057
    5.265   11.0795
    5.280   12.0169
    5.295   12.2696
    5.310   12.3433
    5.325   13.2491
    5.340   13.3860
    5.355   13.4071
    5.370   15.0079
    5.385   16.6930
    5.400   17.2407
    5.415   17.2301
    5.430   18.9784
    5.445   21.0743
    5.460   22.7804
    5.475   24.8236
    5.490   26.5824
    5.505   26.2243
    5.520   24.7920
    5.535   21.7378
    5.550   16.5350
    5.565   12.0906
    5.580   10.1422
    5.595    8.8046
    5.610    7.8357
    5.625    7.3091
    5.640    7.3828
    5.655    7.1933
    5.670    6.6772
    5.685    6.8352
    5.700    6.7825
    5.715    6.6667
    5.730    6.5824
    5.745    6.7615
    5.760    6.6351
    5.775    6.6035
    5.790    6.8141
    5.805    6.5613
    5.820    6.6035
    5.835    6.5824
    5.850    6.2454
    5.865    6.2243
    5.880    6.3402
    5.895    6.3612
    5.910    6.3928
    5.925    6.5298
    5.940    6.3612
    5.955    6.2033
    5.970    6.2559
    5.985    6.4139
    6.000    6.3402
    6.015    6.2454
    6.030    6.3191
    6.045    6.4771
    6.060    6.5403
    6.075    6.3823
    6.090    6.5929
    6.105    6.8457
    6.120    6.4034
    6.135    6.5824
    6.150    6.5403
    6.165    6.5192
    6.180    6.5824
    6.195    6.4666
    6.210    6.1401
    6.225    6.5508
    6.240    6.5929
    6.255    6.3612
    6.270    6.5298
    6.285    6.4666
    6.300    6.7193
    6.315    6.6983
    6.330    6.6035
    6.345    6.6561
    6.360    6.6245
    6.375    6.7509
    6.390    7.0774
    6.405    6.9194
    6.420    7.2565
    6.435    7.4144
    6.450    7.0248
    6.465    6.7825
    6.480    6.5403
    6.495    7.1933
    6.510    7.3934
    6.525    7.7514
    6.540    7.3196
    6.555    7.9516
    6.570    8.0463
    6.585    8.2043
    6.600    8.4466
    6.615    8.0885
    6.630    8.2991
    6.645    8.7941
    6.660    9.3207
    6.675    9.5103
    6.690   10.3212
    6.705   10.9005
    6.720   11.7641
    6.735   12.1222
    6.750   12.0169
    6.765   12.0484
    6.780   11.1848
    6.795    9.6051
    6.810    7.8146
    6.825    6.9616
    6.840    6.6245
    6.855    6.6456
    6.870    6.4876
    6.885    6.5087
    6.900    6.4982
    6.915    6.0874
    6.930    6.3928
    6.945    6.3296
    6.960    6.2138
    6.975    6.3928
    6.990    6.7088
    7.005    6.1717
    7.020    6.2033
    7.035    6.3296
    7.050    6.1927
    7.065    6.1401
    7.080    6.0242
    7.095    6.1506
    7.110    6.6140
    7.125    6.4455
    7.140    6.2559
    7.155    6.0137
    7.170    6.2665
    7.185    6.0558
    7.200    6.4244
    7.215    6.5508
    7.230    6.1190
    7.245    6.3612
    7.260    6.2559
    7.275    6.3612
    7.290    6.5192
    7.305    6.2454
    7.320    6.3718
    7.335    6.6456
    7.350    6.0558
    7.365    6.1190
    7.380    6.0874
    7.395    6.3191
    7.410    6.7193
    7.425    6.6456
    7.440    7.0985
    7.455    6.3718
    7.470    6.6561
    7.485    6.4034
    7.500    6.3718
    7.515    6.8036
    7.530    6.6667
    7.545    6.4876
    7.560    6.7615
    7.575    7.2038
    7.590    7.0563
    7.605    6.6245
    7.620    6.9932
    7.635    7.5724
    7.650    7.4882
    7.665    7.7409
    7.680    7.4144
    7.695    7.7093
    7.710    8.4044
    7.725    8.8994
    7.740    8.5203
    7.755    9.0153
    7.770    9.9842
    7.785   10.1211
    7.800   10.5951
    7.815    9.8473
    7.830    9.7104
    7.845    9.3418
    7.860    7.9305
    7.875    7.1301
    7.890    6.6983
    7.905    6.5508
    7.920    6.2243
    7.935    6.1401
    7.950    6.4771
    7.965    6.5719
    7.980    6.5929
    7.995    6.1190
    8.010    6.3296
    8.025    6.3928
    8.040    6.3402
    8.055    6.3191
    8.070    6.2770
    8.085    6.4350
    8.100    6.1295
    8.115    6.2875
    8.130    6.5087
    8.145    6.2981
    8.160    6.0769
    8.175    6.3296
    8.190    6.3402
    8.205    6.1611
    8.220    6.8457
    8.235    6.2770
    8.250    6.0874
    8.265    6.6035
    8.280    6.2033
    8.295    6.4244
    8.310    6.3296
    8.325    5.8978
    8.340    6.3823
    8.355    6.6351
    8.370    6.4034
    8.385    5.9400
    8.400    6.2033
    8.415    6.2981
    8.430    6.2243
    8.445    6.1611
    8.460    6.3612
    8.475    6.3718
    8.490    6.4350
    8.505    6.3718
    8.520    6.6351
    8.535    6.0137
    8.550    6.3612
    8.565    6.5087
    8.580    6.3191
    8.595    6.5087
    8.610    6.7825
    8.625    6.5824
    8.640    6.2665
    8.655    6.7404
    8.670    6.5824
    8.685    6.6561
    8.700    6.8036
    8.715    6.6035
    8.730    6.9826
    8.745    6.5929
    8.760    6.6877
    8.775    6.7509
    8.790    6.2454
    8.805    6.0032
    8.820    6.3086
    8.835    6.5192
    8.850    6.3612
    8.865    6.2665
    8.880    6.4876
    8.895    6.7720
    8.910    6.3612
    8.925    6.3823
    8.940    6.2981
    8.955    6.4350
    8.970    6.3718
    8.985    6.1927
    9.000    6.4350
    9.015    6.2138
    9.030    6.5929
    9.045    6.9932
    9.060    6.2875
    9.075    6.3086
    9.090    6.4244
    9.105    6.5192
    9.120    6.4139
    9.135    6.4350
    9.150    6.5719
    9.165    6.7615
    9.180    6.4455
    9.195    6.4771
    9.210    6.8984
    9.225    6.9089
    9.240    7.0985
    9.255    7.0563
    9.270    7.2670
    9.285    7.2986
    9.300    7.4039
    9.315    7.0037
    9.330    7.4987
    9.345    7.5619
    9.360    7.8989
    9.375    7.8041
    9.390    8.1201
    9.405    8.4781
    9.420    8.8889
    9.435    8.6467
    9.450    9.0890
    9.465    9.4365
    9.480   10.2264
    9.495   10.9005
    9.510   11.9221
    9.525   12.2801
    9.540   12.7120
    9.555   13.7441
    9.570   13.7125
    9.585   13.3123
    9.600   11.5956
    9.615   10.2580
    9.630    8.9100
    9.645    8.1201
    9.660    6.9194
    9.675    6.6772
    9.690    6.6140
    9.705    6.5613
    9.720    6.2665
    9.735    6.4666
    9.750    6.3296
    9.765    6.2770
    9.780    6.6667
    9.795    6.8352
    9.810    6.3612
    9.825    6.8457
    9.840    6.5719
    9.855    6.3402
    9.870    6.4455
    9.885    6.2770
    9.900    6.4139
    9.915    6.3191
    9.930    6.2454
    9.945    6.5192
    9.960    6.4244
    9.975    6.3928
    9.990    6.7404
   10.005    6.8984
   10.020    6.6245
   10.035    6.4034
   10.050    6.4034
   10.065    6.5508
   10.080    7.0248
   10.095    6.6140
   10.110    6.6245
   10.125    6.6667
   10.140    7.4039
   10.155    7.2565
   10.170    6.9616
   10.185    7.1617
   10.200    7.0037
   10.215    7.3302
   10.230    6.8878
   10.245    7.4776
   10.260    7.8884
   10.275    7.9410
   10.290    8.0779
   10.305    9.0363
   10.320    8.8362
   10.335    8.7836
   10.350    8.5519
   10.365    8.3623
   10.380    7.4882
   10.395    6.7509
   10.410    6.9510
   10.425    6.7615
   10.440    6.4982
   10.455    6.1717
   10.470    6.1401
   10.485    6.0664
   10.500    6.2770
   10.515    6.0242
   10.530    6.1190
   10.545    6.1611
   10.560    5.9189
   10.575    6.2559
   10.590    6.5824
   10.605    6.3086
   10.620    6.3928
   10.635    6.3296
   10.650    6.1401
   10.665    6.2243
   10.680    6.5403
   10.695    5.7609
   10.710    6.0137
   10.725    6.2454
   10.740    6.4034
   10.755    6.3296
   10.770    6.4244
   10.785    6.5929
   10.800    6.6140
   10.815    6.4139
   10.830    6.5087
   10.845    6.5087
   10.860    6.3928
   10.875    6.4666
   10.890    6.3718
   10.905    7.1301
   10.920    7.1511
   10.935    6.8352
   10.950    6.6877
   10.965    7.1195
   10.980    7.5829
   10.995    7.5724
   11.010    8.3202
   11.025    8.8362
   11.040    8.9731
   11.055    8.3834
   11.070    8.5097
   11.085    7.9726
   11.100    7.4460
   11.115    7.0774
   11.130    6.2981
   11.145    6.5613
   11.160    6.2138
   11.175    6.0242
   11.190    5.9400
   11.205    5.9716
   11.220    6.0558
   11.235    6.2033
   11.250    5.8873
   11.265    5.8768
   11.280    6.3402
   11.295    6.2349
   11.310    5.9505
   11.325    6.5403
   11.340    6.0874
   11.355    6.4244
   11.370    6.5403
   11.385    6.1927
   11.400    5.7609
   11.415    5.9926
   11.430    6.1401
   11.445    5.8873
   11.460    6.2349
   11.475    6.0769
   11.490    6.3402
   11.505    6.6772
   11.520    6.2770
   11.535    6.3402
   11.550    6.4034
   11.565    6.7299
   11.580    6.6351
   11.595    6.7615
   11.610    6.9932
   11.625    7.0353
   11.640    7.1195
   11.655    7.9094
   11.670    8.0147
   11.685    8.2043
   11.700    8.2780
   11.715    8.8889
   11.730    8.6993
   11.745    8.5097
   11.760    7.9726
   11.775    7.7199
   11.790    7.1827
   11.805    6.5087
   11.820    6.4350
   11.835    6.2349
   11.850    6.3612
   11.865    6.2665
   11.880    5.9400
   11.895    5.3923
   11.910    5.6872
   11.925    5.7925
   11.940    5.8557
   11.955    5.7820
   11.970    5.7715
   11.985    5.8347
   12.000    6.0453
   12.015    5.7083
   12.030    5.7715
   12.045    5.7504
   12.060    6.2243
   12.075    5.9084
   12.090    5.7820
   12.105    5.6977
   12.120    5.5503
   12.135    5.3712
   12.150    5.3607
   12.165    5.8768
   12.180    5.6451
   12.195    5.9400
   12.210    5.8557
   12.225    5.8347
   12.240    5.8241
   12.255    5.3923
   12.270    5.6135
   12.285    5.5819
   12.300    5.8768
   12.315    6.0453
   12.330    5.8662
   12.345    5.8241
   12.360    6.0558
   12.375    5.8557
   12.390    6.2770
   12.405    6.0242
   12.420    5.7820
   12.435    5.8768
   12.450    5.5292
   12.465    5.7715
   12.480    5.8031
   12.495    5.6977
   12.510    5.6345
   12.525    5.7504
   12.540    5.4766
   12.555    5.3186
   12.570    5.3818
   12.585    5.5714
   12.600    5.6135
   12.615    5.5292
   12.630    5.7504
   12.645    5.8873
   12.660    6.0453
   12.675    5.8031
   12.690    5.7083
   12.705    5.5187
   12.720    5.4976
   12.735    5.7820
   12.750    5.7820
   12.765    5.8662
   12.780    5.9084
   12.795    5.9189
   12.810    6.0664
   12.825    6.2349
   12.840    5.7083
   12.855    5.9189
   12.870    6.3823
   12.885    6.5719
   12.900    6.4666
   12.915    6.6772
   12.930    6.9721
   12.945    6.6456
   12.960    7.5724
   12.975    7.3302
   12.990    7.6145
   13.005    6.7930
   13.020    6.3718
   13.035    6.0032
   13.050    6.0032
   13.065    6.1506
   13.080    6.1611
   13.095    5.6661
   13.110    5.5608
   13.125    5.3081
   13.140    5.5187
   13.155    5.6767
   13.170    5.3818
   13.185    5.3818
   13.200    5.5503
   13.215    5.6977
   13.230    5.5819
   13.245    5.7504
   13.260    5.6872
   13.275    5.4344
   13.290    5.6872
   13.305    5.9189
   13.320    6.2033
   13.335    5.7399
   13.350    5.9084
   13.365    5.5082
   13.380    5.5608
   13.395    5.8978
   13.410    6.0032
   13.425    5.5503
   13.440    5.2870
   13.455    5.6451
   13.470    5.8241
   13.485    5.8557
   13.500    6.1927
   13.515    6.3718
   13.530    6.1190
   13.545    6.0979
   13.560    6.0874
   13.575    5.9084
   13.590    5.8873
   13.605    6.1822
   13.620    5.5924
   13.635    5.7820
   13.650    5.6451
   13.665    5.2765
   13.680    5.4134
   13.695    5.6135
   13.710    5.6977
   13.725    5.8768
   13.740    5.4555
   13.755    5.2027
   13.770    5.5714
   13.785    5.6240
   13.800    5.2449
   13.815    5.4450
   13.830    5.7399
   13.845    5.8031
   13.860    5.5292
   13.875    5.8452
   13.890    5.8241
   13.905    5.5082
   13.920    5.7504
   13.935    5.7083
   13.950    6.0348
   13.965    5.9294
   13.980    6.2349
   13.995    6.0558
   14.010    6.0453
   14.025    6.1190
   14.040    6.1506
   14.055    6.6456
   14.070    6.7720
   14.085    6.7825
   14.100    6.7404
   14.115    6.8668
   14.130    6.1401
   14.145    6.4876
   14.160    6.2243
   14.175    6.1506
   14.190    6.0769
   14.205    5.9294
   14.220    5.9505
   14.235    5.5608
   14.250    5.2975
   14.265    5.6029
   14.280    5.2659
   14.295    5.6240
   14.310    5.2554
   14.325    5.4134
   14.340    5.4555
   14.355    5.6872
   14.370    5.4344
   14.385    5.2554
   14.400    5.2870
   14.415    5.0237
   14.430    5.4239
   14.445    5.3502
   14.460    5.4660
   14.475    5.2659
   14.490    5.4871
   14.505    5.6451
   14.520    5.4766
   14.535    5.7083
   14.550    5.1606
   14.565    5.3923
   14.580    5.5398
   14.595    5.4871
   14.610    5.7609
   14.625    5.6872
   14.640    5.4871
   14.655    5.4766
   14.670    5.5398
   14.685    5.4766
   14.700    5.4450
   14.715    5.7715
   14.730    5.4871
   14.745    5.2449
   14.760    5.5608
   14.775    5.4766
   14.790    5.4344
   14.805    5.5503
   14.820    5.4555
   14.835    5.5714
   14.850    5.5714
   14.865    5.4134
   14.880    5.6977
   14.895    5.4344
   14.910    5.7083
   14.925    5.7083
   14.940    5.7925
   14.955    5.6451
   14.970    5.4450
   14.985    5.7504
   15.000    5.5819
   15.015    5.4660
   15.030    5.4450
   15.045    5.4660
   15.060    5.4871
   15.075    5.5819
   15.090    5.3502
   15.105    5.5608
   15.120    5.6872
   15.135    6.0453
   15.150    5.7399
   15.165    5.7609
   15.180    5.6451
   15.195    5.9084
   15.210    5.8978
   15.225    5.6029
   15.240    5.1501
   15.255    5.4660
   15.270    5.4660
   15.285    5.7399
   15.300    5.4239
   15.315    5.4344
   15.330    5.7820
   15.345    5.6451
   15.360    5.7188
   15.375    5.4450
   15.390    5.2870
   15.405    5.4450
   15.420    5.1080
   15.435    5.1922
   15.450    5.7820
   15.465    5.2133
   15.480    5.6029
   15.495    5.4871
   15.510    5.3186
   15.525    5.4134
   15.540    5.2870
   15.555    5.1606
   15.570    5.3291
   15.585    5.7293
   15.600    5.4660
   15.615    5.4766
   15.630    5.5608
   15.645    5.4344
   15.660    5.4660
   15.675    5.8136
   15.690    5.5714
   15.705    5.3712
   15.720    5.4660
   15.735    5.6977
   15.750    5.2975
   15.765    5.0553
   15.780    5.2449
   15.795    5.6345
   15.810    5.7399
   15.825    5.6556
   15.840    5.6872
   15.855    5.4766
   15.870    5.4239
   15.885    5.6135
   15.900    5.8452
   15.915    5.9189
   15.930    5.4239
   15.945    5.1080
   15.960    5.5503
   15.975    5.3291
   15.990    5.2449
   16.005    5.8452
   16.020    5.1817
   16.035    5.7293
   16.050    5.8662
   16.065    5.7504
   16.080    5.6977
   16.095    5.7188
   16.110    5.8347
   16.125    5.8347
   16.140    5.5503
   16.155    5.7820
   16.170    6.0348
   16.185    5.5503
   16.200    5.7293
   16.215    5.6029
   16.230    5.6240
   16.245    5.7715
   16.260    5.6661
   16.275    5.3502
   16.290    5.3502
   16.305    5.4660
   16.320    5.3923
   16.335    5.5819
   16.350    5.7293
   16.365    5.7609
   16.380    5.5819
   16.395    5.2554
   16.410    5.5503
   16.425    5.6451
   16.440    5.4134
   16.455    5.2765
   16.470    5.6556
   16.485    5.8136
   16.500    5.5398
   16.515    5.3607
   16.530    5.8241
   16.545    5.4976
   16.560    5.6135
   16.575    5.7188
   16.590    5.6451
   16.605    5.7399
   16.620    5.7188
   16.635    5.8031
   16.650    5.7715
   16.665    5.2765
   16.680    5.6451
   16.695    5.6135
   16.710    5.0869
   16.725    5.4766
   16.740    5.3502
   16.755    5.7504
   16.770    5.6029
   16.785    5.2870
   16.800    5.3607
   16.815    5.5924
   16.830    5.3923
   16.845    5.9294
   16.860    5.6767
   16.875    5.7083
   16.890    5.7715
   16.905    5.6767
   16.920    5.6029
   16.935    5.6029
   16.950    5.4976
   16.965    5.7925
   16.980    6.1190
   16.995    5.8347
   17.010    6.0558
   17.025    6.0769
   17.040    6.8562
   17.055    6.4560
   17.070    6.6877
   17.085    6.2875
   17.100    6.6667
   17.115    6.6561
   17.130    6.3507
   17.145    5.9716
   17.160    5.8347
   17.175    5.6977
   17.190    5.3607
   17.205    5.6977
   17.220    5.3818
   17.235    5.6345
   17.250    5.2027
   17.265    5.3923
   17.280    5.2765
   17.295    5.6977
   17.310    5.7293
   17.325    5.5187
   17.340    5.5082
   17.355    5.5819
   17.370    5.8452
   17.385    5.7083
   17.400    5.6556
   17.415    5.7609
   17.430    5.5187
   17.445    5.4871
   17.460    5.8136
   17.475    5.5187
   17.490    5.5819
   17.505    5.4134
   17.520    5.8452
   17.535    5.9084
   17.550    5.6767
   17.565    5.4976
   17.580    5.3607
   17.595    5.4660
   17.610    5.6872
   17.625    5.8136
   17.640    5.4766
   17.655    5.6872
   17.670    5.5398
   17.685    5.5082
   17.700    5.4766
   17.715    5.5503
   17.730    5.1185
   17.745    5.7399
   17.760    5.7188
   17.775    5.8978
   17.790    5.6135
   17.805    5.4871
   17.820    5.6872
   17.835    5.3818
   17.850    5.6556
   17.865    6.0558
   17.880    5.3607
   17.895    5.2133
   17.910    5.4976
   17.925    5.5714
   17.940    5.6135
   17.955    5.8136
   17.970    5.5082
   17.985    5.4344
   18.000    5.6240
   18.015    5.4976
   18.030    5.6977
   18.045    5.8347
   18.060    5.6977
   18.075    5.4344
   18.090    5.5819
   18.105    5.1080
   18.120    5.6240
   18.135    5.8241
   18.150    5.3818
   18.165    5.1395
   18.180    5.5819
   18.195    5.8452
   18.210    5.6977
   18.225    5.4555
   18.240    5.6451
   18.255    5.3923
   18.270    5.3397
   18.285    5.7925
   18.300    5.9189
   18.315    5.7504
   18.330    5.4871
   18.345    5.1290
   18.360    5.6240
   18.375    5.8768
   18.390    5.7820
   18.405    5.6977
   18.420    5.9610
   18.435    5.5714
   18.450    5.7715
   18.465    5.7293
   18.480    5.5082
   18.495    5.7293
   18.510    5.7083
   18.525    5.7293
   18.540    5.7293
   18.555    5.5292
   18.570    5.2343
   18.585    5.5503
   18.600    5.7399
   18.615    5.2765
   18.630    5.2449
   18.645    5.7399
   18.660    5.5398
   18.675    5.6872
   18.690    5.9821
   18.705    5.3502
   18.720    5.5714
   18.735    6.0453
   18.750    5.9400
   18.765    6.1506
   18.780    5.9505
   18.795    5.7715
   18.810    5.9926
   18.825    5.5819
   18.840    5.5608
   18.855    5.9400
   18.870    5.6977
   18.885    5.6661
   18.900    5.5924
   18.915    5.3712
   18.930    5.6661
   18.945    5.8347
   18.960    5.8768
   18.975    5.9189
   18.990    6.0348
   19.005    5.7715
   19.020    5.8031
   19.035    5.7083
   19.050    5.6345
   19.065    5.5714
   19.080    5.4450
   19.095    5.5608
   19.110    5.5082
   19.125    5.7504
   19.140    5.8347
   19.155    5.4028
   19.170    5.3397
   19.185    5.6872
   19.200    5.6451
   19.215    5.9610
   19.230    5.8873
   19.245    5.7399
   19.260    5.7188
   19.275    5.7504
   19.290    5.5819
   19.305    5.5714
   19.320    5.7925
   19.335    6.1085
   19.350    5.8662
   19.365    5.5187
   19.380    5.3818
   19.395    5.1606
   19.410    5.6451
   19.425    5.5714
   19.440    5.4450
   19.455    5.6345
   19.470    5.7399
   19.485    5.6135
   19.500    5.7925
   19.515    5.5292
   19.530    5.6556
   19.545    5.8978
   19.560    5.6661
   19.575    5.7188
   19.590    5.8241
   19.605    6.1927
   19.620    6.1822
   19.635    6.1295
   19.650    5.8978
   19.665    5.7399
   19.680    5.7925
   19.695    5.6556
   19.710    5.6556
   19.725    5.8557
   19.740    5.7399
   19.755    5.5924
   19.770    5.5924
   19.785    5.5503
   19.800    5.2133
   19.815    5.3291
   19.830    5.5398
   19.845    5.4028
   19.860    5.6240
   19.875    5.4134
   19.890    5.4134
   19.905    5.6029
   19.920    5.3502
   19.935    5.5187
   19.950    5.8873
   19.965    5.5292
   19.980    5.6345
   19.995    5.4555
   20.010    5.5819
   20.025    5.8452
   20.040    6.0769
   20.055    5.6661
   20.070    5.4028
   20.085    5.4660
   20.100    5.4344
   20.115    5.6977
   20.130    5.4871
   20.145    5.6345
   20.160    5.7188
   20.175    5.6451
   20.190    5.8136
   20.205    5.5714
   20.220    5.5398
   20.235    6.0137
   20.250    5.9400
   20.265    5.8662
   20.280    5.6977
   20.295    5.9189
   20.310    6.0242
   20.325    5.8978
   20.340    6.0558
   20.355    6.0453
   20.370    6.2243
   20.385    6.1611
   20.400    6.6877
   20.415    6.7930
   20.430    5.9294
   20.445    6.0874
   20.460    6.2981
   20.475    5.7820
   20.490    5.7293
   20.505    6.0348
   20.520    5.6451
   20.535    5.6451
   20.550    5.6135
   20.565    5.8241
   20.580    5.6029
   20.595    5.4555
   20.610    5.4239
   20.625    5.6661
   20.640    5.7083
   20.655    5.9084
   20.670    5.8241
   20.685    5.8557
   20.700    5.8768
   20.715    5.4028
   20.730    5.4555
   20.745    5.3291
   20.760    5.2765
   20.775    5.6451
   20.790    5.4555
   20.805    5.6240
   20.820    5.7188
   20.835    5.7504
   20.850    5.4344
   20.865    5.6767
   20.880    5.6977
   20.895    5.6661
   20.910    5.4766
   20.925    5.9294
   20.940    5.6872
   20.955    5.5714
   20.970    5.5503
   20.985    5.5714
   21.000    6.1506
   21.015    5.7820
   21.030    5.7293
   21.045    5.6767
   21.060    5.6767
   21.075    5.7820
   21.090    5.8347
   21.105    5.6661
   21.120    5.7715
   21.135    5.5398
   21.150    6.0242
   21.165    6.1927
   21.180    5.7399
   21.195    5.4976
   21.210    5.6240
   21.225    5.5819
   21.240    5.5082
   21.255    5.5608
   21.270    5.7715
   21.285    5.4239
   21.300    5.5608
   21.315    5.6029
   21.330    5.6977
   21.345    5.4871
   21.360    5.2975
   21.375    5.3818
   21.390    5.4239
   21.405    5.4239
   21.420    5.7715
   21.435    5.5819
   21.450    5.7504
   21.465    5.5398
   21.480    5.7188
   21.495    5.6135
   21.510    5.9400
   21.525    5.7293
   21.540    5.6556
   21.555    5.4976
   21.570    5.6661
   21.585    5.9294
   21.600    6.0348
   21.615    5.8136
   21.630    5.7925
   21.645    5.7820
   21.660    5.6767
   21.675    5.6872
   21.690    5.3923
   21.705    5.6240
   21.720    5.5819
   21.735    5.1922
   21.750    5.7188
   21.765    5.8557
   21.780    5.3397
   21.795    5.5608
   21.810    5.7820
   21.825    5.8662
   21.840    5.9505
   21.855    5.7609
   21.870    5.6451
   21.885    5.8557
   21.900    5.9294
   21.915    6.1295
   21.930    6.2981
   21.945    6.1822
   21.960    5.8241
   21.975    5.6345
   21.990    5.7820
   22.005    5.7504
   22.020    5.6767
   22.035    5.7399
   22.050    5.7609
   22.065    5.5819
   22.080    5.3712
   22.095    5.8031
   22.110    5.6135
   22.125    5.7609
   22.140    5.7925
   22.155    5.7504
   22.170    5.7399
   22.185    5.4239
   22.200    5.5924
   22.215    5.9400
   22.230    5.9610
   22.245    6.0137
   22.260    5.7609
   22.275    5.9294
   22.290    6.0769
   22.305    6.2349
   22.320    5.8978
   22.335    5.7820
   22.350    5.5398
   22.365    5.7609
   22.380    6.0242
   22.395    5.9926
   22.410    5.8452
   22.425    5.7925
   22.440    6.0664
   22.455    5.8662
   22.470    5.9821
   22.485    6.1611
   22.500    6.2454
   22.515    6.0453
   22.530    6.3507
   22.545    6.3612
   22.560    6.5192
   22.575    6.8562
   22.590    6.1190
   22.605    6.3191
   22.620    6.2454
   22.635    6.4455
   22.650    5.9926
   22.665    5.7399
   22.680    6.2665
   22.695    5.6029
   22.710    5.4028
   22.725    5.7820
   22.740    5.6556
   22.755    5.5503
   22.770    5.6977
   22.785    6.1401
   22.800    5.8031
   22.815    5.7188
   22.830    6.0242
   22.845    6.2454
   22.860    6.3191
   22.875    6.6877
   22.890    6.7720
   22.905    6.5298
   22.920    6.0032
   22.935    6.2665
   22.950    6.5929
   22.965    6.7825
   22.980    6.4034
   22.995    6.1611
   23.010    6.1506
   23.025    6.1927
   23.040    6.1822
   23.055    5.8241
   23.070    5.7925
   23.085    5.7925
   23.100    5.7504
   23.115    5.6029
   23.130    5.2765
   23.145    5.3081
   23.160    5.6135
   23.175    5.5819
   23.190    5.6135
   23.205    5.5082
   23.220    5.8136
   23.235    5.8662
   23.250    5.8873
   23.265    6.2033
   23.280    5.4871
   23.295    5.5292
   23.310    5.7609
   23.325    5.8241
   23.340    5.5398
   23.355    5.3818
   23.370    5.7188
   23.385    5.7399
   23.400    5.5924
   23.415    5.6977
   23.430    5.4871
   23.445    5.4766
   23.460    5.5714
   23.475    5.6556
   23.490    5.8768
   23.505    5.4450
   23.520    5.6767
   23.535    5.8136
   23.550    6.2981
   23.565    5.9716
   23.580    5.9505
   23.595    5.5819
   23.610    5.7188
   23.625    5.6661
   23.640    5.5714
   23.655    5.9189
   23.670    5.9926
   23.685    5.6977
   23.700    5.6661
   23.715    5.6977
   23.730    5.5924
   23.745    5.6977
   23.760    5.7399
   23.775    5.7188
   23.790    5.9716
   23.805    5.7820
   23.820    5.7925
   23.835    5.4871
   23.850    5.4344
   23.865    5.8136
   23.880    5.7293
   23.895    5.8873
   23.910    6.1717
   23.925    5.9610
   23.940    5.6240
   23.955    5.7609
   23.970    5.9821
   23.985    6.1717
   24.000    5.2765
   24.015    5.4344
   24.030    5.8662
   24.045    5.6872
   24.060    5.9084
   24.075    5.4555
   24.090    5.1185
   24.105    5.6029
   24.120    5.2449
   24.135    5.3923
   24.150    5.6240
   24.165    5.6029
   24.180    5.7820
   24.195    5.4766
   24.210    5.4134
   24.225    5.5398
   24.240    5.6872
   24.255    5.5608
   24.270    5.3186
   24.285    5.5187
   24.300    5.5187
   24.315    5.3923
   24.330    5.4134
   24.345    5.6029
   24.360    5.7188
   24.375    5.6345
   24.390    5.5082
   24.405    5.4871
   24.420    5.6029
   24.435    5.4660
   24.450    5.7188
   24.465    5.8873
   24.480    5.3923
   24.495    5.2238
   24.510    5.2027
   24.525    5.6767
   24.540    5.5924
   24.555    5.5819
   24.570    5.5082
   24.585    5.4450
   24.600    5.7715
   24.615    5.3923
   24.630    5.7399
   24.645    5.0869
   24.660    5.1817
   24.675    5.2238
   24.690    4.9921
   24.705    5.6135
   24.720    5.4976
   24.735    5.8136
   24.750    5.4976
   24.765    5.2765
   24.780    5.1290
   24.795    5.4450
   24.810    5.5924
   24.825    5.9084
   24.840    5.6240
   24.855    5.3291
   24.870    5.8031
   24.885    5.5398
   24.900    5.4660
   24.915    5.2870
   24.930    5.5608
   24.945    5.4555
   24.960    5.4028
   24.975    5.3712
   24.990    5.4660
   25.005    5.2343
   25.020    5.3186
   25.035    5.3502
   25.050    5.4239
   25.065    5.4766
   25.080    5.4450
   25.095    5.4239
   25.110    5.3081
   25.125    5.6240
   25.140    5.4871
   25.155    5.4450
   25.170    5.5398
   25.185    5.6556
   25.200    5.4450
   25.215    5.5292
   25.230    5.7188
   25.245    5.9821
   25.260    5.4450
   25.275    5.3712
   25.290    5.2765
   25.305    5.1290
   25.320    5.4555
   25.335    5.1395
   25.350    5.3712
   25.365    5.4239
   25.380    5.2870
   25.395    5.3818
   25.410    5.5292
   25.425    5.5082
   25.440    5.5082
   25.455    5.9400
   25.470    5.7715
   25.485    5.3923
   25.500    5.6135
   25.515    5.7083
   25.530    5.6767
   25.545    5.7715
   25.560    5.3186
   25.575    5.4134
   25.590    5.2027
   25.605    5.3607
   25.620    5.6240
   25.635    5.6029
   25.650    5.5292
   25.665    5.5187
   25.680    5.6029
   25.695    5.4239
   25.710    5.5398
   25.725    5.5187
   25.740    5.7188
   25.755    5.7820
   25.770    5.9084
   25.785    5.9084
   25.800    6.2981
   25.815    5.8873
   25.830    5.9084
   25.845    5.8452
   25.860    5.6977
   25.875    5.8241
   25.890    5.9189
   25.905    5.7820
   25.920    5.7399
   25.935    5.3081
   25.950    4.9394
   25.965    5.1817
   25.980    5.3607
   25.995    5.4450
   26.010    5.5292
   26.025    5.7188
   26.040    5.4344
   26.055    5.3397
   26.070    5.1817
   26.085    5.3712
   26.100    5.5082
   26.115    5.2975
   26.130    5.0869
   26.145    5.4450
   26.160    5.4976
   26.175    5.4766
   26.190    4.9816
   26.205    5.1711
   26.220    5.6451
   26.235    5.5187
   26.250    5.0869
   26.265    4.9921
   26.280    5.2975
   26.295    5.3923
   26.310    5.2765
   26.325    5.4871
   26.340    5.4450
   26.355    5.4766
   26.370    5.5292
   26.385    5.5398
   26.400    5.4871
   26.415    5.5608
   26.430    5.4134
   26.445    5.2554
   26.460    5.4555
   26.475    5.4976
   26.490    5.4028
   26.505    5.6451
   26.520    5.7820
   26.535    5.3712
   26.550    5.4344
   26.565    5.1817
   26.580    5.3291
   26.595    5.2765
   26.610    5.1922
   26.625    4.7815
   26.640    5.2554
   26.655    4.9605
   26.670    5.2659
   26.685    5.3186
   26.700    5.4134
   26.715    5.5082
   26.730    5.3502
   26.745    5.5187
   26.760    5.3081
   26.775    5.4028
   26.790    5.2027
   26.805    5.3502
   26.820    5.2238
   26.835    5.2027
   26.850    5.0237
   26.865    5.2343
   26.880    4.9921
   26.895    5.1290
   26.910    5.4871
   26.925    5.5292
   26.940    4.9710
   26.955    5.2133
   26.970    4.9710
   26.985    5.1395
   27.000    5.7820
   27.015    5.4871
   27.030    5.4344
   27.045    5.1395
   27.060    5.1290
   27.075    5.4660
   27.090    5.3186
   27.105    5.1395
   27.120    5.2765
   27.135    5.2765
   27.150    5.0974
   27.165    4.8341
   27.180    5.1501
   27.195    5.3818
   27.210    5.0553
   27.225    4.9921
   27.240    4.9184
   27.255    5.3291
   27.270    5.3502
   27.285    5.3291
   27.300    5.0974
   27.315    4.6972
   27.330    5.2554
   27.345    4.8868
   27.360    4.8341
   27.375    4.8868
   27.390    5.0342
   27.405    5.2133
   27.420    5.2659
   27.435    5.1922
   27.450    5.1817
   27.465    5.1922
   27.480    5.0869
   27.495    5.1080
   27.510    4.9394
   27.525    5.2870
   27.540    5.3818
   27.555    5.3502
   27.570    5.0764
   27.585    5.1080
   27.600    5.3607
   27.615    4.9394
   27.630    5.3502
   27.645    5.5187
   27.660    5.2238
   27.675    5.1290
   27.690    5.0658
   27.705    5.1080
   27.720    5.0553
   27.735    5.0974
   27.750    4.9394
   27.765    4.8868
   27.780    5.1290
   27.795    4.9394
   27.810    5.2133
   27.825    4.9184
   27.840    5.0448
   27.855    5.1080
   27.870    5.2343
   27.885    5.2027
   27.900    5.6872
   27.915    5.4450
   27.930    5.0132
   27.945    5.0448
   27.960    5.1501
   27.975    5.3291
   27.990    5.4028
   28.005    5.3607
   28.020    5.3081
   28.035    5.1290
   28.050    5.1817
   28.065    5.2343
   28.080    5.0553
   28.095    4.9710
   28.110    5.0869
   28.125    5.1290
   28.140    5.1395
   28.155    5.3818
   28.170    5.2765
   28.185    5.4344
   28.200    4.9500
   28.215    5.2343
   28.230    5.2133
   28.245    5.2870
   28.260    5.2659
   28.275    4.9394
   28.290    5.0026
   28.305    5.3923
   28.320    5.0237
   28.335    4.7077
   28.350    5.1606
   28.365    5.0764
   28.380    5.0237
   28.395    5.0869
   28.410    5.5608
   28.425    5.0553
   28.440    5.2238
   28.455    5.0132
   28.470    5.4239
   28.485    5.5503
   28.500    4.9816
   28.515    5.2765
   28.530    5.6029
   28.545    5.1817
   28.560    4.9710
   28.575    4.9078
   28.590    4.7077
   28.605    4.8973
   28.620    4.9184
   28.635    5.0764
   28.650    4.9184
   28.665    5.0974
   28.680    4.9394
   28.695    5.2133
   28.710    4.7604
   28.725    4.6445
   28.740    4.9921
   28.755    4.9605
   28.770    4.7920
   28.785    4.8131
   28.800    4.7183
   28.815    4.7604
   28.830    5.0237
   28.845    4.7815
   28.860    5.0342
   28.875    4.8657
   28.890    4.8341
   28.905    4.8868
   28.920    5.0869
   28.935    5.3502
   28.950    4.9710
   28.965    5.5398
   28.980    5.3502
   28.995    5.0974
   29.010    5.0658
   29.025    4.8868
   29.040    5.2765
   29.055    5.0553
   29.070    5.2343
   29.085    5.1080
   29.100    4.9500
   29.115    4.7709
   29.130    5.2765
   29.145    5.0237
   29.160    5.2765
   29.175    5.2765
   29.190    4.4550
   29.205    4.8552
   29.220    4.8025
   29.235    5.2343
   29.250    5.0658
   29.265    5.1290
   29.280    5.0026
   29.295    5.0553
   29.310    4.8657
   29.325    4.7815
   29.340    5.2238
   29.355    5.0553
   29.370    4.7604
   29.385    4.7077
   29.400    4.7604
   29.415    4.9289
   29.430    4.5603
   29.445    4.7815
   29.460    5.0553
   29.475    4.6656
   29.490    5.0026
   29.505    4.6130
   29.520    4.8552
   29.535    5.1080
   29.550    4.9605
   29.565    5.0658
   29.580    5.0658
   29.595    4.5708
   29.610    5.0132
   29.625    4.8657
   29.640    4.6551
   29.655    4.5603
   29.670    5.0974
   29.685    4.7288
   29.700    4.8341
   29.715    4.6656
   29.730    5.0553
   29.745    5.0132
   29.760    4.9184
   29.775    4.7920
   29.790    4.9078
   29.805    5.0974
   29.820    4.7077
   29.835    4.8131
   29.850    4.7288
   29.865    4.8236
   29.880    4.9921
   29.895    5.0237
   29.910    4.6445
   29.925    4.5708
   29.940    4.7499
   29.955    4.7183
   29.970    4.6867
   29.985    4.9289
   30.000    5.1290
   30.015    5.2554
   30.030    4.8763
   30.045    4.6551
   30.060    4.7288
   30.075    4.6761
   30.090    4.6130
   30.105    4.8973
   30.120    4.9184
   30.135    4.8447
   30.150    4.6340
   30.165    5.0448
   30.180    5.2238
   30.195    4.7499
   30.210    4.6024
   30.225    4.6972
   30.240    4.4339
   30.255    4.7604
   30.270    4.6551
   30.285    4.7393
   30.300    5.0869
   30.315    4.9710
   30.330    4.9710
   30.345    5.1606
   30.360    4.8025
   30.375    4.7604
   30.390    4.8657
   30.405    4.7499
   30.420    4.8447
   30.435    4.9816
   30.450    5.0869
   30.465    4.8973
   30.480    4.7815
   30.495    4.9710
   30.510    4.7709
   30.525    4.6656
   30.540    4.5708
   30.555    4.7499
   30.570    4.9921
   30.585    4.7815
   30.600    4.7288
   30.615    4.9710
   30.630    4.8131
   30.645    5.1711
   30.660    4.8025
   30.675    4.5919
   30.690    4.7815
   30.705    4.8447
   30.720    4.6761
   30.735    4.6867
   30.750    4.5287
   30.765    4.7077
   30.780    4.6761
   30.795    4.6235
   30.810    4.6867
   30.825    4.7709
   30.840    4.8131
   30.855    5.0342
   30.870    4.7920
   30.885    4.8447
   30.900    4.7288
   30.915    4.7604
   30.930    4.6761
   30.945    4.4655
   30.960    4.6972
   30.975    4.8236
   30.990    4.9816
   31.005    4.4550
   31.020    4.5708
   31.035    4.6867
   31.050    4.7499
   31.065    5.1290
   31.080    4.4971
   31.095    4.5182
   31.110    4.3391
   31.125    4.4550
   31.140    4.4444
   31.155    4.8025
   31.170    4.4866
   31.185    4.5919
   31.200    4.5603
   31.215    4.7288
   31.230    5.0658
   31.245    4.9921
   31.260    4.5498
   31.275    4.7499
   31.290    4.8447
   31.305    4.7815
   31.320    4.2127
   31.335    4.4128
   31.350    4.7393
   31.365    4.9184
   31.380    4.3813
   31.395    4.4339
   31.410    4.2865
   31.425    4.9605
   31.440    5.1711
   31.455    4.5182
   31.470    4.6972
   31.485    4.7288
   31.500    4.7815
   31.515    4.6340
   31.530    4.6130
   31.545    4.3391
   31.560    4.4128
   31.575    4.3497
   31.590    4.7288
   31.605    4.4760
   31.620    4.4550
   31.635    4.4339
   31.650    4.6867
   31.665    4.6761
   31.680    4.5498
   31.695    4.7393
   31.710    4.8131
   31.725    4.8131
   31.740    4.6235
   31.755    4.8341
   31.770    5.0026
   31.785    5.2027
   31.800    5.3607
   31.815    5.0448
   31.830    5.4134
   31.845    4.7604
   31.860    4.6340
   31.875    4.9605
   31.890    4.6024
   31.905    4.6130
   31.920    4.8973
   31.935    4.7815
   31.950    4.7709
   31.965    4.8341
   31.980    4.8868
   31.995    4.6656
   32.010    4.9184
   32.025    5.2870
   32.040    5.2870
   32.055    5.0869
   32.070    4.9289
   32.085    4.8447
   32.100    5.3186
   32.115    5.2238
   32.130    4.9289
   32.145    4.7499
   32.160    4.6551
   32.175    4.5392
   32.190    4.8973
   32.205    4.5498
   32.220    4.3602
   32.235    4.6656
   32.250    4.4866
   32.265    4.1285
   32.280    4.4866
   32.295    4.3918
   32.310    4.6340
   32.325    4.4655
   32.340    4.3075
   32.355    4.4971
   32.370    4.6445
   32.385    4.0969
   32.400    4.4655
   32.415    4.3707
   32.430    4.5076
   32.445    4.4971
   32.460    4.5076
   32.475    4.4023
   32.490    4.6445
   32.505    4.5814
   32.520    4.6972
   32.535    4.8657
   32.550    4.4550
   32.565    4.4550
   32.580    4.7288
   32.595    4.4234
   32.610    4.5182
   32.625    4.3286
   32.640    4.4971
   32.655    4.3707
   32.670    4.5287
   32.685    4.2865
   32.700    4.2865
   32.715    4.3602
   32.730    4.1811
   32.745    4.5182
   32.760    4.3181
   32.775    4.3181
   32.790    4.5182
   32.805    4.4866
   32.820    4.3391
   32.835    4.0653
   32.850    4.3602
   32.865    4.6867
   32.880    4.6130
   32.895    4.4444
   32.910    4.4550
   32.925    4.4550
   32.940    4.4023
   32.955    4.4866
   32.970    4.1706
   32.985    4.3391
   33.000    4.5182
   33.015    4.5814
   33.030    4.4444
   33.045    4.5287
   33.060    4.2233
   33.075    4.4760
   33.090    4.1180
   33.105    4.2970
   33.120    4.5182
   33.135    4.3707
   33.150    4.3813
   33.165    4.5919
   33.180    4.3813
   33.195    4.2970
   33.210    4.4971
   33.225    4.2759
   33.240    4.4023
   33.255    4.1917
   33.270    4.2970
   33.285    4.3602
   33.300    4.6235
   33.315    4.3918
   33.330    4.3813
   33.345    4.3707
   33.360    4.3391
   33.375    4.2127
   33.390    4.2233
   33.405    4.2233
   33.420    4.3181
   33.435    4.3286
   33.450    4.2654
   33.465    4.5182
   33.480    4.1601
   33.495    4.4128
   33.510    4.5814
   33.525    4.1285
   33.540    4.3075
   33.555    4.2759
   33.570    4.0232
   33.585    4.1496
   33.600    4.4655
   33.615    4.3391
   33.630    4.5392
   33.645    4.4971
   33.660    4.3707
   33.675    4.3181
   33.690    4.0337
   33.705    4.2233
   33.720    4.5182
   33.735    4.7604
   33.750    4.7709
   33.765    4.2233
   33.780    4.5603
   33.795    4.7604
   33.810    4.8657
   33.825    4.9710
   33.840    4.4866
   33.855    4.8236
   33.870    4.7499
   33.885    4.9078
   33.900    5.1290
   33.915    4.7288
   33.930    4.4866
   33.945    4.4128
   33.960    4.2759
   33.975    4.5287
   33.990    4.4128
   34.005    4.1811
   34.020    4.1390
   34.035    4.5708
   34.050    4.5287
   34.065    4.3707
   34.080    4.3813
   34.095    4.2443
   34.110    3.9284
   34.125    4.1811
   34.140    4.3918
   34.155    4.3286
   34.170    4.0758
   34.185    4.4339
   34.200    4.1180
   34.215    4.0126
   34.230    4.2338
   34.245    4.3075
   34.260    4.2127
   34.275    3.9389
   34.290    4.1601
   34.305    4.3918
   34.320    4.4128
   34.335    4.2233
   34.350    4.1285
   34.365    4.1390
   34.380    4.1601
   34.395    4.1917
   34.410    4.1180
   34.425    4.1180
   34.440    4.2022
   34.455    4.2865
   34.470    4.3075
   34.485    4.3602
   34.500    3.9916
   34.515    4.0864
   34.530    4.0126
   34.545    4.0021
   34.560    4.2654
   34.575    3.7809
   34.590    3.9705
   34.605    4.1917
   34.620    4.0442
   34.635    4.2127
   34.650    4.3918
   34.665    4.2443
   34.680    4.0864
   34.695    4.0021
   34.710    4.2443
   34.725    4.3707
   34.740    3.9916
   34.755    4.1285
   34.770    4.1706
   34.785    4.0653
   34.800    4.1074
   34.815    3.9494
   34.830    4.2338
   34.845    4.4128
   34.860    3.9284
   34.875    4.2549
   34.890    4.1601
   34.905    4.2022
   34.920    4.1601
   34.935    4.2549
   34.950    4.1180
   34.965    4.0969
   34.980    4.3813
   34.995    4.2970
   35.010    4.1285
   35.025    4.0864
   35.040    4.2338
   35.055    4.1706
   35.070    4.2127
   35.085    4.2338
   35.100    3.7599
   35.115    3.9073
   35.130    4.1917
   35.145    4.2127
   35.160    4.1917
   35.175    4.1285
   35.190    4.1496
   35.205    4.0442
   35.220    4.3181
   35.235    3.7809
   35.250    3.8547
   35.265    3.9389
   35.280    3.8125
   35.295    4.3075
   35.310    3.8757
   35.325    4.2654
   35.340    4.0758
   35.355    3.9284
   35.370    4.0548
   35.385    4.0864
   35.400    3.9389
   35.415    3.9810
   35.430    3.9810
   35.445    4.0969
   35.460    4.1285
   35.475    3.9705
   35.490    4.0758
   35.505    3.8547
   35.520    4.2338
   35.535    4.1601
   35.550    4.0126
   35.565    4.2127
   35.580    3.9284
   35.595    3.9705
   35.610    4.1601
   35.625    4.1601
   35.640    4.2127
   35.655    4.2338
   35.670    4.1706
   35.685    3.9705
   35.700    3.9179
   35.715    3.9284
   35.730    4.0021
   35.745    4.2127
   35.760    4.2654
   35.775    4.1285
   35.790    4.2233
   35.805    3.9810
   35.820    4.1917
   35.835    3.8652
   35.850    3.8547
   35.865    4.2022
   35.880    4.2549
   35.895    3.9284
   35.910    4.3497
   35.925    4.0653
   35.940    4.1706
   35.955    3.7072
   35.970    3.8968
   35.985    4.3813
   36.000    4.0864
   36.015    4.0232
   36.030    3.8020
   36.045    3.7283
   36.060    3.7809
   36.075    4.2127
   36.090    4.0548
   36.105    4.1601
   36.120    4.0126
   36.135    3.9600
   36.150    4.1285
   36.165    4.0442
   36.180    3.8231
   36.195    4.0653
   36.210    4.1074
   36.225    4.1285
   36.240    4.3181
   36.255    4.0548
   36.270    4.1601
   36.285    4.1180
   36.300    3.8757
   36.315    3.8863
   36.330    4.1496
   36.345    4.3075
   36.360    4.1285
   36.375    3.9494
   36.390    3.8863
   36.405    4.1811
   36.420    3.9810
   36.435    3.9284
   36.450    3.7493
   36.465    3.9073
   36.480    3.8757
   36.495    3.6440
   36.510    3.8125
   36.525    3.8863
   36.540    3.8231
   36.555    3.8547
   36.570    3.9073
   36.585    3.8231
   36.600    3.9179
   36.615    3.8336
   36.630    3.7283
   36.645    3.6756
   36.660    4.2338
   36.675    4.0758
   36.690    4.1074
   36.705    4.0337
   36.720    3.7177
   36.735    3.9179
   36.750    4.1285
   36.765    4.0337
   36.780    3.9073
   36.795    3.9073
   36.810    3.9284
   36.825    3.7388
   36.840    3.8020
   36.855    3.9705
   36.870    3.8441
   36.885    3.7283
   36.900    3.9389
   36.915    3.7915
   36.930    3.9494
   36.945    3.8125
   36.960    3.8863
   36.975    3.7177
   36.990    3.9179
   37.005    4.1811
   37.020    4.0021
   37.035    3.8020
   37.050    4.1180
   37.065    3.7704
   37.080    4.2233
   37.095    4.2654
   37.110    4.2022
   37.125    4.3286
   37.140    3.9389
   37.155    4.3075
   37.170    4.1285
   37.185    4.0864
   37.200    4.0864
   37.215    3.8231
   37.230    3.8968
   37.245    3.9073
   37.260    4.0126
   37.275    3.7493
   37.290    3.8020
   37.305    3.8231
   37.320    3.8757
   37.335    3.8231
   37.350    4.1706
   37.365    4.0232
   37.380    3.7915
   37.395    3.6967
   37.410    3.8336
   37.425    3.9073
   37.440    3.6756
   37.455    4.0442
   37.470    4.2338
   37.485    4.2233
   37.500    3.7915
   37.515    3.8125
   37.530    3.7283
   37.545    3.9810
   37.560    4.0021
   37.575    3.5492
   37.590    4.1706
   37.605    4.1496
   37.620    4.0442
   37.635    3.8757
   37.650    3.9705
   37.665    4.0442
   37.680    4.0864
   37.695    3.8441
   37.710    3.9600
   37.725    4.0969
   37.740    4.0021
   37.755    3.9705
   37.770    3.9600
   37.785    3.8863
   37.800    3.9284
   37.815    4.2022
   37.830    4.0442
   37.845    3.9073
   37.860    3.7177
   37.875    3.6756
   37.890    3.9494
   37.905    4.0442
   37.920    3.5176
   37.935    3.6335
   37.950    3.6546
   37.965    4.0758
   37.980    3.9284
   37.995    3.8652
   38.010    3.7283
   38.025    3.5176
   38.040    3.9705
   38.055    4.1180
   38.070    3.8863
   38.085    4.0442
   38.100    3.9073
   38.115    3.7493
   38.130    3.7072
   38.145    3.6967
   38.160    3.6967
   38.175    4.0653
   38.190    3.9073
   38.205    4.0337
   38.220    4.0758
   38.235    3.9600
   38.250    3.9705
   38.265    3.8547
   38.280    4.0337
   38.295    4.0232
   38.310    3.8757
   38.325    4.0021
   38.340    3.8652
   38.355    3.9705
   38.370    3.9073
   38.385    3.9916
   38.400    3.5387
   38.415    3.6651
   38.430    3.4439
   38.445    3.4860
   38.460    3.7704
   38.475    3.9073
   38.490    3.9600
   38.505    3.7493
   38.520    3.6967
   38.535    4.0548
   38.550    4.0864
   38.565    4.0653
   38.580    3.9600
   38.595    4.0021
   38.610    4.0021
   38.625    4.1285
   38.640    3.8020
   38.655    4.1706
   38.670    4.1074
   38.685    3.9179
   38.700    3.8968
   38.715    3.5808
   38.730    3.4966
   38.745    3.7915
   38.760    3.6335
   38.775    3.8336
   38.790    4.0021
   38.805    4.0232
   38.820    3.6546
   38.835    4.2127
   38.850    3.5071
   38.865    3.8020
   38.880    3.8336
   38.895    3.8547
   38.910    4.2338
   38.925    3.8231
   38.940    3.6230
   38.955    3.9916
   38.970    3.8020
   38.985    3.8863
   39.000    3.9389
   39.015    3.9284
   39.030    3.6230
   39.045    3.5282
   39.060    4.1180
   39.075    4.0548
   39.090    3.8336
   39.105    3.6756
   39.120    3.8968
   39.135    3.9179
   39.150    3.9494
   39.165    3.6230
   39.180    3.6967
   39.195    4.0337
   39.210    3.8863
   39.225    3.7493
   39.240    3.8441
   39.255    3.7388
   39.270    3.8336
   39.285    3.8652
   39.300    4.0969
   39.315    4.0021
   39.330    3.9073
   39.345    3.9073
   39.360    4.0758
   39.375    3.8020
   39.390    3.5598
   39.405    3.8125
   39.420    3.8652
   39.435    3.8020
   39.450    3.9600
   39.465    3.7915
   39.480    3.7177
   39.495    3.9179
   39.510    3.6335
   39.525    3.6651
   39.540    3.7915
   39.555    3.9810
   39.570    3.8757
   39.585    3.7493
   39.600    3.8652
   39.615    4.0548
   39.630    3.8125
   39.645    3.5598
   39.660    3.5914
   39.675    3.7599
   39.690    3.9179
   39.705    3.7493
   39.720    3.8020
   39.735    3.7915
   39.750    3.9494
   39.765    3.7915
   39.780    3.7388
   39.795    3.9494
   39.810    3.9073
   39.825    3.6967
   39.840    4.0653
   39.855    3.9916
   39.870    3.9494
   39.885    3.8441
   39.900    3.8125
   39.915    3.5071
   39.930    3.7283
   39.945    3.7809
   39.960    3.4966
   39.975    3.4123
   39.990    3.6756
