    1.500   26.5508
    1.515   26.4876
    1.530   26.6035
    1.545   26.2138
    1.560   26.0453
    1.575   26.2138
    1.590   24.6972
    1.605   24.7183
    1.620   24.4866
    1.635   23.3070
    1.650   23.5071
    1.665   23.1280
    1.680   23.2438
    1.695   22.6751
    1.710   21.4218
    1.725   21.3902
    1.740   21.1585
    1.755   21.1374
    1.770   21.2744
    1.785   20.7688
    1.800   20.6635
    1.815   19.9579
    1.830   20.2422
    1.845   19.9895
    1.860   20.1580
    1.875   19.1785
    1.890   19.7894
    1.905   19.4839
    1.920   19.4945
    1.935   19.2522
    1.950   18.7467
    1.965   18.2201
    1.980   18.3886
    1.995   18.0095
    2.010   17.6935
    2.025   17.9674
    2.040   16.8299
    2.055   17.5040
    2.070   17.0195
    2.085   17.2722
    2.100   17.1353
    2.115   16.7035
    2.130   16.2823
    2.145   16.1348
    2.160   16.3139
    2.175   15.7978
    2.190   15.9452
    2.205   15.6609
    2.220   16.0506
    2.235   15.5661
    2.250   15.3765
    2.265   15.1448
    2.280   15.0922
    2.295   15.1975
    2.310   15.0606
    2.325   14.8394
    2.340   14.3865
    2.355   14.6498
    2.370   15.1448
    2.385   14.8605
    2.400   14.9658
    2.415   14.0074
    2.430   13.7335
    2.445   14.4497
    2.460   14.6498
    2.475   13.6809
    2.490   14.2917
    2.505   13.9442
    2.520   13.8810
    2.535   13.6809
    2.550   13.3755
    2.565   13.1332
    2.580   13.0279
    2.595   13.1859
    2.610   13.2280
    2.625   13.0911
    2.640   13.0279
    2.655   12.8489
    2.670   12.9226
    2.685   13.1859
    2.700   12.9437
    2.715   12.5750
    2.730   12.4065
    2.745   12.3223
    2.760   12.4592
    2.775   12.4487
    2.790   12.8173
    2.805   12.6172
    2.820   12.3855
    2.835   12.0906
    2.850   11.9010
    2.865   12.1854
    2.880   11.9537
    2.895   11.8062
    2.910   12.1432
    2.925   12.1643
    2.940   11.9431
    2.955   11.5745
    2.970   11.5850
    2.985   11.7746
    3.000   11.4692
    3.015   11.2480
    3.030   10.9847
    3.045   11.6482
    3.060   11.1322
    3.075   11.1848
    3.090   11.7325
    3.105   11.1322
    3.120   11.1743
    3.135   11.4481
    3.150   11.9537
    3.165   11.2586
    3.180   11.1638
    3.195   11.0690
    3.210   11.0374
    3.225   11.0585
    3.240   11.0269
    3.255   10.7004
    3.270   10.9531
    3.285   10.9531
    3.300   11.2059
    3.315   11.3428
    3.330   11.0269
    3.345   10.9742
    3.360   11.0585
    3.375   11.0900
    3.390   11.1743
    3.405   11.1427
    3.420   10.8373
    3.435   10.8478
    3.450   11.2164
    3.465   11.3955
    3.480   10.6266
    3.495   10.8057
    3.510   11.0163
    3.525   10.4897
    3.540   11.0058
    3.555   10.8373
    3.570   11.1427
    3.585   10.7425
    3.600   10.2054
    3.615   10.4476
    3.630   10.4897
    3.645   10.2896
    3.660   10.6161
    3.675   10.4371
    3.690   10.3423
    3.705    9.9947
    3.720   10.0685
    3.735   10.1632
    3.750    9.9315
    3.765   10.4687
    3.780   10.5635
    3.795   10.5003
    3.810   10.2475
    3.825    9.9210
    3.840   10.2370
    3.855   10.1106
    3.870    9.9315
    3.885    9.6472
    3.900    9.9947
    3.915    9.9526
    3.930    9.6788
    3.945   10.1843
    3.960    9.8052
    3.975   10.5424
    3.990   10.1738
    4.005    9.8157
    4.020    9.5103
    4.035    9.5208
    4.050    9.2470
    4.065    9.1206
    4.080    9.5629
    4.095    9.1943
    4.110    9.2891
    4.125    9.4576
    4.140    9.3418
    4.155    9.0890
    4.170    9.1627
    4.185    9.3523
    4.200    9.3207
    4.215    9.4576
    4.230    9.2680
    4.245    9.2048
    4.260    9.3944
    4.275    9.3839
    4.290    9.2680
    4.305    9.2996
    4.320    8.8362
    4.335    8.4360
    4.350    9.2575
    4.365    8.8152
    4.380    8.8257
    4.395    9.0890
    4.410    9.2259
    4.425    8.9415
    4.440    8.8573
    4.455    8.7520
    4.470    8.7414
    4.485    8.4992
    4.500    8.9837
    4.515    9.2259
    4.530    8.9626
    4.545    8.9942
    4.560    8.9942
    4.575    9.2470
    4.590    8.9310
    4.605    8.2359
    4.620    8.8784
    4.635    8.6467
    4.650    8.7625
    4.665    8.9942
    4.680    8.8889
    4.695    8.8889
    4.710    8.6783
    4.725    9.0363
    4.740    8.5624
    4.755    8.1833
    4.770    8.3412
    4.785    8.5940
    4.800    8.9205
    4.815    8.6151
    4.830    8.6993
    4.845    8.6045
    4.860    8.8678
    4.875    8.3939
    4.890    8.3728
    4.905    8.7836
    4.920    8.0990
    4.935    8.3518
    4.950    8.7836
    4.965    8.4571
    4.980    8.5413
    4.995    8.6572
    5.010    8.5413
    5.025    8.4992
    5.040    8.6045
    5.055    8.7836
    5.070    9.0153
    5.085    9.1206
    5.100    8.9626
    5.115    9.0679
    5.130    9.0047
    5.145    8.3412
    5.160    8.9205
    5.175    9.1943
    5.190    9.0363
    5.205    9.0679
    5.220    9.1732
    5.235    8.4150
    5.250    8.6677
    5.265    9.0469
    5.280    9.4681
    5.295    8.8889
    5.310    8.7414
    5.325    8.8046
    5.340    9.0258
    5.355    8.9731
    5.370    9.1101
    5.385    9.1417
    5.400    9.0995
    5.415    9.6788
    5.430    9.2680
    5.445    8.9100
    5.460    9.1522
    5.475    9.6577
    5.490    9.5208
    5.505    9.5840
    5.520    9.7525
    5.535    9.8157
    5.550    9.4787
    5.565    9.6367
    5.580    9.8578
    5.595    9.5524
    5.610    9.6998
    5.625   10.0263
    5.640    9.6261
    5.655    9.5419
    5.670    9.2891
    5.685    9.0679
    5.700    9.2364
    5.715    9.6156
    5.730    9.5419
    5.745    9.8473
    5.760   10.1843
    5.775    9.8578
    5.790   10.0895
    5.805   10.5740
    5.820   10.3318
    5.835   10.7320
    5.850   11.3428
    5.865   11.0374
    5.880   12.4803
    5.895   12.0379
    5.910   12.9858
    5.925   13.4597
    5.940   13.9021
    5.955   14.1127
    5.970   14.6498
    5.985   14.5024
    6.000   13.0806
    6.015   11.9431
    6.030   10.7530
    6.045    9.8473
    6.060    8.8784
    6.075    8.4781
    6.090    8.3728
    6.105    8.4676
    6.120    8.5519
    6.135    7.9516
    6.150    7.7620
    6.165    8.0885
    6.180    8.1201
    6.195    8.1411
    6.210    7.9937
    6.225    8.2886
    6.240    8.0779
    6.255    8.0674
    6.270    8.1306
    6.285    8.2780
    6.300    8.2780
    6.315    8.1201
    6.330    8.1411
    6.345    8.2780
    6.360    8.1201
    6.375    8.1622
    6.390    8.1938
    6.405    8.3518
    6.420    8.5203
    6.435    8.2149
    6.450    8.0885
    6.465    7.3828
    6.480    8.0463
    6.495    8.1622
    6.510    8.0358
    6.525    8.0990
    6.540    7.4144
    6.555    7.3723
    6.570    8.1727
    6.585    7.9200
    6.600    7.8568
    6.615    7.3934
    6.630    7.6777
    6.645    7.7830
    6.660    8.2149
    6.675    8.0042
    6.690    7.8568
    6.705    8.2043
    6.720    8.1622
    6.735    8.1306
    6.750    8.0885
    6.765    8.4150
    6.780    8.0253
    6.795    7.9726
    6.810    7.9200
    6.825    7.9305
    6.840    7.8568
    6.855    7.5619
    6.870    7.9305
    6.885    8.0042
    6.900    8.0569
    6.915    7.8357
    6.930    8.2780
    6.945    8.3834
    6.960    8.0358
    6.975    8.1201
    6.990    8.1306
    7.005    8.4466
    7.020    8.6888
    7.035    7.8041
    7.050    7.6356
    7.065    7.5408
    7.080    7.8673
    7.095    8.1622
    7.110    8.3518
    7.125    8.2359
    7.140    7.9831
    7.155    7.8568
    7.170    8.4150
    7.185    8.1306
    7.200    8.3096
    7.215    8.1411
    7.230    8.1095
    7.245    8.0253
    7.260    8.4466
    7.275    8.1727
    7.290    8.1517
    7.305    7.8884
    7.320    8.1833
    7.335    8.0674
    7.350    8.1938
    7.365    7.6988
    7.380    8.0463
    7.395    7.9200
    7.410    8.1411
    7.425    7.9410
    7.440    7.8673
    7.455    7.5724
    7.470    8.0358
    7.485    8.2780
    7.500    7.9726
    7.515    7.7936
    7.530    7.6567
    7.545    8.2675
    7.560    8.3307
    7.575    7.8673
    7.590    7.9621
    7.605    8.4044
    7.620    7.9410
    7.635    7.8989
    7.650    8.0990
    7.665    8.0779
    7.680    7.8884
    7.695    7.5935
    7.710    7.8989
    7.725    8.4676
    7.740    8.2886
    7.755    8.2464
    7.770    8.1833
    7.785    7.7936
    7.800    7.9831
    7.815    7.7304
    7.830    7.8673
    7.845    7.7199
    7.860    8.3728
    7.875    8.4887
    7.890    7.8462
    7.905    7.8252
    7.920    7.7093
    7.935    7.7936
    7.950    8.0358
    7.965    7.5935
    7.980    7.9305
    7.995    8.0990
    8.010    8.1201
    8.025    7.8252
    8.040    7.7304
    8.055    7.8041
    8.070    7.7620
    8.085    7.6145
    8.100    8.0569
    8.115    8.5097
    8.130    7.9094
    8.145    7.8989
    8.160    7.8041
    8.175    7.8357
    8.190    7.6883
    8.205    7.8673
    8.220    7.6883
    8.235    7.6567
    8.250    7.7304
    8.265    8.0147
    8.280    8.1622
    8.295    8.3412
    8.310    8.2043
    8.325    7.8989
    8.340    8.0779
    8.355    8.4360
    8.370    8.2675
    8.385    8.0779
    8.400    8.2886
    8.415    8.3518
    8.430    8.3518
    8.445    7.7199
    8.460    8.1095
    8.475    8.6151
    8.490    8.2149
    8.505    8.0779
    8.520    8.1833
    8.535    8.3834
    8.550    7.8778
    8.565    7.9200
    8.580    8.0253
    8.595    7.8041
    8.610    7.8146
    8.625    7.5935
    8.640    7.7514
    8.655    8.0358
    8.670    8.1201
    8.685    7.8884
    8.700    8.0779
    8.715    7.9305
    8.730    7.9200
    8.745    8.0885
    8.760    8.0779
    8.775    7.9621
    8.790    7.8778
    8.805    7.6777
    8.820    7.8568
    8.835    8.0463
    8.850    8.3623
    8.865    8.2570
    8.880    8.0674
    8.895    7.8673
    8.910    7.9094
    8.925    8.1727
    8.940    8.1306
    8.955    7.8778
    8.970    8.0042
    8.985    8.2254
    9.000    7.8673
    9.015    8.0358
    9.030    7.6567
    9.045    7.9305
    9.060    8.0147
    9.075    8.2464
    9.090    8.1938
    9.105    8.1833
    9.120    8.5519
    9.135    8.5097
    9.150    8.5097
    9.165    8.3307
    9.180    8.5097
    9.195    8.0885
    9.210    8.3518
    9.225    8.9942
    9.240    9.3628
    9.255    9.3523
    9.270    8.8994
    9.285    9.0785
    9.300    9.4787
    9.315    9.5735
    9.330    9.5945
    9.345    9.5735
    9.360    9.8578
    9.375    9.8157
    9.390   10.5845
    9.405   10.2264
    9.420   11.2691
    9.435   12.2380
    9.450   12.8805
    9.465   13.0384
    9.480   13.2701
    9.495   12.8489
    9.510   12.9437
    9.525   12.2170
    9.540   11.3217
    9.555   10.3423
    9.570    9.6998
    9.585    9.1732
    9.600    9.1101
    9.615    8.6045
    9.630    8.9731
    9.645    9.2154
    9.660    9.0047
    9.675    8.9310
    9.690    8.7098
    9.705    8.3518
    9.720    8.5729
    9.735    8.3728
    9.750    7.9937
    9.765    7.8252
    9.780    8.2886
    9.795    8.5729
    9.810    8.0885
    9.825    8.0042
    9.840    8.2675
    9.855    8.1201
    9.870    8.1833
    9.885    8.0674
    9.900    8.0253
    9.915    7.8462
    9.930    7.7199
    9.945    8.3728
    9.960    8.0885
    9.975    8.1201
    9.990    7.9200
   10.005    8.0569
   10.020    7.6461
   10.035    7.8778
   10.050    8.3939
   10.065    8.1095
   10.080    8.1095
   10.095    7.8673
   10.110    7.9831
   10.125    8.2043
   10.140    8.3202
   10.155    8.0990
   10.170    8.3834
   10.185    7.8568
   10.200    8.0358
   10.215    8.1306
   10.230    8.2043
   10.245    8.0463
   10.260    8.1622
   10.275    8.3412
   10.290    7.8041
   10.305    8.1517
   10.320    8.3623
   10.335    8.5624
   10.350    8.3096
   10.365    8.4571
   10.380    8.4992
   10.395    8.3623
   10.410    8.5624
   10.425    8.8468
   10.440    9.2154
   10.455    8.9310
   10.470    9.1206
   10.485    9.1627
   10.500    9.4260
   10.515    9.4892
   10.530    9.3523
   10.545    9.0574
   10.560    9.0574
   10.575    9.1311
   10.590    9.5103
   10.605   10.0158
   10.620    9.8368
   10.635   10.6266
   10.650   10.7846
   10.665   11.3639
   10.680   12.3539
   10.695   12.7646
   10.710   13.1122
   10.725   13.3544
   10.740   13.9863
   10.755   13.0384
   10.770   13.1122
   10.785   12.3749
   10.800   11.4692
   10.815   10.8057
   10.830   10.2791
   10.845   10.3633
   10.860   10.2475
   10.875   10.1738
   10.890    9.7104
   10.905   10.0579
   10.920   10.3949
   10.935    9.5313
   10.950    9.6788
   10.965    9.5945
   10.980    9.7314
   10.995    9.3734
   11.010    9.5524
   11.025    9.5103
   11.040    9.2048
   11.055    8.7204
   11.070    9.0047
   11.085    8.8152
   11.100    8.7520
   11.115    8.0885
   11.130    8.1938
   11.145    8.5413
   11.160    8.2886
   11.175    8.1727
   11.190    8.0674
   11.205    7.9094
   11.220    7.7620
   11.235    7.8673
   11.250    7.9200
   11.265    8.1306
   11.280    8.4044
   11.295    8.2780
   11.310    8.1938
   11.325    7.8989
   11.340    7.6988
   11.355    7.7409
   11.370    7.8146
   11.385    7.6040
   11.400    8.3096
   11.415    8.0990
   11.430    7.9094
   11.445    8.1517
   11.460    8.1095
   11.475    7.9621
   11.490    8.7098
   11.505    8.8784
   11.520    8.1938
   11.535    8.5729
   11.550    8.7941
   11.565    8.8152
   11.580    8.3202
   11.595    8.9837
   11.610    9.2786
   11.625    9.2996
   11.640    9.6893
   11.655   10.0263
   11.670   10.1106
   11.685   10.2159
   11.700   10.1211
   11.715   10.4055
   11.730    9.5208
   11.745    9.0153
   11.760    8.7941
   11.775    8.5413
   11.790    8.3834
   11.805    8.0358
   11.820    8.0147
   11.835    8.6993
   11.850    8.7098
   11.865    8.8573
   11.880    8.6361
   11.895    8.8678
   11.910    8.9626
   11.925    9.1627
   11.940    9.0995
   11.955    9.2575
   11.970    8.8573
   11.985    8.9626
   12.000    8.9521
   12.015    8.5203
   12.030    8.0674
   12.045    8.0674
   12.060    7.9621
   12.075    7.7725
   12.090    7.3302
   12.105    7.5829
   12.120    7.8041
   12.135    7.9621
   12.150    7.5408
   12.165    7.3091
   12.180    7.3512
   12.195    7.4566
   12.210    7.3723
   12.225    7.4987
   12.240    7.4355
   12.255    7.7830
   12.270    7.3196
   12.285    7.3407
   12.300    7.3091
   12.315    7.2459
   12.330    6.8141
   12.345    7.3302
   12.360    7.4987
   12.375    7.1617
   12.390    7.3723
   12.405    7.6461
   12.420    7.2459
   12.435    7.5303
   12.450    7.2354
   12.465    7.1301
   12.480    7.3828
   12.495    7.7199
   12.510    7.6461
   12.525    7.2249
   12.540    7.3618
   12.555    7.1301
   12.570    7.3091
   12.585    7.2670
   12.600    7.8357
   12.615    7.3723
   12.630    8.0674
   12.645    7.7304
   12.660    7.3828
   12.675    6.9932
   12.690    7.5092
   12.705    7.8252
   12.720    7.5935
   12.735    7.4671
   12.750    7.9305
   12.765    8.1201
   12.780    8.1727
   12.795    7.7514
   12.810    7.7093
   12.825    7.8041
   12.840    7.9726
   12.855    7.5724
   12.870    8.5097
   12.885    8.2043
   12.900    8.0463
   12.915    8.2991
   12.930    8.2043
   12.945    8.2359
   12.960    8.2780
   12.975    8.1938
   12.990    8.1517
   13.005    8.3518
   13.020    8.6783
   13.035    8.0779
   13.050    8.1833
   13.065    8.6783
   13.080    8.7625
   13.095    8.8678
   13.110    8.3202
   13.125    7.9726
   13.140    7.6988
   13.155    7.2986
   13.170    7.8252
   13.185    7.7620
   13.200    7.5197
   13.215    7.4566
   13.230    7.6988
   13.245    7.5619
   13.260    7.5935
   13.275    7.7514
   13.290    7.5935
   13.305    7.1617
   13.320    7.2354
   13.335    7.4671
   13.350    7.4987
   13.365    7.4987
   13.380    7.2986
   13.395    7.6040
   13.410    7.6145
   13.425    7.1406
   13.440    7.3512
   13.455    7.2775
   13.470    7.4776
   13.485    7.3828
   13.500    7.5513
   13.515    7.2986
   13.530    7.2143
   13.545    7.4460
   13.560    7.4776
   13.575    7.3512
   13.590    7.6040
   13.605    7.1301
   13.620    7.0879
   13.635    6.9194
   13.650    7.3407
   13.665    7.5513
   13.680    7.0669
   13.695    7.1195
   13.710    7.3302
   13.725    7.6883
   13.740    7.5513
   13.755    7.5303
   13.770    7.2986
   13.785    7.3618
   13.800    7.5619
   13.815    7.7304
   13.830    7.5408
   13.845    7.3828
   13.860    7.3934
   13.875    7.9200
   13.890    8.1411
   13.905    7.7409
   13.920    7.5619
   13.935    7.4355
   13.950    7.4355
   13.965    7.3407
   13.980    7.3828
   13.995    7.7725
   14.010    7.5408
   14.025    7.7409
   14.040    7.1827
   14.055    7.2670
   14.070    7.5513
   14.085    7.1827
   14.100    7.8778
   14.115    7.5935
   14.130    7.1827
   14.145    7.6988
   14.160    8.0885
   14.175    7.5513
   14.190    7.6251
   14.205    7.6988
   14.220    7.2565
   14.235    7.1090
   14.250    7.3618
   14.265    7.5829
   14.280    7.2143
   14.295    7.3302
   14.310    7.5935
   14.325    7.4987
   14.340    7.6988
   14.355    7.3828
   14.370    7.4355
   14.385    7.6040
   14.400    6.9932
   14.415    7.7620
   14.430    7.7936
   14.445    7.4355
   14.460    7.5197
   14.475    7.6883
   14.490    7.4355
   14.505    7.4776
   14.520    7.4671
   14.535    7.8462
   14.550    7.6988
   14.565    7.7409
   14.580    7.7093
   14.595    7.5197
   14.610    7.8568
   14.625    7.8568
   14.640    7.4776
   14.655    7.6672
   14.670    7.4250
   14.685    7.7093
   14.700    7.7409
   14.715    7.7514
   14.730    7.5408
   14.745    7.2986
   14.760    7.5197
   14.775    7.4776
   14.790    7.8462
   14.805    7.3302
   14.820    7.3618
   14.835    7.4987
   14.850    7.5619
   14.865    7.5829
   14.880    7.5935
   14.895    7.5724
   14.910    7.9200
   14.925    7.3407
   14.940    6.8668
   14.955    7.2775
   14.970    7.0774
   14.985    7.3512
   15.000    7.3196
   15.015    7.6356
   15.030    7.8357
   15.045    7.8357
   15.060    7.2880
   15.075    7.2459
   15.090    7.5724
   15.105    7.7936
   15.120    7.2986
   15.135    7.4039
   15.150    7.4671
   15.165    7.2775
   15.180    7.1617
   15.195    7.0353
   15.210    7.0879
   15.225    7.2565
   15.240    7.5303
   15.255    7.4460
   15.270    7.4460
   15.285    7.3407
   15.300    7.3091
   15.315    7.1722
   15.330    7.4039
   15.345    7.6567
   15.360    7.4039
   15.375    6.8246
   15.390    7.1722
   15.405    7.3196
   15.420    7.8357
   15.435    7.4460
   15.450    7.0353
   15.465    7.0669
   15.480    7.0563
   15.495    7.2670
   15.510    7.5619
   15.525    7.6777
   15.540    7.5829
   15.555    7.5408
   15.570    7.3091
   15.585    7.3407
   15.600    7.6040
   15.615    7.8462
   15.630    7.7936
   15.645    7.1617
   15.660    7.1090
   15.675    7.6251
   15.690    7.6356
   15.705    7.7725
   15.720    7.5408
   15.735    7.8252
   15.750    7.6777
   15.765    8.0042
   15.780    7.8989
   15.795    7.7093
   15.810    7.9410
   15.825    8.2359
   15.840    8.2149
   15.855    8.2780
   15.870    8.0885
   15.885    8.7098
   15.900    8.5519
   15.915    8.5624
   15.930    8.4150
   15.945    8.7414
   15.960    8.4887
   15.975    8.4150
   15.990    8.2780
   16.005    8.2464
   16.020    8.6045
   16.035    8.0253
   16.050    7.6461
   16.065    7.6251
   16.080    7.5829
   16.095    7.7620
   16.110    7.4671
   16.125    7.0563
   16.140    7.1933
   16.155    7.2249
   16.170    7.4250
   16.185    7.4039
   16.200    7.3407
   16.215    7.2670
   16.230    7.4144
   16.245    7.5092
   16.260    7.1511
   16.275    7.5303
   16.290    7.2038
   16.305    7.1722
   16.320    7.0985
   16.335    7.2354
   16.350    7.3618
   16.365    7.3828
   16.380    7.2880
   16.395    7.0458
   16.410    7.1195
   16.425    7.1827
   16.440    6.9826
   16.455    6.9089
   16.470    7.3723
   16.485    7.1406
   16.500    7.4987
   16.515    7.2354
   16.530    7.6883
   16.545    7.4039
   16.560    7.5197
   16.575    7.8778
   16.590    7.4776
   16.605    6.9721
   16.620    7.2143
   16.635    7.1301
   16.650    7.0879
   16.665    7.7514
   16.680    7.2143
   16.695    6.9932
   16.710    7.3302
   16.725    7.3512
   16.740    7.1617
   16.755    7.7936
   16.770    7.8778
   16.785    8.0042
   16.800    7.8568
   16.815    7.7199
   16.830    8.0990
   16.845    7.9094
   16.860    7.9726
   16.875    7.8884
   16.890    8.0674
   16.905    8.2570
   16.920    7.9937
   16.935    7.5513
   16.950    8.1411
   16.965    7.8357
   16.980    7.7514
   16.995    8.1095
   17.010    7.6883
   17.025    7.3196
   17.040    7.0563
   17.055    7.7409
   17.070    7.9831
   17.085    7.8041
   17.100    7.8462
   17.115    7.3828
   17.130    7.6145
   17.145    7.8146
   17.160    7.5829
   17.175    7.6251
   17.190    7.2670
   17.205    7.3196
   17.220    7.7514
   17.235    7.7304
   17.250    7.6883
   17.265    7.7093
   17.280    7.5724
   17.295    7.7830
   17.310    7.5513
   17.325    7.7409
   17.340    7.4987
   17.355    7.4776
   17.370    7.8357
   17.385    7.2249
   17.400    7.2038
   17.415    7.2249
   17.430    7.2143
   17.445    7.1617
   17.460    7.1511
   17.475    7.2670
   17.490    7.3828
   17.505    7.4671
   17.520    7.3091
   17.535    7.6988
   17.550    7.1722
   17.565    7.2880
   17.580    7.6672
   17.595    7.4671
   17.610    7.4671
   17.625    7.7409
   17.640    7.4566
   17.655    7.8146
   17.670    7.4882
   17.685    7.7093
   17.700    7.4987
   17.715    7.7830
   17.730    7.6040
   17.745    7.8673
   17.760    7.5408
   17.775    7.4987
   17.790    7.3407
   17.805    7.6672
   17.820    7.1195
   17.835    7.4250
   17.850    7.3512
   17.865    7.9831
   17.880    7.6672
   17.895    7.7304
   17.910    7.4144
   17.925    7.6356
   17.940    7.6567
   17.955    7.5092
   17.970    7.8989
   17.985    7.8989
   18.000    7.7725
   18.015    7.2986
   18.030    7.5197
   18.045    7.8884
   18.060    7.5408
   18.075    7.3407
   18.090    7.2775
   18.105    7.6251
   18.120    7.6672
   18.135    7.7725
   18.150    7.6672
   18.165    7.3302
   18.180    7.4250
   18.195    7.6251
   18.210    7.8146
   18.225    7.5408
   18.240    7.3302
   18.255    7.6145
   18.270    7.5829
   18.285    7.8146
   18.300    7.8462
   18.315    7.8568
   18.330    7.2038
   18.345    7.5092
   18.360    7.5619
   18.375    7.4039
   18.390    7.5303
   18.405    7.5092
   18.420    7.4671
   18.435    7.5935
   18.450    7.8252
   18.465    7.8568
   18.480    7.6461
   18.495    7.2775
   18.510    7.7304
   18.525    7.5619
   18.540    7.6672
   18.555    7.5619
   18.570    7.7514
   18.585    7.4566
   18.600    7.7725
   18.615    7.6988
   18.630    7.5829
   18.645    7.4566
   18.660    7.7725
   18.675    7.2670
   18.690    8.0569
   18.705    7.6040
   18.720    7.9305
   18.735    7.5197
   18.750    7.5619
   18.765    7.1090
   18.780    7.8568
   18.795    8.0674
   18.810    8.4044
   18.825    8.0253
   18.840    8.0569
   18.855    8.0990
   18.870    8.0885
   18.885    7.7199
   18.900    7.9094
   18.915    8.0463
   18.930    8.1201
   18.945    7.6883
   18.960    7.4355
   18.975    7.9516
   18.990    7.7514
   19.005    7.6145
   19.020    7.3407
   19.035    7.7304
   19.050    7.9094
   19.065    7.8252
   19.080    7.3407
   19.095    8.1622
   19.110    7.6988
   19.125    7.8041
   19.140    7.8252
   19.155    8.0990
   19.170    8.0358
   19.185    7.6461
   19.200    7.8884
   19.215    7.6356
   19.230    7.7199
   19.245    8.2570
   19.260    7.3723
   19.275    7.8146
   19.290    8.0147
   19.305    7.5092
   19.320    7.5724
   19.335    7.8989
   19.350    7.8146
   19.365    7.4671
   19.380    7.9726
   19.395    7.9094
   19.410    8.1833
   19.425    7.8778
   19.440    7.7199
   19.455    7.5935
   19.470    7.6356
   19.485    7.8673
   19.500    8.1095
   19.515    7.6251
   19.530    7.8778
   19.545    7.9831
   19.560    7.7830
   19.575    7.5408
   19.590    7.5935
   19.605    7.6777
   19.620    7.8462
   19.635    8.2886
   19.650    7.7514
   19.665    7.4250
   19.680    7.4671
   19.695    7.4987
   19.710    7.7936
   19.725    7.5619
   19.740    7.6883
   19.755    7.2880
   19.770    7.3934
   19.785    7.8252
   19.800    7.8252
   19.815    7.8884
   19.830    7.7409
   19.845    7.7514
   19.860    7.5724
   19.875    7.8357
   19.890    7.8357
   19.905    7.4987
   19.920    7.2986
   19.935    7.7620
   19.950    7.8989
   19.965    7.6567
   19.980    7.6883
   19.995    7.7620
   20.010    7.4355
   20.025    7.4250
   20.040    7.8884
   20.055    8.3096
   20.070    7.7514
   20.085    7.6672
   20.100    7.6777
   20.115    7.3618
   20.130    7.7620
   20.145    7.5408
   20.160    7.8568
   20.175    7.5513
   20.190    8.1201
   20.205    7.6461
   20.220    7.4776
   20.235    7.7725
   20.250    7.6145
   20.265    7.7093
   20.280    7.1406
   20.295    7.6356
   20.310    7.9831
   20.325    7.8989
   20.340    7.4776
   20.355    8.2043
   20.370    7.7093
   20.385    7.4776
   20.400    7.7409
   20.415    7.9726
   20.430    8.0042
   20.445    8.1411
   20.460    8.2886
   20.475    7.9410
   20.490    8.0885
   20.505    7.9200
   20.520    7.4460
   20.535    7.9621
   20.550    7.9516
   20.565    7.6883
   20.580    7.5408
   20.595    7.4566
   20.610    7.3723
   20.625    7.9726
   20.640    7.6883
   20.655    7.7514
   20.670    7.7304
   20.685    7.7936
   20.700    7.5513
   20.715    7.8041
   20.730    7.6567
   20.745    7.5408
   20.760    7.5408
   20.775    7.9937
   20.790    7.6777
   20.805    7.6672
   20.820    7.6461
   20.835    7.6988
   20.850    7.5197
   20.865    7.7304
   20.880    7.5619
   20.895    7.7409
   20.910    7.7725
   20.925    7.7936
   20.940    7.4460
   20.955    7.5408
   20.970    8.1095
   20.985    8.1095
   21.000    7.8462
   21.015    8.2043
   21.030    8.1201
   21.045    7.5935
   21.060    7.8778
   21.075    8.1622
   21.090    7.7620
   21.105    7.8568
   21.120    8.0253
   21.135    7.7409
   21.150    7.6461
   21.165    7.7093
   21.180    7.4566
   21.195    7.9516
   21.210    7.9726
   21.225    7.8568
   21.240    8.1306
   21.255    7.8041
   21.270    7.7093
   21.285    8.1201
   21.300    8.2254
   21.315    8.1517
   21.330    7.9937
   21.345    8.2991
   21.360    7.7830
   21.375    7.9200
   21.390    8.2254
   21.405    7.6988
   21.420    7.5829
   21.435    7.4144
   21.450    7.8357
   21.465    7.5197
   21.480    7.7936
   21.495    7.7409
   21.510    7.5303
   21.525    7.8884
   21.540    7.9094
   21.555    8.2149
   21.570    7.5935
   21.585    7.4776
   21.600    8.0674
   21.615    8.2359
   21.630    8.1833
   21.645    7.7093
   21.660    7.6356
   21.675    7.6145
   21.690    7.6251
   21.705    7.9726
   21.720    7.9621
   21.735    8.0463
   21.750    8.0042
   21.765    7.8884
   21.780    7.8146
   21.795    8.1411
   21.810    7.9200
   21.825    7.9516
   21.840    8.0885
   21.855    8.0674
   21.870    7.8462
   21.885    7.8357
   21.900    8.0779
   21.915    8.2886
   21.930    7.8884
   21.945    7.5303
   21.960    7.9410
   21.975    7.8568
   21.990    7.9516
   22.005    8.0358
   22.020    8.0990
   22.035    7.9410
   22.050    7.5408
   22.065    7.5092
   22.080    8.0569
   22.095    7.9305
   22.110    7.6988
   22.125    7.9831
   22.140    7.8884
   22.155    8.0358
   22.170    7.6777
   22.185    7.8462
   22.200    8.0779
   22.215    8.2570
   22.230    7.7409
   22.245    7.9410
   22.260    8.0358
   22.275    7.6672
   22.290    8.1201
   22.305    7.9200
   22.320    7.9726
   22.335    8.1938
   22.350    8.0253
   22.365    7.6145
   22.380    7.8884
   22.395    7.8041
   22.410    7.7304
   22.425    7.7830
   22.440    8.2464
   22.455    7.9621
   22.470    8.1095
   22.485    8.1517
   22.500    8.1833
   22.515    7.6567
   22.530    7.9621
   22.545    8.5308
   22.560    8.0042
   22.575    7.8252
   22.590    8.4571
   22.605    7.7620
   22.620    7.9726
   22.635    7.9937
   22.650    8.1517
   22.665    8.3939
   22.680    8.3412
   22.695    7.6988
   22.710    8.2464
   22.725    8.5519
   22.740    8.0779
   22.755    8.0990
   22.770    8.0042
   22.785    8.2675
   22.800    8.3728
   22.815    8.4150
   22.830    8.5203
   22.845    8.3939
   22.860    8.2570
   22.875    8.0674
   22.890    8.2149
   22.905    8.1201
   22.920    8.0779
   22.935    8.6677
   22.950    7.9516
   22.965    7.9410
   22.980    7.8989
   22.995    7.7409
   23.010    8.0569
   23.025    7.8673
   23.040    7.9410
   23.055    7.9094
   23.070    7.8778
   23.085    7.9621
   23.100    8.2359
   23.115    8.2254
   23.130    8.0463
   23.145    8.0674
   23.160    8.2570
   23.175    7.8146
   23.190    8.2149
   23.205    8.5835
   23.220    8.5624
   23.235    8.3307
   23.250    7.9937
   23.265    8.1306
   23.280    8.0569
   23.295    7.6251
   23.310    8.4255
   23.325    7.8146
   23.340    8.0779
   23.355    8.0885
   23.370    8.1201
   23.385    8.3307
   23.400    8.7625
   23.415    8.2464
   23.430    8.1938
   23.445    8.2991
   23.460    8.2464
   23.475    8.3412
   23.490    8.4150
   23.505    8.2359
   23.520    8.2043
   23.535    7.7936
   23.550    8.0147
   23.565    8.1095
   23.580    8.1727
   23.595    7.9200
   23.610    7.8357
   23.625    7.9831
   23.640    8.3412
   23.655    7.9937
   23.670    8.1622
   23.685    8.0147
   23.700    8.0042
   23.715    7.6988
   23.730    7.5408
   23.745    8.0569
   23.760    7.9516
   23.775    7.4460
   23.790    7.8989
   23.805    7.7304
   23.820    7.3091
   23.835    7.7620
   23.850    7.7514
   23.865    7.8673
   23.880    7.8989
   23.895    7.4987
   23.910    7.7936
   23.925    7.7830
   23.940    7.7725
   23.955    7.9831
   23.970    7.9621
   23.985    7.7304
   24.000    7.6251
   24.015    7.6251
   24.030    8.0358
   24.045    8.1833
   24.060    7.6988
   24.075    7.6988
   24.090    7.8252
   24.105    7.2038
   24.120    7.9726
   24.135    7.8252
   24.150    7.9410
   24.165    7.8884
   24.180    7.8989
   24.195    8.1411
   24.210    7.7936
   24.225    7.7304
   24.240    7.5935
   24.255    7.7304
   24.270    7.6145
   24.285    8.0463
   24.300    7.8884
   24.315    7.6567
   24.330    7.5513
   24.345    8.0358
   24.360    8.3728
   24.375    7.9305
   24.390    7.8146
   24.405    7.6040
   24.420    8.1622
   24.435    7.8462
   24.450    7.5935
   24.465    8.0042
   24.480    7.9726
   24.495    7.8673
   24.510    7.8252
   24.525    7.4460
   24.540    7.5724
   24.555    7.9305
   24.570    7.6356
   24.585    7.7936
   24.600    7.7830
   24.615    7.7725
   24.630    7.5197
   24.645    7.7620
   24.660    8.1306
   24.675    7.9726
   24.690    7.2880
   24.705    7.7830
   24.720    7.8041
   24.735    7.4144
   24.750    7.7514
   24.765    7.9410
   24.780    8.0358
   24.795    7.7936
   24.810    7.4882
   24.825    7.3723
   24.840    8.0779
   24.855    8.0463
   24.870    7.9516
   24.885    8.0147
   24.900    7.3723
   24.915    7.8041
   24.930    7.7936
   24.945    7.7199
   24.960    7.5197
   24.975    7.5935
   24.990    7.3828
   25.005    7.4882
   25.020    7.6461
   25.035    7.6988
   25.050    7.7514
   25.065    7.6672
   25.080    7.4987
   25.095    7.6567
   25.110    7.4250
   25.125    7.4039
   25.140    7.7725
   25.155    7.5829
   25.170    8.0779
   25.185    7.7830
   25.200    7.9516
   25.215    7.8357
   25.230    8.0358
   25.245    7.6567
   25.260    7.5724
   25.275    7.8462
   25.290    7.4039
   25.305    7.3934
   25.320    8.1517
   25.335    7.9410
   25.350    7.1827
   25.365    7.1827
   25.380    7.4250
   25.395    7.7725
   25.410    7.7514
   25.425    7.6145
   25.440    7.8673
   25.455    8.0569
   25.470    7.7620
   25.485    7.6777
   25.500    7.5724
   25.515    7.9305
   25.530    7.6988
   25.545    7.6988
   25.560    7.6567
   25.575    7.7725
   25.590    7.9200
   25.605    7.5619
   25.620    7.6777
   25.635    7.5197
   25.650    7.4987
   25.665    7.2354
   25.680    7.6040
   25.695    7.1722
   25.710    7.4355
   25.725    7.4882
   25.740    7.4566
   25.755    8.0358
   25.770    7.2775
   25.785    7.3723
   25.800    7.7936
   25.815    7.4671
   25.830    7.5197
   25.845    7.4882
   25.860    7.5619
   25.875    7.7514
   25.890    7.8041
   25.905    7.6251
   25.920    7.5197
   25.935    7.6988
   25.950    7.1617
   25.965    7.2986
   25.980    7.4987
   25.995    7.0669
   26.010    7.2143
   26.025    7.3934
   26.040    7.5408
   26.055    7.3512
   26.070    7.3618
   26.085    7.9516
   26.100    7.4566
   26.115    7.2459
   26.130    7.5303
   26.145    7.7936
   26.160    7.5829
   26.175    7.7936
   26.190    7.6145
   26.205    7.6777
   26.220    8.2464
   26.235    8.0569
   26.250    8.1411
   26.265    7.5724
   26.280    7.8989
   26.295    7.8462
   26.310    7.6461
   26.325    7.7199
   26.340    7.7304
   26.355    7.6883
   26.370    7.8462
   26.385    7.7093
   26.400    7.8884
   26.415    7.8673
   26.430    7.6777
   26.445    7.5829
   26.460    7.2565
   26.475    7.4776
   26.490    7.7093
   26.505    7.9410
   26.520    7.1617
   26.535    7.2249
   26.550    7.7725
   26.565    7.2670
   26.580    7.4566
   26.595    7.2038
   26.610    7.1406
   26.625    7.3091
   26.640    7.4882
   26.655    7.3302
   26.670    7.6356
   26.685    7.2143
   26.700    7.5197
   26.715    7.3196
   26.730    7.4039
   26.745    7.0774
   26.760    7.2354
   26.775    7.4144
   26.790    7.3196
   26.805    7.4250
   26.820    7.5513
   26.835    7.4355
   26.850    7.3091
   26.865    7.6040
   26.880    7.3723
   26.895    7.0879
   26.910    7.2775
   26.925    7.2880
   26.940    7.6356
   26.955    7.4460
   26.970    7.2565
   26.985    7.0985
   27.000    7.1827
   27.015    7.2249
   27.030    7.1301
   27.045    7.5513
   27.060    7.6883
   27.075    7.7093
   27.090    7.3196
   27.105    7.3934
   27.120    7.1617
   27.135    7.4460
   27.150    7.8462
   27.165    7.4776
   27.180    7.4355
   27.195    7.4250
   27.210    7.6883
   27.225    7.5935
   27.240    7.2354
   27.255    7.4144
   27.270    7.2565
   27.285    7.4776
   27.300    7.9937
   27.315    7.4144
   27.330    7.4671
   27.345    7.5724
   27.360    7.6883
   27.375    7.7199
   27.390    7.6988
   27.405    7.2459
   27.420    7.4776
   27.435    7.1511
   27.450    7.5197
   27.465    7.4882
   27.480    7.2986
   27.495    7.9410
   27.510    7.7725
   27.525    7.7199
   27.540    7.3196
   27.555    7.1827
   27.570    7.3512
   27.585    7.5197
   27.600    7.8673
   27.615    7.6883
   27.630    7.7199
   27.645    7.7093
   27.660    7.3618
   27.675    7.7830
   27.690    7.4460
   27.705    7.4460
   27.720    7.6145
   27.735    7.3934
   27.750    7.3723
   27.765    7.2038
   27.780    7.2038
   27.795    7.0563
   27.810    7.0248
   27.825    7.2354
   27.840    7.2143
   27.855    7.0669
   27.870    7.3618
   27.885    7.2459
   27.900    7.4039
   27.915    7.3196
   27.930    7.3091
   27.945    7.3934
   27.960    7.0985
   27.975    6.8668
   27.990    7.2143
   28.005    7.2986
   28.020    7.3196
   28.035    7.3091
   28.050    7.3091
   28.065    7.3618
   28.080    6.7299
   28.095    7.2670
   28.110    7.1827
   28.125    7.4882
   28.140    7.6777
   28.155    7.5408
   28.170    7.2986
   28.185    7.0879
   28.200    7.3091
   28.215    7.1406
   28.230    6.9300
   28.245    6.9194
   28.260    6.8668
   28.275    7.1933
   28.290    7.2775
   28.305    6.9089
   28.320    7.3723
   28.335    6.9721
   28.350    7.1722
   28.365    7.3091
   28.380    6.7404
   28.395    6.7930
   28.410    7.2249
   28.425    7.0458
   28.440    6.8562
   28.455    6.9616
   28.470    7.3934
   28.485    7.3618
   28.500    7.1933
   28.515    7.1195
   28.530    7.0563
   28.545    7.4987
   28.560    6.9089
   28.575    6.6877
   28.590    6.9616
   28.605    7.0458
   28.620    6.9826
   28.635    7.3618
   28.650    7.6040
   28.665    6.8246
   28.680    7.0563
   28.695    7.0458
   28.710    6.8878
   28.725    6.8878
   28.740    6.5719
   28.755    6.8668
   28.770    6.8352
   28.785    6.5403
   28.800    6.7404
   28.815    6.7299
   28.830    6.5508
   28.845    6.2770
   28.860    6.6983
   28.875    7.1406
   28.890    7.0248
   28.905    7.0037
   28.920    6.6140
   28.935    6.9194
   28.950    7.0248
   28.965    6.8562
   28.980    6.6877
   28.995    6.9616
   29.010    6.7088
   29.025    6.3296
   29.040    6.6983
   29.055    7.2249
   29.070    7.1617
   29.085    6.5087
   29.100    7.3196
   29.115    7.0879
   29.130    6.4350
   29.145    6.8457
   29.160    6.8352
   29.175    6.7615
   29.190    6.3507
   29.205    6.5613
   29.220    6.8036
   29.235    6.8457
   29.250    7.4566
   29.265    6.7930
   29.280    6.7299
   29.295    6.5824
   29.310    6.5824
   29.325    6.6351
   29.340    6.9300
   29.355    7.0248
   29.370    7.0669
   29.385    6.8668
   29.400    7.3196
   29.415    7.2143
   29.430    6.8984
   29.445    6.7404
   29.460    6.8141
   29.475    7.3618
   29.490    7.0985
   29.505    6.5087
   29.520    6.9616
   29.535    6.7509
   29.550    6.6772
   29.565    6.7615
   29.580    7.0774
   29.595    6.8984
   29.610    7.1195
   29.625    6.6772
   29.640    6.6561
   29.655    7.0879
   29.670    7.3934
   29.685    6.7825
   29.700    6.7615
   29.715    6.6983
   29.730    6.5719
   29.745    6.4876
   29.760    6.8668
   29.775    6.4560
   29.790    6.6561
   29.805    6.5719
   29.820    6.7088
   29.835    6.9405
   29.850    6.7930
   29.865    6.9932
   29.880    6.9616
   29.895    6.5613
   29.910    6.7404
   29.925    6.8036
   29.940    7.0985
   29.955    6.5087
   29.970    6.3823
   29.985    6.8246
   30.000    6.9826
   30.015    6.6983
   30.030    6.8141
   30.045    6.6140
   30.060    6.4560
   30.075    6.8984
   30.090    7.0037
   30.105    7.2880
   30.120    6.8457
   30.135    6.6983
   30.150    6.9826
   30.165    6.6561
   30.180    6.9721
   30.195    6.9721
   30.210    6.5613
   30.225    6.4876
   30.240    6.7615
   30.255    6.9194
   30.270    7.0037
   30.285    6.8668
   30.300    6.8246
   30.315    6.6667
   30.330    6.9089
   30.345    7.0669
   30.360    6.8773
   30.375    6.4771
   30.390    6.4244
   30.405    6.6140
   30.420    6.8562
   30.435    7.0248
   30.450    6.5403
   30.465    6.6877
   30.480    6.9300
   30.495    6.8562
   30.510    6.9300
   30.525    6.7615
   30.540    7.1933
   30.555    6.6877
   30.570    6.5508
   30.585    6.4666
   30.600    6.2559
   30.615    6.4560
   30.630    6.3191
   30.645    6.5508
   30.660    7.1933
   30.675    6.5087
   30.690    6.6035
   30.705    6.6140
   30.720    6.9721
   30.735    6.6667
   30.750    6.6140
   30.765    6.6877
   30.780    6.6667
   30.795    6.4455
   30.810    6.4244
   30.825    6.5824
   30.840    6.7930
   30.855    6.5719
   30.870    6.6456
   30.885    6.7404
   30.900    6.5298
   30.915    6.4034
   30.930    6.8246
   30.945    6.4560
   30.960    6.5403
   30.975    6.4771
   30.990    6.4666
   31.005    6.3507
   31.020    6.6772
   31.035    6.5298
   31.050    6.5403
   31.065    6.1190
   31.080    6.1401
   31.095    6.6245
   31.110    6.7299
   31.125    6.6772
   31.140    6.3296
   31.155    6.6561
   31.170    6.2559
   31.185    6.7509
   31.200    6.2981
   31.215    6.2770
   31.230    6.3928
   31.245    6.3086
   31.260    6.6667
   31.275    6.5508
   31.290    6.1927
   31.305    6.2770
   31.320    6.5192
   31.335    6.5508
   31.350    6.3086
   31.365    6.2981
   31.380    6.5824
   31.395    6.3402
   31.410    6.8141
   31.425    6.4244
   31.440    6.2033
   31.455    6.3191
   31.470    6.7509
   31.485    6.4876
   31.500    6.6035
   31.515    6.7825
   31.530    6.4771
   31.545    6.3296
   31.560    6.3402
   31.575    6.2981
   31.590    6.1822
   31.605    6.5613
   31.620    6.5929
   31.635    6.8036
   31.650    6.4876
   31.665    6.3296
   31.680    6.1927
   31.695    6.3086
   31.710    6.4560
   31.725    6.3718
   31.740    6.2875
   31.755    6.5298
   31.770    6.7088
   31.785    6.5929
   31.800    6.5824
   31.815    6.5192
   31.830    6.6035
   31.845    6.3402
   31.860    6.7930
   31.875    6.8036
   31.890    6.5824
   31.905    6.5508
   31.920    6.9194
   31.935    6.8773
   31.950    6.6351
   31.965    6.4455
   31.980    6.8668
   31.995    6.6561
   32.010    6.4244
   32.025    6.3296
   32.040    6.5087
   32.055    6.4771
   32.070    6.3612
   32.085    6.3402
   32.100    6.4244
   32.115    6.4771
   32.130    6.7088
   32.145    6.2033
   32.160    6.2770
   32.175    6.4455
   32.190    6.5403
   32.205    6.6456
   32.220    6.4771
   32.235    5.9821
   32.250    6.1927
   32.265    6.4244
   32.280    6.4666
   32.295    6.5929
   32.310    6.1822
   32.325    6.7193
   32.340    6.1295
   32.355    6.0769
   32.370    6.1822
   32.385    6.4876
   32.400    6.6351
   32.415    6.6351
   32.430    6.2349
   32.445    6.4350
   32.460    6.4560
   32.475    5.8557
   32.490    6.3507
   32.505    6.1190
   32.520    6.2981
   32.535    6.2243
   32.550    6.2770
   32.565    6.7404
   32.580    6.6140
   32.595    6.4455
   32.610    6.5087
   32.625    6.1295
   32.640    6.2243
   32.655    6.5929
   32.670    5.8978
   32.685    6.0664
   32.700    5.9294
   32.715    6.4139
   32.730    6.0874
   32.745    6.2033
   32.760    6.1822
   32.775    6.3507
   32.790    6.3402
   32.805    6.4876
   32.820    6.2875
   32.835    6.3191
   32.850    6.2770
   32.865    6.0664
   32.880    6.2243
   32.895    6.3296
   32.910    6.4455
   32.925    6.3296
   32.940    5.8873
   32.955    5.7609
   32.970    5.8347
   32.985    6.5613
   33.000    5.9400
   33.015    5.7715
   33.030    6.0137
   33.045    5.9189
   33.060    5.9400
   33.075    5.9294
   33.090    6.1190
   33.105    5.7715
   33.120    6.2875
   33.135    5.9716
   33.150    6.1401
   33.165    5.8978
   33.180    5.8136
   33.195    6.4350
   33.210    6.0979
   33.225    6.1085
   33.240    6.4350
   33.255    6.3191
   33.270    6.1611
   33.285    6.1190
   33.300    5.8347
   33.315    6.2138
   33.330    6.3823
   33.345    6.2559
   33.360    6.4350
   33.375    6.1717
   33.390    5.9400
   33.405    6.3928
   33.420    6.4560
   33.435    6.1295
   33.450    5.8978
   33.465    6.2559
   33.480    6.5508
   33.495    6.5087
   33.510    6.2770
   33.525    6.1506
   33.540    6.2981
   33.555    6.2770
   33.570    5.9084
   33.585    6.2875
   33.600    6.6983
   33.615    6.4244
   33.630    6.4350
   33.645    6.3402
   33.660    6.0348
   33.675    6.1190
   33.690    6.3507
   33.705    6.3191
   33.720    6.1611
   33.735    6.2033
   33.750    6.1190
   33.765    6.2981
   33.780    6.0242
   33.795    6.1506
   33.810    6.2454
   33.825    6.2243
   33.840    5.9505
   33.855    6.3086
   33.870    6.1717
   33.885    6.4244
   33.900    6.2981
   33.915    6.1085
   33.930    5.9189
   33.945    6.2665
   33.960    6.2770
   33.975    6.2349
   33.990    5.8452
   34.005    5.7925
   34.020    6.1822
   34.035    6.0242
   34.050    6.1611
   34.065    6.0032
   34.080    5.9400
   34.095    6.0242
   34.110    6.0453
   34.125    6.1822
   34.140    6.2454
   34.155    6.2138
   34.170    5.8136
   34.185    6.1295
   34.200    6.2033
   34.215    6.1506
   34.230    6.3402
   34.245    5.9821
   34.260    5.8662
   34.275    6.2033
   34.290    6.0769
   34.305    5.9716
   34.320    6.3718
   34.335    6.3928
   34.350    5.9716
   34.365    6.0348
   34.380    5.9716
   34.395    6.0769
   34.410    6.0979
   34.425    5.5398
   34.440    5.8873
   34.455    6.0137
   34.470    5.8873
   34.485    6.0979
   34.500    6.3191
   34.515    6.0453
   34.530    5.8557
   34.545    6.0558
   34.560    6.1611
   34.575    5.8873
   34.590    5.7083
   34.605    5.5187
   34.620    6.0032
   34.635    6.1190
   34.650    5.9610
   34.665    5.7293
   34.680    6.0453
   34.695    6.3191
   34.710    5.5503
   34.725    5.9189
   34.740    5.8768
   34.755    5.8557
   34.770    5.8978
   34.785    5.7083
   34.800    5.7820
   34.815    6.0979
   34.830    6.1717
   34.845    6.0769
   34.860    6.2665
   34.875    5.8978
   34.890    5.8347
   34.905    6.0453
   34.920    5.8452
   34.935    6.0242
   34.950    5.7609
   34.965    5.8136
   34.980    5.9189
   34.995    5.6767
   35.010    5.8662
   35.025    5.9084
   35.040    6.2981
   35.055    5.8136
   35.070    5.7504
   35.085    5.9084
   35.100    5.6661
   35.115    5.9610
   35.130    5.7820
   35.145    5.5819
   35.160    5.8978
   35.175    5.8873
   35.190    5.8241
   35.205    5.7925
   35.220    5.6556
   35.235    5.5503
   35.250    5.9400
   35.265    6.0664
   35.280    6.2770
   35.295    6.1927
   35.310    6.4034
   35.325    6.3086
   35.340    5.9716
   35.355    5.9084
   35.370    6.0769
   35.385    5.9400
   35.400    6.0453
   35.415    6.2770
   35.430    5.7293
   35.445    5.9400
   35.460    6.0137
   35.475    6.2559
   35.490    6.0558
   35.505    6.1506
   35.520    6.0874
   35.535    5.4871
   35.550    5.8031
   35.565    5.3502
   35.580    5.8241
   35.595    5.6767
   35.610    5.7609
   35.625    5.9926
   35.640    5.7504
   35.655    6.0453
   35.670    5.8241
   35.685    6.0348
   35.700    6.0453
   35.715    5.8557
   35.730    5.9189
   35.745    5.9189
   35.760    5.7293
   35.775    5.4660
   35.790    5.4134
   35.805    5.6135
   35.820    5.6767
   35.835    5.8031
   35.850    5.3923
   35.865    6.0453
   35.880    5.9294
   35.895    5.8557
   35.910    5.9189
   35.925    6.0137
   35.940    5.8452
   35.955    5.5187
   35.970    5.8557
   35.985    6.1085
   36.000    5.6556
   36.015    5.6345
   36.030    5.8136
   36.045    5.7083
   36.060    5.7715
   36.075    5.7925
   36.090    5.6240
   36.105    5.7504
   36.120    5.5819
   36.135    5.7925
   36.150    5.6872
   36.165    5.4766
   36.180    5.6767
   36.195    5.7399
   36.210    5.7188
   36.225    5.6451
   36.240    5.4555
   36.255    5.8136
   36.270    5.7504
   36.285    5.6451
   36.300    5.6977
   36.315    5.7504
   36.330    5.8768
   36.345    5.5608
   36.360    5.3923
   36.375    5.6977
   36.390    5.5503
   36.405    6.0979
   36.420    5.8768
   36.435    5.6240
   36.450    5.9505
   36.465    5.5398
   36.480    5.5819
   36.495    6.1401
   36.510    5.6872
   36.525    5.7925
   36.540    5.8347
   36.555    6.0558
   36.570    5.6029
   36.585    5.7188
   36.600    5.5924
   36.615    5.7083
   36.630    5.7715
   36.645    5.9505
   36.660    5.8136
   36.675    5.7715
   36.690    5.4660
   36.705    5.3923
   36.720    5.7293
   36.735    5.7504
   36.750    5.7504
   36.765    5.8662
   36.780    5.4028
   36.795    5.6661
   36.810    6.0242
   36.825    5.7715
   36.840    5.5292
   36.855    5.5187
   36.870    5.4344
   36.885    5.5187
   36.900    5.2975
   36.915    5.2975
   36.930    5.6872
   36.945    5.8768
   36.960    5.9610
   36.975    5.5924
   36.990    5.4450
   37.005    5.2133
   37.020    5.6345
   37.035    5.6135
   37.050    5.6661
   37.065    5.8241
   37.080    5.5503
   37.095    5.9610
   37.110    5.6556
   37.125    5.5819
   37.140    5.7399
   37.155    5.4134
   37.170    5.8347
   37.185    5.3502
   37.200    5.4976
   37.215    5.8768
   37.230    5.8347
   37.245    5.6977
   37.260    5.6240
   37.275    5.3818
   37.290    5.4660
   37.305    5.7504
   37.320    5.6767
   37.335    5.7188
   37.350    5.7399
   37.365    5.3291
   37.380    5.3291
   37.395    5.5082
   37.410    5.8031
   37.425    6.0348
   37.440    5.7504
   37.455    5.6556
   37.470    5.8241
   37.485    5.5608
   37.500    5.7715
   37.515    5.7188
   37.530    5.4450
   37.545    5.6451
   37.560    5.8031
   37.575    5.6661
   37.590    5.5398
   37.605    5.2659
   37.620    5.6977
   37.635    5.6872
   37.650    5.7293
   37.665    5.4239
   37.680    5.6872
   37.695    5.8452
   37.710    5.5924
   37.725    5.7609
   37.740    5.7925
   37.755    5.4134
   37.770    5.6029
   37.785    5.6661
   37.800    5.6556
   37.815    5.5608
   37.830    5.2449
   37.845    5.9505
   37.860    5.6029
   37.875    5.8557
   37.890    5.5082
   37.905    5.8978
   37.920    5.4871
   37.935    5.6135
   37.950    5.5819
   37.965    6.1190
   37.980    5.6240
   37.995    5.5292
   38.010    5.6240
   38.025    5.5714
   38.040    5.5503
   38.055    5.3081
   38.070    5.4871
   38.085    5.3291
   38.100    5.3712
   38.115    5.2238
   38.130    5.4555
   38.145    5.6872
   38.160    5.8136
   38.175    5.4450
   38.190    5.7820
   38.205    5.7399
   38.220    5.6345
   38.235    5.3291
   38.250    5.4660
   38.265    5.6135
   38.280    5.7083
   38.295    5.3607
   38.310    5.1817
   38.325    5.6345
   38.340    5.7820
   38.355    5.7504
   38.370    5.4871
   38.385    5.4555
   38.400    5.4134
   38.415    5.5924
   38.430    5.4660
   38.445    5.6135
   38.460    5.6661
   38.475    5.6977
   38.490    5.5819
   38.505    5.6135
   38.520    5.5398
   38.535    5.5503
   38.550    5.2870
   38.565    5.4028
   38.580    5.2027
   38.595    5.5187
   38.610    5.7293
   38.625    5.2659
   38.640    5.4028
   38.655    5.3923
   38.670    5.3502
   38.685    5.2554
   38.700    5.4660
   38.715    5.2133
   38.730    5.6977
   38.745    5.5187
   38.760    5.7504
   38.775    5.6345
   38.790    5.7399
   38.805    5.6556
   38.820    5.7820
   38.835    5.4239
   38.850    5.1185
   38.865    5.7188
   38.880    5.4028
   38.895    5.3502
   38.910    5.1080
   38.925    5.4344
   38.940    5.7293
   38.955    5.3712
   38.970    5.4450
   38.985    5.4239
   39.000    5.9084
   39.015    5.6767
   39.030    5.3607
   39.045    5.3081
   39.060    5.2975
   39.075    5.5819
   39.090    5.5292
   39.105    5.5187
   39.120    5.2343
   39.135    5.0553
   39.150    5.6661
   39.165    5.3818
   39.180    5.0237
   39.195    5.5292
   39.210    5.6767
   39.225    5.5082
   39.240    5.1817
   39.255    5.0764
   39.270    5.2975
   39.285    5.4134
   39.300    5.5187
   39.315    5.7083
   39.330    5.1817
   39.345    5.3923
   39.360    5.3923
   39.375    5.5398
   39.390    5.2449
   39.405    5.5503
   39.420    5.7188
   39.435    5.6556
   39.450    5.4239
   39.465    5.6872
   39.480    5.5819
   39.495    5.8031
   39.510    5.6345
   39.525    5.5714
   39.540    5.9189
   39.555    5.5187
   39.570    5.7504
   39.585    5.5398
   39.600    5.4134
   39.615    5.6661
   39.630    5.6240
   39.645    5.5819
   39.660    5.3607
   39.675    5.3923
   39.690    5.5608
   39.705    5.5398
   39.720    5.2554
   39.735    5.4028
   39.750    5.7083
   39.765    5.5714
   39.780    5.5398
   39.795    5.2343
   39.810    5.6029
   39.825    5.7083
   39.840    5.4976
   39.855    5.4660
   39.870    5.3607
   39.885    5.2027
   39.900    5.8241
   39.915    5.5819
   39.930    5.4871
   39.945    5.9084
   39.960    5.7293
   39.975    5.3186
   39.990    5.5608
