    1.500    6.3046
    1.515    6.3810
    1.530    6.2282
    1.545    6.0802
    1.560    5.9426
    1.575    5.7687
    1.590    5.5987
    1.605    5.4878
    1.620    5.4102
    1.635    5.1977
    1.650    5.0746
    1.665    4.9239
    1.680    4.8255
    1.695    4.7149
    1.710    4.6091
    1.725    4.4777
    1.740    4.3478
    1.755    4.2298
    1.770    4.1169
    1.785    4.0137
    1.800    3.9570
    1.815    3.8776
    1.830    3.7578
    1.845    3.6874
    1.860    3.6353
    1.875    3.5485
    1.890    3.3901
    1.905    3.3318
    1.920    3.2575
    1.935    3.2073
    1.950    3.0878
    1.965    3.0040
    1.980    2.9630
    1.995    2.8857
    2.010    2.8390
    2.025    2.7748
    2.040    2.6954
    2.055    2.6125
    2.070    2.5394
    2.085    2.4906
    2.100    2.4532
    2.115    2.3905
    2.130    2.3955
    2.145    2.3251
    2.160    2.2808
    2.175    2.2139
    2.190    2.1705
    2.205    2.1405
    2.220    2.0626
    2.235    2.0575
    2.250    2.0192
    2.265    1.9713
    2.280    1.8941
    2.295    1.8947
    2.310    1.8753
    2.325    1.8171
    2.340    1.7811
    2.355    1.7969
    2.370    1.7166
    2.385    1.7035
    2.400    1.7107
    2.415    1.6393
    2.430    1.6173
    2.445    1.5772
    2.460    1.5600
    2.475    1.5127
    2.490    1.5011
    2.505    1.4660
    2.520    1.4711
    2.535    1.4110
    2.550    1.3760
    2.565    1.3760
    2.580    1.3543
    2.595    1.3706
    2.610    1.3465
    2.625    1.3058
    2.640    1.2523
    2.655    1.2678
    2.670    1.2458
    2.685    1.2119
    2.700    1.1934
    2.715    1.1726
    2.730    1.1483
    2.745    1.1459
    2.760    1.1649
    2.775    1.1188
    2.790    1.1010
    2.805    1.1090
    2.820    1.0713
    2.835    1.0526
    2.850    1.0638
    2.865    1.0228
    2.880    1.0243
    2.895    1.0493
    2.910    1.0056
    2.925    0.9910
    2.940    1.0246
    2.955    0.9726
    2.970    0.9812
    2.985    0.9634
    3.000    0.9452
    3.015    0.9387
    3.030    0.9298
    3.045    0.9369
    3.060    0.8986
    3.075    0.8867
    3.090    0.8900
    3.105    0.8903
    3.120    0.8766
    3.135    0.8403
    3.150    0.8486
    3.165    0.8275
    3.180    0.8133
    3.195    0.8085
    3.210    0.8284
    3.225    0.8347
    3.240    0.8216
    3.255    0.7963
    3.270    0.8049
    3.285    0.7975
    3.300    0.7785
    3.315    0.7844
    3.330    0.7901
    3.345    0.7633
    3.360    0.7431
    3.375    0.7363
    3.390    0.7678
    3.405    0.7660
    3.420    0.7437
    3.435    0.7398
    3.450    0.7116
    3.465    0.7074
    3.480    0.7083
    3.495    0.7306
    3.510    0.6911
    3.525    0.7098
    3.540    0.7036
    3.555    0.7045
    3.570    0.6926
    3.585    0.6673
    3.600    0.6730
    3.615    0.6584
    3.630    0.6712
    3.645    0.6652
    3.660    0.6536
    3.675    0.6679
    3.690    0.6575
    3.705    0.6733
    3.720    0.6468
    3.735    0.6441
    3.750    0.6474
    3.765    0.6513
    3.780    0.6462
    3.795    0.6453
    3.810    0.6221
    3.825    0.6311
    3.840    0.6311
    3.855    0.6569
    3.870    0.6248
    3.885    0.6415
    3.900    0.6358
    3.915    0.6364
    3.930    0.6088
    3.945    0.6091
    3.960    0.6257
    3.975    0.5921
    3.990    0.5981
    4.005    0.6311
    4.020    0.6082
    4.035    0.5909
    4.050    0.6001
    4.065    0.6162
    4.080    0.6209
    4.095    0.6221
    4.110    0.6242
    4.125    0.6183
    4.140    0.6067
    4.155    0.6022
    4.170    0.6293
    4.185    0.6314
    4.200    0.6287
    4.215    0.6218
    4.230    0.6459
    4.245    0.6328
    4.260    0.6370
    4.275    0.6566
    4.290    0.6742
    4.305    0.6777
    4.320    0.6855
    4.335    0.7074
    4.350    0.6947
    4.365    0.7372
    4.380    0.7476
    4.395    0.7458
    4.410    0.7696
    4.425    0.7883
    4.440    0.8130
    4.455    0.8023
    4.470    0.8249
    4.485    0.8159
    4.500    0.8109
    4.515    0.7892
    4.530    0.7330
    4.545    0.7107
    4.560    0.6673
    4.575    0.6492
    4.590    0.6322
    4.605    0.6230
    4.620    0.6207
    4.635    0.5921
    4.650    0.6040
    4.665    0.6016
    4.680    0.5677
    4.695    0.5553
    4.710    0.5573
    4.725    0.5529
    4.740    0.5517
    4.755    0.5713
    4.770    0.5517
    4.785    0.5615
    4.800    0.5639
    4.815    0.5695
    4.830    0.5606
    4.845    0.5529
    4.860    0.5434
    4.875    0.5374
    4.890    0.5499
    4.905    0.5618
    4.920    0.5704
    4.935    0.5600
    4.950    0.5728
    4.965    0.5689
    4.980    0.5841
    4.995    0.5686
    5.010    0.5401
    5.025    0.5603
    5.040    0.5630
    5.055    0.5749
    5.070    0.5541
    5.085    0.5773
    5.100    0.5630
    5.115    0.5579
    5.130    0.5502
    5.145    0.5582
    5.160    0.5517
    5.175    0.5487
    5.190    0.5443
    5.205    0.5315
    5.220    0.5371
    5.235    0.5460
    5.250    0.5484
    5.265    0.5345
    5.280    0.5273
    5.295    0.5229
    5.310    0.5190
    5.325    0.5217
    5.340    0.5119
    5.355    0.5291
    5.370    0.5270
    5.385    0.5083
    5.400    0.5243
    5.415    0.5163
    5.430    0.5059
    5.445    0.5089
    5.460    0.5065
    5.475    0.4916
    5.490    0.4976
    5.505    0.4911
    5.520    0.4887
    5.535    0.5178
    5.550    0.4919
    5.565    0.4928
    5.580    0.4783
    5.595    0.4952
    5.610    0.4958
    5.625    0.4824
    5.640    0.4899
    5.655    0.5065
    5.670    0.4937
    5.685    0.4875
    5.700    0.4812
    5.715    0.4771
    5.730    0.4893
    5.745    0.4765
    5.760    0.4590
    5.775    0.4821
    5.790    0.4896
    5.805    0.4723
    5.820    0.4824
    5.835    0.4899
    5.850    0.4765
    5.865    0.4860
    5.880    0.4854
    5.895    0.4771
    5.910    0.4830
    5.925    0.4688
    5.940    0.4812
    5.955    0.4824
    5.970    0.4851
    5.985    0.4795
    6.000    0.4884
    6.015    0.4827
    6.030    0.4792
    6.045    0.4738
    6.060    0.4747
    6.075    0.4747
    6.090    0.4771
    6.105    0.4964
    6.120    0.4863
    6.135    0.4896
    6.150    0.4887
    6.165    0.4756
    6.180    0.4815
    6.195    0.4774
    6.210    0.4961
    6.225    0.5065
    6.240    0.4750
    6.255    0.4922
    6.270    0.4815
    6.285    0.4753
    6.300    0.4836
    6.315    0.5003
    6.330    0.4988
    6.345    0.4827
    6.360    0.4893
    6.375    0.4702
    6.390    0.4931
    6.405    0.4702
    6.420    0.4729
    6.435    0.4744
    6.450    0.4482
    6.465    0.4527
    6.480    0.4735
    6.495    0.4462
    6.510    0.4500
    6.525    0.4628
    6.540    0.4809
    6.555    0.4714
    6.570    0.4685
    6.585    0.4545
    6.600    0.4590
    6.615    0.4619
    6.630    0.4697
    6.645    0.4390
    6.660    0.4509
    6.675    0.4491
    6.690    0.4509
    6.705    0.4506
    6.720    0.4646
    6.735    0.4637
    6.750    0.4694
    6.765    0.4584
    6.780    0.4527
    6.795    0.4566
    6.810    0.4429
    6.825    0.4497
    6.840    0.4676
    6.855    0.4575
    6.870    0.4533
    6.885    0.4631
    6.900    0.4575
    6.915    0.4560
    6.930    0.4387
    6.945    0.4500
    6.960    0.4512
    6.975    0.4444
    6.990    0.4569
    7.005    0.4471
    7.020    0.4539
    7.035    0.4604
    7.050    0.4637
    7.065    0.4661
    7.080    0.4539
    7.095    0.4545
    7.110    0.4705
    7.125    0.4494
    7.140    0.4592
    7.155    0.4417
    7.170    0.4649
    7.185    0.4465
    7.200    0.4447
    7.215    0.4536
    7.230    0.4509
    7.245    0.4750
    7.260    0.4643
    7.275    0.4381
    7.290    0.4616
    7.305    0.4474
    7.320    0.4575
    7.335    0.4590
    7.350    0.4503
    7.365    0.4661
    7.380    0.4530
    7.395    0.4485
    7.410    0.4453
    7.425    0.4485
    7.440    0.4378
    7.455    0.4459
    7.470    0.4667
    7.485    0.4610
    7.500    0.4542
    7.515    0.4497
    7.530    0.4697
    7.545    0.4595
    7.560    0.4560
    7.575    0.4444
    7.590    0.4509
    7.605    0.4679
    7.620    0.4494
    7.635    0.4694
    7.650    0.4872
    7.665    0.4655
    7.680    0.4417
    7.695    0.4515
    7.710    0.4572
    7.725    0.4682
    7.740    0.4595
    7.755    0.4592
    7.770    0.4676
    7.785    0.4732
    7.800    0.4685
    7.815    0.4705
    7.830    0.4777
    7.845    0.4545
    7.860    0.4821
    7.875    0.4604
    7.890    0.4649
    7.905    0.4878
    7.920    0.4595
    7.935    0.4512
    7.950    0.4619
    7.965    0.4524
    7.980    0.4676
    7.995    0.4872
    8.010    0.4717
    8.025    0.4884
    8.040    0.4688
    8.055    0.4780
    8.070    0.4786
    8.085    0.4777
    8.100    0.4726
    8.115    0.4765
    8.130    0.4866
    8.145    0.4575
    8.160    0.4694
    8.175    0.4729
    8.190    0.4625
    8.205    0.4646
    8.220    0.4896
    8.235    0.4688
    8.250    0.4756
    8.265    0.4759
    8.280    0.4887
    8.295    0.4890
    8.310    0.4783
    8.325    0.4842
    8.340    0.4741
    8.355    0.4723
    8.370    0.4949
    8.385    0.4833
    8.400    0.4792
    8.415    0.4884
    8.430    0.4991
    8.445    0.5050
    8.460    0.5062
    8.475    0.5128
    8.490    0.5223
    8.505    0.5226
    8.520    0.4916
    8.535    0.4827
    8.550    0.5071
    8.565    0.4893
    8.580    0.4833
    8.595    0.4848
    8.610    0.4777
    8.625    0.4759
    8.640    0.4890
    8.655    0.4801
    8.670    0.4872
    8.685    0.5035
    8.700    0.4747
    8.715    0.4896
    8.730    0.4914
    8.745    0.4720
    8.760    0.4848
    8.775    0.4818
    8.790    0.4928
    8.805    0.4928
    8.820    0.4815
    8.835    0.4911
    8.850    0.4931
    8.865    0.5006
    8.880    0.4798
    8.895    0.4973
    8.910    0.4916
    8.925    0.4967
    8.940    0.4961
    8.955    0.4940
    8.970    0.4908
    8.985    0.5000
    9.000    0.5196
    9.015    0.5065
    9.030    0.4985
    9.045    0.5041
    9.060    0.4964
    9.075    0.5145
    9.090    0.5056
    9.105    0.4955
    9.120    0.4854
    9.135    0.4958
    9.150    0.4946
    9.165    0.5125
    9.180    0.5133
    9.195    0.5089
    9.210    0.5006
    9.225    0.5136
    9.240    0.5267
    9.255    0.5098
    9.270    0.5273
    9.285    0.5220
    9.300    0.5300
    9.315    0.5431
    9.330    0.5193
    9.345    0.5059
    9.360    0.5130
    9.375    0.5098
    9.390    0.5294
    9.405    0.5300
    9.420    0.5006
    9.435    0.5119
    9.450    0.5032
    9.465    0.5077
    9.480    0.5353
    9.495    0.5184
    9.510    0.5243
    9.525    0.5333
    9.540    0.5401
    9.555    0.5125
    9.570    0.5211
    9.585    0.5252
    9.600    0.5226
    9.615    0.5288
    9.630    0.5318
    9.645    0.5380
    9.660    0.5431
    9.675    0.5190
    9.690    0.5294
    9.705    0.5466
    9.720    0.5264
    9.735    0.5374
    9.750    0.5472
    9.765    0.5428
    9.780    0.5246
    9.795    0.5484
    9.810    0.5300
    9.825    0.5238
    9.840    0.5449
    9.855    0.5374
    9.870    0.5463
    9.885    0.5648
    9.900    0.5496
    9.915    0.5472
    9.930    0.5413
    9.945    0.5413
    9.960    0.5576
    9.975    0.5562
    9.990    0.5651
   10.005    0.5454
   10.020    0.5761
   10.035    0.5446
   10.050    0.5487
   10.065    0.5517
   10.080    0.5547
   10.095    0.5677
   10.110    0.5591
   10.125    0.5502
   10.140    0.5538
   10.155    0.5639
   10.170    0.5553
   10.185    0.5454
   10.200    0.5633
   10.215    0.5431
   10.230    0.5713
   10.245    0.5877
   10.260    0.5588
   10.275    0.5413
   10.290    0.5615
   10.305    0.5868
   10.320    0.5624
   10.335    0.5698
   10.350    0.5701
   10.365    0.5897
   10.380    0.5790
   10.395    0.5642
   10.410    0.5674
   10.425    0.5689
   10.440    0.5874
   10.455    0.5695
   10.470    0.5773
   10.485    0.5600
   10.500    0.5883
   10.515    0.5903
   10.530    0.5716
   10.545    0.5874
   10.560    0.5749
   10.575    0.5945
   10.590    0.5883
   10.605    0.5927
   10.620    0.5957
   10.635    0.5954
   10.650    0.5951
   10.665    0.5850
   10.680    0.5657
   10.695    0.5710
   10.710    0.5740
   10.725    0.5954
   10.740    0.5978
   10.755    0.5998
   10.770    0.5930
   10.785    0.5835
   10.800    0.6016
   10.815    0.6305
   10.830    0.5990
   10.845    0.6242
   10.860    0.5990
   10.875    0.6082
   10.890    0.6052
   10.905    0.6209
   10.920    0.5969
   10.935    0.6367
   10.950    0.5975
   10.965    0.6135
   10.980    0.6272
   10.995    0.6126
   11.010    0.6067
   11.025    0.6287
   11.040    0.6239
   11.055    0.6266
   11.070    0.6025
   11.085    0.6141
   11.100    0.6067
   11.115    0.6141
   11.130    0.6328
   11.145    0.6102
   11.160    0.6034
   11.175    0.6239
   11.190    0.6052
   11.205    0.5978
   11.220    0.6037
   11.235    0.6349
   11.250    0.6111
   11.265    0.6150
   11.280    0.6168
   11.295    0.6064
   11.310    0.6204
   11.325    0.6334
   11.340    0.5990
   11.355    0.5972
   11.370    0.6153
   11.385    0.6120
   11.400    0.6177
   11.415    0.6100
   11.430    0.6322
   11.445    0.6085
   11.460    0.6150
   11.475    0.6123
   11.490    0.6126
   11.505    0.6165
   11.520    0.6364
   11.535    0.6233
   11.550    0.6361
   11.565    0.6290
   11.580    0.6171
   11.595    0.6418
   11.610    0.6504
   11.625    0.6468
   11.640    0.6516
   11.655    0.6415
   11.670    0.6813
   11.685    0.7107
   11.700    0.6908
   11.715    0.6596
   11.730    0.6409
   11.745    0.6076
   11.760    0.5963
   11.775    0.6245
   11.790    0.6111
   11.805    0.6195
   11.820    0.6519
   11.835    0.6138
   11.850    0.6165
   11.865    0.6159
   11.880    0.6195
   11.895    0.6224
   11.910    0.6097
   11.925    0.5998
   11.940    0.6245
   11.955    0.6314
   11.970    0.6257
   11.985    0.6123
   12.000    0.6207
   12.015    0.6263
   12.030    0.6189
   12.045    0.6028
   12.060    0.5859
   12.075    0.6209
   12.090    0.6165
   12.105    0.6082
   12.120    0.6239
   12.135    0.6156
   12.150    0.6180
   12.165    0.6266
   12.180    0.6120
   12.195    0.6171
   12.210    0.6230
   12.225    0.6287
   12.240    0.6406
   12.255    0.6468
   12.270    0.6162
   12.285    0.6480
   12.300    0.6581
   12.315    0.6706
   12.330    0.7149
   12.345    0.7381
   12.360    0.7722
   12.375    0.7725
   12.390    0.7401
   12.405    0.6911
   12.420    0.6415
   12.435    0.6046
   12.450    0.5995
   12.465    0.6040
   12.480    0.5737
   12.495    0.5891
   12.510    0.6061
   12.525    0.5915
   12.540    0.5758
   12.555    0.5856
   12.570    0.5954
   12.585    0.5767
   12.600    0.5764
   12.615    0.5749
   12.630    0.5704
   12.645    0.5811
   12.660    0.5686
   12.675    0.5710
   12.690    0.5767
   12.705    0.5960
   12.720    0.6010
   12.735    0.5496
   12.750    0.5579
   12.765    0.5674
   12.780    0.5737
   12.795    0.5811
   12.810    0.5511
   12.825    0.5585
   12.840    0.5761
   12.855    0.5594
   12.870    0.5508
   12.885    0.5645
   12.900    0.5630
   12.915    0.5654
   12.930    0.5573
   12.945    0.5636
   12.960    0.5570
   12.975    0.5719
   12.990    0.5597
   13.005    0.5541
   13.020    0.5469
   13.035    0.5487
   13.050    0.5570
   13.065    0.5573
   13.080    0.5312
   13.095    0.5404
   13.110    0.5523
   13.125    0.5642
   13.140    0.5449
   13.155    0.5630
   13.170    0.5770
   13.185    0.5740
   13.200    0.5556
   13.215    0.5805
   13.230    0.5784
   13.245    0.5829
   13.260    0.5704
   13.275    0.5508
   13.290    0.5327
   13.305    0.5211
   13.320    0.5264
   13.335    0.5243
   13.350    0.5291
   13.365    0.5371
   13.380    0.5347
   13.395    0.5407
   13.410    0.5276
   13.425    0.5193
   13.440    0.5208
   13.455    0.5249
   13.470    0.5330
   13.485    0.5422
   13.500    0.5223
   13.515    0.5267
   13.530    0.5520
   13.545    0.5538
   13.560    0.5585
   13.575    0.5773
   13.590    0.6088
   13.605    0.6198
   13.620    0.6614
   13.635    0.7223
   13.650    0.8281
   13.665    0.9696
   13.680    1.1013
   13.695    1.1179
   13.710    1.0737
   13.725    0.9173
   13.740    0.7318
   13.755    0.5796
   13.770    0.5238
   13.785    0.5208
   13.800    0.5175
   13.815    0.4848
   13.830    0.5006
   13.845    0.5047
   13.860    0.4836
   13.875    0.5009
   13.890    0.4899
   13.905    0.4931
   13.920    0.4884
   13.935    0.4851
   13.950    0.4809
   13.965    0.4768
   13.980    0.4818
   13.995    0.4890
   14.010    0.4812
   14.025    0.4955
   14.040    0.4872
   14.055    0.4952
   14.070    0.4875
   14.085    0.4756
   14.100    0.4985
   14.115    0.4988
   14.130    0.4729
   14.145    0.4685
   14.160    0.4848
   14.175    0.4723
   14.190    0.4884
   14.205    0.4729
   14.220    0.4789
   14.235    0.4738
   14.250    0.4994
   14.265    0.4780
   14.280    0.4714
   14.295    0.4798
   14.310    0.4878
   14.325    0.4735
   14.340    0.4768
   14.355    0.4771
   14.370    0.4842
   14.385    0.4542
   14.400    0.4691
   14.415    0.4697
   14.430    0.4720
   14.445    0.4676
   14.460    0.4729
   14.475    0.4774
   14.490    0.4569
   14.505    0.4613
   14.520    0.4595
   14.535    0.4806
   14.550    0.4732
   14.565    0.4370
   14.580    0.4521
   14.595    0.4729
   14.610    0.4661
   14.625    0.4601
   14.640    0.4628
   14.655    0.4685
   14.670    0.4420
   14.685    0.4590
   14.700    0.4655
   14.715    0.4488
   14.730    0.4569
   14.745    0.4634
   14.760    0.4830
   14.775    0.4616
   14.790    0.4530
   14.805    0.4462
   14.820    0.4346
   14.835    0.4456
   14.850    0.4512
   14.865    0.4491
   14.880    0.4581
   14.895    0.4560
   14.910    0.4381
   14.925    0.4482
   14.940    0.4616
   14.955    0.4711
   14.970    0.4566
   14.985    0.4503
   15.000    0.4435
   15.015    0.4533
   15.030    0.4361
   15.045    0.4337
   15.060    0.4462
   15.075    0.4581
   15.090    0.4432
   15.105    0.4590
   15.120    0.4355
   15.135    0.4566
   15.150    0.4435
   15.165    0.4441
   15.180    0.4533
   15.195    0.4328
   15.210    0.4334
   15.225    0.4263
   15.240    0.4441
   15.255    0.4387
   15.270    0.4509
   15.285    0.4494
   15.300    0.4453
   15.315    0.4322
   15.330    0.4530
   15.345    0.4521
   15.360    0.4450
   15.375    0.4503
   15.390    0.4367
   15.405    0.4200
   15.420    0.4307
   15.435    0.4138
   15.450    0.4316
   15.465    0.4402
   15.480    0.4426
   15.495    0.4411
   15.510    0.4364
   15.525    0.4271
   15.540    0.4218
   15.555    0.4402
   15.570    0.4352
   15.585    0.4355
   15.600    0.4381
   15.615    0.4426
   15.630    0.4185
   15.645    0.4129
   15.660    0.4242
   15.675    0.4200
   15.690    0.4289
   15.705    0.4411
   15.720    0.4438
   15.735    0.4111
   15.750    0.4387
   15.765    0.4286
   15.780    0.4188
   15.795    0.4485
   15.810    0.4456
   15.825    0.4399
   15.840    0.4432
   15.855    0.4289
   15.870    0.4429
   15.885    0.4218
   15.900    0.4289
   15.915    0.4322
   15.930    0.4227
   15.945    0.4304
   15.960    0.4405
   15.975    0.4236
   15.990    0.4328
   16.005    0.4179
   16.020    0.4257
   16.035    0.4194
   16.050    0.4167
   16.065    0.4051
   16.080    0.4242
   16.095    0.4096
   16.110    0.4251
   16.125    0.4161
   16.140    0.4411
   16.155    0.4182
   16.170    0.4239
   16.185    0.4414
   16.200    0.4221
   16.215    0.4283
   16.230    0.4370
   16.245    0.4381
   16.260    0.4307
   16.275    0.4295
   16.290    0.4417
   16.305    0.4215
   16.320    0.4289
   16.335    0.4227
   16.350    0.4161
   16.365    0.4405
   16.380    0.4471
   16.395    0.4310
   16.410    0.4108
   16.425    0.4263
   16.440    0.4245
   16.455    0.4173
   16.470    0.4164
   16.485    0.4349
   16.500    0.4260
   16.515    0.4108
   16.530    0.4224
   16.545    0.4156
   16.560    0.4316
   16.575    0.4251
   16.590    0.4158
   16.605    0.4034
   16.620    0.4271
   16.635    0.4280
   16.650    0.4230
   16.665    0.4150
   16.680    0.4230
   16.695    0.4254
   16.710    0.4396
   16.725    0.4245
   16.740    0.4096
   16.755    0.4230
   16.770    0.4203
   16.785    0.4179
   16.800    0.4150
   16.815    0.4307
   16.830    0.4331
   16.845    0.4176
   16.860    0.4245
   16.875    0.4057
   16.890    0.4197
   16.905    0.4135
   16.920    0.4307
   16.935    0.4343
   16.950    0.4078
   16.965    0.4105
   16.980    0.4051
   16.995    0.4301
   17.010    0.4212
   17.025    0.4239
   17.040    0.4164
   17.055    0.4167
   17.070    0.4102
   17.085    0.4126
   17.100    0.4141
   17.115    0.4212
   17.130    0.4182
   17.145    0.4316
   17.160    0.4322
   17.175    0.4212
   17.190    0.4161
   17.205    0.4277
   17.220    0.4286
   17.235    0.3891
   17.250    0.4197
   17.265    0.4188
   17.280    0.4337
   17.295    0.4277
   17.310    0.4060
   17.325    0.4206
   17.340    0.4075
   17.355    0.4176
   17.370    0.4239
   17.385    0.4046
   17.400    0.4158
   17.415    0.4028
   17.430    0.4114
   17.445    0.4087
   17.460    0.4197
   17.475    0.4081
   17.490    0.4060
   17.505    0.4260
   17.520    0.4191
   17.535    0.4158
   17.550    0.4286
   17.565    0.4230
   17.580    0.4156
   17.595    0.4164
   17.610    0.4129
   17.625    0.4046
   17.640    0.4242
   17.655    0.4230
   17.670    0.4283
   17.685    0.4233
   17.700    0.4251
   17.715    0.4224
   17.730    0.4203
   17.745    0.4251
   17.760    0.4197
   17.775    0.4153
   17.790    0.4283
   17.805    0.4144
   17.820    0.4170
   17.835    0.4319
   17.850    0.4307
   17.865    0.4334
   17.880    0.4182
   17.895    0.4346
   17.910    0.4087
   17.925    0.4066
   17.940    0.4280
   17.955    0.4343
   17.970    0.4268
   17.985    0.4274
   18.000    0.4173
   18.015    0.4120
   18.030    0.4280
   18.045    0.4254
   18.060    0.4224
   18.075    0.4179
   18.090    0.4194
   18.105    0.4182
   18.120    0.4295
   18.135    0.4069
   18.150    0.4260
   18.165    0.4218
   18.180    0.4147
   18.195    0.4099
   18.210    0.4331
   18.225    0.4230
   18.240    0.4069
   18.255    0.4251
   18.270    0.4474
   18.285    0.4346
   18.300    0.4182
   18.315    0.4313
   18.330    0.4432
   18.345    0.4170
   18.360    0.4280
   18.375    0.4355
   18.390    0.4126
   18.405    0.4043
   18.420    0.4438
   18.435    0.4319
   18.450    0.4408
   18.465    0.4307
   18.480    0.4286
   18.495    0.4271
   18.510    0.4438
   18.525    0.4254
   18.540    0.4563
   18.555    0.4783
   18.570    0.5107
   18.585    0.5270
   18.600    0.5984
   18.615    0.6884
   18.630    0.7818
   18.645    0.9099
   18.660    0.9057
   18.675    0.9007
   18.690    0.8210
   18.705    0.6462
   18.720    0.5475
   18.735    0.4759
   18.750    0.4592
   18.765    0.4426
   18.780    0.4176
   18.795    0.4277
   18.810    0.4242
   18.825    0.4277
   18.840    0.4280
   18.855    0.4337
   18.870    0.4378
   18.885    0.4245
   18.900    0.4280
   18.915    0.4138
   18.930    0.4268
   18.945    0.4215
   18.960    0.4072
   18.975    0.4084
   18.990    0.4221
   19.005    0.4411
   19.020    0.4206
   19.035    0.3995
   19.050    0.4173
   19.065    0.4153
   19.080    0.4370
   19.095    0.4453
   19.110    0.4242
   19.125    0.4144
   19.140    0.4179
   19.155    0.4221
   19.170    0.4444
   19.185    0.4462
   19.200    0.4375
   19.215    0.4245
   19.230    0.4230
   19.245    0.4153
   19.260    0.4263
   19.275    0.4268
   19.290    0.4218
   19.305    0.4069
   19.320    0.4200
   19.335    0.4266
   19.350    0.4194
   19.365    0.4378
   19.380    0.4245
   19.395    0.4334
   19.410    0.4176
   19.425    0.4266
   19.440    0.4292
   19.455    0.4126
   19.470    0.4295
   19.485    0.4328
   19.500    0.4441
   19.515    0.4185
   19.530    0.4206
   19.545    0.4331
   19.560    0.4298
   19.575    0.4156
   19.590    0.4334
   19.605    0.4182
   19.620    0.4277
   19.635    0.4373
   19.650    0.4298
   19.665    0.4340
   19.680    0.4268
   19.695    0.4462
   19.710    0.4462
   19.725    0.4488
   19.740    0.4224
   19.755    0.4221
   19.770    0.4298
   19.785    0.4203
   19.800    0.4355
   19.815    0.4334
   19.830    0.4316
   19.845    0.4277
   19.860    0.4138
   19.875    0.4141
   19.890    0.4387
   19.905    0.4227
   19.920    0.4197
   19.935    0.4147
   19.950    0.4141
   19.965    0.4242
   19.980    0.4257
   19.995    0.4141
   20.010    0.4373
   20.025    0.4200
   20.040    0.4150
   20.055    0.4292
   20.070    0.4417
   20.085    0.4283
   20.100    0.4176
   20.115    0.4239
   20.130    0.4182
   20.145    0.4206
   20.160    0.4414
   20.175    0.4367
   20.190    0.4334
   20.205    0.4129
   20.220    0.4280
   20.235    0.4331
   20.250    0.4441
   20.265    0.4381
   20.280    0.4355
   20.295    0.4233
   20.310    0.4206
   20.325    0.4337
   20.340    0.4274
   20.355    0.4340
   20.370    0.4488
   20.385    0.4343
   20.400    0.4248
   20.415    0.4194
   20.430    0.4075
   20.445    0.4328
   20.460    0.4271
   20.475    0.4144
   20.490    0.4268
   20.505    0.4414
   20.520    0.4078
   20.535    0.4248
   20.550    0.4274
   20.565    0.4096
   20.580    0.4233
   20.595    0.4227
   20.610    0.4191
   20.625    0.4373
   20.640    0.4268
   20.655    0.4322
   20.670    0.4209
   20.685    0.4179
   20.700    0.4263
   20.715    0.4361
   20.730    0.4325
   20.745    0.4081
   20.760    0.4147
   20.775    0.4295
   20.790    0.4474
   20.805    0.4349
   20.820    0.4170
   20.835    0.4209
   20.850    0.4188
   20.865    0.4322
   20.880    0.4257
   20.895    0.4248
   20.910    0.4280
   20.925    0.4271
   20.940    0.4307
   20.955    0.4280
   20.970    0.4242
   20.985    0.4176
   21.000    0.4337
   21.015    0.4373
   21.030    0.4334
   21.045    0.4337
   21.060    0.4257
   21.075    0.4361
   21.090    0.4257
   21.105    0.4307
   21.120    0.4375
   21.135    0.4405
   21.150    0.4158
   21.165    0.4156
   21.180    0.4319
   21.195    0.4313
   21.210    0.4280
   21.225    0.4274
   21.240    0.4393
   21.255    0.4266
   21.270    0.4046
   21.285    0.4209
   21.300    0.4358
   21.315    0.4364
   21.330    0.4390
   21.345    0.4337
   21.360    0.4274
   21.375    0.4322
   21.390    0.4447
   21.405    0.4429
   21.420    0.4548
   21.435    0.4628
   21.450    0.4450
   21.465    0.4587
   21.480    0.4943
   21.495    0.5252
   21.510    0.5752
   21.525    0.6611
   21.540    0.7300
   21.555    0.7871
   21.570    0.7746
   21.585    0.7461
   21.600    0.7131
   21.615    0.6227
   21.630    0.5443
   21.645    0.4842
   21.660    0.4542
   21.675    0.4429
   21.690    0.4518
   21.705    0.4402
   21.720    0.4230
   21.735    0.4340
   21.750    0.4420
   21.765    0.4325
   21.780    0.4355
   21.795    0.4420
   21.810    0.4242
   21.825    0.4268
   21.840    0.4542
   21.855    0.4224
   21.870    0.4304
   21.885    0.4334
   21.900    0.4268
   21.915    0.4420
   21.930    0.4313
   21.945    0.4266
   21.960    0.4384
   21.975    0.4411
   21.990    0.4503
   22.005    0.4358
   22.020    0.4441
   22.035    0.4399
   22.050    0.4438
   22.065    0.4539
   22.080    0.4453
   22.095    0.4557
   22.110    0.4518
   22.125    0.4414
   22.140    0.4453
   22.155    0.4414
   22.170    0.4393
   22.185    0.4370
   22.200    0.4266
   22.215    0.4414
   22.230    0.4408
   22.245    0.4384
   22.260    0.4355
   22.275    0.4334
   22.290    0.4304
   22.305    0.4530
   22.320    0.4474
   22.335    0.4497
   22.350    0.4456
   22.365    0.4349
   22.380    0.4352
   22.395    0.4301
   22.410    0.4378
   22.425    0.4355
   22.440    0.4491
   22.455    0.4578
   22.470    0.4364
   22.485    0.4554
   22.500    0.4482
   22.515    0.4527
   22.530    0.4536
   22.545    0.4423
   22.560    0.4503
   22.575    0.4512
   22.590    0.4364
   22.605    0.4494
   22.620    0.4381
   22.635    0.4429
   22.650    0.4494
   22.665    0.4381
   22.680    0.4283
   22.695    0.4292
   22.710    0.4384
   22.725    0.4301
   22.740    0.4310
   22.755    0.4375
   22.770    0.4390
   22.785    0.4438
   22.800    0.4462
   22.815    0.4384
   22.830    0.4545
   22.845    0.4423
   22.860    0.4575
   22.875    0.4530
   22.890    0.4545
   22.905    0.4631
   22.920    0.4456
   22.935    0.4524
   22.950    0.4536
   22.965    0.4616
   22.980    0.4628
   22.995    0.4370
   23.010    0.4649
   23.025    0.4420
   23.040    0.4349
   23.055    0.4402
   23.070    0.4450
   23.085    0.4521
   23.100    0.4584
   23.115    0.4622
   23.130    0.4551
   23.145    0.4429
   23.160    0.4607
   23.175    0.4584
   23.190    0.4592
   23.205    0.4414
   23.220    0.4438
   23.235    0.4592
   23.250    0.4530
   23.265    0.4491
   23.280    0.4521
   23.295    0.4423
   23.310    0.4518
   23.325    0.4485
   23.340    0.4423
   23.355    0.4429
   23.370    0.4480
   23.385    0.4477
   23.400    0.4545
   23.415    0.4616
   23.430    0.4798
   23.445    0.4732
   23.460    0.4753
   23.475    0.5181
   23.490    0.5226
   23.505    0.5380
   23.520    0.5746
   23.535    0.5853
   23.550    0.5808
   23.565    0.5475
   23.580    0.5151
   23.595    0.4860
   23.610    0.4691
   23.625    0.4575
   23.640    0.4578
   23.655    0.4566
   23.670    0.4420
   23.685    0.4506
   23.700    0.4497
   23.715    0.4753
   23.730    0.4595
   23.745    0.4598
   23.760    0.4485
   23.775    0.4584
   23.790    0.4821
   23.805    0.4753
   23.820    0.4521
   23.835    0.4533
   23.850    0.4530
   23.865    0.4652
   23.880    0.4786
   23.895    0.4762
   23.910    0.4542
   23.925    0.4643
   23.940    0.4592
   23.955    0.4691
   23.970    0.4682
   23.985    0.4711
   24.000    0.4702
   24.015    0.4664
   24.030    0.4717
   24.045    0.4640
   24.060    0.4762
   24.075    0.4714
   24.090    0.4806
   24.105    0.4477
   24.120    0.4587
   24.135    0.4747
   24.150    0.4646
   24.165    0.4610
   24.180    0.4667
   24.195    0.4670
   24.210    0.4584
   24.225    0.4530
   24.240    0.4640
   24.255    0.4714
   24.270    0.4738
   24.285    0.5107
   24.300    0.5050
   24.315    0.5148
   24.330    0.5291
   24.345    0.5187
   24.360    0.5267
   24.375    0.5279
   24.390    0.5181
   24.405    0.5059
   24.420    0.4961
   24.435    0.4869
   24.450    0.4809
   24.465    0.4643
   24.480    0.4688
   24.495    0.4809
   24.510    0.4726
   24.525    0.4572
   24.540    0.4554
   24.555    0.4676
   24.570    0.4723
   24.585    0.4652
   24.600    0.4839
   24.615    0.4899
   24.630    0.4851
   24.645    0.4756
   24.660    0.4830
   24.675    0.4735
   24.690    0.4809
   24.705    0.4804
   24.720    0.4795
   24.735    0.4884
   24.750    0.4943
   24.765    0.4887
   24.780    0.4982
   24.795    0.5169
   24.810    0.5148
   24.825    0.5559
   24.840    0.6105
   24.855    0.6840
   24.870    0.7660
   24.885    0.8213
   24.900    0.8237
   24.915    0.8564
   24.930    0.8379
   24.945    0.7925
   24.960    0.7318
   24.975    0.6483
   24.990    0.5761
   25.005    0.5139
   25.020    0.5095
   25.035    0.5026
   25.050    0.4934
   25.065    0.4777
   25.080    0.4756
   25.095    0.4836
   25.110    0.4780
   25.125    0.4875
   25.140    0.5035
   25.155    0.4934
   25.170    0.4970
   25.185    0.4955
   25.200    0.4836
   25.215    0.4964
   25.230    0.4955
   25.245    0.4875
   25.260    0.4697
   25.275    0.4747
   25.290    0.4869
   25.305    0.4801
   25.320    0.4753
   25.335    0.4815
   25.350    0.4821
   25.365    0.4801
   25.380    0.4833
   25.395    0.4902
   25.410    0.4899
   25.425    0.4762
   25.440    0.5015
   25.455    0.4979
   25.470    0.4908
   25.485    0.4940
   25.500    0.4991
   25.515    0.5089
   25.530    0.4866
   25.545    0.5243
   25.560    0.5490
   25.575    0.5692
   25.590    0.5868
   25.605    0.5722
   25.620    0.5761
   25.635    0.5603
   25.650    0.5443
   25.665    0.5624
   25.680    0.5502
   25.695    0.5356
   25.710    0.5306
   25.725    0.5154
   25.740    0.4925
   25.755    0.5107
   25.770    0.4994
   25.785    0.5015
   25.800    0.4765
   25.815    0.4750
   25.830    0.4824
   25.845    0.4958
   25.860    0.4848
   25.875    0.4911
   25.890    0.4821
   25.905    0.4893
   25.920    0.5032
   25.935    0.4872
   25.950    0.4958
   25.965    0.4741
   25.980    0.4664
   25.995    0.4783
   26.010    0.4863
   26.025    0.4804
   26.040    0.4922
   26.055    0.4940
   26.070    0.4928
   26.085    0.4818
   26.100    0.4741
   26.115    0.4970
   26.130    0.4896
   26.145    0.4890
   26.160    0.4946
   26.175    0.4934
   26.190    0.4798
   26.205    0.4827
   26.220    0.4884
   26.235    0.4809
   26.250    0.4851
   26.265    0.4988
   26.280    0.5021
   26.295    0.5166
   26.310    0.5080
   26.325    0.5083
   26.340    0.5151
   26.355    0.5080
   26.370    0.5178
   26.385    0.5068
   26.400    0.5018
   26.415    0.5095
   26.430    0.4881
   26.445    0.4869
   26.460    0.4970
   26.475    0.4836
   26.490    0.4952
   26.505    0.4729
   26.520    0.4759
   26.535    0.4875
   26.550    0.4899
   26.565    0.4607
   26.580    0.4812
   26.595    0.4768
   26.610    0.4818
   26.625    0.4905
   26.640    0.4973
   26.655    0.4890
   26.670    0.4839
   26.685    0.5000
   26.700    0.4919
   26.715    0.4899
   26.730    0.4925
   26.745    0.4863
   26.760    0.4890
   26.775    0.4973
   26.790    0.4851
   26.805    0.4908
   26.820    0.4890
   26.835    0.4851
   26.850    0.4973
   26.865    0.4893
   26.880    0.4866
   26.895    0.4756
   26.910    0.4845
   26.925    0.4905
   26.940    0.4931
   26.955    0.4994
   26.970    0.4789
   26.985    0.4928
   27.000    0.4899
   27.015    0.5047
   27.030    0.4911
   27.045    0.4890
   27.060    0.4735
   27.075    0.4744
   27.090    0.4801
   27.105    0.4735
   27.120    0.4928
   27.135    0.4747
   27.150    0.4590
   27.165    0.4809
   27.180    0.4922
   27.195    0.4795
   27.210    0.4902
   27.225    0.4881
   27.240    0.4809
   27.255    0.4824
   27.270    0.4688
   27.285    0.4928
   27.300    0.4982
   27.315    0.4809
   27.330    0.4747
   27.345    0.4833
   27.360    0.4759
   27.375    0.4916
   27.390    0.4732
   27.405    0.4798
   27.420    0.4699
   27.435    0.4985
   27.450    0.5068
   27.465    0.4949
   27.480    0.4994
   27.495    0.5136
   27.510    0.5113
   27.525    0.5047
   27.540    0.5154
   27.555    0.5279
   27.570    0.5648
   27.585    0.5666
   27.600    0.6138
   27.615    0.5975
   27.630    0.6254
   27.645    0.6239
   27.660    0.6447
   27.675    0.6447
   27.690    0.6590
   27.705    0.6480
   27.720    0.6159
   27.735    0.5963
   27.750    0.5975
   27.765    0.5710
   27.780    0.5437
   27.795    0.5246
   27.810    0.5273
   27.825    0.5125
   27.840    0.4955
   27.855    0.4931
   27.870    0.4842
   27.885    0.4979
   27.900    0.5021
   27.915    0.4741
   27.930    0.4884
   27.945    0.4726
   27.960    0.4765
   27.975    0.4839
   27.990    0.4744
   28.005    0.4818
   28.020    0.4771
   28.035    0.4842
   28.050    0.4931
   28.065    0.4985
   28.080    0.4711
   28.095    0.4946
   28.110    0.5077
   28.125    0.4997
   28.140    0.5098
   28.155    0.4946
   28.170    0.5059
   28.185    0.5273
   28.200    0.5603
   28.215    0.5963
   28.230    0.6673
   28.245    0.7057
   28.260    0.8133
   28.275    0.8692
   28.290    0.9708
   28.305    1.0900
   28.320    1.1688
   28.335    1.2056
   28.350    1.1703
   28.365    1.1515
   28.380    1.0347
   28.395    0.9509
   28.410    0.8810
   28.425    0.7758
   28.440    0.6967
   28.455    0.6551
   28.470    0.6159
   28.485    0.5802
   28.500    0.5707
   28.515    0.5817
   28.530    0.5615
   28.545    0.5740
   28.560    0.5722
   28.575    0.5564
   28.590    0.5428
   28.605    0.5493
   28.620    0.5342
   28.635    0.5190
   28.650    0.5026
   28.665    0.4988
   28.680    0.4857
   28.695    0.4777
   28.710    0.4789
   28.725    0.4643
   28.740    0.4601
   28.755    0.4744
   28.770    0.4667
   28.785    0.4566
   28.800    0.4640
   28.815    0.4575
   28.830    0.4836
   28.845    0.4655
   28.860    0.4682
   28.875    0.4655
   28.890    0.4625
   28.905    0.4702
   28.920    0.4595
   28.935    0.4637
   28.950    0.4750
   28.965    0.4563
   28.980    0.4563
   28.995    0.4590
   29.010    0.4747
   29.025    0.4613
   29.040    0.4625
   29.055    0.4533
   29.070    0.4512
   29.085    0.4649
   29.100    0.4676
   29.115    0.4429
   29.130    0.4414
   29.145    0.4539
   29.160    0.4572
   29.175    0.4708
   29.190    0.4581
   29.205    0.4622
   29.220    0.4613
   29.235    0.4670
   29.250    0.4717
   29.265    0.4628
   29.280    0.4426
   29.295    0.4545
   29.310    0.4783
   29.325    0.4768
   29.340    0.4673
   29.355    0.4818
   29.370    0.4988
   29.385    0.5119
   29.400    0.5178
   29.415    0.5490
   29.430    0.6001
   29.445    0.6453
   29.460    0.7294
   29.475    0.7990
   29.490    0.9093
   29.505    0.9666
   29.520    1.0383
   29.535    1.0656
   29.550    1.0490
   29.565    0.9812
   29.580    0.9307
   29.595    0.8849
   29.610    0.8382
   29.625    0.7256
   29.640    0.6513
   29.655    0.5764
   29.670    0.5541
   29.685    0.5449
   29.700    0.5255
   29.715    0.4869
   29.730    0.4979
   29.745    0.4991
   29.760    0.4925
   29.775    0.4723
   29.790    0.4637
   29.805    0.4682
   29.820    0.4527
   29.835    0.4393
   29.850    0.4705
   29.865    0.4566
   29.880    0.4474
   29.895    0.4509
   29.910    0.4702
   29.925    0.4587
   29.940    0.4750
   29.955    0.4500
   29.970    0.4560
   29.985    0.4762
   30.000    0.5142
   30.015    0.5469
   30.030    0.5784
   30.045    0.6328
   30.060    0.6956
   30.075    0.7821
   30.090    0.8629
   30.105    0.9732
   30.120    1.0303
   30.135    1.0921
   30.150    1.1328
   30.165    1.1179
   30.180    1.0496
   30.195    0.9889
   30.210    0.9414
   30.225    0.8451
   30.240    0.7443
   30.255    0.6611
   30.270    0.5924
   30.285    0.5437
   30.300    0.5142
   30.315    0.4970
   30.330    0.4863
   30.345    0.4685
   30.360    0.4566
   30.375    0.4533
   30.390    0.4462
   30.405    0.4447
   30.420    0.4503
   30.435    0.4459
   30.450    0.4542
   30.465    0.4349
   30.480    0.4474
   30.495    0.4411
   30.510    0.4408
   30.525    0.4610
   30.540    0.4503
   30.555    0.4408
   30.570    0.4417
   30.585    0.4292
   30.600    0.4375
   30.615    0.4485
   30.630    0.4462
   30.645    0.4512
   30.660    0.4607
   30.675    0.4426
   30.690    0.4637
   30.705    0.4491
   30.720    0.4616
   30.735    0.4533
   30.750    0.4480
   30.765    0.4301
   30.780    0.4239
   30.795    0.4292
   30.810    0.4370
   30.825    0.4328
   30.840    0.4375
   30.855    0.4266
   30.870    0.4390
   30.885    0.4271
   30.900    0.4227
   30.915    0.4188
   30.930    0.4274
   30.945    0.4340
   30.960    0.4387
   30.975    0.4411
   30.990    0.4188
   31.005    0.4346
   31.020    0.4607
   31.035    0.4494
   31.050    0.4477
   31.065    0.4560
   31.080    0.4441
   31.095    0.4417
   31.110    0.4649
   31.125    0.4575
   31.140    0.4676
   31.155    0.4759
   31.170    0.5163
   31.185    0.5562
   31.200    0.6108
   31.215    0.6649
   31.230    0.7369
   31.245    0.8831
   31.260    1.0371
   31.275    1.2131
   31.290    1.3501
   31.305    1.5014
   31.320    1.6114
   31.335    1.6699
   31.350    1.6352
   31.365    1.5638
   31.380    1.4895
   31.395    1.3623
   31.410    1.2226
   31.425    1.0419
   31.440    0.8582
   31.455    0.7297
   31.470    0.6100
   31.485    0.5576
   31.500    0.4997
   31.515    0.4750
   31.530    0.4551
   31.545    0.4375
   31.560    0.4480
   31.575    0.4592
   31.590    0.4402
   31.605    0.4503
   31.620    0.4322
   31.635    0.4497
   31.650    0.4423
   31.665    0.4515
   31.680    0.4551
   31.695    0.4640
   31.710    0.4818
   31.725    0.4911
   31.740    0.5184
   31.755    0.5669
   31.770    0.6426
   31.785    0.7654
   31.800    0.9090
   31.815    1.0448
   31.830    1.1810
   31.845    1.3421
   31.860    1.4651
   31.875    1.5591
   31.890    1.6509
   31.905    1.6572
   31.920    1.5769
   31.935    1.4506
   31.950    1.3694
   31.965    1.2107
   31.980    1.0552
   31.995    0.9117
   32.010    0.7526
   32.025    0.6664
   32.040    0.5776
   32.055    0.5018
   32.070    0.4774
   32.085    0.4735
   32.100    0.4753
   32.115    0.4485
   32.130    0.4450
   32.145    0.4352
   32.160    0.4236
   32.175    0.4271
   32.190    0.4147
   32.205    0.4120
   32.220    0.4212
   32.235    0.4046
   32.250    0.3950
   32.265    0.3974
   32.280    0.4084
   32.295    0.4221
   32.310    0.4022
   32.325    0.3965
   32.340    0.3986
   32.355    0.4233
   32.370    0.4081
   32.385    0.3832
   32.400    0.4025
   32.415    0.3912
   32.430    0.4010
   32.445    0.4147
   32.460    0.4063
   32.475    0.3998
   32.490    0.3992
   32.505    0.3849
   32.520    0.3965
   32.535    0.4037
   32.550    0.3754
   32.565    0.3760
   32.580    0.3754
   32.595    0.3811
   32.610    0.3953
   32.625    0.3909
   32.640    0.4043
   32.655    0.3980
   32.670    0.3924
   32.685    0.3849
   32.700    0.3811
   32.715    0.3903
   32.730    0.4028
   32.745    0.3888
   32.760    0.4078
   32.775    0.3867
   32.790    0.4215
   32.805    0.4289
   32.820    0.4298
   32.835    0.4215
   32.850    0.4482
   32.865    0.4494
   32.880    0.4482
   32.895    0.4536
   32.910    0.4474
   32.925    0.4667
   32.940    0.4488
   32.955    0.4390
   32.970    0.4402
   32.985    0.4402
   33.000    0.4224
   33.015    0.4170
   33.030    0.3817
   33.045    0.3873
   33.060    0.4123
   33.075    0.3849
   33.090    0.3959
   33.105    0.3704
   33.120    0.3909
   33.135    0.3834
   33.150    0.4010
   33.165    0.4007
   33.180    0.4040
   33.195    0.3980
   33.210    0.4040
   33.225    0.3995
   33.240    0.4034
   33.255    0.3986
   33.270    0.3968
   33.285    0.4093
   33.300    0.3817
   33.315    0.3733
   33.330    0.3811
   33.345    0.3861
   33.360    0.3855
   33.375    0.3906
   33.390    0.3796
   33.405    0.3638
   33.420    0.3933
   33.435    0.3989
   33.450    0.3992
   33.465    0.4298
   33.480    0.4340
   33.495    0.4572
   33.510    0.4738
   33.525    0.4908
   33.540    0.5044
   33.555    0.5288
   33.570    0.5380
   33.585    0.5333
   33.600    0.4928
   33.615    0.4801
   33.630    0.4694
   33.645    0.4390
   33.660    0.4417
   33.675    0.4161
   33.690    0.4040
   33.705    0.3906
   33.720    0.3843
   33.735    0.3722
   33.750    0.3823
   33.765    0.3772
   33.780    0.3647
   33.795    0.3686
   33.810    0.3623
   33.825    0.3668
   33.840    0.3787
   33.855    0.3805
   33.870    0.3641
   33.885    0.3573
   33.900    0.3840
   33.915    0.3689
   33.930    0.3778
   33.945    0.3852
   33.960    0.4066
   33.975    0.4176
   33.990    0.4060
   34.005    0.4111
   34.020    0.4242
   34.035    0.4138
   34.050    0.4188
   34.065    0.4019
   34.080    0.4114
   34.095    0.3998
   34.110    0.3888
   34.125    0.3912
   34.140    0.3748
   34.155    0.3692
   34.170    0.3650
   34.185    0.3647
   34.200    0.3656
   34.215    0.3493
   34.230    0.3612
   34.245    0.3576
   34.260    0.3668
   34.275    0.3603
   34.290    0.3647
   34.305    0.3659
   34.320    0.3629
   34.335    0.3620
   34.350    0.3826
   34.365    0.3496
   34.380    0.3451
   34.395    0.3540
   34.410    0.3701
   34.425    0.3451
   34.440    0.3421
   34.455    0.3727
   34.470    0.4054
   34.485    0.3947
   34.500    0.4019
   34.515    0.3897
   34.530    0.4081
   34.545    0.3983
   34.560    0.3826
   34.575    0.4043
   34.590    0.4022
   34.605    0.4034
   34.620    0.3683
   34.635    0.3552
   34.650    0.3606
   34.665    0.3686
   34.680    0.3644
   34.695    0.3508
   34.710    0.3519
   34.725    0.3365
   34.740    0.3356
   34.755    0.3368
   34.770    0.3409
   34.785    0.3374
   34.800    0.3398
   34.815    0.3401
   34.830    0.3448
   34.845    0.3305
   34.860    0.3552
   34.875    0.3510
   34.890    0.3314
   34.905    0.3371
   34.920    0.3436
   34.935    0.3338
   34.950    0.3240
   34.965    0.3350
   34.980    0.3534
   34.995    0.3273
   35.010    0.3308
   35.025    0.3380
   35.040    0.3421
   35.055    0.3448
   35.070    0.3430
   35.085    0.3442
   35.100    0.3487
   35.115    0.3499
   35.130    0.3558
   35.145    0.3534
   35.160    0.3570
   35.175    0.3576
   35.190    0.3638
   35.205    0.3778
   35.220    0.3796
   35.235    0.3742
   35.250    0.4150
   35.265    0.4384
   35.280    0.4658
   35.295    0.4940
   35.310    0.4881
   35.325    0.5035
   35.340    0.4931
   35.355    0.4964
   35.370    0.4979
   35.385    0.4943
   35.400    0.4801
   35.415    0.4426
   35.430    0.4075
   35.445    0.3834
   35.460    0.3858
   35.475    0.3751
   35.490    0.3513
   35.505    0.3291
   35.520    0.3219
   35.535    0.3326
   35.550    0.3323
   35.565    0.3356
   35.580    0.3466
   35.595    0.3368
   35.610    0.3448
   35.625    0.3359
   35.640    0.3377
   35.655    0.3412
   35.670    0.3528
   35.685    0.3362
   35.700    0.3377
   35.715    0.3445
   35.730    0.3160
   35.745    0.3255
   35.760    0.3228
   35.775    0.3329
   35.790    0.3222
   35.805    0.3047
   35.820    0.3172
   35.835    0.3210
   35.850    0.3074
   35.865    0.3249
   35.880    0.3320
   35.895    0.3059
   35.910    0.3216
   35.925    0.3204
   35.940    0.3023
   35.955    0.3145
   35.970    0.3130
   35.985    0.3148
   36.000    0.3082
   36.015    0.3246
   36.030    0.3294
   36.045    0.3249
   36.060    0.3386
   36.075    0.3288
   36.090    0.3270
   36.105    0.3380
   36.120    0.3424
   36.135    0.3484
   36.150    0.3594
   36.165    0.3609
   36.180    0.3356
   36.195    0.3317
   36.210    0.3317
   36.225    0.3139
   36.240    0.3169
   36.255    0.3231
   36.270    0.3207
   36.285    0.3059
   36.300    0.2987
   36.315    0.3082
   36.330    0.3071
   36.345    0.3082
   36.360    0.3127
   36.375    0.2967
   36.390    0.2970
   36.405    0.3154
   36.420    0.3017
   36.435    0.2940
   36.450    0.3023
   36.465    0.3139
   36.480    0.3166
   36.495    0.3088
   36.510    0.2990
   36.525    0.3056
   36.540    0.3267
   36.555    0.3228
   36.570    0.3133
   36.585    0.3198
   36.600    0.3216
   36.615    0.3160
   36.630    0.3038
   36.645    0.3192
   36.660    0.3186
   36.675    0.3091
   36.690    0.3121
   36.705    0.2949
   36.720    0.3097
   36.735    0.3032
   36.750    0.3109
   36.765    0.3160
   36.780    0.3136
   36.795    0.3582
   36.810    0.3335
   36.825    0.3412
   36.840    0.3305
   36.855    0.3469
   36.870    0.3484
   36.885    0.3537
   36.900    0.3481
   36.915    0.3475
   36.930    0.3374
   36.945    0.3502
   36.960    0.3579
   36.975    0.3389
   36.990    0.3454
   37.005    0.3641
   37.020    0.3778
   37.035    0.3716
   37.050    0.3823
   37.065    0.3888
   37.080    0.3861
   37.095    0.3805
   37.110    0.3677
   37.125    0.3641
   37.140    0.3600
   37.155    0.3564
   37.170    0.3502
   37.185    0.3421
   37.200    0.3317
   37.215    0.3243
   37.230    0.3059
   37.245    0.2958
   37.260    0.2987
   37.275    0.2964
   37.290    0.3074
   37.305    0.2972
   37.320    0.2815
   37.335    0.2901
   37.350    0.2830
   37.365    0.2809
   37.380    0.2845
   37.395    0.2833
   37.410    0.2889
   37.425    0.2925
   37.440    0.2770
   37.455    0.2845
   37.470    0.2839
   37.485    0.2967
   37.500    0.2952
   37.515    0.2999
   37.530    0.2773
   37.545    0.2851
   37.560    0.2913
   37.575    0.2895
   37.590    0.2907
   37.605    0.2886
   37.620    0.2907
   37.635    0.3032
   37.650    0.2791
   37.665    0.2809
   37.680    0.2874
   37.695    0.2845
   37.710    0.2839
   37.725    0.2830
   37.740    0.2767
   37.755    0.2880
   37.770    0.2895
   37.785    0.3050
   37.800    0.3008
   37.815    0.3127
   37.830    0.3359
   37.845    0.3285
   37.860    0.3344
   37.875    0.3344
   37.890    0.3493
   37.905    0.3433
   37.920    0.3291
   37.935    0.3249
   37.950    0.3267
   37.965    0.3261
   37.980    0.3285
   37.995    0.3389
   38.010    0.3615
   38.025    0.3546
   38.040    0.3778
   38.055    0.3921
   38.070    0.3879
   38.085    0.3852
   38.100    0.3894
   38.115    0.3891
   38.130    0.3742
   38.145    0.3561
   38.160    0.3698
   38.175    0.3650
   38.190    0.3641
   38.205    0.3540
   38.220    0.3564
   38.235    0.3680
   38.250    0.3448
   38.265    0.3496
   38.280    0.3552
   38.295    0.3362
   38.310    0.3406
   38.325    0.3258
   38.340    0.3353
   38.355    0.2874
   38.370    0.2794
   38.385    0.2672
   38.400    0.2660
   38.415    0.2637
   38.430    0.2735
   38.445    0.2625
   38.460    0.2648
   38.475    0.2699
   38.490    0.2699
   38.505    0.2538
   38.520    0.2583
   38.535    0.2693
   38.550    0.2547
   38.565    0.2634
   38.580    0.2755
   38.595    0.2541
   38.610    0.2690
   38.625    0.2565
   38.640    0.2681
   38.655    0.2589
   38.670    0.2753
   38.685    0.2577
   38.700    0.2631
   38.715    0.2643
   38.730    0.2610
   38.745    0.2568
   38.760    0.2687
   38.775    0.2628
   38.790    0.2506
   38.805    0.2586
   38.820    0.2556
   38.835    0.2491
   38.850    0.2536
   38.865    0.2568
   38.880    0.2553
   38.895    0.2556
   38.910    0.2559
   38.925    0.2654
   38.940    0.2643
   38.955    0.2607
   38.970    0.2684
   38.985    0.2726
   39.000    0.2628
   39.015    0.2708
   39.030    0.2705
   39.045    0.2818
   39.060    0.2753
   39.075    0.2735
   39.090    0.2785
   39.105    0.2660
   39.120    0.2672
   39.135    0.2524
   39.150    0.2515
   39.165    0.2449
   39.180    0.2521
   39.195    0.2625
   39.210    0.2654
   39.225    0.2583
   39.240    0.2678
   39.255    0.2622
   39.270    0.2622
   39.285    0.2565
   39.300    0.2619
   39.315    0.2610
   39.330    0.2491
   39.345    0.2577
   39.360    0.2536
   39.375    0.2571
   39.390    0.2449
   39.405    0.2414
   39.420    0.2533
   39.435    0.2577
   39.450    0.2580
   39.465    0.2437
   39.480    0.2538
   39.495    0.2616
   39.510    0.2541
   39.525    0.2461
   39.540    0.2518
   39.555    0.2491
   39.570    0.2583
   39.585    0.2705
   39.600    0.2604
   39.615    0.2690
   39.630    0.2651
   39.645    0.2720
   39.660    0.2747
   39.675    0.2708
   39.690    0.2547
   39.705    0.2598
   39.720    0.2607
   39.735    0.2604
   39.750    0.2711
   39.765    0.2530
   39.780    0.2571
   39.795    0.2327
   39.810    0.2449
   39.825    0.2440
   39.840    0.2423
   39.855    0.2387
   39.870    0.2351
   39.885    0.2452
   39.900    0.2390
   39.915    0.2411
   39.930    0.2470
   39.945    0.2488
   39.960    0.2524
   39.975    0.2384
   39.990    0.2354
