    1.500   12.3223
    1.515   12.3644
    1.530   12.2801
    1.545   12.5118
    1.560   12.0484
    1.575   11.9853
    1.590   12.5329
    1.605   11.8273
    1.620   11.7325
    1.635   11.8273
    1.650   11.9326
    1.665   11.9010
    1.680   11.9326
    1.695   12.0484
    1.710   11.5324
    1.725   11.9642
    1.740   12.1116
    1.755   11.5008
    1.770   11.7957
    1.785   11.6588
    1.800   12.0484
    1.815   11.9747
    1.830   11.6693
    1.845   11.9221
    1.860   12.0169
    1.875   11.3007
    1.890   11.5008
    1.905   11.7641
    1.920   11.7746
    1.935   11.8378
    1.950   11.7114
    1.965   11.3744
    1.980   11.7114
    1.995   11.2164
    2.010   11.6798
    2.025   11.8483
    2.040   11.5956
    2.055   11.8483
    2.070   11.4797
    2.085   11.7641
    2.100   12.2380
    2.115   12.2380
    2.130   12.1643
    2.145   12.5329
    2.160   12.1854
    2.175   12.0800
    2.190   12.1011
    2.205   12.7014
    2.220   12.7225
    2.235   12.2696
    2.250   12.4487
    2.265   12.7646
    2.280   12.8489
    2.295   12.4803
    2.310   12.9015
    2.325   12.5856
    2.340   13.2491
    2.355   13.6493
    2.370   13.3228
    2.385   13.9863
    2.400   13.9652
    2.415   13.8389
    2.430   13.8283
    2.445   13.8599
    2.460   14.3023
    2.475   14.7025
    2.490   14.9552
    2.505   15.4397
    2.520   15.5661
    2.535   15.1764
    2.550   16.1664
    2.565   16.1875
    2.580   16.3244
    2.595   16.3876
    2.610   16.2717
    2.625   16.7141
    2.640   16.9563
    2.655   17.0511
    2.670   17.1564
    2.685   17.5355
    2.700   17.3776
    2.715   17.5145
    2.730   18.0200
    2.745   19.4313
    2.760   19.3470
    2.775   19.9052
    2.790   20.2949
    2.805   20.8952
    2.820   21.3481
    2.835   21.6324
    2.850   21.5587
    2.865   23.1912
    2.880   22.7278
    2.895   23.6862
    2.910   25.0764
    2.925   24.8236
    2.940   25.5398
    2.955   25.1817
    2.970   26.3507
    2.985   27.5513
    3.000   28.3412
    3.015   28.3728
    3.030   28.9521
    3.045   30.6688
    3.060   30.8899
    3.075   32.2696
    3.090   33.6177
    3.105   33.8599
    3.120   34.2707
    3.135   36.0821
    3.150   37.2301
    3.165   38.4623
    3.180   39.2628
    3.195   41.7062
    3.210   43.2228
    3.225   44.0337
    3.240   46.1611
    3.255   47.8673
    3.270   49.3418
    3.285   51.8694
    3.300   54.9658
    3.315   57.5777
    3.330   59.7367
    3.345   62.7699
    3.360   65.4766
    3.375   70.9215
    3.390   75.5556
    3.405   78.9468
    3.420   83.9389
    3.435   90.1738
    3.450   94.3655
    3.465   97.5882
    3.480  101.5798
    3.495  100.9900
    3.510   95.9768
    3.525   91.9958
    3.540   82.6014
    3.555   72.3855
    3.570   63.2122
    3.585   55.1764
    3.600   50.1001
    3.615   45.6030
    3.630   43.2754
    3.645   40.3897
    3.660   39.2312
    3.675   39.1048
    3.690   39.4839
    3.705   37.3670
    3.720   38.4939
    3.735   39.2733
    3.750   40.3160
    3.765   41.0743
    3.780   41.5692
    3.795   42.9700
    3.810   45.8031
    3.825   47.6777
    3.840   49.7525
    3.855   52.1432
    3.870   54.5656
    3.885   58.2201
    3.900   60.0000
    3.915   60.8110
    3.930   59.5471
    3.945   57.4092
    3.960   50.6372
    3.975   46.4771
    3.990   44.3707
    4.005   44.0653
    4.020   43.0753
    4.035   43.1701
    4.050   41.8325
    4.065   40.2633
    4.080   38.9995
    4.095   38.0516
    4.110   36.8615
    4.125   35.0079
    4.140   32.8173
    4.155   31.4376
    4.170   30.0685
    4.185   28.5097
    4.200   26.1822
    4.215   24.7499
    4.230   23.4123
    4.245   22.8015
    4.260   21.9589
    4.275   21.0637
    4.290   19.3470
    4.305   17.9252
    4.320   16.3033
    4.335   15.1553
    4.350   14.5761
    4.365   13.9547
    4.380   13.0068
    4.395   12.7330
    4.410   12.3749
    4.425   11.4165
    4.440   10.7425
    4.455   10.2580
    4.470    9.9210
    4.485    9.4050
    4.500    9.4681
    4.515    9.3734
    4.530    9.0258
    4.545    8.5835
    4.560    8.3096
    4.575    7.8462
    4.590    7.8778
    4.605    7.9094
    4.620    7.7093
    4.635    7.9094
    4.650    7.2986
    4.665    7.3196
    4.680    6.8141
    4.695    7.1090
    4.710    7.0879
    4.725    7.0563
    4.740    6.9616
    4.755    6.8984
    4.770    6.7088
    4.785    6.2770
    4.800    6.8668
    4.815    6.7615
    4.830    6.4666
    4.845    6.6245
    4.860    6.4139
    4.875    6.3823
    4.890    6.0979
    4.905    6.3086
    4.920    6.5087
    4.935    6.6561
    4.950    6.3718
    4.965    6.1927
    4.980    6.6561
    4.995    6.6877
    5.010    6.2981
    5.025    6.1190
    5.040    6.2665
    5.055    6.2349
    5.070    6.2349
    5.085    6.2981
    5.100    6.2349
    5.115    6.2665
    5.130    6.1822
    5.145    6.6667
    5.160    6.4876
    5.175    6.4244
    5.190    6.5403
    5.205    6.5192
    5.220    6.3718
    5.235    6.7825
    5.250    6.8457
    5.265    6.7404
    5.280    6.7930
    5.295    6.5719
    5.310    6.7404
    5.325    6.8036
    5.340    6.9089
    5.355    7.0458
    5.370    6.9405
    5.385    7.2670
    5.400    7.8357
    5.415    7.7725
    5.430    7.9621
    5.445    7.9831
    5.460    8.8046
    5.475    9.1838
    5.490    9.3523
    5.505   10.1316
    5.520   10.4265
    5.535   10.2264
    5.550   10.0579
    5.565    9.0153
    5.580    7.4039
    5.595    6.1295
    5.610    5.6556
    5.625    5.2238
    5.640    4.8763
    5.655    5.0869
    5.670    4.8341
    5.685    4.9605
    5.700    5.0553
    5.715    4.8236
    5.730    5.1185
    5.745    5.0658
    5.760    4.7604
    5.775    4.7393
    5.790    5.0658
    5.805    5.1290
    5.820    4.8868
    5.835    5.0237
    5.850    5.0658
    5.865    5.1606
    5.880    5.0658
    5.895    4.8657
    5.910    4.7393
    5.925    4.5287
    5.940    4.8868
    5.955    4.9500
    5.970    5.0026
    5.985    5.0026
    6.000    5.0764
    6.015    4.9078
    6.030    5.4450
    6.045    5.3607
    6.060    4.9921
    6.075    5.1185
    6.090    5.1922
    6.105    4.9500
    6.120    5.0132
    6.135    5.1185
    6.150    5.2343
    6.165    5.0869
    6.180    5.3923
    6.195    5.3923
    6.210    5.4555
    6.225    5.3607
    6.240    5.2554
    6.255    5.1606
    6.270    4.9921
    6.285    5.1711
    6.300    4.9289
    6.315    5.4976
    6.330    5.3923
    6.345    5.0132
    6.360    5.4028
    6.375    5.7504
    6.390    5.6029
    6.405    5.8978
    6.420    5.4976
    6.435    5.5082
    6.450    5.2554
    6.465    5.7083
    6.480    5.5819
    6.495    5.8241
    6.510    5.5924
    6.525    5.3502
    6.540    6.3823
    6.555    6.2454
    6.570    5.8978
    6.585    6.0558
    6.600    6.4455
    6.615    6.3823
    6.630    6.4771
    6.645    7.0563
    6.660    6.8878
    6.675    6.9089
    6.690    7.4882
    6.705    7.5092
    6.720    7.7514
    6.735    8.0358
    6.750    8.6993
    6.765    9.2259
    6.780    9.0574
    6.795    9.1417
    6.810    9.6893
    6.825    9.2891
    6.840    9.2680
    6.855    9.2996
    6.870   10.0369
    6.885   10.1211
    6.900   10.7004
    6.915   11.4271
    6.930   11.5745
    6.945   12.3328
    6.960   12.6804
    6.975   12.8910
    6.990   13.4176
    7.005   12.8067
    7.020   12.6909
    7.035   11.8589
    7.050   10.8794
    7.065    9.7736
    7.080    9.0469
    7.095    8.2886
    7.110    7.6145
    7.125    7.0353
    7.140    6.9826
    7.155    6.9300
    7.170    6.3191
    7.185    6.0032
    7.200    5.9400
    7.215    5.8452
    7.230    5.5714
    7.245    5.6556
    7.260    5.7715
    7.275    5.6556
    7.290    5.6240
    7.305    5.6240
    7.320    5.5187
    7.335    5.2765
    7.350    5.5608
    7.365    5.4555
    7.380    5.5187
    7.395    5.6135
    7.410    5.5819
    7.425    5.4555
    7.440    5.6345
    7.455    5.6661
    7.470    5.9926
    7.485    5.7188
    7.500    5.5187
    7.515    5.2449
    7.530    5.5714
    7.545    5.7083
    7.560    5.5714
    7.575    5.9400
    7.590    6.3507
    7.605    6.5613
    7.620    5.8452
    7.635    6.2243
    7.650    6.4666
    7.665    6.2559
    7.680    6.2875
    7.695    6.7404
    7.710    6.4771
    7.725    6.9405
    7.740    6.8141
    7.755    7.0879
    7.770    7.2354
    7.785    7.3196
    7.800    7.6145
    7.815    8.0147
    7.830    7.2459
    7.845    7.7093
    7.860    7.4355
    7.875    7.2143
    7.890    7.4250
    7.905    7.0985
    7.920    6.7930
    7.935    7.3407
    7.950    7.3618
    7.965    6.8984
    7.980    6.7404
    7.995    7.5619
    8.010    7.9094
    8.025    7.2038
    8.040    8.2254
    8.055    7.5619
    8.070    7.5408
    8.085    7.7304
    8.100    8.0147
    8.115    7.8252
    8.130    7.3407
    8.145    7.8884
    8.160    7.7830
    8.175    7.3618
    8.190    7.3828
    8.205    7.6040
    8.220    7.3828
    8.235    7.2354
    8.250    7.0142
    8.265    7.0669
    8.280    7.0563
    8.295    7.3934
    8.310    7.0563
    8.325    6.9194
    8.340    6.9194
    8.355    6.4666
    8.370    7.1933
    8.385    7.0037
    8.400    6.8773
    8.415    6.8984
    8.430    6.8773
    8.445    6.5298
    8.460    6.4666
    8.475    6.2770
    8.490    6.0874
    8.505    6.1506
    8.520    6.2875
    8.535    6.0664
    8.550    6.0348
    8.565    5.7083
    8.580    5.9189
    8.595    5.6661
    8.610    5.4871
    8.625    5.5503
    8.640    5.5608
    8.655    5.7609
    8.670    5.4450
    8.685    5.3712
    8.700    5.4871
    8.715    5.4028
    8.730    5.1817
    8.745    4.9921
    8.760    5.2659
    8.775    5.4871
    8.790    5.3712
    8.805    4.9078
    8.820    4.8973
    8.835    5.0974
    8.850    5.0132
    8.865    5.2870
    8.880    5.3502
    8.895    5.0764
    8.910    5.0448
    8.925    4.9500
    8.940    4.8868
    8.955    4.8025
    8.970    5.0026
    8.985    5.0553
    9.000    4.7499
    9.015    4.7920
    9.030    4.8341
    9.045    4.5814
    9.060    4.8552
    9.075    4.6551
    9.090    4.4760
    9.105    4.6761
    9.120    4.7604
    9.135    5.0448
    9.150    4.9078
    9.165    4.8657
    9.180    4.5708
    9.195    4.3181
    9.210    4.4655
    9.225    4.8025
    9.240    4.5182
    9.255    4.6656
    9.270    4.8447
    9.285    4.6551
    9.300    4.5919
    9.315    4.9289
    9.330    4.8447
    9.345    5.2449
    9.360    5.1711
    9.375    4.9394
    9.390    5.0342
    9.405    5.2554
    9.420    5.2027
    9.435    4.9710
    9.450    4.9921
    9.465    5.5292
    9.480    5.4450
    9.495    5.4976
    9.510    5.6767
    9.525    6.1085
    9.540    6.1717
    9.555    6.2559
    9.570    6.6877
    9.585    6.9721
    9.600    7.1090
    9.615    6.5298
    9.630    6.0769
    9.645    5.4450
    9.660    4.8025
    9.675    4.6656
    9.690    4.6656
    9.705    4.5182
    9.720    4.5498
    9.735    4.4866
    9.750    4.5182
    9.765    4.4339
    9.780    4.6972
    9.795    4.4866
    9.810    4.2338
    9.825    4.0864
    9.840    4.2443
    9.855    4.2338
    9.870    4.3602
    9.885    4.6445
    9.900    4.3181
    9.915    4.1074
    9.930    4.4655
    9.945    4.4444
    9.960    4.6656
    9.975    4.4234
    9.990    4.4760
   10.005    4.7499
   10.020    4.3918
   10.035    4.5182
   10.050    4.7709
   10.065    4.4971
   10.080    4.5076
   10.095    4.4444
   10.110    4.5498
   10.125    4.4128
   10.140    4.4339
   10.155    4.4655
   10.170    4.4128
   10.185    4.4760
   10.200    4.6340
   10.215    4.7393
   10.230    4.8025
   10.245    5.0974
   10.260    4.7288
   10.275    4.6656
   10.290    5.1817
   10.305    5.4239
   10.320    5.0658
   10.335    5.2659
   10.350    5.6345
   10.365    5.7820
   10.380    5.4134
   10.395    5.1711
   10.410    5.0342
   10.425    4.8341
   10.440    4.9078
   10.455    5.1395
   10.470    4.9816
   10.485    5.3502
   10.500    5.2870
   10.515    5.0132
   10.530    5.0448
   10.545    5.0869
   10.560    4.8973
   10.575    4.8552
   10.590    4.6656
   10.605    4.7183
   10.620    4.8341
   10.635    4.6445
   10.650    4.4550
   10.665    4.5076
   10.680    4.6761
   10.695    4.4339
   10.710    4.4971
   10.725    4.1601
   10.740    4.3286
   10.755    4.5392
   10.770    4.7077
   10.785    4.2443
   10.800    4.3181
   10.815    4.6867
   10.830    4.6340
   10.845    4.4023
   10.860    4.4128
   10.875    4.3707
   10.890    4.4444
   10.905    4.3707
   10.920    4.6340
   10.935    4.2759
   10.950    4.6656
   10.965    4.8341
   10.980    4.9184
   10.995    4.6867
   11.010    4.5814
   11.025    4.9184
   11.040    4.9184
   11.055    4.9184
   11.070    4.9816
   11.085    5.1395
   11.100    5.3291
   11.115    5.0448
   11.130    4.5603
   11.145    4.2759
   11.160    4.4866
   11.175    4.6761
   11.190    4.2970
   11.205    4.4760
   11.220    4.7077
   11.235    4.2759
   11.250    4.2970
   11.265    4.1811
   11.280    4.3181
   11.295    4.0021
   11.310    4.0758
   11.325    4.1074
   11.340    3.9389
   11.355    4.3707
   11.370    4.3602
   11.385    4.4971
   11.400    4.5182
   11.415    4.4339
   11.430    4.6445
   11.445    4.5287
   11.460    4.5076
   11.475    4.3813
   11.490    4.3286
   11.505    4.6130
   11.520    4.6867
   11.535    4.3497
   11.550    4.8236
   11.565    4.5392
   11.580    4.5392
   11.595    4.7183
   11.610    4.6551
   11.625    4.6445
   11.640    4.5392
   11.655    4.7393
   11.670    4.7815
   11.685    5.0869
   11.700    5.1606
   11.715    5.4028
   11.730    5.2975
   11.745    5.1711
   11.760    5.1817
   11.775    5.4344
   11.790    5.4134
   11.805    5.0342
   11.820    4.6656
   11.835    4.6656
   11.850    4.6656
   11.865    4.8131
   11.880    5.0764
   11.895    4.9921
   11.910    4.9184
   11.925    4.8341
   11.940    4.5919
   11.955    4.9289
   11.970    4.8973
   11.985    4.7288
   12.000    4.7920
   12.015    4.7920
   12.030    5.1080
   12.045    5.1395
   12.060    5.1817
   12.075    4.9710
   12.090    4.5919
   12.105    4.6867
   12.120    4.5287
   12.135    4.5392
   12.150    4.6235
   12.165    4.8447
   12.180    4.8447
   12.195    4.8763
   12.210    5.1290
   12.225    5.2238
   12.240    4.7920
   12.255    4.7709
   12.270    4.5182
   12.285    4.8973
   12.300    4.6972
   12.315    4.7077
   12.330    4.8447
   12.345    4.8657
   12.360    4.8447
   12.375    4.7920
   12.390    4.6972
   12.405    4.5287
   12.420    5.3291
   12.435    5.1185
   12.450    4.9605
   12.465    4.3918
   12.480    4.3707
   12.495    4.4655
   12.510    4.7393
   12.525    4.6340
   12.540    4.7183
   12.555    4.7499
   12.570    4.5076
   12.585    4.3075
   12.600    4.7183
   12.615    5.0237
   12.630    5.0553
   12.645    4.6445
   12.660    4.7288
   12.675    5.0237
   12.690    4.8025
   12.705    4.6551
   12.720    4.8236
   12.735    4.7499
   12.750    4.6445
   12.765    4.7920
   12.780    4.7393
   12.795    4.9605
   12.810    4.7604
   12.825    4.5708
   12.840    4.7393
   12.855    4.3391
   12.870    4.3181
   12.885    4.8025
   12.900    4.8657
   12.915    4.9078
   12.930    5.2975
   12.945    5.1395
   12.960    5.5082
   12.975    5.1501
   12.990    4.9605
   13.005    5.2343
   13.020    4.8763
   13.035    4.8973
   13.050    4.8657
   13.065    4.8236
   13.080    4.6130
   13.095    4.5708
   13.110    4.5498
   13.125    4.4866
   13.140    4.3075
   13.155    4.3707
   13.170    4.3075
   13.185    4.3497
   13.200    4.4339
   13.215    4.4866
   13.230    4.3918
   13.245    4.3497
   13.260    4.4971
   13.275    4.6445
   13.290    4.3181
   13.305    4.5498
   13.320    4.2970
   13.335    4.5076
   13.350    4.3707
   13.365    4.6130
   13.380    4.6340
   13.395    4.8131
   13.410    4.4023
   13.425    4.5814
   13.440    4.6761
   13.455    4.5287
   13.470    4.6972
   13.485    4.3918
   13.500    4.5287
   13.515    4.6551
   13.530    4.9289
   13.545    4.9605
   13.560    5.0026
   13.575    4.6551
   13.590    4.8236
   13.605    4.4128
   13.620    4.4550
   13.635    4.7920
   13.650    4.6235
   13.665    4.4128
   13.680    4.4655
   13.695    4.7920
   13.710    4.7077
   13.725    4.6761
   13.740    4.4128
   13.755    4.6551
   13.770    4.5603
   13.785    4.5076
   13.800    4.4760
   13.815    4.3181
   13.830    4.5182
   13.845    4.7920
   13.860    4.3075
   13.875    4.4339
   13.890    4.5287
   13.905    4.7288
   13.920    4.6867
   13.935    4.4023
   13.950    4.5498
   13.965    4.5603
   13.980    4.6235
   13.995    4.9184
   14.010    4.8868
   14.025    5.1395
   14.040    4.8236
   14.055    4.4971
   14.070    4.8657
   14.085    4.8025
   14.100    4.7077
   14.115    4.4866
   14.130    4.9500
   14.145    5.0237
   14.160    4.9394
   14.175    4.8868
   14.190    4.7077
   14.205    4.4866
   14.220    4.4760
   14.235    4.2338
   14.250    4.1496
   14.265    4.1917
   14.280    4.4444
   14.295    4.3497
   14.310    4.1496
   14.325    4.4655
   14.340    4.3181
   14.355    4.3075
   14.370    4.2233
   14.385    4.3286
   14.400    4.2443
   14.415    4.1706
   14.430    4.1180
   14.445    4.2654
   14.460    4.1811
   14.475    4.3497
   14.490    3.9494
   14.505    4.0232
   14.520    4.1811
   14.535    4.5287
   14.550    4.8236
   14.565    4.2759
   14.580    4.3181
   14.595    4.1917
   14.610    4.0232
   14.625    4.1917
   14.640    4.2654
   14.655    4.3813
   14.670    4.3075
   14.685    4.2654
   14.700    4.2022
   14.715    4.4866
   14.730    4.2654
   14.745    4.3391
   14.760    4.5498
   14.775    4.1285
   14.790    4.3286
   14.805    4.5182
   14.820    4.4760
   14.835    4.2865
   14.850    4.3181
   14.865    4.2759
   14.880    4.3602
   14.895    4.3391
   14.910    4.0442
   14.925    4.2338
   14.940    4.6340
   14.955    4.3602
   14.970    4.1180
   14.985    4.0442
   15.000    4.2654
   15.015    4.2022
   15.030    4.0758
   15.045    4.1285
   15.060    4.1180
   15.075    4.2338
   15.090    4.1601
   15.105    4.2865
   15.120    4.0969
   15.135    4.1496
   15.150    4.2127
   15.165    4.2338
   15.180    4.0969
   15.195    4.2233
   15.210    4.3181
   15.225    4.5182
   15.240    4.2022
   15.255    4.5392
   15.270    4.1496
   15.285    4.0653
   15.300    3.9494
   15.315    4.1074
   15.330    4.2759
   15.345    4.2759
   15.360    4.7183
   15.375    4.4023
   15.390    4.4234
   15.405    4.3602
   15.420    4.3286
   15.435    4.1601
   15.450    4.2654
   15.465    4.2443
   15.480    4.4128
   15.495    3.7915
   15.510    4.0021
   15.525    4.2549
   15.540    4.3391
   15.555    4.3181
   15.570    4.2970
   15.585    4.4128
   15.600    4.3707
   15.615    3.8652
   15.630    4.2443
   15.645    4.3813
   15.660    4.4234
   15.675    4.3602
   15.690    4.7604
   15.705    4.4655
   15.720    4.2970
   15.735    4.3286
   15.750    4.4866
   15.765    4.2233
   15.780    4.2233
   15.795    4.4866
   15.810    4.0864
   15.825    4.3707
   15.840    4.6867
   15.855    4.1811
   15.870    4.3181
   15.885    4.3497
   15.900    4.1390
   15.915    4.2443
   15.930    4.4444
   15.945    4.3497
   15.960    4.1917
   15.975    4.3391
   15.990    4.0232
   16.005    4.1180
   16.020    4.3497
   16.035    4.2865
   16.050    4.1706
   16.065    4.2549
   16.080    4.1706
   16.095    4.6445
   16.110    4.3391
   16.125    4.1706
   16.140    4.3813
   16.155    4.0548
   16.170    4.5392
   16.185    4.4444
   16.200    4.1601
   16.215    4.6024
   16.230    4.4444
   16.245    4.6024
   16.260    4.3181
   16.275    4.4760
   16.290    4.5182
   16.305    4.0653
   16.320    4.4339
   16.335    4.3075
   16.350    4.2654
   16.365    4.2549
   16.380    4.2865
   16.395    4.2443
   16.410    4.3602
   16.425    4.2549
   16.440    4.3918
   16.455    4.0969
   16.470    4.6551
   16.485    4.6445
   16.500    4.2759
   16.515    4.6761
   16.530    4.5603
   16.545    4.3391
   16.560    4.2759
   16.575    3.9389
   16.590    4.3075
   16.605    4.5182
   16.620    4.3813
   16.635    4.4760
   16.650    4.1917
   16.665    4.2127
   16.680    4.5498
   16.695    4.5287
   16.710    4.4655
   16.725    4.3181
   16.740    4.2654
   16.755    4.3075
   16.770    4.3602
   16.785    4.0126
   16.800    4.0126
   16.815    4.2022
   16.830    4.5287
   16.845    4.3286
   16.860    4.6445
   16.875    4.4655
   16.890    4.0969
   16.905    4.1811
   16.920    4.3602
   16.935    4.4655
   16.950    4.3181
   16.965    4.1811
   16.980    4.4444
   16.995    4.3602
   17.010    4.3707
   17.025    4.2654
   17.040    4.1601
   17.055    4.3286
   17.070    4.5603
   17.085    4.3918
   17.100    4.5287
   17.115    4.6235
   17.130    4.2654
   17.145    4.5392
   17.160    4.4971
   17.175    4.8868
   17.190    4.6867
   17.205    4.1811
   17.220    4.2970
   17.235    4.2443
   17.250    4.3391
   17.265    4.2654
   17.280    3.9494
   17.295    4.1496
   17.310    4.3075
   17.325    4.3075
   17.340    4.4760
   17.355    4.7393
   17.370    4.7393
   17.385    4.4444
   17.400    4.4971
   17.415    4.2970
   17.430    4.6551
   17.445    4.3707
   17.460    4.3707
   17.475    4.2654
   17.490    4.1074
   17.505    4.1390
   17.520    4.2233
   17.535    4.3707
   17.550    4.3075
   17.565    4.4128
   17.580    4.5182
   17.595    4.5287
   17.610    4.0232
   17.625    4.3707
   17.640    4.3181
   17.655    4.0126
   17.670    4.0758
   17.685    4.2549
   17.700    4.4339
   17.715    4.3286
   17.730    4.5498
   17.745    4.4444
   17.760    4.4866
   17.775    4.1390
   17.790    4.1496
   17.805    4.0758
   17.820    4.2759
   17.835    4.5076
   17.850    4.3707
   17.865    4.2549
   17.880    4.1285
   17.895    4.1811
   17.910    4.2443
   17.925    4.2549
   17.940    4.4128
   17.955    4.4655
   17.970    4.5498
   17.985    4.1601
   18.000    4.0126
   18.015    4.2970
   18.030    4.2970
   18.045    4.4866
   18.060    4.2970
   18.075    4.5498
   18.090    4.4023
   18.105    4.2549
   18.120    4.2549
   18.135    4.2970
   18.150    4.3813
   18.165    4.4128
   18.180    4.0442
   18.195    4.1706
   18.210    4.3497
   18.225    4.1601
   18.240    4.3497
   18.255    4.1180
   18.270    4.3391
   18.285    4.1285
   18.300    4.3391
   18.315    4.2127
   18.330    4.0653
   18.345    4.4128
   18.360    4.4444
   18.375    4.4023
   18.390    4.4550
   18.405    4.4339
   18.420    4.2338
   18.435    4.2865
   18.450    4.3497
   18.465    4.3075
   18.480    4.1706
   18.495    4.4971
   18.510    4.4444
   18.525    4.3286
   18.540    4.3813
   18.555    4.3602
   18.570    4.2759
   18.585    4.4128
   18.600    4.4444
   18.615    4.4023
   18.630    4.4128
   18.645    4.5919
   18.660    4.4760
   18.675    4.4971
   18.690    4.2549
   18.705    4.1811
   18.720    4.2759
   18.735    4.3813
   18.750    4.4234
   18.765    4.4760
   18.780    4.3075
   18.795    4.3181
   18.810    4.2654
   18.825    4.4550
   18.840    4.3813
   18.855    4.2970
   18.870    4.6340
   18.885    4.5708
   18.900    4.4234
   18.915    4.1180
   18.930    4.4023
   18.945    4.4655
   18.960    4.5287
   18.975    4.3497
   18.990    4.3918
   19.005    4.5287
   19.020    5.0237
   19.035    4.7604
   19.050    4.6867
   19.065    4.6445
   19.080    4.4339
   19.095    4.6656
   19.110    4.5287
   19.125    4.4760
   19.140    4.5708
   19.155    4.1496
   19.170    4.7183
   19.185    4.5919
   19.200    4.2338
   19.215    4.7499
   19.230    4.5603
   19.245    4.3391
   19.260    4.5287
   19.275    4.6656
   19.290    4.4339
   19.305    4.4866
   19.320    4.4550
   19.335    4.5498
   19.350    4.6235
   19.365    4.4339
   19.380    4.3813
   19.395    4.4128
   19.410    4.8447
   19.425    4.7815
   19.440    4.5814
   19.455    4.7815
   19.470    4.5182
   19.485    4.7077
   19.500    4.5603
   19.515    4.5919
   19.530    4.8131
   19.545    4.7920
   19.560    4.5814
   19.575    4.5287
   19.590    4.6551
   19.605    4.9500
   19.620    4.7815
   19.635    4.7604
   19.650    4.7709
   19.665    4.6656
   19.680    4.5076
   19.695    4.6130
   19.710    4.8131
   19.725    4.6130
   19.740    4.7709
   19.755    4.5498
   19.770    4.5814
   19.785    4.7077
   19.800    4.6551
   19.815    4.6235
   19.830    4.6656
   19.845    4.4971
   19.860    4.5814
   19.875    4.6445
   19.890    5.0237
   19.905    4.7815
   19.920    4.4023
   19.935    4.8131
   19.950    4.9500
   19.965    4.6024
   19.980    4.4760
   19.995    4.6551
   20.010    4.9289
   20.025    4.5076
   20.040    4.8763
   20.055    4.8131
   20.070    4.9710
   20.085    4.5076
   20.100    4.5182
   20.115    4.9289
   20.130    5.1290
   20.145    4.6761
   20.160    4.8763
   20.175    4.7393
   20.190    4.7709
   20.205    4.9394
   20.220    4.8447
   20.235    5.0342
   20.250    4.9184
   20.265    4.6551
   20.280    4.9078
   20.295    4.9078
   20.310    4.8341
   20.325    4.5076
   20.340    4.9078
   20.355    4.9184
   20.370    4.8236
   20.385    4.8657
   20.400    4.9184
   20.415    5.0658
   20.430    5.1185
   20.445    5.1501
   20.460    4.8973
   20.475    4.7393
   20.490    4.6551
   20.505    4.8236
   20.520    4.8131
   20.535    4.5603
   20.550    4.6656
   20.565    4.7288
   20.580    4.6340
   20.595    4.2549
   20.610    4.4234
   20.625    4.8973
   20.640    4.6445
   20.655    4.3813
   20.670    4.6235
   20.685    5.1080
   20.700    5.1395
   20.715    4.9078
   20.730    4.5498
   20.745    4.8657
   20.760    5.0132
   20.775    4.7183
   20.790    4.6130
   20.805    4.6551
   20.820    4.5498
   20.835    4.7499
   20.850    4.5708
   20.865    4.8973
   20.880    4.5392
   20.895    4.2443
   20.910    4.8341
   20.925    4.6972
   20.940    4.5919
   20.955    4.5708
   20.970    4.6235
   20.985    4.8973
   21.000    5.0342
   21.015    4.6867
   21.030    4.3286
   21.045    4.4234
   21.060    4.6867
   21.075    4.7709
   21.090    4.9710
   21.105    4.5708
   21.120    4.7604
   21.135    4.8763
   21.150    4.4550
   21.165    4.7393
   21.180    4.5814
   21.195    4.6024
   21.210    4.7183
   21.225    4.6445
   21.240    4.5603
   21.255    5.0132
   21.270    4.4866
   21.285    4.3602
   21.300    4.2970
   21.315    4.8447
   21.330    5.0132
   21.345    4.8236
   21.360    4.5603
   21.375    4.6130
   21.390    4.7709
   21.405    4.8657
   21.420    4.7183
   21.435    4.9921
   21.450    4.8341
   21.465    4.7604
   21.480    4.6867
   21.495    4.8236
   21.510    4.7815
   21.525    4.8552
   21.540    4.7815
   21.555    4.6972
   21.570    4.9289
   21.585    5.0658
   21.600    4.9816
   21.615    4.9184
   21.630    4.9394
   21.645    4.7709
   21.660    4.5076
   21.675    4.9921
   21.690    4.6972
   21.705    4.5708
   21.720    4.6445
   21.735    4.6340
   21.750    4.6340
   21.765    4.6972
   21.780    5.0448
   21.795    4.5603
   21.810    4.4655
   21.825    4.7499
   21.840    5.1922
   21.855    4.7709
   21.870    4.8025
   21.885    4.9605
   21.900    5.0026
   21.915    4.8868
   21.930    5.0658
   21.945    5.0237
   21.960    4.9078
   21.975    4.5182
   21.990    4.7077
   22.005    4.9500
   22.020    4.9394
   22.035    4.5708
   22.050    4.8025
   22.065    4.8447
   22.080    4.9289
   22.095    4.9394
   22.110    4.8025
   22.125    4.8868
   22.140    4.7709
   22.155    4.7288
   22.170    4.5182
   22.185    4.9394
   22.200    4.6551
   22.215    4.5498
   22.230    4.7604
   22.245    4.6867
   22.260    4.9605
   22.275    5.0658
   22.290    4.7077
   22.305    4.8025
   22.320    4.6972
   22.335    4.5182
   22.350    4.5708
   22.365    4.6867
   22.380    4.6340
   22.395    4.3286
   22.410    4.6445
   22.425    4.7499
   22.440    4.9816
   22.455    4.7815
   22.470    4.6761
   22.485    5.3186
   22.500    4.7077
   22.515    4.4234
   22.530    5.0026
   22.545    5.0237
   22.560    4.6867
   22.575    4.7920
   22.590    4.8447
   22.605    4.9710
   22.620    4.8552
   22.635    4.9816
   22.650    5.1185
   22.665    4.7920
   22.680    4.9816
   22.695    4.9394
   22.710    4.7815
   22.725    4.8763
   22.740    4.7815
   22.755    4.6445
   22.770    4.5392
   22.785    4.8763
   22.800    4.7604
   22.815    4.7393
   22.830    4.7709
   22.845    4.7815
   22.860    5.0132
   22.875    4.9921
   22.890    5.0237
   22.905    4.8763
   22.920    4.7077
   22.935    4.9605
   22.950    5.0448
   22.965    5.1817
   22.980    4.7815
   22.995    5.0869
   23.010    4.6867
   23.025    4.7604
   23.040    5.1606
   23.055    4.6551
   23.070    4.9605
   23.085    5.0448
   23.100    4.4866
   23.115    4.5919
   23.130    4.4866
   23.145    5.0237
   23.160    4.8236
   23.175    4.6130
   23.190    4.4023
   23.205    4.5919
   23.220    5.2765
   23.235    4.9500
   23.250    4.8868
   23.265    4.8341
   23.280    4.7077
   23.295    4.8973
   23.310    4.5076
   23.325    4.5919
   23.340    4.6235
   23.355    4.6024
   23.370    4.4444
   23.385    4.7393
   23.400    4.7604
   23.415    4.2127
   23.430    4.0969
   23.445    4.3813
   23.460    4.6761
   23.475    4.4655
   23.490    4.6340
   23.505    4.6867
   23.520    4.4866
   23.535    4.4023
   23.550    4.9184
   23.565    4.9921
   23.580    4.5392
   23.595    4.5708
   23.610    4.4866
   23.625    4.4339
   23.640    4.5076
   23.655    4.3813
   23.670    4.8341
   23.685    4.6445
   23.700    4.6551
   23.715    4.4760
   23.730    4.6445
   23.745    4.5708
   23.760    4.9289
   23.775    4.6551
   23.790    4.3918
   23.805    4.8236
   23.820    4.4339
   23.835    4.5287
   23.850    4.6972
   23.865    4.5392
   23.880    4.8447
   23.895    4.6445
   23.910    4.4444
   23.925    4.7393
   23.940    4.4655
   23.955    4.5814
   23.970    4.4128
   23.985    4.3602
   24.000    4.5392
   24.015    4.7393
   24.030    4.5287
   24.045    4.6130
   24.060    4.7499
   24.075    4.3707
   24.090    4.5392
   24.105    4.6972
   24.120    4.5919
   24.135    4.8236
   24.150    4.3391
   24.165    4.6235
   24.180    4.5076
   24.195    4.3286
   24.210    4.6235
   24.225    4.6130
   24.240    4.6235
   24.255    4.4128
   24.270    4.5498
   24.285    4.3497
   24.300    4.4234
   24.315    4.3286
   24.330    4.4339
   24.345    4.6024
   24.360    4.2022
   24.375    4.6024
   24.390    4.4655
   24.405    4.3918
   24.420    4.5603
   24.435    4.5919
   24.450    4.4655
   24.465    4.3497
   24.480    4.3181
   24.495    4.4971
   24.510    4.6445
   24.525    4.5392
   24.540    4.3391
   24.555    4.4866
   24.570    4.5919
   24.585    4.1811
   24.600    4.4339
   24.615    4.5814
   24.630    4.6972
   24.645    4.5076
   24.660    4.2443
   24.675    4.4023
   24.690    4.6972
   24.705    4.6551
   24.720    4.9184
   24.735    4.6340
   24.750    4.5919
   24.765    4.1706
   24.780    4.2759
   24.795    4.1496
   24.810    4.2127
   24.825    4.5182
   24.840    4.7920
   24.855    4.1811
   24.870    4.3497
   24.885    4.5182
   24.900    4.4655
   24.915    4.3707
   24.930    4.2549
   24.945    4.1074
   24.960    4.2549
   24.975    4.5498
   24.990    4.3075
   25.005    4.4550
   25.020    4.3813
   25.035    4.1917
   25.050    4.4866
   25.065    4.2338
   25.080    4.1496
   25.095    4.0758
   25.110    4.1917
   25.125    4.2549
   25.140    4.1917
   25.155    4.2654
   25.170    4.2233
   25.185    4.4550
   25.200    4.3391
   25.215    4.0969
   25.230    4.2338
   25.245    4.7815
   25.260    4.4339
   25.275    4.4550
   25.290    4.2759
   25.305    3.9916
   25.320    4.4339
   25.335    4.4444
   25.350    4.5708
   25.365    4.3286
   25.380    4.1601
   25.395    4.2970
   25.410    4.1917
   25.425    3.9494
   25.440    4.2654
   25.455    4.5498
   25.470    4.2549
   25.485    4.3813
   25.500    4.3181
   25.515    4.4760
   25.530    4.2654
   25.545    4.2865
   25.560    4.2022
   25.575    4.5182
   25.590    3.9916
   25.605    3.9600
   25.620    3.9600
   25.635    4.6235
   25.650    4.6551
   25.665    4.2865
   25.680    4.2338
   25.695    4.0021
   25.710    4.0021
   25.725    4.1917
   25.740    4.2654
   25.755    4.5287
   25.770    4.5814
   25.785    4.1074
   25.800    4.1496
   25.815    4.6340
   25.830    4.6867
   25.845    4.5182
   25.860    4.4339
   25.875    4.4023
   25.890    4.3497
   25.905    4.4760
   25.920    4.4234
   25.935    4.2443
   25.950    4.0758
   25.965    3.8863
   25.980    3.8968
   25.995    4.1074
   26.010    3.9705
   26.025    4.2759
   26.040    4.1496
   26.055    4.3075
   26.070    4.3075
   26.085    4.1601
   26.100    4.1811
   26.115    4.2127
   26.130    3.9916
   26.145    4.0126
   26.160    4.2549
   26.175    4.1074
   26.190    4.1917
   26.205    4.0126
   26.220    4.1180
   26.235    4.2970
   26.250    3.9810
   26.265    4.1917
   26.280    4.0232
   26.295    4.1180
   26.310    4.5287
   26.325    4.3286
   26.340    4.2654
   26.355    4.3286
   26.370    4.2022
   26.385    3.9073
   26.400    4.1496
   26.415    4.1496
   26.430    4.0969
   26.445    3.8652
   26.460    4.0021
   26.475    4.1601
   26.490    4.3075
   26.505    4.1180
   26.520    3.8652
   26.535    4.0337
   26.550    3.9284
   26.565    4.1917
   26.580    4.1811
   26.595    4.1601
   26.610    4.0758
   26.625    4.4760
   26.640    4.4655
   26.655    4.1706
   26.670    4.1811
   26.685    4.1180
   26.700    3.7704
   26.715    3.7493
   26.730    3.9073
   26.745    3.7704
   26.760    3.8863
   26.775    4.2865
   26.790    4.0548
   26.805    4.0021
   26.820    4.2127
   26.835    4.1811
   26.850    4.0337
   26.865    3.8968
   26.880    4.1180
   26.895    4.0548
   26.910    4.1917
   26.925    4.0548
   26.940    4.4971
   26.955    4.1601
   26.970    4.1074
   26.985    4.0126
   27.000    4.1074
   27.015    4.2233
   27.030    4.4339
   27.045    4.0864
   27.060    4.3286
   27.075    4.3286
   27.090    4.0232
   27.105    4.0126
   27.120    4.0969
   27.135    4.2338
   27.150    4.0864
   27.165    4.1390
   27.180    4.1074
   27.195    3.9073
   27.210    3.7704
   27.225    4.0232
   27.240    4.0021
   27.255    3.9284
   27.270    3.7704
   27.285    3.8441
   27.300    4.1074
   27.315    3.9494
   27.330    3.9705
   27.345    3.9494
   27.360    3.7915
   27.375    3.8863
   27.390    3.8757
   27.405    3.9389
   27.420    4.2233
   27.435    3.8020
   27.450    3.7072
   27.465    3.9073
   27.480    4.0969
   27.495    4.1180
   27.510    4.1180
   27.525    4.2233
   27.540    4.1390
   27.555    3.8863
   27.570    3.6019
   27.585    3.8231
   27.600    4.2654
   27.615    4.2338
   27.630    4.0021
   27.645    3.9389
   27.660    4.1285
   27.675    4.4760
   27.690    4.2338
   27.705    3.9284
   27.720    4.0653
   27.735    3.8441
   27.750    3.9179
   27.765    3.9600
   27.780    3.8652
   27.795    3.8968
   27.810    3.8863
   27.825    3.7599
   27.840    4.0021
   27.855    3.9494
   27.870    4.0548
   27.885    4.0969
   27.900    3.9916
   27.915    3.7704
   27.930    4.0232
   27.945    4.3497
   27.960    4.2443
   27.975    4.4023
   27.990    4.2127
   28.005    4.2759
   28.020    4.0021
   28.035    4.0337
   28.050    4.0969
   28.065    4.5182
   28.080    4.5498
   28.095    4.2970
   28.110    4.1180
   28.125    4.2865
   28.140    4.4128
   28.155    3.9073
   28.170    3.9810
   28.185    4.1601
   28.200    4.5076
   28.215    4.1917
   28.230    4.1496
   28.245    4.3181
   28.260    4.4444
   28.275    4.2022
   28.290    4.0758
   28.305    4.0337
   28.320    4.4655
   28.335    4.6130
   28.350    4.3181
   28.365    4.0442
   28.380    3.8863
   28.395    3.9600
   28.410    4.1601
   28.425    4.1496
   28.440    4.2233
   28.455    4.2759
   28.470    4.2127
   28.485    4.0969
   28.500    4.0232
   28.515    3.9600
   28.530    4.1180
   28.545    4.2654
   28.560    3.8968
   28.575    4.0653
   28.590    3.8547
   28.605    4.2759
   28.620    3.7809
   28.635    3.7704
   28.650    3.6862
   28.665    3.6967
   28.680    3.6756
   28.695    3.8757
   28.710    3.7283
   28.725    3.8336
   28.740    3.8125
   28.755    4.0337
   28.770    4.0021
   28.785    3.7915
   28.800    3.9389
   28.815    3.9179
   28.830    3.8231
   28.845    3.9389
   28.860    3.8652
   28.875    4.0653
   28.890    3.9494
   28.905    3.8863
   28.920    3.8441
   28.935    3.8547
   28.950    3.8968
   28.965    4.1706
   28.980    4.1601
   28.995    3.8336
   29.010    4.0232
   29.025    4.2443
   29.040    3.9600
   29.055    3.9810
   29.070    4.0126
   29.085    3.7915
   29.100    3.7283
   29.115    3.8441
   29.130    4.2233
   29.145    4.2127
   29.160    4.2022
   29.175    3.7704
   29.190    3.6230
   29.205    3.9916
   29.220    3.9284
   29.235    3.9179
   29.250    3.6440
   29.265    3.6230
   29.280    3.7704
   29.295    3.9179
   29.310    3.9705
   29.325    3.9600
   29.340    3.8125
   29.355    3.9916
   29.370    4.1917
   29.385    4.0232
   29.400    4.1390
   29.415    3.8757
   29.430    3.6967
   29.445    3.9705
   29.460    3.9705
   29.475    4.0548
   29.490    4.0653
   29.505    3.7493
   29.520    3.6019
   29.535    3.5914
   29.550    3.9389
   29.565    3.7599
   29.580    3.6124
   29.595    3.3702
   29.610    3.7493
   29.625    4.1180
   29.640    4.0969
   29.655    3.6546
   29.670    3.7283
   29.685    3.6230
   29.700    3.8968
   29.715    3.8125
   29.730    3.5598
   29.745    3.6230
   29.760    3.5598
   29.775    3.7809
   29.790    3.7072
   29.805    3.7072
   29.820    3.7177
   29.835    4.1074
   29.850    3.7809
   29.865    3.8336
   29.880    3.8020
   29.895    3.9494
   29.910    3.7599
   29.925    3.7177
   29.940    3.6124
   29.955    3.6019
   29.970    3.9073
   29.985    3.6967
   30.000    3.6862
   30.015    3.7072
   30.030    3.7915
   30.045    3.5808
   30.060    3.7493
   30.075    3.7283
   30.090    3.3913
   30.105    3.7388
   30.120    3.9705
   30.135    3.8757
   30.150    3.7599
   30.165    3.6651
   30.180    3.6862
   30.195    3.7283
   30.210    3.7915
   30.225    3.6230
   30.240    3.6440
   30.255    3.6967
   30.270    3.5282
   30.285    3.8652
   30.300    3.6862
   30.315    3.8863
   30.330    3.7915
   30.345    3.5387
   30.360    3.5176
   30.375    3.7704
   30.390    3.8020
   30.405    3.6124
   30.420    3.5387
   30.435    3.7388
   30.450    3.5492
   30.465    3.6124
   30.480    3.8020
   30.495    3.5914
   30.510    3.5598
   30.525    3.8863
   30.540    3.8125
   30.555    3.5282
   30.570    3.6335
   30.585    3.6862
   30.600    3.6230
   30.615    3.7493
   30.630    3.5492
   30.645    3.7388
   30.660    3.6862
   30.675    3.9073
   30.690    3.5176
   30.705    3.7177
   30.720    3.6335
   30.735    3.4860
   30.750    3.5808
   30.765    3.4018
   30.780    3.4860
   30.795    3.5071
   30.810    3.5071
   30.825    3.4334
   30.840    3.4123
   30.855    3.4544
   30.870    3.3597
   30.885    3.5703
   30.900    3.7177
   30.915    3.5914
   30.930    3.4650
   30.945    3.7599
   30.960    3.9810
   30.975    3.7809
   30.990    3.5176
   31.005    3.4123
   31.020    3.6546
   31.035    3.5492
   31.050    3.6335
   31.065    3.5387
   31.080    3.5914
   31.095    3.5071
   31.110    3.4544
   31.125    3.6019
   31.140    3.6230
   31.155    3.4860
   31.170    3.6230
   31.185    3.4966
   31.200    3.6440
   31.215    3.4439
   31.230    3.5808
   31.245    3.7599
   31.260    3.9073
   31.275    3.8020
   31.290    3.5808
   31.305    3.6651
   31.320    3.6230
   31.335    3.3807
   31.350    3.4544
   31.365    3.3281
   31.380    3.7283
   31.395    3.7915
   31.410    3.6862
   31.425    3.7599
   31.440    3.5282
   31.455    3.6967
   31.470    3.6019
   31.485    3.4439
   31.500    3.6335
   31.515    3.5282
   31.530    3.2859
   31.545    3.3913
   31.560    3.4544
   31.575    3.4860
   31.590    3.6335
   31.605    3.4650
   31.620    3.7704
   31.635    4.0442
   31.650    3.7388
   31.665    3.7177
   31.680    3.9389
   31.695    3.3386
   31.710    3.6756
   31.725    3.6440
   31.740    3.6862
   31.755    3.4334
   31.770    3.5492
   31.785    3.8336
   31.800    3.5914
   31.815    3.6124
   31.830    3.5914
   31.845    3.7809
   31.860    3.8020
   31.875    3.7915
   31.890    3.5914
   31.905    3.5703
   31.920    3.6546
   31.935    4.0337
   31.950    3.8125
   31.965    3.7915
   31.980    3.5914
   31.995    3.7704
   32.010    3.9179
   32.025    3.9284
   32.040    3.9389
   32.055    3.8336
   32.070    3.8020
   32.085    3.8968
   32.100    3.9179
   32.115    4.0864
   32.130    4.0758
   32.145    3.9284
   32.160    4.0126
   32.175    4.0969
   32.190    4.0758
   32.205    3.7388
   32.220    4.0758
   32.235    3.9179
   32.250    3.8441
   32.265    3.7388
   32.280    3.5703
   32.295    3.5071
   32.310    3.4966
   32.325    3.2754
   32.340    3.5808
   32.355    3.5071
   32.370    3.5492
   32.385    3.3491
   32.400    3.5176
   32.415    3.3913
   32.430    3.5071
   32.445    3.3070
   32.460    3.5808
   32.475    3.2965
   32.490    3.4123
   32.505    3.5598
   32.520    3.2754
   32.535    3.3913
   32.550    3.6651
   32.565    3.3491
   32.580    3.3807
   32.595    3.5808
   32.610    3.4123
   32.625    3.4650
   32.640    3.3913
   32.655    3.4439
   32.670    3.5598
   32.685    3.4755
   32.700    3.6335
   32.715    3.5703
   32.730    2.9384
   32.745    3.2649
   32.760    3.2965
   32.775    3.4018
   32.790    3.3175
   32.805    3.0437
   32.820    3.2754
   32.835    3.2017
   32.850    3.2649
   32.865    3.4966
   32.880    3.4755
   32.895    3.3597
   32.910    3.3175
   32.925    3.1912
   32.940    3.1280
   32.955    3.2438
   32.970    3.4123
   32.985    3.4544
   33.000    3.4229
   33.015    3.5492
   33.030    3.5071
   33.045    3.4439
   33.060    3.3597
   33.075    3.2754
   33.090    3.3281
   33.105    3.5071
   33.120    3.5282
   33.135    3.4650
   33.150    3.1806
   33.165    3.3491
   33.180    3.4650
   33.195    3.3702
   33.210    3.3702
   33.225    3.2122
   33.240    3.4123
   33.255    3.6335
   33.270    3.3175
   33.285    3.2649
   33.300    3.3070
   33.315    3.3386
   33.330    3.3386
   33.345    3.4755
   33.360    3.2965
   33.375    3.4334
   33.390    3.3491
   33.405    3.1385
   33.420    3.1912
   33.435    3.0226
   33.450    3.1806
   33.465    3.0753
   33.480    3.2333
   33.495    3.1701
   33.510    3.1174
   33.525    3.2122
   33.540    3.0964
   33.555    2.9489
   33.570    3.3913
   33.585    3.5071
   33.600    3.2438
   33.615    3.3070
   33.630    3.4755
   33.645    3.1385
   33.660    2.9805
   33.675    3.2649
   33.690    3.3386
   33.705    3.2754
   33.720    3.2438
   33.735    3.3386
   33.750    3.5071
   33.765    3.1701
   33.780    3.2438
   33.795    3.3175
   33.810    3.2965
   33.825    3.2543
   33.840    3.3913
   33.855    3.4018
   33.870    3.2227
   33.885    3.3702
   33.900    3.3491
   33.915    3.4018
   33.930    3.3807
   33.945    3.5914
   33.960    3.5387
   33.975    3.1385
   33.990    3.0753
   34.005    3.1596
   34.020    3.0753
   34.035    3.4123
   34.050    3.3175
   34.065    3.2017
   34.080    3.1490
   34.095    3.2859
   34.110    3.3913
   34.125    3.1490
   34.140    3.1280
   34.155    3.1912
   34.170    3.2122
   34.185    3.2227
   34.200    3.0016
   34.215    3.0753
   34.230    2.9910
   34.245    3.2859
   34.260    3.1596
   34.275    3.3070
   34.290    3.2017
   34.305    3.2333
   34.320    3.1701
   34.335    3.1596
   34.350    3.1490
   34.365    3.2649
   34.380    3.3807
   34.395    3.3913
   34.410    3.3702
   34.425    3.1806
   34.440    3.0016
   34.455    3.1490
   34.470    3.2649
   34.485    3.0964
   34.500    3.0753
   34.515    2.9805
   34.530    3.1912
   34.545    2.8857
   34.560    3.1385
   34.575    2.8436
   34.590    3.0016
   34.605    3.0648
   34.620    2.8963
   34.635    2.8436
   34.650    3.1806
   34.665    3.1385
   34.680    3.0964
   34.695    3.3070
   34.710    2.8857
   34.725    2.8647
   34.740    2.9700
   34.755    2.9595
   34.770    2.9173
   34.785    3.2333
   34.800    3.1912
   34.815    3.2543
   34.830    3.1385
   34.845    3.0753
   34.860    3.0016
   34.875    3.0437
   34.890    3.0437
   34.905    3.1490
   34.920    2.9173
   34.935    2.9805
   34.950    3.2438
   34.965    3.1385
   34.980    2.9173
   34.995    3.2543
   35.010    2.9595
   35.025    2.9173
   35.040    2.9384
   35.055    2.8752
   35.070    2.9384
   35.085    3.1912
   35.100    3.1385
   35.115    3.0964
   35.130    3.1701
   35.145    3.0753
   35.160    3.2438
   35.175    3.0332
   35.190    3.0121
   35.205    3.1280
   35.220    3.1806
   35.235    2.9910
   35.250    3.0964
   35.265    3.0753
   35.280    2.9910
   35.295    2.9700
   35.310    3.0226
   35.325    3.0121
   35.340    3.0542
   35.355    3.1596
   35.370    2.8331
   35.385    3.1596
   35.400    3.0858
   35.415    3.1490
   35.430    2.8752
   35.445    2.9173
   35.460    2.8120
   35.475    2.9489
   35.490    3.0542
   35.505    2.8963
   35.520    3.0226
   35.535    2.9173
   35.550    2.6856
   35.565    3.0437
   35.580    2.9173
   35.595    2.9805
   35.610    2.9700
   35.625    3.0121
   35.640    3.1806
   35.655    3.0542
   35.670    2.8225
   35.685    3.1385
   35.700    2.8647
   35.715    2.6540
   35.730    2.9173
   35.745    2.8963
   35.760    2.9384
   35.775    2.8963
   35.790    3.0016
   35.805    2.7383
   35.820    3.1385
   35.835    3.2017
   35.850    3.0121
   35.865    2.9700
   35.880    3.1069
   35.895    3.1596
   35.910    2.8963
   35.925    2.7278
   35.940    2.8015
   35.955    2.9595
   35.970    2.8647
   35.985    3.0332
   36.000    2.8963
   36.015    3.0542
   36.030    3.0226
   36.045    2.8752
   36.060    2.8963
   36.075    2.8857
   36.090    2.7383
   36.105    2.9173
   36.120    3.0858
   36.135    3.0542
   36.150    2.8120
   36.165    2.8857
   36.180    2.9489
   36.195    2.8436
   36.210    2.8857
   36.225    2.6856
   36.240    2.7593
   36.255    2.8331
   36.270    2.9068
   36.285    2.8752
   36.300    2.8963
   36.315    2.7909
   36.330    2.7383
   36.345    2.9700
   36.360    2.8857
   36.375    2.8331
   36.390    3.1596
   36.405    3.0542
   36.420    2.6751
   36.435    2.7593
   36.450    2.6330
   36.465    2.5908
   36.480    2.7172
   36.495    2.8963
   36.510    2.9700
   36.525    2.9384
   36.540    2.9489
   36.555    2.9068
   36.570    2.8015
   36.585    2.7383
   36.600    2.8120
   36.615    2.7909
   36.630    2.8436
   36.645    2.9384
   36.660    2.8752
   36.675    2.8331
   36.690    2.8436
   36.705    2.8331
   36.720    2.7909
   36.735    2.9910
   36.750    2.7804
   36.765    2.7909
   36.780    2.7488
   36.795    2.8015
   36.810    3.0016
   36.825    2.5066
   36.840    2.7383
   36.855    2.9173
   36.870    2.9805
   36.885    2.8225
   36.900    2.9068
   36.915    2.8963
   36.930    2.7383
   36.945    2.6435
   36.960    2.8752
   36.975    2.9068
   36.990    2.7909
   37.005    2.6540
   37.020    2.7699
   37.035    2.9384
   37.050    2.5487
   37.065    2.7067
   37.080    3.0226
   37.095    2.6435
   37.110    2.7383
   37.125    2.8436
   37.140    2.8436
   37.155    2.7593
   37.170    2.7909
   37.185    2.7804
   37.200    3.0226
   37.215    2.9068
   37.230    2.7067
   37.245    2.7172
   37.260    2.6119
   37.275    2.5592
   37.290    2.5171
   37.305    2.8120
   37.320    2.7383
   37.335    2.6856
   37.350    2.8225
   37.365    2.4961
   37.380    2.7488
   37.395    2.8436
   37.410    3.1280
   37.425    2.9595
   37.440    2.8647
   37.455    2.6962
   37.470    2.6330
   37.485    2.8857
   37.500    2.8541
   37.515    2.8015
   37.530    2.8541
   37.545    2.8752
   37.560    2.9489
   37.575    2.8647
   37.590    2.9068
   37.605    2.8752
   37.620    2.5908
   37.635    2.9068
   37.650    2.8331
   37.665    3.0121
   37.680    3.0437
   37.695    3.1385
   37.710    2.6751
   37.725    3.0964
   37.740    2.5698
   37.755    2.6856
   37.770    2.9279
   37.785    2.6856
   37.800    2.9700
   37.815    2.7067
   37.830    2.6646
   37.845    2.7804
   37.860    2.9384
   37.875    2.7699
   37.890    2.9489
   37.905    2.7699
   37.920    2.5171
   37.935    2.4329
   37.950    2.6856
   37.965    2.8436
   37.980    2.9700
   37.995    2.6962
   38.010    2.6224
   38.025    2.8436
   38.040    2.9700
   38.055    2.8436
   38.070    3.0332
   38.085    2.9700
   38.100    2.5592
   38.115    2.8225
   38.130    2.7278
   38.145    2.6435
   38.160    2.4961
   38.175    2.8331
   38.190    2.8647
   38.205    2.8752
   38.220    2.7488
   38.235    2.6540
   38.250    2.6540
   38.265    2.7909
   38.280    2.7804
   38.295    2.9700
   38.310    2.8225
   38.325    2.6646
   38.340    2.6119
   38.355    2.7172
   38.370    2.6014
   38.385    2.7278
   38.400    2.6435
   38.415    2.4539
   38.430    2.6751
   38.445    2.6962
   38.460    2.6224
   38.475    2.5908
   38.490    2.8647
   38.505    2.8541
   38.520    2.7067
   38.535    2.8647
   38.550    2.7804
   38.565    2.6435
   38.580    2.7067
   38.595    2.8541
   38.610    2.9489
   38.625    2.8752
   38.640    2.6435
   38.655    2.7383
   38.670    2.8015
   38.685    2.8541
   38.700    2.9068
   38.715    2.6014
   38.730    2.8752
   38.745    2.7383
   38.760    2.6119
   38.775    2.8015
   38.790    2.6119
   38.805    2.6435
   38.820    2.6962
   38.835    2.8857
   38.850    2.7067
   38.865    2.7172
   38.880    2.6751
   38.895    2.5803
   38.910    2.9068
   38.925    2.4961
   38.940    2.7067
   38.955    2.7278
   38.970    2.3697
   38.985    2.5171
   39.000    2.6540
   39.015    2.4645
   39.030    2.7172
   39.045    2.6540
   39.060    2.6856
   39.075    2.5908
   39.090    2.7067
   39.105    2.4223
   39.120    2.7488
   39.135    2.9595
   39.150    2.6856
   39.165    2.6856
   39.180    2.5592
   39.195    2.6856
   39.210    2.7488
   39.225    2.7278
   39.240    2.8015
   39.255    2.5276
   39.270    2.6330
   39.285    2.7804
   39.300    2.7909
   39.315    2.5803
   39.330    2.6435
   39.345    2.4750
   39.360    2.5276
   39.375    2.7909
   39.390    2.7593
   39.405    2.6646
   39.420    2.8015
   39.435    2.8541
   39.450    2.6962
   39.465    2.7067
   39.480    2.4434
   39.495    2.6330
   39.510    2.8120
   39.525    2.8436
   39.540    2.7278
   39.555    2.6330
   39.570    2.7383
   39.585    2.6751
   39.600    2.5803
   39.615    2.6330
   39.630    2.4750
   39.645    2.6540
   39.660    2.6435
   39.675    2.6014
   39.690    2.5066
   39.705    2.4855
   39.720    2.4961
   39.735    2.6435
   39.750    2.5487
   39.765    2.6330
   39.780    2.6646
   39.795    2.6646
   39.810    2.6014
   39.825    2.7488
   39.840    2.5382
   39.855    2.6119
   39.870    2.6751
   39.885    2.7593
   39.900    2.5382
   39.915    2.5803
   39.930    2.7067
   39.945    2.6751
   39.960    2.5698
   39.975    2.5487
   39.990    2.7804
