    1.500   20.4318
    1.515   20.5161
    1.530   20.3476
    1.545   20.7056
    1.560   20.5898
    1.575   20.4423
    1.590   20.1159
    1.605   19.3892
    1.620   19.4734
    1.635   18.8626
    1.650   18.8942
    1.665   19.3892
    1.680   19.5893
    1.695   18.8836
    1.710   18.4518
    1.725   17.8410
    1.740   18.1675
    1.755   18.3570
    1.770   17.5777
    1.785   17.9568
    1.800   17.8726
    1.815   17.6619
    1.830   17.0090
    1.845   16.9247
    1.860   17.3881
    1.875   17.4618
    1.890   17.1143
    1.905   16.4824
    1.920   17.2828
    1.935   16.7773
    1.950   17.0827
    1.965   17.0721
    1.980   17.1459
    1.995   16.3454
    2.010   17.2933
    2.025   16.2085
    2.040   16.4824
    2.055   16.6509
    2.070   16.4613
    2.085   16.2401
    2.100   15.9558
    2.115   16.0400
    2.130   16.4824
    2.145   16.1453
    2.160   16.0400
    2.175   16.6193
    2.190   16.9352
    2.205   16.2296
    2.220   16.5982
    2.235   16.8299
    2.250   17.0405
    2.265   16.8615
    2.280   16.4929
    2.295   17.1353
    2.310   16.9774
    2.325   16.9668
    2.340   17.3986
    2.355   17.5777
    2.370   17.7462
    2.385   17.5461
    2.400   17.4724
    2.415   17.2722
    2.430   18.0305
    2.445   18.2201
    2.460   18.9679
    2.475   18.6098
    2.490   18.5361
    2.505   18.5255
    2.520   19.9579
    2.535   19.9789
    2.550   20.0316
    2.565   20.2317
    2.580   20.1580
    2.595   20.0527
    2.610   20.0421
    2.625   20.0843
    2.640   20.9373
    2.655   21.1374
    2.670   21.4534
    2.685   21.9905
    2.700   22.6330
    2.715   22.4645
    2.730   23.3491
    2.745   23.3281
    2.760   22.7909
    2.775   23.5282
    2.790   23.9810
    2.805   24.9078
    2.820   25.8452
    2.835   26.1190
    2.850   26.3296
    2.865   27.3723
    2.880   28.0253
    2.895   28.7414
    2.910   29.6472
    2.925   29.8894
    2.940   30.0790
    2.955   31.9115
    2.970   32.4697
    2.985   34.3233
    3.000   34.5340
    3.015   34.8183
    3.030   36.7878
    3.045   37.7146
    3.060   38.6625
    3.075   39.7051
    3.090   41.6535
    3.105   43.3491
    3.120   44.0337
    3.135   45.4028
    3.150   47.3091
    3.165   48.8678
    3.180   49.4576
    3.195   51.6377
    3.210   55.5450
    3.225   56.9879
    3.240   58.1043
    3.255   62.2117
    3.270   64.4128
    3.285   67.3407
    3.300   71.3639
    3.315   75.3555
    3.330   79.4102
    3.345   83.2649
    3.360   88.2991
    3.375   92.8489
    3.390   99.2312
    3.405  103.5914
    3.420  108.9310
    3.435  111.1006
    3.450  113.7336
    3.465  112.8278
    3.480  108.6045
    3.495  102.0958
    3.510   91.3428
    3.525   82.5171
    3.540   74.1864
    3.555   65.0237
    3.570   57.6619
    3.585   52.0590
    3.600   47.4460
    3.615   43.0226
    3.630   41.7694
    3.645   38.5993
    3.660   38.2938
    3.675   37.9252
    3.690   37.3354
    3.705   38.4729
    3.720   37.8726
    3.735   38.7467
    3.750   39.3260
    3.765   39.1364
    3.780   40.1474
    3.795   40.7899
    3.810   43.2333
    3.825   43.4018
    3.840   43.5071
    3.855   43.4966
    3.870   45.7925
    3.885   46.8984
    3.900   47.1827
    3.915   49.5313
    3.930   49.9315
    3.945   51.7220
    3.960   52.0906
    3.975   52.3223
    3.990   51.1743
    4.005   52.5540
    4.020   50.8583
    4.035   51.1216
    4.050   48.7309
    4.065   48.5097
    4.080   47.6777
    4.095   46.5719
    4.110   43.9916
    4.125   42.4329
    4.140   40.1474
    4.155   38.3044
    4.170   36.3244
    4.185   32.5434
    4.200   31.5113
    4.215   29.2680
    4.230   27.4776
    4.245   26.1401
    4.260   24.4866
    4.275   23.5598
    4.290   21.7904
    4.305   20.5266
    4.320   19.3470
    4.335   18.2938
    4.350   16.6193
    4.365   16.0190
    4.380   15.8083
    4.395   14.3655
    4.410   13.3965
    4.425   13.3228
    4.440   12.9963
    4.455   12.0484
    4.470   11.5113
    4.485   11.0374
    4.500   10.5213
    4.515   10.4687
    4.530   10.2686
    4.545    9.6893
    4.560    9.6788
    4.575    9.3628
    4.590    8.9731
    4.605    9.0153
    4.620    8.5097
    4.635    8.2780
    4.650    8.0674
    4.665    8.1833
    4.680    8.0358
    4.695    7.8252
    4.710    7.6251
    4.725    7.6356
    4.740    8.0042
    4.755    7.4776
    4.770    7.2775
    4.785    7.3828
    4.800    7.3091
    4.815    7.0458
    4.830    7.2459
    4.845    6.7930
    4.860    6.9932
    4.875    7.2038
    4.890    7.0142
    4.905    7.0037
    4.920    7.1722
    4.935    6.4244
    4.950    6.8984
    4.965    6.7299
    4.980    6.6667
    4.995    7.1195
    5.010    6.4771
    5.025    6.7404
    5.040    6.1401
    5.055    6.4560
    5.070    6.7299
    5.085    6.5403
    5.100    6.2981
    5.115    6.1927
    5.130    6.1401
    5.145    6.2243
    5.160    6.5403
    5.175    6.2875
    5.190    6.6667
    5.205    6.3086
    5.220    6.1822
    5.235    6.1401
    5.250    6.1822
    5.265    6.4139
    5.280    6.0137
    5.295    6.2875
    5.310    6.5087
    5.325    6.2559
    5.340    6.6035
    5.355    6.2665
    5.370    6.3823
    5.385    6.1295
    5.400    5.8347
    5.415    5.9505
    5.430    5.9084
    5.445    6.0874
    5.460    5.7925
    5.475    6.0769
    5.490    5.9294
    5.505    5.8662
    5.520    5.4976
    5.535    5.6029
    5.550    5.5608
    5.565    5.4660
    5.580    5.6029
    5.595    5.6135
    5.610    5.6661
    5.625    5.5503
    5.640    5.5398
    5.655    5.4555
    5.670    5.6872
    5.685    5.4344
    5.700    5.4660
    5.715    5.4555
    5.730    5.9926
    5.745    5.7715
    5.760    5.6661
    5.775    5.6135
    5.790    5.5398
    5.805    5.6451
    5.820    5.9610
    5.835    5.6345
    5.850    5.6767
    5.865    5.1922
    5.880    5.6451
    5.895    5.4239
    5.910    5.6345
    5.925    5.6029
    5.940    5.5292
    5.955    5.6240
    5.970    5.4660
    5.985    5.7083
    6.000    5.4344
    6.015    5.7715
    6.030    5.7504
    6.045    5.6135
    6.060    5.7925
    6.075    5.6872
    6.090    5.6345
    6.105    5.9189
    6.120    5.6767
    6.135    5.5187
    6.150    5.6345
    6.165    5.5082
    6.180    5.6556
    6.195    5.8557
    6.210    5.9821
    6.225    5.8557
    6.240    5.8873
    6.255    5.6556
    6.270    5.6451
    6.285    5.8136
    6.300    6.1085
    6.315    6.3507
    6.330    5.9821
    6.345    5.9505
    6.360    6.4034
    6.375    5.9505
    6.390    6.0874
    6.405    6.5824
    6.420    6.1401
    6.435    6.3718
    6.450    6.7509
    6.465    6.1717
    6.480    6.1295
    6.495    6.6667
    6.510    6.5613
    6.525    6.5824
    6.540    6.8036
    6.555    6.4771
    6.570    6.4034
    6.585    7.1511
    6.600    7.2880
    6.615    7.5303
    6.630    7.2143
    6.645    7.2143
    6.660    7.4671
    6.675    8.1095
    6.690    8.0358
    6.705    7.8778
    6.720    8.1833
    6.735    8.3939
    6.750    9.5103
    6.765    9.4997
    6.780    9.6577
    6.795   10.1001
    6.810   10.1843
    6.825   10.7636
    6.840   11.0163
    6.855   11.8062
    6.870   12.7330
    6.885   13.8389
    6.900   13.6809
    6.915   13.8810
    6.930   14.9763
    6.945   15.1027
    6.960   15.0079
    6.975   14.7446
    6.990   14.9974
    7.005   13.9758
    7.020   13.2070
    7.035   12.1748
    7.050   11.0479
    7.065   10.4371
    7.080    9.4471
    7.095    9.0258
    7.110    8.4466
    7.125    7.6988
    7.140    7.3723
    7.155    7.1722
    7.170    6.9616
    7.185    6.9510
    7.200    6.6983
    7.215    6.5824
    7.230    6.6351
    7.245    6.6351
    7.260    6.6035
    7.275    6.6772
    7.290    6.7193
    7.305    6.5087
    7.320    6.4982
    7.335    6.2033
    7.350    6.4876
    7.365    6.2138
    7.380    5.8873
    7.395    6.3507
    7.410    6.6245
    7.425    6.2454
    7.440    6.6561
    7.455    6.8984
    7.470    6.1717
    7.485    6.3086
    7.500    6.0242
    7.515    6.3718
    7.530    6.7930
    7.545    6.7509
    7.560    6.4876
    7.575    6.9405
    7.590    6.6667
    7.605    6.6035
    7.620    7.0985
    7.635    6.9194
    7.650    7.0037
    7.665    6.9932
    7.680    6.8457
    7.695    7.3723
    7.710    7.4355
    7.725    7.0985
    7.740    7.2670
    7.755    7.1511
    7.770    7.3723
    7.785    7.3828
    7.800    7.0774
    7.815    7.4882
    7.830    7.7514
    7.845    7.7725
    7.860    7.9200
    7.875    8.0147
    7.890    8.1938
    7.905    8.6151
    7.920    8.2043
    7.935    8.7204
    7.950    8.7309
    7.965    8.9310
    7.980    8.5519
    7.995    8.4676
    8.010    8.7625
    8.025    8.5519
    8.040    8.9521
    8.055    9.1627
    8.070    9.2048
    8.085    8.9415
    8.100    8.8468
    8.115    9.3418
    8.130    9.4155
    8.145    9.3523
    8.160    9.1627
    8.175    9.0574
    8.190    8.4466
    8.205    8.8889
    8.220    8.9310
    8.235    8.7730
    8.250    8.5519
    8.265    9.2259
    8.280    8.7941
    8.295    8.2359
    8.310    8.2675
    8.325    8.0990
    8.340    8.1727
    8.355    8.1411
    8.370    8.1517
    8.385    7.9094
    8.400    7.5408
    8.415    7.5092
    8.430    7.6883
    8.445    7.6145
    8.460    7.3196
    8.475    7.5829
    8.490    7.5092
    8.505    7.4144
    8.520    7.0985
    8.535    6.9089
    8.550    7.0037
    8.565    7.1301
    8.580    6.8457
    8.595    6.6772
    8.610    6.6561
    8.625    6.6456
    8.640    6.7299
    8.655    6.7825
    8.670    6.2770
    8.685    6.4139
    8.700    6.4350
    8.715    6.1822
    8.730    6.3191
    8.745    6.0874
    8.760    5.4660
    8.775    5.9610
    8.790    6.0769
    8.805    5.9084
    8.820    5.8978
    8.835    6.1506
    8.850    6.1822
    8.865    5.5924
    8.880    6.1295
    8.895    5.8873
    8.910    6.1085
    8.925    5.6451
    8.940    5.6977
    8.955    5.7188
    8.970    5.9084
    8.985    5.8452
    9.000    5.5398
    9.015    5.5608
    9.030    5.5292
    9.045    5.6872
    9.060    5.4555
    9.075    5.1185
    9.090    5.3081
    9.105    5.4555
    9.120    5.3502
    9.135    5.5608
    9.150    5.5187
    9.165    5.2765
    9.180    5.2343
    9.195    5.1606
    9.210    5.0553
    9.225    5.6767
    9.240    5.7820
    9.255    5.6872
    9.270    5.4344
    9.285    5.3712
    9.300    5.2238
    9.315    4.9816
    9.330    5.4555
    9.345    5.4555
    9.360    5.1395
    9.375    5.4450
    9.390    5.2027
    9.405    5.2133
    9.420    5.5082
    9.435    5.0553
    9.450    5.3607
    9.465    4.8763
    9.480    5.3818
    9.495    5.0869
    9.510    4.9921
    9.525    4.9921
    9.540    5.0658
    9.555    5.2449
    9.570    5.0026
    9.585    5.3712
    9.600    5.1395
    9.615    5.2133
    9.630    5.0342
    9.645    5.2765
    9.660    5.5608
    9.675    5.1711
    9.690    5.2133
    9.705    5.5924
    9.720    5.2343
    9.735    4.9500
    9.750    5.0869
    9.765    5.1817
    9.780    5.3081
    9.795    5.5714
    9.810    5.4344
    9.825    5.3081
    9.840    5.1817
    9.855    5.1606
    9.870    5.0342
    9.885    5.1711
    9.900    4.9289
    9.915    5.2975
    9.930    5.3291
    9.945    5.0974
    9.960    5.2238
    9.975    5.0237
    9.990    5.0132
   10.005    5.2133
   10.020    5.1080
   10.035    5.1922
   10.050    4.9605
   10.065    5.2765
   10.080    5.2238
   10.095    5.1395
   10.110    5.4344
   10.125    5.2554
   10.140    5.4871
   10.155    4.9500
   10.170    5.0132
   10.185    5.0869
   10.200    4.8341
   10.215    5.1711
   10.230    5.2238
   10.245    4.9816
   10.260    5.6029
   10.275    5.3397
   10.290    5.2554
   10.305    5.2870
   10.320    5.5082
   10.335    5.4660
   10.350    5.5187
   10.365    5.6240
   10.380    5.8662
   10.395    5.7715
   10.410    5.6029
   10.425    5.8136
   10.440    5.7399
   10.455    5.9294
   10.470    5.6767
   10.485    5.6556
   10.500    5.6661
   10.515    5.8241
   10.530    5.7715
   10.545    5.7820
   10.560    5.3607
   10.575    5.3186
   10.590    5.4028
   10.605    5.4028
   10.620    5.2870
   10.635    5.3397
   10.650    5.2449
   10.665    5.2659
   10.680    5.2238
   10.695    5.3081
   10.710    5.2449
   10.725    4.8763
   10.740    5.1501
   10.755    5.0658
   10.770    5.2765
   10.785    5.1817
   10.800    4.8868
   10.815    5.0553
   10.830    5.0448
   10.845    5.1606
   10.860    5.3923
   10.875    4.9289
   10.890    5.0974
   10.905    5.1290
   10.920    5.1922
   10.935    5.1395
   10.950    5.4660
   10.965    5.1606
   10.980    4.8657
   10.995    5.2027
   11.010    4.9184
   11.025    5.0342
   11.040    4.9500
   11.055    4.7499
   11.070    5.0764
   11.085    5.0448
   11.100    5.0132
   11.115    4.9816
   11.130    5.2659
   11.145    5.0132
   11.160    5.1185
   11.175    5.0448
   11.190    5.1395
   11.205    4.9816
   11.220    4.9184
   11.235    4.9921
   11.250    5.3818
   11.265    5.2870
   11.280    4.9710
   11.295    5.2975
   11.310    4.9921
   11.325    5.4028
   11.340    5.4134
   11.355    5.2238
   11.370    4.9921
   11.385    5.0974
   11.400    5.0658
   11.415    5.2449
   11.430    5.2343
   11.445    5.5082
   11.460    5.2659
   11.475    5.2238
   11.490    5.0342
   11.505    5.0132
   11.520    5.4344
   11.535    5.2975
   11.550    5.0764
   11.565    5.3291
   11.580    4.7499
   11.595    5.2133
   11.610    5.5819
   11.625    5.0026
   11.640    5.3291
   11.655    5.3923
   11.670    5.3818
   11.685    5.4134
   11.700    4.9394
   11.715    5.2027
   11.730    4.9394
   11.745    5.3502
   11.760    5.1080
   11.775    5.3081
   11.790    5.4239
   11.805    5.0026
   11.820    5.3712
   11.835    5.2554
   11.850    5.4450
   11.865    5.5292
   11.880    5.5608
   11.895    5.8873
   11.910    5.6767
   11.925    5.6872
   11.940    5.3712
   11.955    4.9816
   11.970    5.0132
   11.985    5.6451
   12.000    5.3291
   12.015    5.3186
   12.030    5.6135
   12.045    5.5082
   12.060    5.5082
   12.075    5.4239
   12.090    5.4766
   12.105    5.5503
   12.120    5.0974
   12.135    5.7399
   12.150    5.2765
   12.165    5.3397
   12.180    5.6767
   12.195    5.5292
   12.210    5.6135
   12.225    5.3397
   12.240    5.5608
   12.255    5.3291
   12.270    5.4555
   12.285    5.5398
   12.300    5.4871
   12.315    5.2238
   12.330    5.5292
   12.345    5.8031
   12.360    5.4450
   12.375    5.6451
   12.390    5.7083
   12.405    5.7925
   12.420    5.7504
   12.435    5.5187
   12.450    5.9294
   12.465    5.8031
   12.480    5.7293
   12.495    5.9084
   12.510    5.8031
   12.525    5.6029
   12.540    5.4660
   12.555    5.5187
   12.570    5.6029
   12.585    5.4660
   12.600    5.0869
   12.615    5.2765
   12.630    5.4660
   12.645    5.2870
   12.660    5.3291
   12.675    5.8136
   12.690    5.8768
   12.705    5.3923
   12.720    5.2870
   12.735    5.2659
   12.750    5.4134
   12.765    5.1185
   12.780    4.9921
   12.795    5.3923
   12.810    5.0974
   12.825    5.2975
   12.840    5.4766
   12.855    5.1290
   12.870    5.1395
   12.885    4.9816
   12.900    5.4450
   12.915    5.1501
   12.930    5.2343
   12.945    5.5924
   12.960    5.0342
   12.975    5.4028
   12.990    5.3923
   13.005    5.4134
   13.020    5.0869
   13.035    5.1290
   13.050    5.2975
   13.065    5.3397
   13.080    5.3607
   13.095    5.2765
   13.110    5.1185
   13.125    5.3081
   13.140    5.5924
   13.155    5.4239
   13.170    5.1080
   13.185    5.0237
   13.200    5.4555
   13.215    5.3818
   13.230    5.2870
   13.245    5.5819
   13.260    5.3502
   13.275    5.3397
   13.290    5.4134
   13.305    5.3818
   13.320    5.4450
   13.335    5.3186
   13.350    5.4871
   13.365    5.3818
   13.380    5.4239
   13.395    5.3081
   13.410    5.2449
   13.425    5.1501
   13.440    5.1817
   13.455    5.0658
   13.470    5.2554
   13.485    5.0237
   13.500    5.1185
   13.515    5.2027
   13.530    5.2975
   13.545    5.1817
   13.560    5.4766
   13.575    5.2133
   13.590    5.2133
   13.605    5.6977
   13.620    5.2133
   13.635    4.8552
   13.650    4.7920
   13.665    4.9394
   13.680    5.5608
   13.695    5.0764
   13.710    5.3607
   13.725    5.3291
   13.740    5.0974
   13.755    5.1606
   13.770    5.1711
   13.785    4.8763
   13.800    5.0553
   13.815    5.1290
   13.830    5.3081
   13.845    5.2975
   13.860    5.2133
   13.875    5.2765
   13.890    5.1185
   13.905    5.2449
   13.920    5.2554
   13.935    5.0658
   13.950    5.4239
   13.965    5.1817
   13.980    5.1185
   13.995    5.2027
   14.010    4.8341
   14.025    4.8763
   14.040    5.1606
   14.055    4.8025
   14.070    4.8763
   14.085    5.3607
   14.100    5.3502
   14.115    5.3081
   14.130    5.0553
   14.145    4.9394
   14.160    4.9289
   14.175    4.8763
   14.190    4.9078
   14.205    5.0026
   14.220    4.8236
   14.235    4.8447
   14.250    5.0658
   14.265    5.0132
   14.280    4.9289
   14.295    5.1711
   14.310    5.2870
   14.325    4.9710
   14.340    5.3397
   14.355    5.3818
   14.370    5.1501
   14.385    5.1080
   14.400    4.9921
   14.415    4.9394
   14.430    4.8447
   14.445    4.8341
   14.460    4.8973
   14.475    5.1501
   14.490    5.0026
   14.505    4.6761
   14.520    4.8657
   14.535    5.1080
   14.550    5.2133
   14.565    5.2027
   14.580    5.0026
   14.595    4.9816
   14.610    4.8025
   14.625    5.2133
   14.640    5.1185
   14.655    4.8552
   14.670    4.8657
   14.685    4.6130
   14.700    4.4234
   14.715    5.0974
   14.730    5.0553
   14.745    5.0974
   14.760    4.9184
   14.775    4.9921
   14.790    4.9184
   14.805    4.8131
   14.820    4.8868
   14.835    5.0764
   14.850    5.1711
   14.865    4.9289
   14.880    5.2870
   14.895    5.2659
   14.910    4.8236
   14.925    5.1922
   14.940    4.9289
   14.955    5.0658
   14.970    4.9710
   14.985    4.8447
   15.000    4.8763
   15.015    4.9184
   15.030    4.9921
   15.045    4.8341
   15.060    5.1922
   15.075    4.9500
   15.090    5.0974
   15.105    5.1501
   15.120    4.9184
   15.135    5.0869
   15.150    4.9605
   15.165    4.9078
   15.180    4.7393
   15.195    4.7920
   15.210    4.8657
   15.225    4.9921
   15.240    4.6972
   15.255    4.5603
   15.270    5.1080
   15.285    4.5919
   15.300    4.6445
   15.315    5.1711
   15.330    5.1817
   15.345    5.2870
   15.360    5.1922
   15.375    5.4660
   15.390    5.3607
   15.405    4.9816
   15.420    5.3712
   15.435    4.8763
   15.450    5.0132
   15.465    5.1606
   15.480    5.0448
   15.495    4.9078
   15.510    4.7604
   15.525    4.7920
   15.540    4.7604
   15.555    5.0553
   15.570    5.1290
   15.585    5.2975
   15.600    5.4976
   15.615    5.3081
   15.630    5.0764
   15.645    4.9078
   15.660    4.8973
   15.675    5.0869
   15.690    5.2133
   15.705    5.4766
   15.720    5.1711
   15.735    5.2343
   15.750    5.2133
   15.765    5.1711
   15.780    5.0342
   15.795    5.1711
   15.810    5.2765
   15.825    5.0342
   15.840    5.2449
   15.855    5.4555
   15.870    5.1817
   15.885    5.0764
   15.900    5.2027
   15.915    5.1922
   15.930    5.3818
   15.945    5.0237
   15.960    5.2343
   15.975    5.0342
   15.990    5.0237
   16.005    4.9816
   16.020    5.2238
   16.035    5.0342
   16.050    4.9184
   16.065    4.8552
   16.080    4.7393
   16.095    5.2554
   16.110    5.1290
   16.125    4.9921
   16.140    5.2133
   16.155    5.1817
   16.170    5.0132
   16.185    5.2449
   16.200    5.4555
   16.215    5.2765
   16.230    5.4450
   16.245    5.5082
   16.260    5.2238
   16.275    5.2343
   16.290    5.0342
   16.305    5.2449
   16.320    4.9289
   16.335    5.2238
   16.350    5.2975
   16.365    5.2449
   16.380    5.6451
   16.395    5.4976
   16.410    5.3081
   16.425    5.0342
   16.440    5.3081
   16.455    5.1817
   16.470    4.8973
   16.485    5.1290
   16.500    5.2449
   16.515    5.1922
   16.530    4.9921
   16.545    4.8447
   16.560    4.7920
   16.575    5.3291
   16.590    5.4976
   16.605    5.1606
   16.620    4.9710
   16.635    4.8552
   16.650    5.0026
   16.665    4.8447
   16.680    4.9184
   16.695    4.7709
   16.710    5.1185
   16.725    4.8657
   16.740    4.9921
   16.755    4.8657
   16.770    4.8341
   16.785    5.0974
   16.800    5.0026
   16.815    5.0237
   16.830    4.9816
   16.845    4.7709
   16.860    4.8657
   16.875    4.9289
   16.890    5.1185
   16.905    4.8868
   16.920    4.8868
   16.935    4.8236
   16.950    4.9816
   16.965    4.7077
   16.980    4.8973
   16.995    5.2554
   17.010    5.0132
   17.025    5.2238
   17.040    5.3186
   17.055    5.1290
   17.070    4.7393
   17.085    5.1185
   17.100    4.6445
   17.115    4.9500
   17.130    5.2765
   17.145    5.0869
   17.160    5.3818
   17.175    5.2343
   17.190    5.1080
   17.205    4.8341
   17.220    4.8868
   17.235    5.2870
   17.250    5.6451
   17.265    5.3502
   17.280    4.9394
   17.295    4.7920
   17.310    5.0553
   17.325    4.6551
   17.340    4.6340
   17.355    5.0658
   17.370    5.1395
   17.385    4.8552
   17.400    5.2554
   17.415    5.1501
   17.430    5.2975
   17.445    4.6972
   17.460    4.6867
   17.475    5.0132
   17.490    5.3923
   17.505    5.2133
   17.520    4.9394
   17.535    4.7709
   17.550    4.8025
   17.565    5.1080
   17.580    5.2343
   17.595    4.9078
   17.610    4.9289
   17.625    5.2133
   17.640    5.2449
   17.655    5.0132
   17.670    5.0132
   17.685    5.2133
   17.700    5.0026
   17.715    5.1711
   17.730    5.0553
   17.745    5.1290
   17.760    5.2870
   17.775    5.2975
   17.790    5.0869
   17.805    5.1922
   17.820    5.2449
   17.835    4.7920
   17.850    5.2870
   17.865    4.9184
   17.880    5.1185
   17.895    5.0448
   17.910    5.3397
   17.925    5.4660
   17.940    5.1395
   17.955    5.2659
   17.970    5.2659
   17.985    5.1080
   18.000    5.7715
   18.015    5.5398
   18.030    5.0764
   18.045    5.4450
   18.060    4.8868
   18.075    5.0658
   18.090    5.1185
   18.105    5.2027
   18.120    4.9605
   18.135    5.1290
   18.150    4.8657
   18.165    4.8025
   18.180    5.0132
   18.195    5.1817
   18.210    5.3397
   18.225    5.0553
   18.240    4.9500
   18.255    4.7288
   18.270    4.9921
   18.285    5.2133
   18.300    5.4344
   18.315    5.2554
   18.330    4.8973
   18.345    5.3712
   18.360    5.4450
   18.375    5.1501
   18.390    4.8447
   18.405    5.0237
   18.420    5.3186
   18.435    5.3081
   18.450    5.2975
   18.465    5.5608
   18.480    5.0237
   18.495    4.9816
   18.510    5.0869
   18.525    5.1606
   18.540    4.9605
   18.555    5.1817
   18.570    5.1606
   18.585    5.2238
   18.600    4.9184
   18.615    5.1501
   18.630    5.1817
   18.645    5.2870
   18.660    5.0764
   18.675    5.1185
   18.690    5.2554
   18.705    5.2343
   18.720    5.3186
   18.735    4.7709
   18.750    5.1290
   18.765    5.2027
   18.780    5.1290
   18.795    4.8657
   18.810    5.0553
   18.825    5.2238
   18.840    4.9184
   18.855    5.0974
   18.870    5.4344
   18.885    5.0237
   18.900    4.9500
   18.915    5.4028
   18.930    5.4976
   18.945    5.4239
   18.960    5.1922
   18.975    5.1395
   18.990    5.0764
   19.005    5.3923
   19.020    5.4976
   19.035    5.5082
   19.050    5.2554
   19.065    5.0869
   19.080    5.1290
   19.095    5.3081
   19.110    5.3712
   19.125    5.3923
   19.140    4.9394
   19.155    5.2765
   19.170    5.4660
   19.185    5.2765
   19.200    5.2554
   19.215    5.0764
   19.230    5.2343
   19.245    5.4976
   19.260    5.2449
   19.275    5.2659
   19.290    5.3607
   19.305    5.3081
   19.320    5.3923
   19.335    5.5924
   19.350    5.4239
   19.365    5.2133
   19.380    5.2765
   19.395    5.4239
   19.410    5.1501
   19.425    5.2659
   19.440    5.1290
   19.455    5.3081
   19.470    5.3502
   19.485    5.0553
   19.500    5.3291
   19.515    5.1080
   19.530    5.3607
   19.545    5.2765
   19.560    5.2133
   19.575    5.7293
   19.590    5.4976
   19.605    5.4555
   19.620    5.5187
   19.635    5.5398
   19.650    5.6029
   19.665    5.6661
   19.680    5.4555
   19.695    5.7504
   19.710    5.3923
   19.725    5.4450
   19.740    5.6872
   19.755    5.4134
   19.770    5.3081
   19.785    5.6977
   19.800    5.8347
   19.815    5.6872
   19.830    5.5503
   19.845    5.7504
   19.860    5.8662
   19.875    5.5398
   19.890    5.4766
   19.905    5.6240
   19.920    5.4344
   19.935    5.6661
   19.950    5.4450
   19.965    5.7083
   19.980    5.6872
   19.995    5.6345
   20.010    5.4766
   20.025    5.2975
   20.040    5.5714
   20.055    6.0769
   20.070    5.5503
   20.085    5.7083
   20.100    5.4028
   20.115    5.5503
   20.130    5.9189
   20.145    5.6240
   20.160    5.6240
   20.175    5.5503
   20.190    5.4871
   20.205    5.2554
   20.220    5.1501
   20.235    5.1395
   20.250    5.6345
   20.265    5.8768
   20.280    5.4871
   20.295    5.4766
   20.310    5.6977
   20.325    6.0348
   20.340    5.4344
   20.355    5.7504
   20.370    5.6661
   20.385    5.6029
   20.400    5.6135
   20.415    5.6661
   20.430    5.6872
   20.445    5.4871
   20.460    5.2343
   20.475    5.8241
   20.490    5.8031
   20.505    5.6135
   20.520    5.6767
   20.535    5.2659
   20.550    5.4239
   20.565    5.7399
   20.580    5.4660
   20.595    5.4555
   20.610    5.5187
   20.625    5.6345
   20.640    5.5503
   20.655    5.7188
   20.670    5.8241
   20.685    5.9400
   20.700    5.6661
   20.715    5.8768
   20.730    5.6977
   20.745    6.0032
   20.760    5.8241
   20.775    5.6451
   20.790    5.5398
   20.805    5.3081
   20.820    5.5819
   20.835    5.5082
   20.850    5.2659
   20.865    5.3186
   20.880    5.7083
   20.895    5.5819
   20.910    5.7609
   20.925    5.7925
   20.940    5.4450
   20.955    5.6977
   20.970    5.7925
   20.985    5.6135
   21.000    5.5819
   21.015    5.5608
   21.030    5.7715
   21.045    5.4134
   21.060    6.0137
   21.075    5.8768
   21.090    5.2027
   21.105    5.6345
   21.120    5.6556
   21.135    6.0874
   21.150    5.6767
   21.165    5.7609
   21.180    5.5082
   21.195    5.6767
   21.210    5.6977
   21.225    5.6451
   21.240    5.4555
   21.255    5.2027
   21.270    5.3607
   21.285    5.6872
   21.300    5.8978
   21.315    5.5398
   21.330    5.5082
   21.345    5.4344
   21.360    5.7083
   21.375    5.9610
   21.390    5.6872
   21.405    5.9294
   21.420    5.2659
   21.435    5.6345
   21.450    5.4450
   21.465    5.5608
   21.480    5.6661
   21.495    5.8031
   21.510    5.9505
   21.525    6.0137
   21.540    5.5187
   21.555    5.4134
   21.570    5.5819
   21.585    5.9610
   21.600    5.3502
   21.615    5.6240
   21.630    5.5503
   21.645    5.2554
   21.660    5.6977
   21.675    5.8136
   21.690    5.9084
   21.705    5.6451
   21.720    5.5187
   21.735    5.6661
   21.750    5.9400
   21.765    5.7715
   21.780    5.4976
   21.795    5.5714
   21.810    5.7083
   21.825    5.5608
   21.840    5.3186
   21.855    5.6872
   21.870    5.3818
   21.885    5.6240
   21.900    5.7820
   21.915    5.2343
   21.930    5.6661
   21.945    5.6451
   21.960    5.7083
   21.975    5.8768
   21.990    5.7083
   22.005    5.7715
   22.020    5.9505
   22.035    5.4344
   22.050    5.3923
   22.065    5.5819
   22.080    5.6029
   22.095    5.8031
   22.110    5.9189
   22.125    5.9189
   22.140    5.7504
   22.155    5.6767
   22.170    5.8768
   22.185    5.7399
   22.200    5.9084
   22.215    5.6661
   22.230    5.5292
   22.245    5.7188
   22.260    5.4660
   22.275    5.5503
   22.290    5.6451
   22.305    5.6345
   22.320    5.8031
   22.335    5.8978
   22.350    5.8768
   22.365    5.9716
   22.380    5.6767
   22.395    5.8136
   22.410    5.3923
   22.425    5.4976
   22.440    5.4766
   22.455    5.3818
   22.470    5.7188
   22.485    5.8978
   22.500    5.9084
   22.515    5.4555
   22.530    5.5608
   22.545    5.5608
   22.560    5.7293
   22.575    5.3502
   22.590    5.6872
   22.605    5.9926
   22.620    5.6240
   22.635    5.4239
   22.650    5.5819
   22.665    5.4450
   22.680    5.5082
   22.695    5.3502
   22.710    6.1611
   22.725    6.2138
   22.740    5.5608
   22.755    5.3291
   22.770    5.6029
   22.785    5.4239
   22.800    5.5714
   22.815    5.2343
   22.830    5.1185
   22.845    5.4766
   22.860    5.3397
   22.875    5.5714
   22.890    5.3397
   22.905    5.4450
   22.920    5.6767
   22.935    5.6872
   22.950    5.7925
   22.965    5.5714
   22.980    5.7609
   22.995    5.7609
   23.010    5.7188
   23.025    5.6240
   23.040    5.3397
   23.055    5.4344
   23.070    5.5608
   23.085    5.7188
   23.100    5.2554
   23.115    5.4028
   23.130    6.0769
   23.145    5.8873
   23.160    5.5819
   23.175    6.0664
   23.190    5.4239
   23.205    5.7399
   23.220    5.7188
   23.235    5.6345
   23.250    5.5608
   23.265    5.4766
   23.280    5.0026
   23.295    5.5398
   23.310    5.5082
   23.325    5.3397
   23.340    5.4871
   23.355    5.5819
   23.370    5.1395
   23.385    5.4028
   23.400    5.6135
   23.415    5.7188
   23.430    5.4134
   23.445    5.3291
   23.460    5.2870
   23.475    5.7609
   23.490    5.0658
   23.505    5.4871
   23.520    5.4766
   23.535    5.4028
   23.550    5.4555
   23.565    5.5608
   23.580    5.3607
   23.595    5.5608
   23.610    5.4344
   23.625    5.3818
   23.640    5.2659
   23.655    5.2027
   23.670    5.2554
   23.685    5.3712
   23.700    5.3502
   23.715    5.0869
   23.730    5.3818
   23.745    5.4028
   23.760    5.3923
   23.775    5.6345
   23.790    5.9505
   23.805    5.3291
   23.820    5.2449
   23.835    5.0764
   23.850    5.1080
   23.865    5.2975
   23.880    5.6451
   23.895    5.3712
   23.910    5.1501
   23.925    5.2449
   23.940    5.6872
   23.955    5.4555
   23.970    5.5292
   23.985    5.3397
   24.000    5.6767
   24.015    5.5819
   24.030    5.3186
   24.045    5.2870
   24.060    5.3081
   24.075    5.4239
   24.090    5.2975
   24.105    5.2765
   24.120    5.3712
   24.135    5.3081
   24.150    5.2765
   24.165    5.6872
   24.180    5.5398
   24.195    5.3923
   24.210    5.4028
   24.225    5.3081
   24.240    5.3186
   24.255    5.3712
   24.270    5.4239
   24.285    5.6661
   24.300    5.4660
   24.315    5.2343
   24.330    5.2133
   24.345    5.8347
   24.360    5.2238
   24.375    5.3291
   24.390    5.3818
   24.405    5.3712
   24.420    5.3923
   24.435    5.3081
   24.450    5.4344
   24.465    5.3186
   24.480    5.6451
   24.495    5.3081
   24.510    5.1501
   24.525    5.1185
   24.540    5.1922
   24.555    5.2343
   24.570    5.1606
   24.585    5.3923
   24.600    5.3291
   24.615    5.3502
   24.630    5.1817
   24.645    5.4766
   24.660    5.3502
   24.675    5.0658
   24.690    4.9500
   24.705    5.1606
   24.720    5.2554
   24.735    5.4028
   24.750    5.3502
   24.765    5.3081
   24.780    5.4450
   24.795    5.4555
   24.810    5.3607
   24.825    5.3502
   24.840    5.3502
   24.855    5.3712
   24.870    5.0448
   24.885    5.2975
   24.900    5.3186
   24.915    5.0342
   24.930    5.2343
   24.945    5.1711
   24.960    4.9184
   24.975    5.0658
   24.990    5.1080
   25.005    5.1817
   25.020    4.8552
   25.035    5.4239
   25.050    5.2133
   25.065    5.1711
   25.080    4.9500
   25.095    5.4134
   25.110    5.0132
   25.125    4.9710
   25.140    4.9710
   25.155    5.0974
   25.170    5.3502
   25.185    5.1290
   25.200    5.0026
   25.215    5.0026
   25.230    4.9605
   25.245    4.7709
   25.260    4.8341
   25.275    5.3607
   25.290    5.4239
   25.305    4.9289
   25.320    5.0764
   25.335    4.7815
   25.350    4.6340
   25.365    5.0237
   25.380    5.0658
   25.395    4.8657
   25.410    4.8973
   25.425    4.9500
   25.440    4.9605
   25.455    4.9921
   25.470    4.9184
   25.485    5.2449
   25.500    4.9394
   25.515    5.3818
   25.530    5.2554
   25.545    4.8657
   25.560    4.7288
   25.575    5.0764
   25.590    5.1922
   25.605    4.8552
   25.620    4.7920
   25.635    4.8552
   25.650    4.7499
   25.665    4.9078
   25.680    4.8131
   25.695    5.0237
   25.710    5.0974
   25.725    5.0448
   25.740    5.0237
   25.755    5.0132
   25.770    4.9921
   25.785    5.0448
   25.800    5.0132
   25.815    5.1290
   25.830    5.1606
   25.845    4.8552
   25.860    4.8025
   25.875    4.6235
   25.890    4.9921
   25.905    4.9921
   25.920    4.9394
   25.935    4.7920
   25.950    4.6445
   25.965    4.9816
   25.980    4.8763
   25.995    4.9184
   26.010    5.3818
   26.025    4.8657
   26.040    4.8447
   26.055    5.2765
   26.070    5.4871
   26.085    5.2870
   26.100    5.2659
   26.115    4.6972
   26.130    5.1922
   26.145    5.2027
   26.160    5.0658
   26.175    5.0342
   26.190    4.8236
   26.205    5.0553
   26.220    4.7393
   26.235    5.2554
   26.250    4.8025
   26.265    5.0448
   26.280    4.6867
   26.295    4.7604
   26.310    5.0658
   26.325    4.9394
   26.340    4.7815
   26.355    4.8552
   26.370    5.0869
   26.385    4.5814
   26.400    4.8447
   26.415    5.1290
   26.430    5.1290
   26.445    4.7920
   26.460    4.8763
   26.475    4.8973
   26.490    4.8131
   26.505    4.9289
   26.520    4.5392
   26.535    4.9289
   26.550    5.0237
   26.565    4.9710
   26.580    5.0974
   26.595    5.0132
   26.610    4.8236
   26.625    4.6024
   26.640    4.8236
   26.655    5.0237
   26.670    4.5392
   26.685    4.5603
   26.700    4.6445
   26.715    4.5814
   26.730    4.7393
   26.745    4.8763
   26.760    4.2865
   26.775    4.5076
   26.790    4.5603
   26.805    4.6761
   26.820    5.1711
   26.835    5.1080
   26.850    5.3291
   26.865    4.8657
   26.880    4.8657
   26.895    4.9184
   26.910    4.9816
   26.925    4.6445
   26.940    4.8552
   26.955    4.7288
   26.970    4.9605
   26.985    5.0026
   27.000    4.9605
   27.015    4.9078
   27.030    5.0658
   27.045    4.9289
   27.060    4.7499
   27.075    4.6551
   27.090    4.5287
   27.105    4.8763
   27.120    4.7709
   27.135    5.0132
   27.150    4.9289
   27.165    4.9500
   27.180    4.7815
   27.195    4.7709
   27.210    4.9500
   27.225    4.7920
   27.240    4.7288
   27.255    4.6551
   27.270    4.7077
   27.285    4.8973
   27.300    4.5814
   27.315    4.5919
   27.330    5.0553
   27.345    5.0237
   27.360    4.6551
   27.375    4.7077
   27.390    4.5287
   27.405    4.7183
   27.420    4.5498
   27.435    4.8868
   27.450    5.2133
   27.465    4.7920
   27.480    4.8447
   27.495    4.8025
   27.510    4.7920
   27.525    4.5708
   27.540    4.7709
   27.555    4.6656
   27.570    4.9710
   27.585    5.0132
   27.600    4.9078
   27.615    5.0342
   27.630    4.7920
   27.645    4.8131
   27.660    4.8657
   27.675    4.8552
   27.690    4.5708
   27.705    4.4655
   27.720    4.6551
   27.735    4.6551
   27.750    5.0764
   27.765    4.7288
   27.780    4.5814
   27.795    4.6340
   27.810    4.3602
   27.825    4.4655
   27.840    4.8025
   27.855    4.5708
   27.870    4.6445
   27.885    4.9289
   27.900    5.0132
   27.915    5.0764
   27.930    4.7393
   27.945    4.5919
   27.960    4.6656
   27.975    4.8763
   27.990    5.0553
   28.005    4.9500
   28.020    4.8973
   28.035    4.7920
   28.050    5.1501
   28.065    5.0342
   28.080    5.0237
   28.095    4.8973
   28.110    4.9184
   28.125    4.8657
   28.140    4.7393
   28.155    4.7815
   28.170    5.1080
   28.185    4.9500
   28.200    4.9078
   28.215    4.7393
   28.230    5.0342
   28.245    4.9710
   28.260    4.9500
   28.275    4.6551
   28.290    5.2238
   28.305    4.9078
   28.320    4.6972
   28.335    4.6867
   28.350    4.7288
   28.365    4.7920
   28.380    4.6656
   28.395    4.8236
   28.410    4.9078
   28.425    4.9289
   28.440    4.8447
   28.455    4.9710
   28.470    4.7077
   28.485    4.5919
   28.500    5.0132
   28.515    4.8236
   28.530    4.6656
   28.545    4.8763
   28.560    5.0237
   28.575    4.4444
   28.590    4.9500
   28.605    4.8131
   28.620    4.8763
   28.635    4.9500
   28.650    5.1290
   28.665    4.6130
   28.680    4.6551
   28.695    4.7920
   28.710    4.5919
   28.725    4.6972
   28.740    4.5919
   28.755    4.6445
   28.770    4.7604
   28.785    4.7709
   28.800    4.8236
   28.815    4.9605
   28.830    4.6867
   28.845    4.8657
   28.860    4.8657
   28.875    4.8763
   28.890    4.6445
   28.905    4.8341
   28.920    5.1290
   28.935    4.7709
   28.950    4.6445
   28.965    4.7077
   28.980    4.7604
   28.995    4.7709
   29.010    4.9078
   29.025    4.9184
   29.040    4.5603
   29.055    4.5603
   29.070    4.6024
   29.085    4.9921
   29.100    4.6445
   29.115    4.6445
   29.130    4.6235
   29.145    4.3181
   29.160    4.2654
   29.175    4.7183
   29.190    4.6867
   29.205    4.6130
   29.220    4.6235
   29.235    4.6761
   29.250    4.4234
   29.265    4.4444
   29.280    4.4655
   29.295    4.3391
   29.310    4.5498
   29.325    4.8447
   29.340    5.0869
   29.355    4.3286
   29.370    4.4971
   29.385    4.2233
   29.400    4.4760
   29.415    4.7709
   29.430    4.5814
   29.445    4.5392
   29.460    4.6130
   29.475    4.6551
   29.490    4.4655
   29.505    4.1496
   29.520    4.1811
   29.535    4.5603
   29.550    4.2549
   29.565    4.7499
   29.580    5.0026
   29.595    4.3286
   29.610    4.4655
   29.625    4.6656
   29.640    4.7499
   29.655    4.7815
   29.670    4.2549
   29.685    4.3286
   29.700    4.3391
   29.715    4.5392
   29.730    4.6445
   29.745    4.4655
   29.760    4.3813
   29.775    4.6551
   29.790    4.3286
   29.805    4.7183
   29.820    3.9810
   29.835    4.4444
   29.850    4.6972
   29.865    4.3181
   29.880    4.3813
   29.895    4.2549
   29.910    4.7815
   29.925    4.6130
   29.940    4.4234
   29.955    4.5603
   29.970    4.7288
   29.985    4.5814
   30.000    4.5392
   30.015    4.5392
   30.030    4.5603
   30.045    4.4866
   30.060    4.4234
   30.075    4.4444
   30.090    5.0132
   30.105    4.5076
   30.120    4.4339
   30.135    4.3602
   30.150    4.6235
   30.165    4.5287
   30.180    4.2759
   30.195    4.5708
   30.210    4.5498
   30.225    4.5392
   30.240    4.1496
   30.255    4.5603
   30.270    4.4655
   30.285    4.4760
   30.300    4.7499
   30.315    4.6867
   30.330    4.3075
   30.345    4.7288
   30.360    4.3497
   30.375    4.6445
   30.390    4.5603
   30.405    4.5708
   30.420    4.6761
   30.435    4.4760
   30.450    4.4128
   30.465    4.5814
   30.480    4.5708
   30.495    4.1180
   30.510    4.2654
   30.525    4.2233
   30.540    4.4760
   30.555    4.2443
   30.570    4.3391
   30.585    4.7499
   30.600    4.4339
   30.615    4.4971
   30.630    4.2759
   30.645    4.4444
   30.660    4.3497
   30.675    4.4655
   30.690    4.4339
   30.705    4.5919
   30.720    4.4866
   30.735    4.2759
   30.750    4.0337
   30.765    4.1180
   30.780    4.3075
   30.795    4.2865
   30.810    4.1706
   30.825    4.1285
   30.840    4.1496
   30.855    4.5076
   30.870    4.3497
   30.885    4.4234
   30.900    4.2549
   30.915    4.3918
   30.930    4.0969
   30.945    4.3181
   30.960    4.5708
   30.975    4.2970
   30.990    4.4760
   31.005    4.1811
   31.020    4.6340
   31.035    4.5392
   31.050    4.4444
   31.065    4.8447
   31.080    4.1390
   31.095    4.2338
   31.110    4.1390
   31.125    4.0653
   31.140    4.2654
   31.155    4.5287
   31.170    4.4655
   31.185    4.5076
   31.200    4.4234
   31.215    4.3391
   31.230    4.1074
   31.245    4.2022
   31.260    4.3497
   31.275    4.4128
   31.290    4.3497
   31.305    4.3497
   31.320    4.5603
   31.335    4.4234
   31.350    4.3707
   31.365    4.4128
   31.380    4.6867
   31.395    4.7393
   31.410    4.9710
   31.425    4.5919
   31.440    4.2654
   31.455    4.4339
   31.470    4.3707
   31.485    4.3918
   31.500    4.5603
   31.515    4.4655
   31.530    4.3813
   31.545    4.2970
   31.560    4.2759
   31.575    4.2970
   31.590    4.3918
   31.605    4.6340
   31.620    4.2759
   31.635    4.4971
   31.650    4.3181
   31.665    4.0232
   31.680    4.3181
   31.695    4.5287
   31.710    4.2865
   31.725    4.3286
   31.740    4.1285
   31.755    4.1180
   31.770    4.4760
   31.785    4.6972
   31.800    4.5814
   31.815    4.5498
   31.830    4.6445
   31.845    4.7393
   31.860    4.6024
   31.875    4.5919
   31.890    4.3813
   31.905    4.6235
   31.920    4.3813
   31.935    4.5603
   31.950    4.4655
   31.965    4.3075
   31.980    4.0969
   31.995    4.6972
   32.010    4.0548
   32.025    3.9284
   32.040    4.3181
   32.055    4.6340
   32.070    4.6130
   32.085    4.6340
   32.100    4.8025
   32.115    4.5708
   32.130    4.6235
   32.145    4.5287
   32.160    4.1074
   32.175    4.6340
   32.190    4.4128
   32.205    4.1706
   32.220    4.2022
   32.235    4.3075
   32.250    4.1601
   32.265    4.3602
   32.280    4.4866
   32.295    4.5392
   32.310    4.1496
   32.325    3.9810
   32.340    4.2549
   32.355    4.5287
   32.370    4.3181
   32.385    4.3181
   32.400    4.5392
   32.415    4.0232
   32.430    3.9705
   32.445    4.1180
   32.460    4.0337
   32.475    4.4339
   32.490    4.1917
   32.505    4.2233
   32.520    4.1601
   32.535    3.8757
   32.550    3.9494
   32.565    4.2654
   32.580    4.0758
   32.595    3.7177
   32.610    4.1180
   32.625    4.1390
   32.640    4.2970
   32.655    4.2127
   32.670    3.9810
   32.685    4.0653
   32.700    3.9810
   32.715    4.1811
   32.730    4.1601
   32.745    4.3286
   32.760    4.1601
   32.775    4.0864
   32.790    4.0548
   32.805    4.1917
   32.820    4.0232
   32.835    4.0232
   32.850    3.9705
   32.865    4.0653
   32.880    4.2970
   32.895    4.3602
   32.910    4.3497
   32.925    3.8863
   32.940    4.2549
   32.955    4.1601
   32.970    4.1917
   32.985    3.9705
   33.000    4.0969
   33.015    4.0126
   33.030    4.2127
   33.045    4.1917
   33.060    4.0653
   33.075    3.8547
   33.090    4.3286
   33.105    4.1285
   33.120    4.0126
   33.135    3.5808
   33.150    4.0442
   33.165    4.0969
   33.180    4.4339
   33.195    4.2338
   33.210    4.4866
   33.225    4.3707
   33.240    3.9810
   33.255    3.9073
   33.270    3.7809
   33.285    3.8231
   33.300    4.2233
   33.315    3.8652
   33.330    4.2443
   33.345    4.0337
   33.360    3.9179
   33.375    4.2022
   33.390    4.3181
   33.405    4.0758
   33.420    4.0864
   33.435    4.1390
   33.450    4.2549
   33.465    4.2654
   33.480    4.0969
   33.495    4.0126
   33.510    3.9389
   33.525    4.1180
   33.540    4.0758
   33.555    3.6756
   33.570    3.8652
   33.585    4.0864
   33.600    4.1811
   33.615    3.7493
   33.630    3.9179
   33.645    4.1180
   33.660    4.1180
   33.675    4.1601
   33.690    3.9810
   33.705    3.9494
   33.720    4.1180
   33.735    3.7283
   33.750    4.2022
   33.765    4.1285
   33.780    4.3813
   33.795    4.2338
   33.810    4.0969
   33.825    4.2970
   33.840    4.2127
   33.855    4.0232
   33.870    4.1285
   33.885    4.2022
   33.900    4.4550
   33.915    4.2549
   33.930    3.7704
   33.945    4.2127
   33.960    4.2443
   33.975    3.9705
   33.990    3.8125
   34.005    3.9810
   34.020    4.0337
   34.035    3.8652
   34.050    3.8441
   34.065    3.8020
   34.080    3.7177
   34.095    3.8231
   34.110    3.8231
   34.125    3.6967
   34.140    4.0969
   34.155    4.1601
   34.170    4.0126
   34.185    4.0864
   34.200    3.8547
   34.215    3.9705
   34.230    3.9073
   34.245    3.9916
   34.260    3.8441
   34.275    4.0337
   34.290    3.8020
   34.305    3.9810
   34.320    4.0864
   34.335    3.7072
   34.350    3.8020
   34.365    3.7704
   34.380    3.7388
   34.395    3.6124
   34.410    3.4439
   34.425    3.7915
   34.440    3.8231
   34.455    3.9179
   34.470    3.9705
   34.485    3.6651
   34.500    3.7072
   34.515    3.9705
   34.530    3.8968
   34.545    3.5598
   34.560    3.8125
   34.575    4.4128
   34.590    3.8757
   34.605    4.0864
   34.620    3.7915
   34.635    4.0548
   34.650    4.2233
   34.665    3.9284
   34.680    4.1074
   34.695    3.9073
   34.710    3.7177
   34.725    3.9179
   34.740    3.8757
   34.755    3.7915
   34.770    3.9389
   34.785    3.8547
   34.800    3.6862
   34.815    3.8757
   34.830    3.8968
   34.845    3.6651
   34.860    3.7388
   34.875    3.7599
   34.890    3.7599
   34.905    4.0548
   34.920    3.7072
   34.935    3.8547
   34.950    3.9600
   34.965    4.2443
   34.980    4.1074
   34.995    3.7072
   35.010    3.8863
   35.025    3.8547
   35.040    3.8020
   35.055    3.7388
   35.070    3.9494
   35.085    3.7809
   35.100    3.9179
   35.115    4.0126
   35.130    3.8125
   35.145    3.8863
   35.160    3.7388
   35.175    3.7915
   35.190    3.8547
   35.205    3.7388
   35.220    3.6756
   35.235    3.8757
   35.250    3.7809
   35.265    3.7809
   35.280    3.8020
   35.295    3.8441
   35.310    3.8020
   35.325    3.9916
   35.340    3.8336
   35.355    3.8863
   35.370    3.9284
   35.385    3.8757
   35.400    3.6019
   35.415    3.8547
   35.430    3.9073
   35.445    3.8125
   35.460    3.8441
   35.475    3.7283
   35.490    3.6756
   35.505    4.2127
   35.520    3.7599
   35.535    3.6546
   35.550    3.6124
   35.565    3.7915
   35.580    3.9600
   35.595    3.9916
   35.610    3.6967
   35.625    3.9705
   35.640    3.7283
   35.655    3.5492
   35.670    3.6756
   35.685    3.7915
   35.700    3.9705
   35.715    3.5492
   35.730    3.7599
   35.745    3.6651
   35.760    3.8547
   35.775    3.4018
   35.790    3.6335
   35.805    3.4860
   35.820    3.5176
   35.835    3.6124
   35.850    3.6967
   35.865    3.6967
   35.880    4.0021
   35.895    3.5808
   35.910    3.6546
   35.925    3.5703
   35.940    3.6862
   35.955    3.7177
   35.970    3.5703
   35.985    3.9073
   36.000    3.6546
   36.015    3.7704
   36.030    3.6862
   36.045    3.7072
   36.060    3.9284
   36.075    3.6967
   36.090    3.7177
   36.105    3.9284
   36.120    3.8863
   36.135    3.6546
   36.150    3.7177
   36.165    4.0126
   36.180    3.9600
   36.195    4.0548
   36.210    3.7599
   36.225    3.8125
   36.240    3.8441
   36.255    3.6756
   36.270    3.7704
   36.285    3.6230
   36.300    3.5914
   36.315    3.2859
   36.330    3.8757
   36.345    3.5492
   36.360    3.3070
   36.375    3.5387
   36.390    3.5492
   36.405    3.8863
   36.420    3.7599
   36.435    3.7177
   36.450    3.5914
   36.465    3.7283
   36.480    3.9494
   36.495    3.5071
   36.510    3.4544
   36.525    3.4544
   36.540    3.7388
   36.555    3.7599
   36.570    3.7915
   36.585    3.6756
   36.600    3.4650
   36.615    3.5598
   36.630    3.5387
   36.645    3.5492
   36.660    3.4755
   36.675    3.5282
   36.690    3.4650
   36.705    3.3807
   36.720    3.5282
   36.735    3.5914
   36.750    3.7177
   36.765    3.6546
   36.780    3.8968
   36.795    3.6019
   36.810    3.4755
   36.825    3.4334
   36.840    3.5914
   36.855    3.4755
   36.870    3.4229
   36.885    3.3597
   36.900    3.5176
   36.915    3.5176
   36.930    3.5282
   36.945    3.6019
   36.960    3.4123
   36.975    3.6967
   36.990    3.6651
   37.005    3.8547
   37.020    3.6967
   37.035    3.4860
   37.050    3.7283
   37.065    3.7177
   37.080    3.7072
   37.095    3.6019
   37.110    3.5492
   37.125    3.5492
   37.140    3.7493
   37.155    3.7704
   37.170    3.6651
   37.185    3.4544
   37.200    3.5808
   37.215    3.4229
   37.230    3.5282
   37.245    3.6967
   37.260    3.6546
   37.275    3.7915
   37.290    3.6651
   37.305    3.7283
   37.320    3.3070
   37.335    3.4439
   37.350    3.7283
   37.365    3.5387
   37.380    3.5282
   37.395    3.7493
   37.410    3.5282
   37.425    3.3281
   37.440    3.4018
   37.455    3.5914
   37.470    3.7177
   37.485    3.3070
   37.500    3.4544
   37.515    3.4860
   37.530    3.6651
   37.545    3.7915
   37.560    3.6335
   37.575    3.4755
   37.590    3.4229
   37.605    3.7915
   37.620    3.7809
   37.635    3.5808
   37.650    3.6440
   37.665    3.6335
   37.680    3.4123
   37.695    3.6124
   37.710    3.9705
   37.725    3.5914
   37.740    3.5598
   37.755    3.3070
   37.770    3.4439
   37.785    3.4334
   37.800    3.2754
   37.815    3.3807
   37.830    3.5914
   37.845    3.6546
   37.860    3.1174
   37.875    3.1701
   37.890    3.5387
   37.905    3.4544
   37.920    3.4860
   37.935    3.6230
   37.950    3.7177
   37.965    3.6230
   37.980    3.5492
   37.995    3.5176
   38.010    3.5492
   38.025    3.3491
   38.040    3.6335
   38.055    3.5387
   38.070    3.5176
   38.085    3.4544
   38.100    3.6124
   38.115    3.5808
   38.130    3.5914
   38.145    3.5703
   38.160    3.7283
   38.175    3.5808
   38.190    3.2649
   38.205    3.4966
   38.220    3.6124
   38.235    3.5492
   38.250    3.5598
   38.265    3.5914
   38.280    3.6230
   38.295    3.4439
   38.310    3.3491
   38.325    3.7177
   38.340    3.7388
   38.355    3.7177
   38.370    3.5598
   38.385    3.6756
   38.400    3.3070
   38.415    3.5492
   38.430    3.6651
   38.445    3.7072
   38.460    3.7177
   38.475    3.3702
   38.490    3.5598
   38.505    3.5808
   38.520    3.7704
   38.535    3.6019
   38.550    3.3597
   38.565    3.5492
   38.580    3.5282
   38.595    3.7072
   38.610    3.6230
   38.625    3.8020
   38.640    3.6862
   38.655    3.7704
   38.670    3.6546
   38.685    3.5492
   38.700    3.7177
   38.715    3.4755
   38.730    3.4334
   38.745    3.6546
   38.760    3.4650
   38.775    3.4544
   38.790    3.4650
   38.805    3.6440
   38.820    3.6756
   38.835    3.5387
   38.850    3.4123
   38.865    3.5598
   38.880    3.5703
   38.895    3.5071
   38.910    3.6651
   38.925    3.5176
   38.940    3.5176
   38.955    3.5387
   38.970    3.6440
   38.985    3.4123
   39.000    3.2438
   39.015    3.5387
   39.030    3.5071
   39.045    3.6862
   39.060    3.5808
   39.075    3.5282
   39.090    3.8336
   39.105    3.5808
   39.120    3.5914
   39.135    3.7072
   39.150    3.7177
   39.165    3.7072
   39.180    3.4650
   39.195    3.5703
   39.210    3.4123
   39.225    3.5808
   39.240    3.5387
   39.255    3.5703
   39.270    3.5071
   39.285    3.3070
   39.300    3.2122
   39.315    3.3281
   39.330    3.7072
   39.345    3.6230
   39.360    3.6230
   39.375    3.6967
   39.390    3.6862
   39.405    3.6651
   39.420    3.5387
   39.435    3.3491
   39.450    3.5914
   39.465    3.6756
   39.480    3.5703
   39.495    3.4439
   39.510    3.6019
   39.525    3.5703
   39.540    3.6440
   39.555    3.6124
   39.570    3.4860
   39.585    3.5914
   39.600    3.5071
   39.615    3.4650
   39.630    3.4123
   39.645    3.4650
   39.660    3.0858
   39.675    3.3175
   39.690    3.5071
   39.705    3.4229
   39.720    3.5387
   39.735    3.6335
   39.750    3.6862
   39.765    3.3913
   39.780    3.3702
   39.795    3.4334
   39.810    3.4439
   39.825    3.4229
   39.840    3.1174
   39.855    3.5282
   39.870    3.4544
   39.885    3.6756
   39.900    3.6756
   39.915    3.5808
   39.930    3.2965
   39.945    3.4544
   39.960    3.4860
   39.975    3.2017
   39.990    3.2649
