    1.500    6.4419
    1.515    6.6239
    1.530    6.2493
    1.545    6.1423
    1.560    5.9283
    1.575    5.8213
    1.590    5.7678
    1.605    5.5003
    1.620    5.5859
    1.635    5.3826
    1.650    5.2006
    1.665    5.0936
    1.680    4.9010
    1.695    4.8582
    1.710    4.9973
    1.725    4.5051
    1.740    4.7833
    1.755    4.9117
    1.770    4.5907
    1.785    4.6121
    1.800    4.5372
    1.815    4.1306
    1.830    4.4944
    1.845    4.3660
    1.860    4.0556
    1.875    4.0235
    1.890    4.2483
    1.905    4.2590
    1.920    3.8737
    1.935    3.9700
    1.950    4.0770
    1.965    3.9379
    1.980    3.8630
    1.995    3.8416
    2.010    3.7025
    2.025    3.7988
    2.040    3.4029
    2.055    3.8737
    2.070    3.7239
    2.085    3.2959
    2.100    3.3173
    2.115    3.2531
    2.130    3.5420
    2.145    3.2852
    2.160    3.1033
    2.175    3.5099
    2.190    3.2317
    2.205    3.1996
    2.220    3.1996
    2.235    3.3922
    2.250    3.1461
    2.265    3.2317
    2.280    3.0926
    2.295    3.0712
    2.310    3.0926
    2.325    3.1354
    2.340    3.1675
    2.355    3.0284
    2.370    2.9642
    2.385    3.0712
    2.400    2.7501
    2.415    2.9320
    2.430    2.7073
    2.445    2.4933
    2.460    2.7501
    2.475    2.8892
    2.490    2.9642
    2.505    2.7929
    2.520    2.6003
    2.535    2.6217
    2.550    2.5789
    2.565    2.6110
    2.580    2.6538
    2.595    2.6431
    2.610    2.6859
    2.625    2.6324
    2.640    2.5789
    2.655    2.6324
    2.670    2.8785
    2.685    2.6859
    2.700    2.8036
    2.715    2.5575
    2.730    2.4826
    2.745    2.5682
    2.760    2.4826
    2.775    2.5147
    2.790    2.6110
    2.805    2.5040
    2.820    2.4612
    2.835    2.4398
    2.850    2.4077
    2.865    2.2579
    2.880    2.5789
    2.895    2.8143
    2.910    2.7073
    2.925    2.6003
    2.940    2.2258
    2.955    2.4505
    2.970    2.4077
    2.985    2.6752
    3.000    2.4291
    3.015    2.3756
    3.030    2.3328
    3.045    2.3328
    3.060    2.3221
    3.075    2.2365
    3.090    2.1295
    3.105    2.3756
    3.120    2.2793
    3.135    2.0974
    3.150    2.0760
    3.165    2.2472
    3.180    2.8571
    3.195    2.4826
    3.210    2.5040
    3.225    2.2365
    3.240    2.3007
    3.255    2.4719
    3.270    2.5040
    3.285    2.4612
    3.300    2.1830
    3.315    2.4719
    3.330    2.5896
    3.345    2.6966
    3.360    2.6217
    3.375    2.4184
    3.390    2.7394
    3.405    2.4826
    3.420    2.6538
    3.435    2.6966
    3.450    2.7715
    3.465    2.7073
    3.480    2.7394
    3.495    3.0819
    3.510    3.0605
    3.525    3.1354
    3.540    3.0819
    3.555    3.2317
    3.570    3.3922
    3.585    3.3815
    3.600    3.4564
    3.615    3.7667
    3.630    4.0235
    3.645    3.9593
    3.660    3.7774
    3.675    3.9700
    3.690    4.2376
    3.705    4.5372
    3.720    4.6121
    3.735    5.0187
    3.750    5.2970
    3.765    5.5324
    3.780    5.7999
    3.795    6.4205
    3.810    6.5918
    3.825    7.0091
    3.840    7.0198
    3.855    7.8866
    3.870    8.4216
    3.885    8.6356
    3.900    9.2884
    3.915   10.2943
    3.930   11.1396
    3.945   11.9208
    3.960   13.0658
    3.975   13.5260
    3.990   14.2750
    4.005   14.5104
    4.020   15.7517
    4.035   16.0086
    4.050   15.5056
    4.065   14.2643
    4.080   13.1407
    4.095   11.7282
    4.110   10.5511
    4.125    9.3526
    4.140    8.1327
    4.155    7.5976
    4.170    7.4799
    4.185    6.9984
    4.200    6.1316
    4.215    5.8748
    4.230    6.0246
    4.245    5.4468
    4.260    5.5217
    4.275    5.4468
    4.290    5.4575
    4.305    5.1150
    4.320    5.5324
    4.335    5.8106
    4.350    5.3398
    4.365    5.3933
    4.380    5.7250
    4.395    5.9390
    4.410    6.4205
    4.425    6.3028
    4.440    6.6025
    4.455    7.1696
    4.470    8.0578
    4.485    7.8438
    4.500    9.4489
    4.515   10.3799
    4.530    9.6201
    4.545    7.1910
    4.560    6.2921
    4.575    6.3777
    4.590    6.3135
    4.605    6.0781
    4.620    6.0139
    4.635    6.0246
    4.650    5.8320
    4.665    6.2707
    4.680    5.8855
    4.695    6.2493
    4.710    5.9283
    4.725    6.0353
    4.740    5.9283
    4.755    5.6501
    4.770    5.5324
    4.785    5.7036
    4.800    5.4682
    4.815    5.1150
    4.830    5.2541
    4.845    5.0829
    4.860    4.9973
    4.875    4.7298
    4.890    4.8047
    4.905    4.6763
    4.920    4.6656
    4.935    4.4302
    4.950    4.3874
    4.965    4.2804
    4.980    4.1199
    4.995    3.9272
    5.010    3.7346
    5.025    3.5741
    5.040    3.3494
    5.055    3.1247
    5.070    3.2959
    5.085    3.1568
    5.100    2.9106
    5.115    2.9749
    5.130    2.9106
    5.145    2.7822
    5.160    2.6431
    5.175    2.6431
    5.190    2.5361
    5.205    2.4398
    5.220    2.7929
    5.235    2.5040
    5.250    2.4184
    5.265    2.3542
    5.280    2.3542
    5.295    2.3007
    5.310    2.3542
    5.325    2.2151
    5.340    2.1830
    5.355    2.3970
    5.370    2.4077
    5.385    2.2472
    5.400    2.2686
    5.415    2.2258
    5.430    2.2579
    5.445    1.9476
    5.460    1.8620
    5.475    2.0653
    5.490    2.1402
    5.505    2.0011
    5.520    2.0974
    5.535    1.8834
    5.550    2.0546
    5.565    1.9583
    5.580    1.7549
    5.595    1.8727
    5.610    2.2472
    5.625    1.9155
    5.640    1.8941
    5.655    1.8406
    5.670    1.8085
    5.685    1.7657
    5.700    1.9583
    5.715    2.0546
    5.730    2.0332
    5.745    1.9797
    5.760    1.7442
    5.775    1.7657
    5.790    2.0867
    5.805    2.0760
    5.820    1.9690
    5.835    2.2472
    5.850    2.1081
    5.865    1.9155
    5.880    1.9155
    5.895    1.7442
    5.910    1.9583
    5.925    1.9690
    5.940    2.0011
    5.955    1.8406
    5.970    1.9048
    5.985    2.0332
    6.000    2.0439
    6.015    2.0653
    6.030    2.0118
    6.045    2.0439
    6.060    2.0118
    6.075    1.9476
    6.090    1.9476
    6.105    2.1295
    6.120    2.2365
    6.135    1.9048
    6.150    2.1295
    6.165    2.2686
    6.180    2.2365
    6.195    2.2793
    6.210    2.0760
    6.225    2.2793
    6.240    2.4184
    6.255    2.5254
    6.270    2.4398
    6.285    2.1616
    6.300    2.3970
    6.315    2.5040
    6.330    2.4505
    6.345    2.4826
    6.360    3.0284
    6.375    3.2638
    6.390    3.4350
    6.405    3.4885
    6.420    3.0712
    6.435    2.2686
    6.450    2.0974
    6.465    2.1402
    6.480    2.2900
    6.495    2.2472
    6.510    2.3970
    6.525    2.2258
    6.540    2.0011
    6.555    2.1616
    6.570    2.2044
    6.585    2.0011
    6.600    2.0653
    6.615    2.1295
    6.630    2.1509
    6.645    2.0011
    6.660    2.0011
    6.675    1.9904
    6.690    2.0653
    6.705    2.0118
    6.720    1.9797
    6.735    2.0760
    6.750    2.0867
    6.765    1.8834
    6.780    1.9369
    6.795    1.9690
    6.810    1.9583
    6.825    1.8727
    6.840    1.8192
    6.855    1.6907
    6.870    1.7549
    6.885    1.8192
    6.900    1.8299
    6.915    1.5302
    6.930    1.6372
    6.945    1.6800
    6.960    1.7121
    6.975    1.5195
    6.990    1.5302
    7.005    1.9048
    7.020    1.9048
    7.035    1.6158
    7.050    1.7121
    7.065    1.6586
    7.080    1.6800
    7.095    1.7657
    7.110    1.8085
    7.125    1.6586
    7.140    1.5516
    7.155    1.5623
    7.170    1.6479
    7.185    1.3590
    7.200    1.3911
    7.215    1.5516
    7.230    1.6907
    7.245    1.4981
    7.260    1.4553
    7.275    1.5837
    7.290    1.4232
    7.305    1.4446
    7.320    1.6586
    7.335    1.5730
    7.350    1.4446
    7.365    1.5088
    7.380    1.3911
    7.395    1.5837
    7.410    1.6907
    7.425    1.4018
    7.440    1.6479
    7.455    1.5516
    7.470    1.5837
    7.485    1.6051
    7.500    1.3483
    7.515    1.4981
    7.530    1.6372
    7.545    1.5516
    7.560    1.4446
    7.575    1.3911
    7.590    1.6051
    7.605    1.4339
    7.620    1.4981
    7.635    1.4018
    7.650    1.4553
    7.665    1.4981
    7.680    1.5944
    7.695    1.5944
    7.710    1.6800
    7.725    1.3911
    7.740    1.3697
    7.755    1.3269
    7.770    1.4660
    7.785    1.5516
    7.800    1.4446
    7.815    1.6693
    7.830    1.9797
    7.845    2.1081
    7.860    1.9369
    7.875    1.7121
    7.890    1.6265
    7.905    1.6158
    7.920    1.7764
    7.935    1.7335
    7.950    1.6800
    7.965    1.7442
    7.980    1.9048
    7.995    2.3328
    8.010    2.0546
    8.025    2.1509
    8.040    2.1616
    8.055    2.3435
    8.070    2.5575
    8.085    2.3649
    8.100    2.4719
    8.115    2.4933
    8.130    2.4933
    8.145    2.1937
    8.160    2.0760
    8.175    2.0118
    8.190    1.9369
    8.205    2.0011
    8.220    2.0760
    8.235    1.8834
    8.250    1.5623
    8.265    1.3483
    8.280    1.5088
    8.295    1.4767
    8.310    1.3697
    8.325    1.4981
    8.340    1.5302
    8.355    1.4232
    8.370    1.4660
    8.385    1.4553
    8.400    1.4553
    8.415    1.4660
    8.430    1.3804
    8.445    1.3911
    8.460    1.2092
    8.475    1.2199
    8.490    1.3590
    8.505    1.3483
    8.520    1.3269
    8.535    1.2734
    8.550    1.1771
    8.565    1.1236
    8.580    1.1664
    8.595    1.0701
    8.610    1.2948
    8.625    1.3269
    8.640    1.2520
    8.655    1.3269
    8.670    1.4125
    8.685    1.4660
    8.700    1.3697
    8.715    1.3911
    8.730    1.2306
    8.745    1.1557
    8.760    1.2948
    8.775    0.9631
    8.790    1.2948
    8.805    1.2627
    8.820    1.2520
    8.835    1.2199
    8.850    1.4660
    8.865    1.2948
    8.880    1.1557
    8.895    1.0701
    8.910    1.2092
    8.925    1.1557
    8.940    1.1557
    8.955    1.3162
    8.970    1.0915
    8.985    1.2413
    9.000    1.3376
    9.015    1.2413
    9.030    1.4232
    9.045    1.5837
    9.060    1.6265
    9.075    1.5944
    9.090    1.6265
    9.105    1.3483
    9.120    1.2413
    9.135    1.1236
    9.150    1.2627
    9.165    1.1771
    9.180    1.4553
    9.195    1.3269
    9.210    1.2306
    9.225    1.1557
    9.240    1.2520
    9.255    1.2948
    9.270    1.4232
    9.285    1.2199
    9.300    1.2734
    9.315    1.2734
    9.330    1.2306
    9.345    1.3376
    9.360    1.3055
    9.375    1.2413
    9.390    1.2520
    9.405    1.3590
    9.420    1.2734
    9.435    1.0059
    9.450    1.1450
    9.465    1.2948
    9.480    1.2413
    9.495    1.3590
    9.510    1.1878
    9.525    1.1878
    9.540    1.2734
    9.555    1.5623
    9.570    1.1450
    9.585    1.3483
    9.600    1.2734
    9.615    1.2734
    9.630    1.4232
    9.645    1.2627
    9.660    1.5088
    9.675    1.4767
    9.690    1.2948
    9.705    1.1450
    9.720    1.2734
    9.735    1.1343
    9.750    1.1771
    9.765    1.2627
    9.780    1.3162
    9.795    1.1664
    9.810    1.1985
    9.825    1.2841
    9.840    1.3269
    9.855    1.1343
    9.870    1.2520
    9.885    1.1557
    9.900    1.0915
    9.915    1.0808
    9.930    1.1343
    9.945    1.1129
    9.960    1.0166
    9.975    1.1450
    9.990    1.1236
   10.005    1.2520
   10.020    1.1664
   10.035    1.0059
   10.050    0.9952
   10.065    1.0701
   10.080    1.0594
   10.095    1.0594
   10.110    1.1450
   10.125    1.2199
   10.140    1.1129
   10.155    1.0701
   10.170    1.1022
   10.185    1.0701
   10.200    1.1022
   10.215    1.0594
   10.230    0.9096
   10.245    0.8454
   10.260    0.8561
   10.275    0.9952
   10.290    1.1557
   10.305    0.9952
   10.320    1.0701
   10.335    1.0594
   10.350    0.9524
   10.365    1.0594
   10.380    0.9524
   10.395    0.9738
   10.410    1.0059
   10.425    0.9738
   10.440    0.9203
   10.455    0.8347
   10.470    0.9631
   10.485    1.1129
   10.500    0.8775
   10.515    1.1022
   10.530    0.9845
   10.545    1.0701
   10.560    1.1129
   10.575    1.1985
   10.590    0.9631
   10.605    0.8882
   10.620    0.8454
   10.635    1.0166
   10.650    1.1022
   10.665    1.0166
   10.680    0.8775
   10.695    0.9096
   10.710    0.8668
   10.725    0.8240
   10.740    0.8240
   10.755    0.9096
   10.770    0.9845
   10.785    0.9203
   10.800    0.9524
   10.815    0.9952
   10.830    0.7812
   10.845    0.9738
   10.860    0.8775
   10.875    0.9203
   10.890    1.0166
   10.905    0.9310
   10.920    0.9952
   10.935    0.8668
   10.950    0.9417
   10.965    0.9845
   10.980    0.8240
   10.995    0.8882
   11.010    0.9631
   11.025    1.0166
   11.040    1.0166
   11.055    1.0273
   11.070    1.1129
   11.085    1.2948
   11.100    1.4232
   11.115    1.5623
   11.130    1.3269
   11.145    1.0059
   11.160    0.9310
   11.175    0.9631
   11.190    1.0166
   11.205    0.9631
   11.220    0.9203
   11.235    0.8347
   11.250    0.8026
   11.265    0.9096
   11.280    1.1022
   11.295    0.8668
   11.310    0.9096
   11.325    0.7919
   11.340    0.8882
   11.355    0.7491
   11.370    0.7170
   11.385    0.7705
   11.400    0.8454
   11.415    0.8989
   11.430    0.9310
   11.445    0.8454
   11.460    0.8989
   11.475    0.8775
   11.490    0.9203
   11.505    0.8668
   11.520    0.9524
   11.535    0.9952
   11.550    1.0059
   11.565    0.8561
   11.580    1.0915
   11.595    1.0487
   11.610    1.0273
   11.625    0.9096
   11.640    0.9524
   11.655    0.9952
   11.670    0.7170
   11.685    0.9417
   11.700    0.8133
   11.715    0.9203
   11.730    0.9738
   11.745    0.8668
   11.760    0.8989
   11.775    0.9096
   11.790    0.8240
   11.805    0.8026
   11.820    0.9310
   11.835    0.9203
   11.850    0.8668
   11.865    0.9952
   11.880    0.9631
   11.895    0.9203
   11.910    0.6849
   11.925    0.7170
   11.940    0.9738
   11.955    0.9631
   11.970    1.1343
   11.985    1.1129
   12.000    1.0915
   12.015    1.1664
   12.030    0.9631
   12.045    0.9096
   12.060    0.9310
   12.075    0.9524
   12.090    0.9738
   12.105    0.9845
   12.120    0.9524
   12.135    1.1022
   12.150    1.0380
   12.165    0.8668
   12.180    0.8989
   12.195    1.0487
   12.210    0.8775
   12.225    0.9310
   12.240    1.0594
   12.255    0.8989
   12.270    0.8668
   12.285    1.0166
   12.300    0.8775
   12.315    1.0166
   12.330    1.1129
   12.345    1.0166
   12.360    1.0273
   12.375    1.0487
   12.390    0.9203
   12.405    0.9738
   12.420    1.0166
   12.435    0.7491
   12.450    1.0701
   12.465    0.9952
   12.480    0.8989
   12.495    0.9952
   12.510    0.8668
   12.525    0.9417
   12.540    0.8989
   12.555    0.9310
   12.570    0.8240
   12.585    0.8347
   12.600    1.0594
   12.615    0.9631
   12.630    0.9631
   12.645    0.9738
   12.660    0.9310
   12.675    0.9631
   12.690    0.9845
   12.705    0.8775
   12.720    0.8989
   12.735    0.8133
   12.750    0.8668
   12.765    1.0166
   12.780    0.9631
   12.795    1.0273
   12.810    1.1236
   12.825    1.2092
   12.840    1.0915
   12.855    1.0487
   12.870    1.2520
   12.885    0.9738
   12.900    0.9524
   12.915    0.9631
   12.930    1.0808
   12.945    1.1022
   12.960    1.0808
   12.975    1.1343
   12.990    1.0594
   13.005    0.8775
   13.020    0.9524
   13.035    0.8561
   13.050    0.8989
   13.065    0.9738
   13.080    1.0808
   13.095    0.8989
   13.110    1.0059
   13.125    1.0701
   13.140    0.9738
   13.155    0.8026
   13.170    1.1450
   13.185    1.0059
   13.200    1.0701
   13.215    0.9631
   13.230    0.8989
   13.245    0.9524
   13.260    0.9096
   13.275    0.9845
   13.290    1.0059
   13.305    1.0487
   13.320    0.9738
   13.335    0.9952
   13.350    0.8454
   13.365    0.8775
   13.380    0.9310
   13.395    0.8561
   13.410    0.8989
   13.425    0.8133
   13.440    0.8561
   13.455    0.8561
   13.470    0.8454
   13.485    0.9417
   13.500    0.8882
   13.515    1.0059
   13.530    1.0915
   13.545    0.8561
   13.560    0.9096
   13.575    0.8561
   13.590    1.0166
   13.605    1.2413
   13.620    1.1343
   13.635    1.1878
   13.650    0.9631
   13.665    0.8989
   13.680    0.8454
   13.695    0.9952
   13.710    0.9631
   13.725    1.0487
   13.740    0.9417
   13.755    0.8775
   13.770    0.9631
   13.785    0.9524
   13.800    0.9524
   13.815    1.0166
   13.830    1.0594
   13.845    0.9738
   13.860    0.9845
   13.875    0.9845
   13.890    0.8240
   13.905    0.8133
   13.920    0.8347
   13.935    0.8882
   13.950    0.8989
   13.965    1.1022
   13.980    1.0273
   13.995    0.8989
   14.010    0.8668
   14.025    0.9524
   14.040    0.9096
   14.055    0.9203
   14.070    1.0059
   14.085    0.9631
   14.100    0.8989
   14.115    1.0701
   14.130    0.9952
   14.145    0.8561
   14.160    0.9417
   14.175    0.8561
   14.190    1.0166
   14.205    0.9631
   14.220    0.7812
   14.235    0.8882
   14.250    1.1129
   14.265    0.9310
   14.280    1.0380
   14.295    1.1450
   14.310    1.0166
   14.325    1.0915
   14.340    0.8882
   14.355    0.9096
   14.370    0.9631
   14.385    1.0594
   14.400    0.9738
   14.415    0.8347
   14.430    0.8775
   14.445    0.9738
   14.460    0.9096
   14.475    0.8989
   14.490    0.9096
   14.505    0.9310
   14.520    0.9203
   14.535    0.8668
   14.550    1.0487
   14.565    0.9952
   14.580    1.0594
   14.595    0.9203
   14.610    0.8775
   14.625    0.8775
   14.640    0.9310
   14.655    0.9524
   14.670    0.9096
   14.685    1.0166
   14.700    0.7919
   14.715    0.9096
   14.730    1.0380
   14.745    1.0915
   14.760    0.9631
   14.775    0.9524
   14.790    1.0059
   14.805    0.9417
   14.820    0.7705
   14.835    0.9203
   14.850    0.9096
   14.865    0.8882
   14.880    1.0380
   14.895    0.9096
   14.910    0.8775
   14.925    0.8240
   14.940    0.9203
   14.955    0.9631
   14.970    0.8240
   14.985    0.9952
   15.000    1.0059
   15.015    0.9310
   15.030    0.8240
   15.045    0.9096
   15.060    1.1236
   15.075    1.0915
   15.090    1.0166
   15.105    0.8882
   15.120    0.9738
   15.135    0.8668
   15.150    0.8668
   15.165    0.9952
   15.180    1.0059
   15.195    0.8775
   15.210    0.8347
   15.225    0.8561
   15.240    0.8133
   15.255    0.8454
   15.270    0.8668
   15.285    0.9524
   15.300    0.8561
   15.315    0.8133
   15.330    0.8133
   15.345    0.9310
   15.360    0.9845
   15.375    0.7919
   15.390    0.8775
   15.405    1.0166
   15.420    0.9203
   15.435    0.8882
   15.450    0.9417
   15.465    0.8561
   15.480    0.9203
   15.495    0.8882
   15.510    0.8347
   15.525    0.9203
   15.540    0.7919
   15.555    0.8454
   15.570    0.9310
   15.585    0.7919
   15.600    0.8454
   15.615    0.8240
   15.630    0.9417
   15.645    0.9096
   15.660    1.0273
   15.675    0.8668
   15.690    0.8240
   15.705    0.9310
   15.720    0.7919
   15.735    0.9952
   15.750    1.0487
   15.765    0.8026
   15.780    0.8240
   15.795    0.9310
   15.810    0.8989
   15.825    0.8454
   15.840    0.8026
   15.855    0.9096
   15.870    0.8026
   15.885    0.8775
   15.900    0.8989
   15.915    0.8454
   15.930    0.7063
   15.945    0.8133
   15.960    0.8561
   15.975    0.9631
   15.990    0.9203
   16.005    0.9738
   16.020    0.7598
   16.035    0.8775
   16.050    0.8775
   16.065    0.9738
   16.080    0.9738
   16.095    0.8989
   16.110    0.9952
   16.125    1.0059
   16.140    0.8240
   16.155    0.8882
   16.170    0.8775
   16.185    0.8989
   16.200    0.9952
   16.215    1.0915
   16.230    0.9631
   16.245    0.8882
   16.260    0.9310
   16.275    1.0701
   16.290    0.7384
   16.305    0.8026
   16.320    0.9845
   16.335    1.1343
   16.350    1.0594
   16.365    0.9524
   16.380    1.0273
   16.395    0.9096
   16.410    0.8882
   16.425    0.9310
   16.440    0.9524
   16.455    0.8989
   16.470    0.9096
   16.485    0.9524
   16.500    0.9631
   16.515    1.0380
   16.530    0.9845
   16.545    1.0380
   16.560    0.9096
   16.575    0.9096
   16.590    0.9845
   16.605    0.8240
   16.620    0.8989
   16.635    0.9417
   16.650    1.0166
   16.665    0.8989
   16.680    0.9096
   16.695    0.9845
   16.710    0.8775
   16.725    0.9203
   16.740    0.8454
   16.755    0.9524
   16.770    0.8989
   16.785    1.0273
   16.800    1.0594
   16.815    0.9952
   16.830    1.0380
   16.845    0.9417
   16.860    0.9738
   16.875    1.0059
   16.890    1.0701
   16.905    0.9952
   16.920    0.9845
   16.935    1.0273
   16.950    0.8989
   16.965    0.9417
   16.980    0.9952
   16.995    0.9310
   17.010    0.8775
   17.025    1.0059
   17.040    0.9096
   17.055    0.9524
   17.070    0.9096
   17.085    0.8882
   17.100    0.9096
   17.115    0.9096
   17.130    0.8561
   17.145    0.9096
   17.160    0.8668
   17.175    0.8989
   17.190    0.9096
   17.205    0.8668
   17.220    1.0166
   17.235    0.9738
   17.250    0.9845
   17.265    0.9524
   17.280    0.8561
   17.295    0.9845
   17.310    0.8454
   17.325    0.7812
   17.340    0.8454
   17.355    0.8668
   17.370    0.7170
   17.385    0.7812
   17.400    0.7384
   17.415    0.9417
   17.430    0.8668
   17.445    0.9096
   17.460    0.8133
   17.475    0.8454
   17.490    0.9203
   17.505    0.8026
   17.520    0.8882
   17.535    0.7812
   17.550    0.7491
   17.565    0.8561
   17.580    0.7705
   17.595    1.0380
   17.610    0.9524
   17.625    0.9738
   17.640    0.9524
   17.655    0.7705
   17.670    0.7705
   17.685    0.7384
   17.700    0.8454
   17.715    0.7491
   17.730    0.7384
   17.745    0.7812
   17.760    0.8347
   17.775    0.9096
   17.790    0.7170
   17.805    0.8133
   17.820    0.9738
   17.835    0.9096
   17.850    0.8989
   17.865    0.8775
   17.880    0.7919
   17.895    0.8454
   17.910    0.8668
   17.925    0.7491
   17.940    0.7705
   17.955    0.9738
   17.970    0.9096
   17.985    0.9310
   18.000    0.8882
   18.015    0.7812
   18.030    0.9738
   18.045    0.9417
   18.060    0.7919
   18.075    0.7919
   18.090    0.8989
   18.105    0.9096
   18.120    1.0701
   18.135    0.9738
   18.150    0.9203
   18.165    0.8775
   18.180    0.8882
   18.195    1.0166
   18.210    0.9524
   18.225    0.8026
   18.240    0.7598
   18.255    0.8668
   18.270    0.7491
   18.285    0.8561
   18.300    0.9631
   18.315    0.8454
   18.330    0.9631
   18.345    0.8882
   18.360    0.8989
   18.375    0.8347
   18.390    0.7919
   18.405    0.9096
   18.420    0.8989
   18.435    1.0273
   18.450    0.9096
   18.465    0.8454
   18.480    0.8454
   18.495    0.8561
   18.510    0.7063
   18.525    0.8454
   18.540    0.8133
   18.555    0.9310
   18.570    0.9310
   18.585    1.0059
   18.600    1.0487
   18.615    0.8026
   18.630    0.8561
   18.645    0.8561
   18.660    0.8775
   18.675    0.8775
   18.690    0.9203
   18.705    0.9738
   18.720    0.8668
   18.735    0.9310
   18.750    0.8133
   18.765    0.8240
   18.780    0.9524
   18.795    0.8989
   18.810    0.8240
   18.825    0.7063
   18.840    0.9631
   18.855    0.9203
   18.870    0.8347
   18.885    0.9631
   18.900    0.8668
   18.915    0.8882
   18.930    0.9845
   18.945    0.9096
   18.960    0.7491
   18.975    0.6528
   18.990    0.8240
   19.005    0.8133
   19.020    0.8561
   19.035    0.8775
   19.050    0.7812
   19.065    0.8882
   19.080    0.7705
   19.095    0.6956
   19.110    0.7491
   19.125    0.9310
   19.140    0.9524
   19.155    0.7705
   19.170    0.7491
   19.185    0.8668
   19.200    0.8561
   19.215    0.7919
   19.230    0.7919
   19.245    0.9524
   19.260    0.7919
   19.275    0.8454
   19.290    0.7705
   19.305    0.8026
   19.320    0.9631
   19.335    0.8454
   19.350    0.8133
   19.365    0.7812
   19.380    0.7705
   19.395    0.9845
   19.410    0.8454
   19.425    0.7491
   19.440    0.7277
   19.455    0.8989
   19.470    0.7384
   19.485    0.8240
   19.500    0.8240
   19.515    0.7598
   19.530    0.7063
   19.545    0.8454
   19.560    0.8668
   19.575    0.8454
   19.590    0.8668
   19.605    0.8133
   19.620    1.0059
   19.635    0.8347
   19.650    0.9417
   19.665    0.8026
   19.680    0.7812
   19.695    0.8133
   19.710    0.8775
   19.725    0.8026
   19.740    0.8775
   19.755    0.9203
   19.770    0.8454
   19.785    0.7705
   19.800    0.7919
   19.815    0.8347
   19.830    1.0594
   19.845    0.8989
   19.860    0.8668
   19.875    0.7919
   19.890    0.8133
   19.905    0.7705
   19.920    0.8775
   19.935    0.7384
   19.950    0.5671
   19.965    0.9096
   19.980    0.8561
   19.995    0.8561
   20.010    0.8240
   20.025    0.8240
   20.040    0.8561
   20.055    0.9845
   20.070    0.8561
   20.085    0.7705
   20.100    0.7491
   20.115    0.8668
   20.130    0.7812
   20.145    0.8454
   20.160    0.9096
   20.175    0.7705
   20.190    0.8026
   20.205    0.8347
   20.220    0.7919
   20.235    0.8133
   20.250    0.7705
   20.265    0.8133
   20.280    0.8454
   20.295    0.8454
   20.310    0.8668
   20.325    0.6635
   20.340    0.8882
   20.355    0.7705
   20.370    0.8026
   20.385    0.8347
   20.400    0.7491
   20.415    0.9952
   20.430    0.8133
   20.445    0.8026
   20.460    0.7705
   20.475    0.8240
   20.490    0.7812
   20.505    0.7384
   20.520    0.9631
   20.535    0.7705
   20.550    0.8561
   20.565    0.9203
   20.580    0.7598
   20.595    0.8882
   20.610    0.8133
   20.625    0.9738
   20.640    0.9096
   20.655    0.8240
   20.670    0.8347
   20.685    0.7384
   20.700    0.9203
   20.715    0.7491
   20.730    0.7919
   20.745    0.7705
   20.760    0.7170
   20.775    0.7705
   20.790    0.7384
   20.805    0.8026
   20.820    0.8347
   20.835    0.7919
   20.850    0.7063
   20.865    0.6849
   20.880    0.8240
   20.895    0.8026
   20.910    0.8133
   20.925    0.8133
   20.940    0.8454
   20.955    0.8561
   20.970    0.9310
   20.985    0.8026
   21.000    0.8668
   21.015    0.8561
   21.030    0.7170
   21.045    0.8347
   21.060    0.7491
   21.075    0.7812
   21.090    0.6635
   21.105    0.9310
   21.120    0.8561
   21.135    0.8454
   21.150    0.8240
   21.165    0.8133
   21.180    0.9310
   21.195    0.9310
   21.210    0.7812
   21.225    0.8668
   21.240    0.8026
   21.255    0.7705
   21.270    0.7919
   21.285    0.9417
   21.300    0.9203
   21.315    0.8133
   21.330    0.8989
   21.345    0.7170
   21.360    0.8882
   21.375    0.7919
   21.390    1.0380
   21.405    0.9845
   21.420    0.9096
   21.435    0.8240
   21.450    0.7812
   21.465    0.8240
   21.480    0.8989
   21.495    0.9845
   21.510    0.8133
   21.525    0.8561
   21.540    0.9310
   21.555    0.8133
   21.570    0.8133
   21.585    0.8347
   21.600    0.8775
   21.615    0.8561
   21.630    0.9310
   21.645    0.8454
   21.660    0.6100
   21.675    0.7812
   21.690    0.9203
   21.705    0.8775
   21.720    0.8561
   21.735    0.8454
   21.750    0.8454
   21.765    0.8133
   21.780    0.7812
   21.795    0.7277
   21.810    0.8561
   21.825    0.7598
   21.840    0.8989
   21.855    0.8026
   21.870    0.8026
   21.885    0.7063
   21.900    0.7919
   21.915    0.9738
   21.930    0.8882
   21.945    0.9096
   21.960    0.8133
   21.975    0.7598
   21.990    0.8026
   22.005    0.8561
   22.020    0.8026
   22.035    0.7919
   22.050    0.8133
   22.065    0.8133
   22.080    0.6421
   22.095    0.8240
   22.110    0.9203
   22.125    0.8561
   22.140    0.8882
   22.155    0.7919
   22.170    0.8775
   22.185    0.7919
   22.200    0.8561
   22.215    0.7170
   22.230    0.6849
   22.245    1.0166
   22.260    0.8989
   22.275    0.9096
   22.290    0.7812
   22.305    0.7063
   22.320    0.6421
   22.335    0.6956
   22.350    0.7384
   22.365    0.9738
   22.380    0.8240
   22.395    0.9417
   22.410    0.7705
   22.425    0.9203
   22.440    0.9310
   22.455    0.8240
   22.470    0.7384
   22.485    0.7598
   22.500    0.7384
   22.515    0.7277
   22.530    0.8668
   22.545    0.8240
   22.560    0.8026
   22.575    0.7705
   22.590    0.6956
   22.605    0.9096
   22.620    0.8026
   22.635    0.8989
   22.650    0.8775
   22.665    0.8133
   22.680    0.7812
   22.695    0.6956
   22.710    0.8240
   22.725    0.8240
   22.740    0.7919
   22.755    0.6207
   22.770    0.8668
   22.785    0.7491
   22.800    0.7812
   22.815    0.8882
   22.830    0.8240
   22.845    0.7919
   22.860    0.8133
   22.875    0.7812
   22.890    0.7705
   22.905    0.7063
   22.920    0.6956
   22.935    0.7705
   22.950    0.8240
   22.965    0.8454
   22.980    0.9203
   22.995    0.7812
   23.010    0.8668
   23.025    0.7384
   23.040    0.7170
   23.055    0.8240
   23.070    1.0059
   23.085    0.8347
   23.100    0.7491
   23.115    0.8026
   23.130    0.7598
   23.145    0.9952
   23.160    0.8775
   23.175    0.7919
   23.190    0.7170
   23.205    0.8989
   23.220    0.6956
   23.235    0.7063
   23.250    0.8026
   23.265    0.7491
   23.280    0.7063
   23.295    0.9203
   23.310    0.8026
   23.325    0.7598
   23.340    0.7063
   23.355    0.7384
   23.370    0.9203
   23.385    0.8454
   23.400    0.6528
   23.415    0.7705
   23.430    0.8026
   23.445    0.8240
   23.460    0.7384
   23.475    0.7063
   23.490    0.8775
   23.505    0.8561
   23.520    0.7598
   23.535    0.7812
   23.550    0.8347
   23.565    0.8026
   23.580    0.6421
   23.595    0.6314
   23.610    0.8561
   23.625    0.7598
   23.640    0.7919
   23.655    0.8240
   23.670    0.8240
   23.685    0.7598
   23.700    0.7705
   23.715    0.8668
   23.730    0.9738
   23.745    0.8026
   23.760    0.7491
   23.775    0.7812
   23.790    0.8240
   23.805    0.8775
   23.820    0.7705
   23.835    0.7598
   23.850    0.7705
   23.865    0.8775
   23.880    0.8668
   23.895    0.7705
   23.910    0.8454
   23.925    0.8347
   23.940    0.7277
   23.955    0.6528
   23.970    0.8026
   23.985    0.8882
   24.000    0.7812
   24.015    0.7705
   24.030    0.7063
   24.045    0.6528
   24.060    0.6635
   24.075    0.5778
   24.090    0.6742
   24.105    0.7919
   24.120    0.7063
   24.135    0.7598
   24.150    0.8561
   24.165    0.7705
   24.180    0.7277
   24.195    0.7491
   24.210    0.9203
   24.225    0.7384
   24.240    0.6849
   24.255    0.8026
   24.270    0.7598
   24.285    0.6421
   24.300    0.5886
   24.315    0.6849
   24.330    0.7384
   24.345    0.8240
   24.360    0.9203
   24.375    0.8026
   24.390    0.9417
   24.405    0.9203
   24.420    0.8240
   24.435    0.7491
   24.450    0.5671
   24.465    0.6635
   24.480    0.6956
   24.495    0.7705
   24.510    0.8240
   24.525    0.7491
   24.540    0.8133
   24.555    0.6314
   24.570    0.7598
   24.585    0.6956
   24.600    0.7170
   24.615    0.7919
   24.630    0.7705
   24.645    0.5243
   24.660    0.5350
   24.675    0.6635
   24.690    0.7063
   24.705    0.8668
   24.720    0.7063
   24.735    0.6956
   24.750    0.7812
   24.765    0.7063
   24.780    0.8454
   24.795    0.9203
   24.810    0.8668
   24.825    0.6421
   24.840    0.6742
   24.855    0.6314
   24.870    0.6635
   24.885    0.7063
   24.900    0.6528
   24.915    0.8454
   24.930    0.8454
   24.945    0.8347
   24.960    0.7491
   24.975    0.7063
   24.990    0.7277
   25.005    0.8775
   25.020    0.6100
   25.035    0.7170
   25.050    0.6742
   25.065    0.7491
   25.080    0.7384
   25.095    0.6314
   25.110    0.7063
   25.125    0.7277
   25.140    0.7919
   25.155    0.8347
   25.170    0.7384
   25.185    0.7705
   25.200    0.7170
   25.215    0.6421
   25.230    0.8026
   25.245    0.7705
   25.260    0.7170
   25.275    0.7063
   25.290    0.7812
   25.305    0.7598
   25.320    0.6100
   25.335    0.7705
   25.350    0.8989
   25.365    0.6742
   25.380    0.8668
   25.395    0.9417
   25.410    0.9096
   25.425    0.8133
   25.440    0.7384
   25.455    0.8026
   25.470    0.7063
   25.485    0.6635
   25.500    0.8668
   25.515    0.6742
   25.530    0.7919
   25.545    0.7812
   25.560    0.7170
   25.575    0.7598
   25.590    0.6956
   25.605    0.7705
   25.620    0.7812
   25.635    0.8133
   25.650    0.8561
   25.665    0.8133
   25.680    0.7812
   25.695    0.6528
   25.710    0.7705
   25.725    0.8240
   25.740    0.7598
   25.755    0.7598
   25.770    0.7170
   25.785    0.7491
   25.800    0.7705
   25.815    0.7277
   25.830    0.8347
   25.845    0.6528
   25.860    0.8989
   25.875    0.6421
   25.890    0.7598
   25.905    0.7063
   25.920    0.7277
   25.935    0.6849
   25.950    0.6528
   25.965    0.7063
   25.980    0.7063
   25.995    0.5886
   26.010    0.6207
   26.025    0.7491
   26.040    0.8133
   26.055    0.9203
   26.070    0.6635
   26.085    0.6100
   26.100    0.5029
   26.115    0.7277
   26.130    0.6100
   26.145    0.5886
   26.160    0.5350
   26.175    0.7598
   26.190    0.7277
   26.205    0.7491
   26.220    0.7384
   26.235    0.6849
   26.250    0.6314
   26.265    0.8882
   26.280    0.7384
   26.295    0.7277
   26.310    0.7063
   26.325    0.5886
   26.340    0.7491
   26.355    0.5993
   26.370    0.6207
   26.385    0.5886
   26.400    0.7063
   26.415    0.6849
   26.430    0.6207
   26.445    0.6635
   26.460    0.6528
   26.475    0.5350
   26.490    0.6849
   26.505    0.6528
   26.520    0.5993
   26.535    0.5993
   26.550    0.7384
   26.565    0.7491
   26.580    0.5564
   26.595    0.6528
   26.610    0.7277
   26.625    0.7277
   26.640    0.6528
   26.655    0.6314
   26.670    0.7063
   26.685    0.7384
   26.700    0.7491
   26.715    0.6742
   26.730    0.7812
   26.745    0.7277
   26.760    0.8347
   26.775    0.6742
   26.790    0.6207
   26.805    0.7491
   26.820    0.6421
   26.835    0.5564
   26.850    0.6849
   26.865    0.5993
   26.880    0.6528
   26.895    0.6849
   26.910    0.6956
   26.925    0.8882
   26.940    0.7705
   26.955    0.6849
   26.970    0.6207
   26.985    0.6207
   27.000    0.7063
   27.015    0.7063
   27.030    0.5350
   27.045    0.7063
   27.060    0.5671
   27.075    0.6207
   27.090    0.6956
   27.105    0.6635
   27.120    0.6421
   27.135    0.6100
   27.150    0.7277
   27.165    0.7277
   27.180    0.6742
   27.195    0.7705
   27.210    0.6100
   27.225    0.6528
   27.240    0.7384
   27.255    0.6421
   27.270    0.7277
   27.285    0.7063
   27.300    0.7384
   27.315    0.5778
   27.330    0.5671
   27.345    0.5243
   27.360    0.6421
   27.375    0.8454
   27.390    0.7812
   27.405    0.6635
   27.420    0.5886
   27.435    0.5778
   27.450    0.5886
   27.465    0.6314
   27.480    0.6742
   27.495    0.6314
   27.510    0.7170
   27.525    0.6635
   27.540    0.5886
   27.555    0.5993
   27.570    0.6207
   27.585    0.6956
   27.600    0.6849
   27.615    0.7063
   27.630    0.6742
   27.645    0.6635
   27.660    0.6635
   27.675    0.5886
   27.690    0.5350
   27.705    0.5671
   27.720    0.6956
   27.735    0.5136
   27.750    0.5457
   27.765    0.6100
   27.780    0.5350
   27.795    0.5778
   27.810    0.7598
   27.825    0.6421
   27.840    0.5993
   27.855    0.5243
   27.870    0.5029
   27.885    0.6635
   27.900    0.6207
   27.915    0.6100
   27.930    0.5564
   27.945    0.6314
   27.960    0.5350
   27.975    0.6635
   27.990    0.6421
   28.005    0.5671
   28.020    0.6849
   28.035    0.6742
   28.050    0.6207
   28.065    0.6100
   28.080    0.6100
   28.095    0.6314
   28.110    0.7705
   28.125    0.7063
   28.140    0.5350
   28.155    0.5993
   28.170    0.6635
   28.185    0.6956
   28.200    0.4494
   28.215    0.6421
   28.230    0.6314
   28.245    0.5886
   28.260    0.6956
   28.275    0.6314
   28.290    0.6742
   28.305    0.6528
   28.320    0.5993
   28.335    0.6421
   28.350    0.5564
   28.365    0.5778
   28.380    0.6956
   28.395    0.6207
   28.410    0.5029
   28.425    0.6314
   28.440    0.5886
   28.455    0.6100
   28.470    0.5564
   28.485    0.6635
   28.500    0.6100
   28.515    0.6100
   28.530    0.6207
   28.545    0.7063
   28.560    0.6956
   28.575    0.7384
   28.590    0.6314
   28.605    0.6314
   28.620    0.5886
   28.635    0.6849
   28.650    0.6635
   28.665    0.7063
   28.680    0.5243
   28.695    0.7063
   28.710    0.5564
   28.725    0.5243
   28.740    0.6207
   28.755    0.4922
   28.770    0.5671
   28.785    0.7063
   28.800    0.6421
   28.815    0.5671
   28.830    0.5993
   28.845    0.5564
   28.860    0.6314
   28.875    0.6207
   28.890    0.6314
   28.905    0.5457
   28.920    0.6421
   28.935    0.5886
   28.950    0.5029
   28.965    0.6207
   28.980    0.4494
   28.995    0.6100
   29.010    0.5778
   29.025    0.5564
   29.040    0.7063
   29.055    0.4708
   29.070    0.4494
   29.085    0.5457
   29.100    0.6849
   29.115    0.6528
   29.130    0.6314
   29.145    0.5564
   29.160    0.5136
   29.175    0.4922
   29.190    0.5457
   29.205    0.5350
   29.220    0.5136
   29.235    0.5778
   29.250    0.7170
   29.265    0.5993
   29.280    0.5136
   29.295    0.5350
   29.310    0.5671
   29.325    0.5778
   29.340    0.6100
   29.355    0.6849
   29.370    0.5778
   29.385    0.5350
   29.400    0.6421
   29.415    0.6421
   29.430    0.5564
   29.445    0.5136
   29.460    0.6100
   29.475    0.5350
   29.490    0.5778
   29.505    0.5564
   29.520    0.5457
   29.535    0.6635
   29.550    0.6314
   29.565    0.6528
   29.580    0.5243
   29.595    0.5457
   29.610    0.5564
   29.625    0.5243
   29.640    0.6742
   29.655    0.5993
   29.670    0.5243
   29.685    0.5029
   29.700    0.7063
   29.715    0.7170
   29.730    0.6100
   29.745    0.5886
   29.760    0.6100
   29.775    0.6421
   29.790    0.5350
   29.805    0.5778
   29.820    0.5136
   29.835    0.4173
   29.850    0.5029
   29.865    0.5671
   29.880    0.4494
   29.895    0.5029
   29.910    0.5886
   29.925    0.5886
   29.940    0.5457
   29.955    0.6421
   29.970    0.7598
   29.985    0.5886
   30.000    0.6742
   30.015    0.6635
   30.030    0.4494
   30.045    0.5671
   30.060    0.6314
   30.075    0.5993
   30.090    0.4922
   30.105    0.6528
   30.120    0.5243
   30.135    0.5029
   30.150    0.5564
   30.165    0.6100
   30.180    0.5457
   30.195    0.5136
   30.210    0.5243
   30.225    0.5886
   30.240    0.6635
   30.255    0.5457
   30.270    0.6421
   30.285    0.5778
   30.300    0.4173
   30.315    0.5350
   30.330    0.6100
   30.345    0.5457
   30.360    0.5778
   30.375    0.4815
   30.390    0.4280
   30.405    0.4601
   30.420    0.6528
   30.435    0.5564
   30.450    0.6635
   30.465    0.6314
   30.480    0.5564
   30.495    0.5029
   30.510    0.4922
   30.525    0.5564
   30.540    0.4708
   30.555    0.4922
   30.570    0.5564
   30.585    0.5029
   30.600    0.5671
   30.615    0.4922
   30.630    0.5136
   30.645    0.4815
   30.660    0.5993
   30.675    0.5243
   30.690    0.5778
   30.705    0.6100
   30.720    0.5778
   30.735    0.5457
   30.750    0.4601
   30.765    0.5564
   30.780    0.6207
   30.795    0.5136
   30.810    0.4601
   30.825    0.5350
   30.840    0.5136
   30.855    0.6100
   30.870    0.3852
   30.885    0.5671
   30.900    0.5457
   30.915    0.4494
   30.930    0.4708
   30.945    0.5029
   30.960    0.4922
   30.975    0.4280
   30.990    0.5564
   31.005    0.5457
   31.020    0.5243
   31.035    0.5243
   31.050    0.6314
   31.065    0.5993
   31.080    0.6421
   31.095    0.6314
   31.110    0.5457
   31.125    0.5671
   31.140    0.5243
   31.155    0.5564
   31.170    0.5886
   31.185    0.5029
   31.200    0.5136
   31.215    0.4815
   31.230    0.4494
   31.245    0.4815
   31.260    0.4922
   31.275    0.4173
   31.290    0.6100
   31.305    0.4922
   31.320    0.5564
   31.335    0.4494
   31.350    0.3531
   31.365    0.4173
   31.380    0.6956
   31.395    0.5029
   31.410    0.5136
   31.425    0.4922
   31.440    0.5671
   31.455    0.5671
   31.470    0.5350
   31.485    0.5993
   31.500    0.5564
   31.515    0.5778
   31.530    0.5564
   31.545    0.5029
   31.560    0.4173
   31.575    0.4708
   31.590    0.5136
   31.605    0.6314
   31.620    0.4708
   31.635    0.5243
   31.650    0.4173
   31.665    0.4173
   31.680    0.3745
   31.695    0.4387
   31.710    0.5136
   31.725    0.5350
   31.740    0.4173
   31.755    0.5029
   31.770    0.5136
   31.785    0.4815
   31.800    0.5350
   31.815    0.3745
   31.830    0.5243
   31.845    0.4708
   31.860    0.4494
   31.875    0.4601
   31.890    0.5564
   31.905    0.4815
   31.920    0.4494
   31.935    0.4387
   31.950    0.5136
   31.965    0.4708
   31.980    0.3959
   31.995    0.5350
   32.010    0.4173
   32.025    0.5457
   32.040    0.5350
   32.055    0.4601
   32.070    0.4494
   32.085    0.4280
   32.100    0.5350
   32.115    0.4922
   32.130    0.3852
   32.145    0.3745
   32.160    0.5243
   32.175    0.4387
   32.190    0.3638
   32.205    0.4494
   32.220    0.4708
   32.235    0.3959
   32.250    0.4922
   32.265    0.4387
   32.280    0.5564
   32.295    0.5029
   32.310    0.4815
   32.325    0.4494
   32.340    0.4173
   32.355    0.5564
   32.370    0.4815
   32.385    0.4815
   32.400    0.4601
   32.415    0.4173
   32.430    0.4173
   32.445    0.3745
   32.460    0.5350
   32.475    0.4280
   32.490    0.3852
   32.505    0.6421
   32.520    0.4708
   32.535    0.4708
   32.550    0.4173
   32.565    0.4922
   32.580    0.4815
   32.595    0.5671
   32.610    0.5671
   32.625    0.4601
   32.640    0.5029
   32.655    0.4815
   32.670    0.4708
   32.685    0.5457
   32.700    0.4387
   32.715    0.3852
   32.730    0.4601
   32.745    0.4494
   32.760    0.4173
   32.775    0.4922
   32.790    0.4708
   32.805    0.5457
   32.820    0.4601
   32.835    0.5564
   32.850    0.6421
   32.865    0.4173
   32.880    0.4494
   32.895    0.4066
   32.910    0.4708
   32.925    0.4494
   32.940    0.5136
   32.955    0.4280
   32.970    0.3959
   32.985    0.3424
   33.000    0.4387
   33.015    0.3424
   33.030    0.4280
   33.045    0.4601
   33.060    0.4922
   33.075    0.5243
   33.090    0.5243
   33.105    0.3317
   33.120    0.4173
   33.135    0.4387
   33.150    0.5671
   33.165    0.5564
   33.180    0.4815
   33.195    0.2782
   33.210    0.3424
   33.225    0.4708
   33.240    0.5564
   33.255    0.5243
   33.270    0.4708
   33.285    0.3638
   33.300    0.4601
   33.315    0.5243
   33.330    0.5243
   33.345    0.5029
   33.360    0.4387
   33.375    0.3210
   33.390    0.3852
   33.405    0.5136
   33.420    0.5136
   33.435    0.4708
   33.450    0.5136
   33.465    0.4601
   33.480    0.4494
   33.495    0.4815
   33.510    0.4922
   33.525    0.4387
   33.540    0.5671
   33.555    0.4601
   33.570    0.5243
   33.585    0.4708
   33.600    0.4173
   33.615    0.3852
   33.630    0.4601
   33.645    0.3424
   33.660    0.4708
   33.675    0.5243
   33.690    0.4280
   33.705    0.5243
   33.720    0.3210
   33.735    0.4922
   33.750    0.5671
   33.765    0.5136
   33.780    0.5029
   33.795    0.4387
   33.810    0.3317
   33.825    0.4280
   33.840    0.5136
   33.855    0.4922
   33.870    0.3852
   33.885    0.4280
   33.900    0.4387
   33.915    0.5136
   33.930    0.4601
   33.945    0.4494
   33.960    0.5136
   33.975    0.4494
   33.990    0.4280
   34.005    0.2782
   34.020    0.3103
   34.035    0.4173
   34.050    0.5136
   34.065    0.2996
   34.080    0.4815
   34.095    0.4708
   34.110    0.4708
   34.125    0.4601
   34.140    0.3531
   34.155    0.4708
   34.170    0.4387
   34.185    0.5029
   34.200    0.4601
   34.215    0.4387
   34.230    0.3745
   34.245    0.4387
   34.260    0.4066
   34.275    0.4387
   34.290    0.4173
   34.305    0.4173
   34.320    0.4066
   34.335    0.4066
   34.350    0.4280
   34.365    0.4815
   34.380    0.3745
   34.395    0.3852
   34.410    0.4601
   34.425    0.4066
   34.440    0.3210
   34.455    0.4815
   34.470    0.5029
   34.485    0.4601
   34.500    0.4280
   34.515    0.4922
   34.530    0.4066
   34.545    0.3638
   34.560    0.3531
   34.575    0.4601
   34.590    0.3959
   34.605    0.2996
   34.620    0.3210
   34.635    0.3210
   34.650    0.4601
   34.665    0.4066
   34.680    0.3424
   34.695    0.3959
   34.710    0.3638
   34.725    0.4173
   34.740    0.4708
   34.755    0.4280
   34.770    0.4280
   34.785    0.3317
   34.800    0.4173
   34.815    0.4066
   34.830    0.5564
   34.845    0.3852
   34.860    0.3531
   34.875    0.2996
   34.890    0.3531
   34.905    0.3959
   34.920    0.3959
   34.935    0.3852
   34.950    0.3317
   34.965    0.4280
   34.980    0.4922
   34.995    0.3638
   35.010    0.3103
   35.025    0.3531
   35.040    0.3210
   35.055    0.3852
   35.070    0.3959
   35.085    0.3210
   35.100    0.2996
   35.115    0.4601
   35.130    0.3638
   35.145    0.3959
   35.160    0.3424
   35.175    0.3317
   35.190    0.4494
   35.205    0.4387
   35.220    0.3531
   35.235    0.3959
   35.250    0.3424
   35.265    0.2889
   35.280    0.3959
   35.295    0.4494
   35.310    0.3852
   35.325    0.4601
   35.340    0.3852
   35.355    0.4387
   35.370    0.3103
   35.385    0.3531
   35.400    0.3745
   35.415    0.2996
   35.430    0.4815
   35.445    0.3745
   35.460    0.3424
   35.475    0.3638
   35.490    0.3638
   35.505    0.2996
   35.520    0.3317
   35.535    0.2996
   35.550    0.4173
   35.565    0.4173
   35.580    0.3424
   35.595    0.2782
   35.610    0.3852
   35.625    0.4387
   35.640    0.4280
   35.655    0.5136
   35.670    0.3317
   35.685    0.2782
   35.700    0.4173
   35.715    0.4387
   35.730    0.4708
   35.745    0.3852
   35.760    0.4280
   35.775    0.3852
   35.790    0.4173
   35.805    0.4173
   35.820    0.4601
   35.835    0.3959
   35.850    0.4387
   35.865    0.3531
   35.880    0.3959
   35.895    0.2996
   35.910    0.4066
   35.925    0.3424
   35.940    0.3210
   35.955    0.3424
   35.970    0.3317
   35.985    0.3103
   36.000    0.3424
   36.015    0.3745
   36.030    0.4173
   36.045    0.3852
   36.060    0.3531
   36.075    0.3531
   36.090    0.3638
   36.105    0.3424
   36.120    0.3852
   36.135    0.3531
   36.150    0.3103
   36.165    0.3424
   36.180    0.3317
   36.195    0.4387
   36.210    0.3638
   36.225    0.3959
   36.240    0.3210
   36.255    0.3210
   36.270    0.4494
   36.285    0.2889
   36.300    0.3210
   36.315    0.3424
   36.330    0.3638
   36.345    0.3852
   36.360    0.3424
   36.375    0.3210
   36.390    0.3638
   36.405    0.2782
   36.420    0.4066
   36.435    0.3317
   36.450    0.2889
   36.465    0.4280
   36.480    0.4173
   36.495    0.3959
   36.510    0.4173
   36.525    0.2996
   36.540    0.2996
   36.555    0.3103
   36.570    0.2675
   36.585    0.2889
   36.600    0.3638
   36.615    0.3638
   36.630    0.3317
   36.645    0.2996
   36.660    0.3210
   36.675    0.3210
   36.690    0.4173
   36.705    0.3317
   36.720    0.3103
   36.735    0.4387
   36.750    0.3745
   36.765    0.2996
   36.780    0.3424
   36.795    0.3103
   36.810    0.3531
   36.825    0.3638
   36.840    0.3424
   36.855    0.3638
   36.870    0.2996
   36.885    0.3531
   36.900    0.3210
   36.915    0.3424
   36.930    0.2996
   36.945    0.3638
   36.960    0.2889
   36.975    0.3103
   36.990    0.4173
   37.005    0.4280
   37.020    0.5457
   37.035    0.4173
   37.050    0.3103
   37.065    0.4066
   37.080    0.3531
   37.095    0.3103
   37.110    0.3424
   37.125    0.2889
   37.140    0.2782
   37.155    0.3531
   37.170    0.2889
   37.185    0.3531
   37.200    0.3852
   37.215    0.4173
   37.230    0.3210
   37.245    0.3103
   37.260    0.2996
   37.275    0.2782
   37.290    0.3745
   37.305    0.3959
   37.320    0.2996
   37.335    0.3531
   37.350    0.2782
   37.365    0.2247
   37.380    0.2675
   37.395    0.3531
   37.410    0.3103
   37.425    0.4494
   37.440    0.5029
   37.455    0.4601
   37.470    0.4066
   37.485    0.3638
   37.500    0.2889
   37.515    0.4066
   37.530    0.3424
   37.545    0.3852
   37.560    0.2996
   37.575    0.3638
   37.590    0.2675
   37.605    0.2889
   37.620    0.3638
   37.635    0.3317
   37.650    0.2996
   37.665    0.2996
   37.680    0.2568
   37.695    0.3317
   37.710    0.3745
   37.725    0.3103
   37.740    0.3638
   37.755    0.3424
   37.770    0.3103
   37.785    0.3317
   37.800    0.2996
   37.815    0.2996
   37.830    0.2889
   37.845    0.2996
   37.860    0.3638
   37.875    0.2782
   37.890    0.3317
   37.905    0.3317
   37.920    0.3103
   37.935    0.2782
   37.950    0.2996
   37.965    0.3317
   37.980    0.3424
   37.995    0.3959
   38.010    0.3638
   38.025    0.3210
   38.040    0.3210
   38.055    0.3531
   38.070    0.3103
   38.085    0.3103
   38.100    0.3959
   38.115    0.3103
   38.130    0.3317
   38.145    0.3638
   38.160    0.3103
   38.175    0.3103
   38.190    0.2782
   38.205    0.2782
   38.220    0.2247
   38.235    0.3745
   38.250    0.3210
   38.265    0.2675
   38.280    0.3317
   38.295    0.2996
   38.310    0.3424
   38.325    0.3317
   38.340    0.2461
   38.355    0.3317
   38.370    0.3531
   38.385    0.2996
   38.400    0.2889
   38.415    0.2782
   38.430    0.3210
   38.445    0.3852
   38.460    0.2996
   38.475    0.3317
   38.490    0.3424
   38.505    0.2568
   38.520    0.3210
   38.535    0.3424
   38.550    0.3210
   38.565    0.3317
   38.580    0.3103
   38.595    0.3424
   38.610    0.2996
   38.625    0.2889
   38.640    0.2675
   38.655    0.2996
   38.670    0.4066
   38.685    0.3852
   38.700    0.2354
   38.715    0.2889
   38.730    0.3103
   38.745    0.3103
   38.760    0.2675
   38.775    0.2996
   38.790    0.2996
   38.805    0.2568
   38.820    0.2996
   38.835    0.3103
   38.850    0.3210
   38.865    0.2568
   38.880    0.3424
   38.895    0.2140
   38.910    0.3210
   38.925    0.3103
   38.940    0.2675
   38.955    0.3103
   38.970    0.3210
   38.985    0.2889
   39.000    0.2996
   39.015    0.3210
   39.030    0.2996
   39.045    0.2675
   39.060    0.1926
   39.075    0.2568
   39.090    0.2782
   39.105    0.2889
   39.120    0.3424
   39.135    0.2996
   39.150    0.2568
   39.165    0.3531
   39.180    0.2140
   39.195    0.2889
   39.210    0.3210
   39.225    0.3317
   39.240    0.2675
   39.255    0.2782
   39.270    0.3103
   39.285    0.2140
   39.300    0.2889
   39.315    0.3317
   39.330    0.3103
   39.345    0.3424
   39.360    0.2140
   39.375    0.3531
   39.390    0.3852
   39.405    0.3210
   39.420    0.2996
   39.435    0.2996
   39.450    0.3531
   39.465    0.3210
   39.480    0.2889
   39.495    0.2675
   39.510    0.2568
   39.525    0.2996
   39.540    0.2354
   39.555    0.3424
   39.570    0.3103
   39.585    0.2996
   39.600    0.2247
   39.615    0.2354
   39.630    0.1819
   39.645    0.1819
   39.660    0.2568
   39.675    0.2354
   39.690    0.2140
   39.705    0.2033
   39.720    0.1926
   39.735    0.2889
   39.750    0.2675
   39.765    0.2140
   39.780    0.1819
   39.795    0.2568
   39.810    0.2889
   39.825    0.2568
   39.840    0.2140
   39.855    0.2675
   39.870    0.2461
   39.885    0.2996
   39.900    0.2782
   39.915    0.2354
   39.930    0.2675
   39.945    0.3210
   39.960    0.3103
   39.975    0.2568
   39.990    0.2568
