    1.500   10.3739
    1.515   10.6723
    1.530   10.0755
    1.545   10.0053
    1.560    9.8824
    1.575   11.0409
    1.590   10.5845
    1.605   10.0053
    1.620   10.3212
    1.635   10.2686
    1.650   10.2335
    1.665    9.8824
    1.680    9.6015
    1.695    9.8648
    1.710    9.4085
    1.725    9.4260
    1.740    9.5313
    1.755    9.7244
    1.770    9.5664
    1.785    9.9351
    1.800   10.4265
    1.815    9.4787
    1.830    9.5664
    1.845    9.6542
    1.860    9.8473
    1.875    9.5313
    1.890    9.5313
    1.905    9.5313
    1.920    9.3558
    1.935    9.3558
    1.950    9.3558
    1.965    9.3031
    1.980    9.5489
    1.995    9.5664
    2.010    9.6893
    2.025    9.3909
    2.040    9.5313
    2.055    9.5138
    2.070    8.7239
    2.085    8.7941
    2.100    9.7771
    2.115    9.8999
    2.130    9.0223
    2.145    9.0925
    2.160    9.7069
    2.175    9.0223
    2.190    9.7946
    2.205   10.3914
    2.220   10.6898
    2.235   10.1457
    2.250    9.6542
    2.265    9.7771
    2.280   10.2861
    2.295   10.0053
    2.310    9.8824
    2.325   10.0579
    2.340    9.3909
    2.355    9.7946
    2.370    9.8824
    2.385    9.8999
    2.400   10.0930
    2.415   10.5670
    2.430   10.4616
    2.445   10.0053
    2.460   10.1808
    2.475   10.5143
    2.490   10.8654
    2.505   11.1287
    2.520   10.5845
    2.535   11.2515
    2.550   11.0233
    2.565   11.3042
    2.580   11.6553
    2.595   11.7255
    2.610   11.6202
    2.625   11.8659
    2.640   12.5154
    2.655   11.8483
    2.670   12.4627
    2.685   12.0414
    2.700   12.5505
    2.715   12.9366
    2.730   12.3047
    2.745   13.1824
    2.760   13.4983
    2.775   13.0771
    2.790   14.0600
    2.805   13.2701
    2.820   13.3404
    2.835   14.4286
    2.850   14.8148
    2.865   14.4638
    2.880   15.6047
    2.895   15.3765
    2.910   15.7276
    2.925   17.1494
    2.940   15.7276
    2.955   15.8680
    2.970   16.7983
    2.985   16.6228
    3.000   17.1143
    3.015   17.5355
    3.030   18.3605
    3.045   19.2206
    3.060   20.6424
    3.075   19.6068
    3.090   19.9754
    3.105   19.9052
    3.120   21.4148
    3.135   22.5733
    3.150   22.8892
    3.165   22.7488
    3.180   22.0642
    3.195   22.7313
    3.210   24.3813
    3.225   25.3642
    3.240   25.6977
    3.255   26.0312
    3.270   27.8743
    3.285   28.3307
    3.300   28.4536
    3.315   30.7706
    3.330   30.4371
    3.345   31.2270
    3.360   31.5078
    3.375   33.4738
    3.390   34.3690
    3.405   35.9663
    3.420   37.5812
    3.435   37.5110
    3.450   39.9157
    3.465   40.7758
    3.480   41.8290
    3.495   44.2163
    3.510   45.9716
    3.525   47.7444
    3.540   50.0439
    3.555   52.7120
    3.570   54.6428
    3.585   57.9954
    3.600   60.2949
    3.615   64.1741
    3.630   67.2459
    3.645   72.3363
    3.660   75.7592
    3.675   79.8666
    3.690   85.0097
    3.705   89.6612
    3.720   97.1740
    3.735  106.3016
    3.750  115.9733
    3.765  129.2786
    3.780  140.9163
    3.795  160.7162
    3.810  191.6447
    3.825  224.0829
    3.840  240.4423
    3.855  218.9398
    3.870  174.5656
    3.885  127.2424
    3.900   82.6575
    3.915   47.9024
    3.930   25.9259
    3.945   15.9558
    3.960   11.6377
    3.975    9.6367
    3.990    8.9696
    4.005    7.3899
    4.020    7.1441
    4.035    6.6702
    4.050    6.6351
    4.065    6.7930
    4.080    6.7404
    4.095    6.2665
    4.110    6.4420
    4.125    6.3542
    4.140    6.1962
    4.155    5.9154
    4.170    5.8627
    4.185    5.8452
    4.200    5.7048
    4.215    5.4239
    4.230    5.7399
    4.245    5.8276
    4.260    5.5468
    4.275    5.5292
    4.290    5.4064
    4.305    5.4941
    4.320    5.5117
    4.335    6.0909
    4.350    6.0383
    4.365    6.4069
    4.380    5.8101
    4.395    5.7574
    4.410    6.0734
    4.425    6.0032
    4.440    6.3893
    4.455    6.4420
    4.470    6.7228
    4.485    6.3016
    4.500    6.3367
    4.515    5.8803
    4.530    6.2840
    4.545    6.3016
    4.560    6.4946
    4.575    6.5824
    4.590    6.9335
    4.605    7.1090
    4.620    7.3196
    4.635    7.0915
    4.650    7.6005
    4.665    7.4074
    4.680    8.7239
    4.695    8.7590
    4.710    9.1101
    4.725    8.8117
    4.740    8.5659
    4.755    8.3904
    4.770    7.4074
    4.785    7.3899
    4.800    7.1792
    4.815    6.8282
    4.830    7.2494
    4.845    6.5473
    4.860    6.6877
    4.875    7.3547
    4.890    7.0388
    4.905    7.0915
    4.920    7.3372
    4.935    7.7058
    4.950    7.6707
    4.965    7.5829
    4.980    8.0920
    4.995    8.4079
    5.010    8.6888
    5.025    8.0569
    5.040    8.9170
    5.055    9.3909
    5.070    9.7069
    5.085    9.6191
    5.100    9.4436
    5.115   10.5143
    5.130   10.8654
    5.145   11.1813
    5.160   10.6547
    5.175   11.6728
    5.190   11.5499
    5.205   11.7255
    5.220   12.8664
    5.235   13.0946
    5.250   14.2180
    5.265   14.9377
    5.280   15.9733
    5.295   16.5701
    5.310   17.4302
    5.325   18.5712
    5.340   20.6073
    5.355   20.3791
    5.370   22.8366
    5.385   25.6977
    5.400   28.4360
    5.415   32.0520
    5.430   37.2652
    5.445   42.5136
    5.460   45.2694
    5.475   44.3742
    5.490   37.0897
    5.505   29.1908
    5.520   20.7653
    5.535   13.9196
    5.550    9.1276
    5.565    6.7930
    5.580    5.8101
    5.595    5.4064
    5.610    5.2484
    5.625    4.8622
    5.640    4.8447
    5.655    4.5989
    5.670    4.6165
    5.685    4.3883
    5.700    4.9324
    5.715    5.0377
    5.730    4.9149
    5.745    5.0728
    5.760    4.7569
    5.775    4.6516
    5.790    4.5989
    5.805    4.5287
    5.820    5.0553
    5.835    5.1255
    5.850    4.7393
    5.865    4.3532
    5.880    4.8447
    5.895    4.6867
    5.910    4.8271
    5.925    4.7393
    5.940    4.8095
    5.955    4.6340
    5.970    5.0202
    5.985    4.4760
    6.000    4.6867
    6.015    4.5814
    6.030    4.6340
    6.045    4.6165
    6.060    4.6691
    6.075    4.5111
    6.090    4.6165
    6.105    4.9149
    6.120    5.1606
    6.135    5.0904
    6.150    5.0553
    6.165    4.9851
    6.180    4.8447
    6.195    4.9675
    6.210    4.6867
    6.225    4.6165
    6.240    4.7744
    6.255    4.9851
    6.270    4.8973
    6.285    4.6691
    6.300    4.5989
    6.315    5.3712
    6.330    5.6872
    6.345    5.3537
    6.360    5.2835
    6.375    5.5643
    6.390    5.3361
    6.405    5.4766
    6.420    5.7925
    6.435    5.3010
    6.450    5.6170
    6.465    5.6872
    6.480    5.9681
    6.495    6.0909
    6.510    5.7399
    6.525    6.4595
    6.540    6.8106
    6.555    7.0563
    6.570    7.1968
    6.585    6.9861
    6.600    7.6356
    6.615    7.9867
    6.630    8.6537
    6.645    9.3207
    6.660    9.8473
    6.675   11.6377
    6.690   12.9015
    6.705   13.3579
    6.720   13.1473
    6.735   11.8308
    6.750    9.1978
    6.765    7.7058
    6.780    6.4069
    6.795    5.8101
    6.810    4.6340
    6.825    4.6691
    6.840    4.7920
    6.855    4.3707
    6.870    4.3181
    6.885    4.6516
    6.900    4.5111
    6.915    3.9143
    6.930    4.0899
    6.945    4.4585
    6.960    4.2654
    6.975    4.1425
    6.990    4.0899
    7.005    4.0548
    7.020    3.9319
    7.035    4.0548
    7.050    4.3532
    7.065    4.5463
    7.080    4.5287
    7.095    4.3883
    7.110    4.6340
    7.125    4.5111
    7.140    4.7569
    7.155    4.2830
    7.170    4.3532
    7.185    4.0021
    7.200    4.4936
    7.215    4.7218
    7.230    4.3532
    7.245    4.4760
    7.260    4.7042
    7.275    4.4058
    7.290    4.2830
    7.305    4.1425
    7.320    4.6691
    7.335    4.5111
    7.350    4.9500
    7.365    5.2133
    7.380    4.8973
    7.395    4.8973
    7.410    4.8271
    7.425    4.9324
    7.440    5.4239
    7.455    5.3888
    7.470    5.3361
    7.485    5.2659
    7.500    5.3888
    7.515    5.6697
    7.530    5.9856
    7.545    6.3367
    7.560    6.3718
    7.575    6.7053
    7.590    7.1617
    7.605    7.2670
    7.620    7.3021
    7.635    7.8287
    7.650    8.0393
    7.665    8.3728
    7.680    9.4611
    7.695   10.0579
    7.710   11.5675
    7.725   12.7435
    7.740   15.0079
    7.755   15.5872
    7.770   14.9903
    7.785   14.2707
    7.800   11.5324
    7.815    8.9696
    7.830    6.7579
    7.845    5.6345
    7.860    4.6691
    7.875    4.1601
    7.890    4.2654
    7.905    4.2127
    7.920    3.9846
    7.935    3.8090
    7.950    4.0899
    7.965    3.5282
    7.980    4.0197
    7.995    4.2127
    8.010    4.2654
    8.025    4.3356
    8.040    4.0723
    8.055    4.1601
    8.070    4.2127
    8.085    4.3532
    8.100    4.4058
    8.115    4.2654
    8.130    4.0021
    8.145    4.2478
    8.160    4.4409
    8.175    4.2127
    8.190    4.5814
    8.205    4.5111
    8.220    4.3707
    8.235    4.8095
    8.250    4.8271
    8.265    4.8271
    8.280    4.2127
    8.295    4.3356
    8.310    3.9143
    8.325    3.9494
    8.340    4.1425
    8.355    3.9143
    8.370    4.2830
    8.385    4.0723
    8.400    3.7213
    8.415    4.3532
    8.430    3.9143
    8.445    3.8441
    8.460    4.2478
    8.475    4.3532
    8.490    3.7915
    8.505    4.0548
    8.520    4.4058
    8.535    4.2478
    8.550    4.1952
    8.565    4.2303
    8.580    4.1074
    8.595    4.3356
    8.610    4.5638
    8.625    4.4409
    8.640    4.3356
    8.655    4.8798
    8.670    5.0202
    8.685    5.2835
    8.700    4.7744
    8.715    4.8798
    8.730    4.2654
    8.745    4.2830
    8.760    4.0723
    8.775    3.9494
    8.790    4.1601
    8.805    3.4755
    8.820    3.5457
    8.835    3.9846
    8.850    4.1074
    8.865    4.3005
    8.880    3.8792
    8.895    3.9670
    8.910    3.6686
    8.925    3.7739
    8.940    3.7564
    8.955    3.8617
    8.970    4.3181
    8.985    3.8968
    9.000    4.0021
    9.015    3.8968
    9.030    4.0021
    9.045    4.3005
    9.060    4.4585
    9.075    4.0899
    9.090    4.3005
    9.105    4.5287
    9.120    4.9851
    9.135    4.9851
    9.150    4.9149
    9.165    4.8798
    9.180    5.3712
    9.195    5.3537
    9.210    5.5819
    9.225    5.4590
    9.240    5.7574
    9.255    5.7048
    9.270    6.1962
    9.285    6.5473
    9.300    6.0734
    9.315    6.9686
    9.330    7.3372
    9.345    7.3021
    9.360    8.4430
    9.375    9.0047
    9.390    8.6537
    9.405    9.4611
    9.420   10.7952
    9.435   11.3569
    9.450   12.8313
    9.465   14.8850
    9.480   17.5180
    9.495   20.5722
    9.510   22.4680
    9.525   23.8898
    9.540   22.4855
    9.555   19.6244
    9.570   14.9377
    9.585   11.9712
    9.600    8.5835
    9.615    6.2313
    9.630    4.8622
    9.645    4.4234
    9.660    4.0372
    9.675    3.8441
    9.690    4.0197
    9.705    4.0372
    9.720    3.6510
    9.735    4.2127
    9.750    4.2127
    9.765    4.1425
    9.780    3.9143
    9.795    4.0723
    9.810    4.4058
    9.825    4.0372
    9.840    4.0899
    9.855    4.0899
    9.870    4.2478
    9.885    4.0723
    9.900    3.7915
    9.915    3.8792
    9.930    4.1074
    9.945    4.1250
    9.960    4.2478
    9.975    4.1425
    9.990    3.9143
   10.005    4.1601
   10.020    4.2303
   10.035    4.4585
   10.050    4.5463
   10.065    4.1074
   10.080    4.6340
   10.095    4.7569
   10.110    4.7218
   10.125    5.2835
   10.140    4.9851
   10.155    4.8447
   10.170    5.6521
   10.185    5.4239
   10.200    6.1436
   10.215    6.1611
   10.230    6.4771
   10.245    7.3723
   10.260    7.8111
   10.275    9.5313
   10.290   10.6372
   10.305    9.8648
   10.320    8.5484
   10.335    7.4601
   10.350    6.3718
   10.365    5.8978
   10.380    4.7393
   10.395    4.0021
   10.410    3.5457
   10.425    3.3351
   10.440    3.4580
   10.455    3.4404
   10.470    3.5282
   10.485    3.8441
   10.500    4.1601
   10.515    3.8090
   10.530    3.7213
   10.545    3.9670
   10.560    3.7213
   10.575    3.4580
   10.590    3.7213
   10.605    3.5457
   10.620    3.5984
   10.635    3.8968
   10.650    4.1250
   10.665    4.3181
   10.680    3.9846
   10.695    4.2830
   10.710    4.5287
   10.725    4.2303
   10.740    4.1776
   10.755    4.4760
   10.770    4.4585
   10.785    4.1776
   10.800    4.3181
   10.815    4.7393
   10.830    4.9500
   10.845    5.2484
   10.860    5.2835
   10.875    5.2659
   10.890    5.4590
   10.905    5.6170
   10.920    6.0383
   10.935    6.5473
   10.950    6.9861
   10.965    7.8638
   10.980    9.3031
   10.995   10.1457
   11.010   10.4968
   11.025   10.1808
   11.040    9.2856
   11.055    8.1973
   11.070    6.7053
   11.085    5.7048
   11.100    4.7042
   11.115    4.3707
   11.130    4.2654
   11.145    4.1601
   11.160    3.8968
   11.175    4.0372
   11.190    4.0899
   11.205    3.7564
   11.220    3.7388
   11.235    3.7213
   11.250    4.0548
   11.265    4.1952
   11.280    3.8090
   11.295    4.0197
   11.310    4.1952
   11.325    4.4234
   11.340    4.1601
   11.355    4.7042
   11.370    4.1601
   11.385    4.2303
   11.400    4.2478
   11.415    4.3532
   11.430    4.1425
   11.445    4.2478
   11.460    4.4058
   11.475    4.4409
   11.490    4.3005
   11.505    4.7218
   11.520    5.2133
   11.535    5.3712
   11.550    5.6521
   11.565    5.3537
   11.580    5.5468
   11.595    6.1085
   11.610    6.6877
   11.625    7.4952
   11.640    8.3904
   11.655    9.1978
   11.670   10.1106
   11.685   10.6196
   11.700   10.5143
   11.715   10.0755
   11.730    8.4079
   11.745    7.0915
   11.760    5.6345
   11.775    4.4409
   11.790    4.0197
   11.805    4.0021
   11.820    3.7739
   11.835    3.5282
   11.850    3.4053
   11.865    3.6159
   11.880    3.8266
   11.895    3.6510
   11.910    3.6159
   11.925    3.7037
   11.940    3.7739
   11.955    3.5984
   11.970    3.4580
   11.985    3.4229
   12.000    3.4931
   12.015    3.7388
   12.030    3.5457
   12.045    3.6686
   12.060    3.5633
   12.075    3.9670
   12.090    3.7388
   12.105    3.8968
   12.120    3.5457
   12.135    3.8266
   12.150    3.8266
   12.165    3.5808
   12.180    3.5457
   12.195    3.4931
   12.210    3.8792
   12.225    3.9494
   12.240    4.1250
   12.255    4.1074
   12.270    4.3181
   12.285    4.1776
   12.300    3.9143
   12.315    4.1425
   12.330    4.4760
   12.345    4.3707
   12.360    4.4936
   12.375    4.5463
   12.390    4.2303
   12.405    3.9670
   12.420    3.5457
   12.435    3.3175
   12.450    3.4053
   12.465    3.4931
   12.480    3.5984
   12.495    3.8090
   12.510    3.8617
   12.525    3.5808
   12.540    3.9143
   12.555    3.8090
   12.570    3.7037
   12.585    3.9494
   12.600    3.8266
   12.615    4.0197
   12.630    3.7739
   12.645    3.5984
   12.660    3.7564
   12.675    3.8792
   12.690    4.0372
   12.705    4.1601
   12.720    4.1250
   12.735    4.0899
   12.750    3.8441
   12.765    4.3181
   12.780    4.2127
   12.795    4.2478
   12.810    4.7920
   12.825    4.5638
   12.840    4.7920
   12.855    5.2835
   12.870    5.8978
   12.885    5.9856
   12.900    6.9686
   12.915    7.7760
   12.930    8.3904
   12.945    8.3202
   12.960    7.6883
   12.975    6.0734
   12.990    5.6345
   13.005    4.7920
   13.020    4.3883
   13.035    3.9846
   13.050    3.8441
   13.065    3.5633
   13.080    3.3351
   13.095    3.5984
   13.110    3.5282
   13.125    3.5984
   13.140    3.4580
   13.155    3.4580
   13.170    3.5457
   13.185    3.5984
   13.200    4.0197
   13.215    3.8792
   13.230    3.1596
   13.245    3.5808
   13.260    3.8441
   13.275    3.5282
   13.290    3.6335
   13.305    3.7915
   13.320    4.1776
   13.335    3.8441
   13.350    3.7213
   13.365    3.7388
   13.380    4.0723
   13.395    3.9670
   13.410    3.8617
   13.425    4.3883
   13.440    4.3883
   13.455    4.8622
   13.470    5.0904
   13.485    5.8101
   13.500    6.0558
   13.515    6.2313
   13.530    5.6170
   13.545    5.4941
   13.560    5.2308
   13.575    4.4936
   13.590    4.4409
   13.605    4.0021
   13.620    3.9494
   13.635    3.5457
   13.650    3.6159
   13.665    3.6159
   13.680    3.4580
   13.695    3.6686
   13.710    3.7213
   13.725    3.4404
   13.740    3.4580
   13.755    3.5282
   13.770    3.3877
   13.785    3.4053
   13.800    3.8441
   13.815    3.8090
   13.830    3.8792
   13.845    3.6335
   13.860    3.9494
   13.875    3.9319
   13.890    4.0021
   13.905    4.1952
   13.920    4.2303
   13.935    4.9675
   13.950    4.9149
   13.965    4.7920
   13.980    4.6516
   13.995    5.0377
   14.010    5.7048
   14.025    6.1260
   14.040    6.2489
   14.055    7.5303
   14.070    8.2149
   14.085    7.5478
   14.100    6.9861
   14.115    6.2489
   14.130    5.2308
   14.145    4.8798
   14.160    4.2830
   14.175    3.9846
   14.190    3.3526
   14.205    3.7037
   14.220    3.8090
   14.235    3.3000
   14.250    3.5984
   14.265    3.3526
   14.280    3.1947
   14.295    3.1420
   14.310    3.2298
   14.325    3.3877
   14.340    3.3351
   14.355    3.5633
   14.370    3.3877
   14.385    3.3877
   14.400    3.5457
   14.415    3.7564
   14.430    3.7564
   14.445    3.6686
   14.460    3.7037
   14.475    3.5808
   14.490    3.2824
   14.505    3.1420
   14.520    3.1069
   14.535    2.9840
   14.550    2.9489
   14.565    3.3000
   14.580    3.1947
   14.595    3.4755
   14.610    3.4229
   14.625    3.5282
   14.640    3.5106
   14.655    3.2649
   14.670    3.2298
   14.685    3.5106
   14.700    3.3877
   14.715    3.4404
   14.730    3.0016
   14.745    3.0542
   14.760    3.7388
   14.775    3.5106
   14.790    3.5984
   14.805    3.6862
   14.820    3.8090
   14.835    3.6159
   14.850    3.4404
   14.865    3.3000
   14.880    3.7915
   14.895    3.5984
   14.910    3.7564
   14.925    3.5282
   14.940    3.1947
   14.955    3.2824
   14.970    3.4404
   14.985    3.2824
   15.000    3.2473
   15.015    3.3526
   15.030    3.6159
   15.045    4.0548
   15.060    4.2127
   15.075    4.1601
   15.090    4.2654
   15.105    4.1250
   15.120    4.2830
   15.135    4.0723
   15.150    3.6862
   15.165    3.9319
   15.180    4.1601
   15.195    4.3883
   15.210    4.2830
   15.225    3.7388
   15.240    3.6510
   15.255    3.0016
   15.270    3.5457
   15.285    3.4229
   15.300    3.5984
   15.315    3.3175
   15.330    3.5984
   15.345    3.8617
   15.360    3.1596
   15.375    2.8085
   15.390    3.1069
   15.405    3.1596
   15.420    3.4755
   15.435    3.1771
   15.450    3.0893
   15.465    3.1245
   15.480    3.4229
   15.495    3.4931
   15.510    3.1947
   15.525    3.0718
   15.540    3.2824
   15.555    3.2649
   15.570    3.3175
   15.585    3.4053
   15.600    3.2473
   15.615    3.1069
   15.630    3.1420
   15.645    3.3351
   15.660    3.5457
   15.675    3.4580
   15.690    3.0016
   15.705    3.1947
   15.720    3.5633
   15.735    3.5633
   15.750    3.2824
   15.765    3.0893
   15.780    3.1069
   15.795    3.3702
   15.810    3.4404
   15.825    3.4580
   15.840    4.0197
   15.855    3.4580
   15.870    3.4931
   15.885    3.7388
   15.900    3.5106
   15.915    3.2824
   15.930    3.4755
   15.945    3.6862
   15.960    3.6686
   15.975    3.6862
   15.990    3.7388
   16.005    3.4404
   16.020    3.7213
   16.035    3.7564
   16.050    3.8792
   16.065    3.8617
   16.080    4.5463
   16.095    4.3532
   16.110    4.3532
   16.125    4.7042
   16.140    4.4234
   16.155    4.4409
   16.170    3.9143
   16.185    3.6686
   16.200    3.5984
   16.215    3.7388
   16.230    3.5984
   16.245    3.5984
   16.260    3.5282
   16.275    3.2122
   16.290    3.5106
   16.305    3.7739
   16.320    3.1771
   16.335    3.5106
   16.350    3.5633
   16.365    3.5808
   16.380    3.5808
   16.395    3.5282
   16.410    3.5984
   16.425    3.4580
   16.440    3.5457
   16.455    3.5106
   16.470    3.7213
   16.485    3.6862
   16.500    3.4053
   16.515    3.5984
   16.530    3.5808
   16.545    4.3005
   16.560    4.5287
   16.575    4.6165
   16.590    4.7218
   16.605    4.4760
   16.620    4.2830
   16.635    4.1601
   16.650    3.8792
   16.665    4.0197
   16.680    3.7388
   16.695    3.7564
   16.710    3.6335
   16.725    3.6335
   16.740    3.8968
   16.755    3.6335
   16.770    3.7739
   16.785    3.4229
   16.800    3.4580
   16.815    3.8266
   16.830    3.8792
   16.845    3.8617
   16.860    3.6335
   16.875    3.8441
   16.890    4.3005
   16.905    4.2303
   16.920    4.2478
   16.935    4.5463
   16.950    4.2303
   16.965    4.7744
   16.980    5.1255
   16.995    4.8447
   17.010    5.7223
   17.025    6.1085
   17.040    5.8627
   17.055    6.7579
   17.070    6.3718
   17.085    6.0558
   17.100    5.5292
   17.115    4.7042
   17.130    4.3707
   17.145    3.5808
   17.160    3.8090
   17.175    3.7915
   17.190    3.3526
   17.205    3.7213
   17.220    3.3877
   17.235    3.0542
   17.250    3.4404
   17.265    3.2473
   17.280    3.4404
   17.295    3.3526
   17.310    3.5633
   17.325    3.2649
   17.340    3.0893
   17.355    3.4404
   17.370    3.3000
   17.385    3.3526
   17.400    3.5282
   17.415    3.7915
   17.430    3.4053
   17.445    3.5457
   17.460    4.2127
   17.475    3.8617
   17.490    3.8968
   17.505    3.9319
   17.520    4.0548
   17.535    3.9143
   17.550    3.9846
   17.565    3.6686
   17.580    3.3877
   17.595    3.4931
   17.610    3.3526
   17.625    3.3175
   17.640    3.3526
   17.655    3.6335
   17.670    3.4580
   17.685    3.4404
   17.700    3.5808
   17.715    3.5457
   17.730    3.2298
   17.745    3.3526
   17.760    3.5457
   17.775    3.7388
   17.790    3.7388
   17.805    3.2122
   17.820    3.3351
   17.835    3.1420
   17.850    3.6159
   17.865    3.8266
   17.880    3.7915
   17.895    3.5457
   17.910    3.4931
   17.925    4.0723
   17.940    4.1952
   17.955    4.2478
   17.970    4.4936
   17.985    4.0372
   18.000    3.9846
   18.015    3.6159
   18.030    3.8617
   18.045    3.6335
   18.060    3.4053
   18.075    3.2473
   18.090    3.6335
   18.105    3.3526
   18.120    3.1947
   18.135    3.2122
   18.150    3.1069
   18.165    3.4404
   18.180    3.3526
   18.195    3.5457
   18.210    3.8968
   18.225    3.4931
   18.240    4.1425
   18.255    4.1776
   18.270    4.0548
   18.285    3.6159
   18.300    3.8968
   18.315    4.0197
   18.330    4.0197
   18.345    4.3883
   18.360    4.4936
   18.375    4.5989
   18.390    4.3181
   18.405    4.0021
   18.420    3.7564
   18.435    3.6335
   18.450    3.7213
   18.465    3.4580
   18.480    3.2473
   18.495    3.1420
   18.510    3.2122
   18.525    3.3702
   18.540    3.4053
   18.555    3.5808
   18.570    3.2473
   18.585    3.0893
   18.600    3.2824
   18.615    3.6510
   18.630    3.4931
   18.645    3.4755
   18.660    3.2298
   18.675    3.2649
   18.690    3.5457
   18.705    3.4755
   18.720    3.3000
   18.735    3.5457
   18.750    4.2478
   18.765    3.4580
   18.780    3.9670
   18.795    4.1425
   18.810    3.9494
   18.825    3.6335
   18.840    3.4931
   18.855    3.2298
   18.870    3.3175
   18.885    3.2649
   18.900    3.3175
   18.915    3.3351
   18.930    3.2824
   18.945    3.1596
   18.960    3.5282
   18.975    3.3702
   18.990    3.2473
   19.005    3.2649
   19.020    3.0016
   19.035    3.0191
   19.050    3.5106
   19.065    3.5282
   19.080    3.0367
   19.095    3.4931
   19.110    3.4229
   19.125    3.4580
   19.140    3.2649
   19.155    3.4755
   19.170    3.5282
   19.185    3.3526
   19.200    3.4755
   19.215    3.4229
   19.230    3.3175
   19.245    3.3877
   19.260    3.2824
   19.275    3.1947
   19.290    3.4755
   19.305    3.6862
   19.320    3.4229
   19.335    3.4931
   19.350    3.4580
   19.365    3.5457
   19.380    3.6335
   19.395    3.3526
   19.410    3.6159
   19.425    3.2649
   19.440    3.6686
   19.455    3.7037
   19.470    3.7915
   19.485    3.7388
   19.500    3.8968
   19.515    3.6510
   19.530    4.2303
   19.545    4.2830
   19.560    4.0899
   19.575    4.2654
   19.590    4.7393
   19.605    4.5111
   19.620    4.5463
   19.635    4.1952
   19.650    4.0899
   19.665    4.1601
   19.680    3.6335
   19.695    3.5106
   19.710    3.6686
   19.725    3.8266
   19.740    3.4931
   19.755    3.6862
   19.770    3.6862
   19.785    3.3000
   19.800    3.5808
   19.815    3.3351
   19.830    3.6686
   19.845    3.6862
   19.860    3.3000
   19.875    3.2298
   19.890    3.4229
   19.905    3.6510
   19.920    3.4580
   19.935    3.3877
   19.950    3.7388
   19.965    3.7564
   19.980    3.2473
   19.995    3.7213
   20.010    3.6510
   20.025    3.3877
   20.040    3.5106
   20.055    3.5282
   20.070    3.6159
   20.085    3.3526
   20.100    3.7388
   20.115    3.7388
   20.130    3.5282
   20.145    3.5808
   20.160    3.7739
   20.175    3.5633
   20.190    3.7388
   20.205    3.8441
   20.220    3.9494
   20.235    3.9670
   20.250    3.7915
   20.265    3.9494
   20.280    4.3532
   20.295    4.6867
   20.310    5.1080
   20.325    5.4415
   20.340    5.4766
   20.355    5.7223
   20.370    6.3542
   20.385    5.7399
   20.400    6.1787
   20.415    5.8276
   20.430    4.8447
   20.445    4.7393
   20.460    4.1425
   20.475    4.0197
   20.490    4.0021
   20.505    3.5984
   20.520    3.7915
   20.535    3.5633
   20.550    3.4404
   20.565    3.6510
   20.580    3.4755
   20.595    3.1069
   20.610    3.3175
   20.625    3.3702
   20.640    3.0367
   20.655    3.3175
   20.670    3.1771
   20.685    3.5106
   20.700    3.7213
   20.715    3.3351
   20.730    3.2298
   20.745    3.6862
   20.760    3.6335
   20.775    3.4229
   20.790    3.3702
   20.805    3.3000
   20.820    3.4053
   20.835    3.7213
   20.850    3.7388
   20.865    3.5282
   20.880    3.6159
   20.895    3.3175
   20.910    3.5106
   20.925    3.6510
   20.940    3.6862
   20.955    3.7739
   20.970    3.5106
   20.985    3.5633
   21.000    3.8968
   21.015    3.6510
   21.030    3.2122
   21.045    3.2122
   21.060    3.1947
   21.075    3.3877
   21.090    3.4755
   21.105    3.4931
   21.120    3.5457
   21.135    3.6159
   21.150    3.5457
   21.165    3.8792
   21.180    3.6335
   21.195    3.9846
   21.210    3.7564
   21.225    3.4580
   21.240    3.6159
   21.255    3.4404
   21.270    3.3351
   21.285    3.7564
   21.300    3.5633
   21.315    3.5106
   21.330    3.6686
   21.345    3.9846
   21.360    3.5633
   21.375    3.2473
   21.390    3.4404
   21.405    3.4755
   21.420    3.4404
   21.435    3.6862
   21.450    3.6335
   21.465    3.5633
   21.480    3.6686
   21.495    3.6335
   21.510    3.5282
   21.525    3.5808
   21.540    3.3526
   21.555    3.7037
   21.570    3.4931
   21.585    3.3702
   21.600    3.4580
   21.615    3.3000
   21.630    3.0893
   21.645    3.6159
   21.660    3.7564
   21.675    3.7739
   21.690    3.5984
   21.705    3.5106
   21.720    3.6159
   21.735    3.7213
   21.750    3.6686
   21.765    3.7388
   21.780    4.1425
   21.795    4.4760
   21.810    4.3883
   21.825    4.3707
   21.840    4.0197
   21.855    4.1776
   21.870    4.5463
   21.885    4.0372
   21.900    4.3707
   21.915    4.1425
   21.930    4.1776
   21.945    3.7037
   21.960    3.5808
   21.975    3.7213
   21.990    3.7388
   22.005    3.5457
   22.020    3.4580
   22.035    3.5282
   22.050    3.1947
   22.065    3.5457
   22.080    3.8617
   22.095    3.6159
   22.110    3.6159
   22.125    3.4580
   22.140    3.8090
   22.155    4.0021
   22.170    4.0372
   22.185    3.9846
   22.200    3.9143
   22.215    4.1601
   22.230    4.1952
   22.245    4.1250
   22.260    4.2830
   22.275    3.9494
   22.290    3.8968
   22.305    3.7739
   22.320    4.1425
   22.335    4.1250
   22.350    3.9846
   22.365    4.3005
   22.380    4.2127
   22.395    4.2654
   22.410    4.3883
   22.425    4.2303
   22.440    4.2478
   22.455    4.5638
   22.470    4.8447
   22.485    4.7393
   22.500    5.0904
   22.515    5.0553
   22.530    5.4064
   22.545    6.4420
   22.560    6.4771
   22.575    6.3542
   22.590    6.1085
   22.605    5.1606
   22.620    5.3712
   22.635    4.4058
   22.650    4.4760
   22.665    3.8617
   22.680    4.0372
   22.695    3.6335
   22.710    3.7564
   22.725    3.9670
   22.740    4.0899
   22.755    4.1250
   22.770    4.1776
   22.785    4.4058
   22.800    4.1952
   22.815    4.7920
   22.830    5.0728
   22.845    4.9324
   22.860    5.5994
   22.875    6.7930
   22.890    6.5122
   22.905    6.4946
   22.920    6.8282
   22.935    6.0383
   22.950    5.6521
   22.965    5.5643
   22.980    5.1255
   22.995    4.4585
   23.010    4.1250
   23.025    3.8968
   23.040    3.5282
   23.055    3.7915
   23.070    3.6510
   23.085    4.0372
   23.100    4.3181
   23.115    4.1425
   23.130    3.6686
   23.145    3.8617
   23.160    3.6686
   23.175    4.0197
   23.190    4.1074
   23.205    4.0372
   23.220    4.3883
   23.235    3.9494
   23.250    4.5463
   23.265    3.9670
   23.280    4.0197
   23.295    3.7739
   23.310    3.9670
   23.325    4.0899
   23.340    3.5106
   23.355    3.5633
   23.370    3.5984
   23.385    3.3526
   23.400    3.1947
   23.415    2.9138
   23.430    3.2122
   23.445    3.3526
   23.460    3.6686
   23.475    3.6335
   23.490    3.4053
   23.505    3.5106
   23.520    3.5457
   23.535    3.4053
   23.550    3.8617
   23.565    3.3877
   23.580    3.6335
   23.595    3.5282
   23.610    3.3351
   23.625    3.5984
   23.640    3.6335
   23.655    3.8968
   23.670    3.5106
   23.685    3.6686
   23.700    3.6159
   23.715    3.2298
   23.730    3.6335
   23.745    3.5282
   23.760    3.4229
   23.775    3.5984
   23.790    3.6159
   23.805    3.8792
   23.820    3.6159
   23.835    3.8968
   23.850    3.8617
   23.865    4.2127
   23.880    3.9494
   23.895    4.3707
   23.910    4.6165
   23.925    4.0197
   23.940    4.4760
   23.955    3.8441
   23.970    4.0899
   23.985    3.7915
   24.000    3.8617
   24.015    3.7564
   24.030    3.4229
   24.045    3.5808
   24.060    3.4931
   24.075    3.3526
   24.090    3.4229
   24.105    3.2649
   24.120    3.4229
   24.135    3.4580
   24.150    3.4931
   24.165    3.6335
   24.180    3.5808
   24.195    3.7213
   24.210    3.5282
   24.225    3.7213
   24.240    3.7213
   24.255    3.5457
   24.270    3.4931
   24.285    3.3526
   24.300    3.4404
   24.315    3.1245
   24.330    3.3526
   24.345    3.8266
   24.360    3.3351
   24.375    3.4931
   24.390    3.2122
   24.405    3.2824
   24.420    3.5808
   24.435    3.5282
   24.450    3.5457
   24.465    3.8792
   24.480    3.5282
   24.495    4.0723
   24.510    3.6335
   24.525    3.3351
   24.540    3.2649
   24.555    3.5106
   24.570    3.9846
   24.585    3.7037
   24.600    3.4755
   24.615    4.0723
   24.630    3.7564
   24.645    3.6510
   24.660    3.5282
   24.675    3.3877
   24.690    3.4404
   24.705    3.5457
   24.720    3.5457
   24.735    3.5457
   24.750    3.8968
   24.765    3.6335
   24.780    3.4053
   24.795    3.3175
   24.810    3.4931
   24.825    3.5808
   24.840    3.6686
   24.855    3.7037
   24.870    3.7213
   24.885    3.7037
   24.900    3.7915
   24.915    3.3702
   24.930    3.3526
   24.945    3.4053
   24.960    3.5633
   24.975    3.4053
   24.990    3.2824
   25.005    3.5808
   25.020    3.5106
   25.035    3.3877
   25.050    3.8968
   25.065    3.6510
   25.080    3.5633
   25.095    3.6335
   25.110    3.5633
   25.125    3.2824
   25.140    3.5282
   25.155    3.5808
   25.170    3.6510
   25.185    4.0723
   25.200    3.8968
   25.215    4.0548
   25.230    3.8090
   25.245    3.5633
   25.260    3.4404
   25.275    3.8441
   25.290    3.5457
   25.305    3.5282
   25.320    3.4931
   25.335    3.1420
   25.350    3.3877
   25.365    3.3877
   25.380    3.5984
   25.395    3.4755
   25.410    3.3702
   25.425    3.4404
   25.440    3.6159
   25.455    3.6862
   25.470    3.7388
   25.485    3.8266
   25.500    3.9494
   25.515    4.1425
   25.530    3.9846
   25.545    3.4755
   25.560    3.5808
   25.575    3.6335
   25.590    3.4580
   25.605    3.3702
   25.620    3.3877
   25.635    3.4755
   25.650    3.8090
   25.665    3.4580
   25.680    3.8441
   25.695    3.9143
   25.710    3.9846
   25.725    4.1425
   25.740    4.2654
   25.755    4.5989
   25.770    4.7920
   25.785    4.8271
   25.800    5.4766
   25.815    4.7042
   25.830    5.1431
   25.845    5.0553
   25.860    5.0026
   25.875    4.6165
   25.890    4.5989
   25.905    4.2654
   25.920    4.1425
   25.935    3.5282
   25.950    3.4229
   25.965    3.3702
   25.980    3.7037
   25.995    3.4404
   26.010    3.4229
   26.025    3.0367
   26.040    3.6862
   26.055    3.5984
   26.070    3.4755
   26.085    3.2473
   26.100    3.1420
   26.115    3.5106
   26.130    3.5282
   26.145    3.6335
   26.160    3.5984
   26.175    3.4404
   26.190    3.3351
   26.205    3.8266
   26.220    3.7388
   26.235    3.3175
   26.250    3.3351
   26.265    3.2298
   26.280    3.2649
   26.295    3.6510
   26.310    3.2649
   26.325    3.5808
   26.340    3.5633
   26.355    3.6686
   26.370    3.8441
   26.385    3.6686
   26.400    3.8266
   26.415    3.4229
   26.430    3.7564
   26.445    4.0723
   26.460    3.5457
   26.475    3.8617
   26.490    3.9319
   26.505    3.7915
   26.520    3.5984
   26.535    3.5633
   26.550    3.3351
   26.565    3.3877
   26.580    3.1947
   26.595    3.5984
   26.610    3.4755
   26.625    3.1069
   26.640    3.1947
   26.655    3.2298
   26.670    3.2473
   26.685    3.0016
   26.700    3.1596
   26.715    3.4580
   26.730    3.8441
   26.745    3.3702
   26.760    3.5633
   26.775    3.2824
   26.790    3.2473
   26.805    3.4755
   26.820    3.1947
   26.835    3.4404
   26.850    3.3175
   26.865    3.1069
   26.880    3.2824
   26.895    3.5106
   26.910    3.4404
   26.925    3.6686
   26.940    3.4404
   26.955    3.4580
   26.970    3.9319
   26.985    4.3005
   27.000    4.0197
   27.015    4.2830
   27.030    4.1601
   27.045    3.3877
   27.060    3.8792
   27.075    3.8617
   27.090    3.7564
   27.105    3.4755
   27.120    3.2824
   27.135    3.6159
   27.150    3.6159
   27.165    3.3526
   27.180    3.3175
   27.195    3.3526
   27.210    3.6862
   27.225    3.4580
   27.240    3.2298
   27.255    3.2473
   27.270    2.9840
   27.285    3.5808
   27.300    3.1771
   27.315    3.1245
   27.330    3.2298
   27.345    3.6335
   27.360    3.7037
   27.375    3.8441
   27.390    3.7739
   27.405    3.5633
   27.420    3.4931
   27.435    3.2473
   27.450    3.4053
   27.465    3.3877
   27.480    3.4580
   27.495    3.7037
   27.510    3.4053
   27.525    3.7915
   27.540    3.8090
   27.555    3.8441
   27.570    4.1776
   27.585    3.8617
   27.600    3.8266
   27.615    3.8266
   27.630    3.6862
   27.645    3.6335
   27.660    3.7388
   27.675    3.8968
   27.690    3.8968
   27.705    3.5457
   27.720    3.6159
   27.735    3.7037
   27.750    3.4580
   27.765    3.4931
   27.780    3.2298
   27.795    3.8441
   27.810    3.8266
   27.825    3.3877
   27.840    3.7564
   27.855    3.5808
   27.870    3.3526
   27.885    3.7213
   27.900    3.7388
   27.915    3.8617
   27.930    3.4931
   27.945    3.9670
   27.960    4.0723
   27.975    3.4229
   27.990    3.7564
   28.005    3.5633
   28.020    3.4229
   28.035    3.6159
   28.050    3.7213
   28.065    3.6510
   28.080    3.9319
   28.095    4.2654
   28.110    3.9494
   28.125    3.6686
   28.140    3.4931
   28.155    3.7213
   28.170    3.7564
   28.185    4.0197
   28.200    4.0723
   28.215    3.8266
   28.230    4.0899
   28.245    3.5106
   28.260    3.5282
   28.275    3.7739
   28.290    3.2122
   28.305    3.3351
   28.320    3.3351
   28.335    3.5633
   28.350    3.7037
   28.365    3.5808
   28.380    4.1776
   28.395    3.9143
   28.410    3.8266
   28.425    4.3532
   28.440    4.3532
   28.455    3.7739
   28.470    4.0197
   28.485    3.7213
   28.500    3.4755
   28.515    3.8617
   28.530    3.9846
   28.545    3.6510
   28.560    3.5984
   28.575    3.8090
   28.590    3.7388
   28.605    3.4755
   28.620    3.3877
   28.635    3.6335
   28.650    3.5808
   28.665    3.5457
   28.680    3.3351
   28.695    3.4229
   28.710    3.2122
   28.725    3.2122
   28.740    3.2824
   28.755    3.5282
   28.770    3.5106
   28.785    3.6335
   28.800    3.4404
   28.815    3.3526
   28.830    3.2122
   28.845    2.8787
   28.860    3.0191
   28.875    2.9840
   28.890    3.2649
   28.905    3.5984
   28.920    3.3877
   28.935    3.4755
   28.950    3.5106
   28.965    3.3175
   28.980    3.3702
   28.995    3.4580
   29.010    3.1771
   29.025    3.0893
   29.040    3.1596
   29.055    3.5984
   29.070    3.5984
   29.085    3.3702
   29.100    3.2298
   29.115    3.2649
   29.130    3.3526
   29.145    3.3702
   29.160    3.3877
   29.175    3.5106
   29.190    3.9670
   29.205    3.4931
   29.220    3.8266
   29.235    4.0197
   29.250    3.8792
   29.265    3.7564
   29.280    3.8441
   29.295    3.8090
   29.310    3.6862
   29.325    3.8090
   29.340    3.8617
   29.355    3.4931
   29.370    3.8441
   29.385    3.1771
   29.400    2.7383
   29.415    3.3877
   29.430    3.3175
   29.445    3.1420
   29.460    3.1771
   29.475    3.5457
   29.490    3.3702
   29.505    3.2649
   29.520    3.1069
   29.535    3.3000
   29.550    3.1245
   29.565    3.1596
   29.580    2.8963
   29.595    3.1420
   29.610    3.5106
   29.625    3.1069
   29.640    3.3526
   29.655    3.2824
   29.670    3.3877
   29.685    3.7388
   29.700    3.1771
   29.715    3.2298
   29.730    3.3175
   29.745    3.4755
   29.760    3.6335
   29.775    3.7388
   29.790    3.7915
   29.805    3.6686
   29.820    3.1069
   29.835    3.1771
   29.850    3.3175
   29.865    3.2298
   29.880    3.5984
   29.895    3.1771
   29.910    3.4931
   29.925    3.5808
   29.940    2.9314
   29.955    3.1245
   29.970    3.2473
   29.985    3.0542
   30.000    3.4931
   30.015    3.3877
   30.030    3.1596
   30.045    3.4053
   30.060    3.3175
   30.075    2.7909
   30.090    3.4755
   30.105    3.2298
   30.120    3.3175
   30.135    3.2824
   30.150    2.8260
   30.165    3.0893
   30.180    3.3000
   30.195    3.3526
   30.210    3.3877
   30.225    3.3526
   30.240    3.1069
   30.255    3.4404
   30.270    3.2824
   30.285    3.1420
   30.300    2.9840
   30.315    3.3175
   30.330    3.4580
   30.345    3.3000
   30.360    3.5633
   30.375    3.7388
   30.390    3.2649
   30.405    3.3526
   30.420    3.2824
   30.435    3.3175
   30.450    3.4931
   30.465    3.3175
   30.480    3.2649
   30.495    3.1245
   30.510    3.0367
   30.525    3.1771
   30.540    3.4053
   30.555    3.3877
   30.570    3.3526
   30.585    3.5282
   30.600    3.8968
   30.615    3.4931
   30.630    3.2298
   30.645    3.3351
   30.660    3.5984
   30.675    3.8266
   30.690    3.6159
   30.705    3.5633
   30.720    3.3000
   30.735    3.0893
   30.750    2.9138
   30.765    2.9314
   30.780    3.3526
   30.795    3.5106
   30.810    3.3000
   30.825    3.2649
   30.840    3.0016
   30.855    2.8787
   30.870    3.0718
   30.885    3.2122
   30.900    3.2473
   30.915    3.2649
   30.930    3.3526
   30.945    3.1420
   30.960    3.3351
   30.975    3.3000
   30.990    3.4053
   31.005    3.1596
   31.020    3.0718
   31.035    3.2473
   31.050    3.0893
   31.065    3.2649
   31.080    3.0718
   31.095    3.1771
   31.110    3.0542
   31.125    3.2649
   31.140    3.1771
   31.155    3.2824
   31.170    3.5633
   31.185    3.0718
   31.200    3.0718
   31.215    2.9489
   31.230    3.1245
   31.245    2.8963
   31.260    3.2122
   31.275    2.9665
   31.290    2.9840
   31.305    2.8963
   31.320    3.4229
   31.335    3.4053
   31.350    3.4053
   31.365    3.1420
   31.380    3.4229
   31.395    3.3351
   31.410    3.1420
   31.425    3.4053
   31.440    3.7388
   31.455    3.4755
   31.470    3.5106
   31.485    3.0893
   31.500    3.3000
   31.515    3.4580
   31.530    3.2649
   31.545    2.8085
   31.560    3.0367
   31.575    3.0893
   31.590    3.4229
   31.605    3.3526
   31.620    3.1420
   31.635    3.1771
   31.650    3.0191
   31.665    2.7734
   31.680    2.9314
   31.695    2.8612
   31.710    3.0367
   31.725    3.5457
   31.740    3.2122
   31.755    3.4931
   31.770    2.8612
   31.785    2.9489
   31.800    2.9840
   31.815    3.0191
   31.830    2.9314
   31.845    3.2298
   31.860    3.0191
   31.875    3.1420
   31.890    2.8787
   31.905    3.3526
   31.920    3.2824
   31.935    3.3351
   31.950    3.4931
   31.965    3.3526
   31.980    3.4404
   31.995    3.4053
   32.010    3.0016
   32.025    3.2122
   32.040    2.9665
   32.055    2.9314
   32.070    3.5106
   32.085    3.4229
   32.100    3.3877
   32.115    2.9489
   32.130    2.6681
   32.145    2.9138
   32.160    3.0718
   32.175    3.0893
   32.190    3.1771
   32.205    3.0016
   32.220    3.0367
   32.235    3.0191
   32.250    3.3702
   32.265    2.9489
   32.280    2.9840
   32.295    2.7734
   32.310    3.0893
   32.325    3.4580
   32.340    3.1771
   32.355    3.0718
   32.370    3.1069
   32.385    3.3526
   32.400    2.9314
   32.415    3.2298
   32.430    2.9314
   32.445    3.1069
   32.460    2.9138
   32.475    2.8085
   32.490    2.9665
   32.505    2.9138
   32.520    2.7734
   32.535    2.8260
   32.550    3.0191
   32.565    2.7032
   32.580    2.9314
   32.595    2.9665
   32.610    3.0191
   32.625    3.0893
   32.640    2.7909
   32.655    2.8612
   32.670    3.0718
   32.685    3.1947
   32.700    3.1245
   32.715    3.0016
   32.730    2.8612
   32.745    2.4399
   32.760    2.9138
   32.775    3.1245
   32.790    3.4053
   32.805    3.0718
   32.820    3.0191
   32.835    3.2122
   32.850    3.0191
   32.865    2.9665
   32.880    3.3000
   32.895    3.4404
   32.910    3.1245
   32.925    3.1245
   32.940    3.3351
   32.955    3.2473
   32.970    3.2122
   32.985    3.1771
   33.000    2.8612
   33.015    3.0016
   33.030    3.0367
   33.045    2.7909
   33.060    2.7207
   33.075    2.8436
   33.090    3.1069
   33.105    2.8260
   33.120    2.6154
   33.135    2.8085
   33.150    3.1245
   33.165    2.8787
   33.180    2.8612
   33.195    3.1420
   33.210    3.0191
   33.225    2.9314
   33.240    2.8787
   33.255    3.1069
   33.270    3.0016
   33.285    2.9840
   33.300    2.8085
   33.315    3.0893
   33.330    3.0718
   33.345    3.1420
   33.360    2.8436
   33.375    2.9840
   33.390    3.0367
   33.405    2.9840
   33.420    3.0016
   33.435    3.0542
   33.450    2.7383
   33.465    2.8260
   33.480    2.9840
   33.495    3.1245
   33.510    2.8085
   33.525    3.0542
   33.540    3.3000
   33.555    3.4404
   33.570    3.1245
   33.585    3.6159
   33.600    3.2298
   33.615    3.2298
   33.630    2.9840
   33.645    2.8612
   33.660    3.4755
   33.675    3.2298
   33.690    2.7207
   33.705    3.0016
   33.720    3.0016
   33.735    3.1771
   33.750    3.2649
   33.765    3.2298
   33.780    3.1596
   33.795    3.1069
   33.810    3.4053
   33.825    3.5633
   33.840    3.5984
   33.855    3.5106
   33.870    3.2473
   33.885    2.9314
   33.900    3.2473
   33.915    3.4053
   33.930    3.3175
   33.945    3.3351
   33.960    3.0191
   33.975    3.2473
   33.990    2.8612
   34.005    2.7032
   34.020    3.0542
   34.035    2.9840
   34.050    2.6856
   34.065    3.0718
   34.080    3.1069
   34.095    2.8085
   34.110    3.0016
   34.125    3.1245
   34.140    2.9138
   34.155    3.1420
   34.170    3.3000
   34.185    2.8612
   34.200    3.0367
   34.215    2.9138
   34.230    2.9840
   34.245    2.9314
   34.260    2.6154
   34.275    2.8436
   34.290    2.8085
   34.305    2.8085
   34.320    2.7032
   34.335    3.0718
   34.350    2.9840
   34.365    2.8963
   34.380    2.8085
   34.395    3.1245
   34.410    3.0367
   34.425    2.9138
   34.440    2.9840
   34.455    2.7558
   34.470    2.9138
   34.485    2.7558
   34.500    2.6681
   34.515    2.8260
   34.530    2.7909
   34.545    2.7909
   34.560    2.3697
   34.575    2.7383
   34.590    2.6681
   34.605    2.9840
   34.620    3.0542
   34.635    2.9840
   34.650    3.0542
   34.665    2.7383
   34.680    2.6681
   34.695    2.8963
   34.710    3.2298
   34.725    3.1771
   34.740    3.1069
   34.755    2.9840
   34.770    2.7032
   34.785    3.0016
   34.800    3.2298
   34.815    2.9314
   34.830    3.0367
   34.845    3.1947
   34.860    3.1069
   34.875    2.9314
   34.890    3.0191
   34.905    3.0191
   34.920    2.4925
   34.935    2.8963
   34.950    3.0367
   34.965    2.6330
   34.980    2.5803
   34.995    3.0191
   35.010    3.1947
   35.025    2.7207
   35.040    2.9314
   35.055    3.2122
   35.070    2.8612
   35.085    2.9138
   35.100    2.8787
   35.115    2.5276
   35.130    2.5979
   35.145    2.8612
   35.160    2.7207
   35.175    2.6505
   35.190    2.6330
   35.205    2.9840
   35.220    2.8085
   35.235    2.7207
   35.250    2.7734
   35.265    2.7734
   35.280    2.8787
   35.295    2.8085
   35.310    2.8260
   35.325    2.8260
   35.340    2.8963
   35.355    2.5979
   35.370    2.9840
   35.385    2.6681
   35.400    2.6681
   35.415    2.6681
   35.430    2.7909
   35.445    2.6856
   35.460    2.9840
   35.475    2.8963
   35.490    2.9138
   35.505    2.9314
   35.520    2.7734
   35.535    2.7032
   35.550    2.8085
   35.565    2.6856
   35.580    2.6154
   35.595    2.3872
   35.610    2.6330
   35.625    2.7909
   35.640    2.7032
   35.655    2.5628
   35.670    3.0016
   35.685    2.8436
   35.700    2.8436
   35.715    2.6505
   35.730    2.6681
   35.745    2.8260
   35.760    2.9138
   35.775    2.4574
   35.790    2.5101
   35.805    2.7734
   35.820    3.0542
   35.835    2.8085
   35.850    2.8260
   35.865    2.8260
   35.880    2.5979
   35.895    2.8260
   35.910    2.4399
   35.925    3.1420
   35.940    2.9489
   35.955    2.9840
   35.970    2.8612
   35.985    3.0191
   36.000    2.7734
   36.015    3.1069
   36.030    2.8787
   36.045    2.9489
   36.060    2.7558
   36.075    3.1420
   36.090    2.9489
   36.105    2.9489
   36.120    3.2298
   36.135    2.9489
   36.150    2.8963
   36.165    2.7558
   36.180    2.8787
   36.195    3.0893
   36.210    2.8085
   36.225    2.8612
   36.240    2.6681
   36.255    2.6330
   36.270    2.7558
   36.285    2.5979
   36.300    2.4925
   36.315    2.7207
   36.330    2.7909
   36.345    2.7207
   36.360    2.5452
   36.375    2.6681
   36.390    2.8612
   36.405    2.5452
   36.420    2.7032
   36.435    2.9314
   36.450    2.2819
   36.465    2.4750
   36.480    2.5628
   36.495    2.8085
   36.510    2.6856
   36.525    3.0893
   36.540    2.7734
   36.555    2.6505
   36.570    2.7207
   36.585    2.6330
   36.600    2.6154
   36.615    2.7383
   36.630    2.8260
   36.645    2.8436
   36.660    2.6505
   36.675    2.8260
   36.690    2.7558
   36.705    3.0191
   36.720    2.5628
   36.735    2.7207
   36.750    2.7383
   36.765    2.5803
   36.780    2.6505
   36.795    2.6330
   36.810    2.7032
   36.825    2.7558
   36.840    2.8260
   36.855    2.8612
   36.870    3.0542
   36.885    2.6856
   36.900    2.5979
   36.915    2.4925
   36.930    2.3872
   36.945    2.8612
   36.960    2.7734
   36.975    2.3697
   36.990    2.8436
   37.005    2.5628
   37.020    2.6154
   37.035    2.8260
   37.050    2.8085
   37.065    2.6154
   37.080    2.6330
   37.095    2.9840
   37.110    2.9665
   37.125    2.9314
   37.140    2.6505
   37.155    2.8085
   37.170    3.0016
   37.185    2.7734
   37.200    2.5452
   37.215    2.6505
   37.230    2.5628
   37.245    2.5276
   37.260    2.7909
   37.275    2.3346
   37.290    2.3872
   37.305    2.2292
   37.320    2.4574
   37.335    2.4750
   37.350    2.3697
   37.365    2.7909
   37.380    2.8787
   37.395    2.5452
   37.410    2.6681
   37.425    2.4574
   37.440    2.5803
   37.455    2.6330
   37.470    2.5101
   37.485    2.7032
   37.500    2.8612
   37.515    2.9314
   37.530    2.9840
   37.545    2.8436
   37.560    2.9840
   37.575    2.8787
   37.590    2.6681
   37.605    2.6856
   37.620    2.5101
   37.635    3.1420
   37.650    2.5803
   37.665    2.3697
   37.680    2.6681
   37.695    2.3872
   37.710    2.4925
   37.725    2.8260
   37.740    3.0893
   37.755    2.8085
   37.770    2.5452
   37.785    2.8436
   37.800    2.3170
   37.815    2.6154
   37.830    2.8612
   37.845    2.7558
   37.860    2.5979
   37.875    2.6330
   37.890    2.5803
   37.905    2.5628
   37.920    2.5452
   37.935    2.7383
   37.950    2.9665
   37.965    3.0016
   37.980    2.6681
   37.995    2.7909
   38.010    2.5276
   38.025    2.6856
   38.040    2.4574
   38.055    2.9314
   38.070    2.6856
   38.085    2.3521
   38.100    2.4925
   38.115    2.4925
   38.130    2.4750
   38.145    2.6330
   38.160    2.5979
   38.175    2.7383
   38.190    2.9138
   38.205    2.6505
   38.220    2.4750
   38.235    2.6856
   38.250    2.4750
   38.265    2.1766
   38.280    2.6330
   38.295    2.7909
   38.310    2.5452
   38.325    2.5979
   38.340    2.5276
   38.355    2.7734
   38.370    2.5101
   38.385    2.5628
   38.400    2.6154
   38.415    2.8787
   38.430    3.0367
   38.445    2.7909
   38.460    2.4925
   38.475    2.4925
   38.490    2.7558
   38.505    2.8085
   38.520    2.5276
   38.535    2.6154
   38.550    2.2819
   38.565    2.7207
   38.580    2.6856
   38.595    2.5276
   38.610    2.4925
   38.625    2.7383
   38.640    2.6154
   38.655    2.7734
   38.670    2.8963
   38.685    2.7734
   38.700    2.5628
   38.715    2.6856
   38.730    2.8260
   38.745    2.6681
   38.760    2.4399
   38.775    2.7383
   38.790    2.5452
   38.805    2.4925
   38.820    2.6505
   38.835    2.6154
   38.850    2.5101
   38.865    2.5628
   38.880    2.5101
   38.895    2.5628
   38.910    2.4223
   38.925    2.5101
   38.940    2.3521
   38.955    2.6330
   38.970    2.6330
   38.985    2.6505
   39.000    2.5979
   39.015    2.3346
   39.030    2.4223
   39.045    2.4223
   39.060    2.5276
   39.075    2.7558
   39.090    2.7383
   39.105    2.3872
   39.120    2.3521
   39.135    2.5101
   39.150    2.5803
   39.165    2.4750
   39.180    2.6681
   39.195    2.6681
   39.210    2.7383
   39.225    2.5979
   39.240    2.5452
   39.255    2.6154
   39.270    2.7909
   39.285    2.8612
   39.300    2.6330
   39.315    2.6154
   39.330    2.7032
   39.345    2.3872
   39.360    2.7734
   39.375    2.3872
   39.390    2.6154
   39.405    2.8963
   39.420    2.7207
   39.435    2.7032
   39.450    2.8260
   39.465    2.5101
   39.480    2.7032
   39.495    2.5628
   39.510    2.5628
   39.525    2.6505
   39.540    2.5628
   39.555    2.7207
   39.570    2.7383
   39.585    2.6856
   39.600    2.5979
   39.615    2.6681
   39.630    2.8085
   39.645    2.7207
   39.660    2.8085
   39.675    2.7383
   39.690    2.5628
   39.705    2.4223
   39.720    2.8963
   39.735    2.6856
   39.750    2.6681
   39.765    2.4925
   39.780    2.6681
   39.795    2.7909
   39.810    2.6154
   39.825    2.5628
   39.840    2.9314
   39.855    2.7032
   39.870    2.7032
   39.885    2.5452
   39.900    2.4750
   39.915    2.5452
   39.930    2.8085
   39.945    2.6505
   39.960    2.7909
   39.975    2.6330
   39.990    2.6505
   40.005    2.9489
   40.020    2.7558
   40.035    2.2468
   40.050    2.3697
   40.065    2.7909
   40.080    2.7383
   40.095    2.7558
   40.110    2.3697
   40.125    2.7734
   40.140    2.7383
   40.155    2.7207
   40.170    2.4925
   40.185    2.6154
   40.200    2.8787
   40.215    2.3521
   40.230    2.5452
   40.245    2.5803
   40.260    2.5803
   40.275    2.7383
   40.290    2.7207
   40.305    2.7032
   40.320    2.4750
   40.335    2.5979
   40.350    2.7909
   40.365    2.7032
   40.380    2.7558
   40.395    2.5803
   40.410    2.8260
   40.425    3.0893
   40.440    3.0016
   40.455    2.8612
   40.470    3.0893
   40.485    3.4053
   40.500    2.9840
   40.515    3.4229
   40.530    3.0542
   40.545    3.0542
   40.560    3.1245
   40.575    2.8963
   40.590    3.1245
   40.605    2.8963
   40.620    2.5628
   40.635    2.6681
   40.650    2.3170
   40.665    2.7558
   40.680    2.7909
   40.695    2.6330
   40.710    2.5979
   40.725    2.5276
   40.740    2.6681
   40.755    2.4925
   40.770    2.5276
   40.785    2.5979
   40.800    2.7032
   40.815    2.7032
   40.830    2.7032
   40.845    2.7383
   40.860    2.8085
   40.875    2.6154
   40.890    2.6505
   40.905    2.7207
   40.920    2.7383
   40.935    2.4048
   40.950    2.4399
   40.965    2.7032
   40.980    2.8260
   40.995    2.3872
   41.010    2.3170
   41.025    2.7032
   41.040    2.8085
   41.055    2.2468
   41.070    2.4750
   41.085    2.6505
   41.100    2.5276
   41.115    2.2292
   41.130    2.2995
   41.145    2.6856
   41.160    2.2643
   41.175    2.6856
   41.190    2.4925
   41.205    2.9138
   41.220    3.1420
   41.235    2.8085
   41.250    2.5803
   41.265    2.9138
   41.280    2.7558
   41.295    2.3872
   41.310    2.5276
   41.325    2.6856
   41.340    2.7558
   41.355    2.6681
   41.370    2.6330
   41.385    2.8085
   41.400    2.5452
   41.415    2.3521
   41.430    2.6681
   41.445    2.6154
   41.460    2.6681
   41.475    2.7207
   41.490    2.5979
   41.505    2.6681
   41.520    2.4750
   41.535    2.4574
   41.550    2.5276
   41.565    2.4399
   41.580    2.3521
   41.595    2.7032
   41.610    2.5452
   41.625    2.3521
   41.640    2.5979
   41.655    2.6330
   41.670    2.6330
   41.685    2.6330
   41.700    2.4399
   41.715    3.0191
   41.730    2.9138
   41.745    2.6154
   41.760    2.4574
   41.775    2.5452
   41.790    2.7734
   41.805    2.5803
   41.820    2.3170
   41.835    2.4925
   41.850    2.5452
   41.865    2.5101
   41.880    2.1590
   41.895    2.5628
   41.910    2.4574
   41.925    2.5276
   41.940    2.7207
   41.955    2.8963
   41.970    2.9840
   41.985    2.8787
   42.000    2.6681
   42.015    2.5276
   42.030    2.5628
   42.045    2.8260
   42.060    2.6330
   42.075    2.8436
   42.090    3.0367
   42.105    2.8963
   42.120    2.7207
   42.135    2.8436
   42.150    2.8963
   42.165    2.7383
   42.180    2.9138
   42.195    2.6330
   42.210    2.5452
   42.225    2.7032
   42.240    2.8612
   42.255    2.8787
   42.270    2.6330
   42.285    2.7032
   42.300    2.5101
   42.315    2.6505
   42.330    2.6681
   42.345    2.5628
   42.360    2.8260
   42.375    2.7734
   42.390    2.4574
   42.405    2.4750
   42.420    2.5803
   42.435    2.5628
   42.450    2.1941
   42.465    2.6330
   42.480    2.6330
   42.495    2.8260
   42.510    2.6330
   42.525    2.7558
   42.540    2.7558
   42.555    2.6681
   42.570    2.7558
   42.585    2.5628
   42.600    2.3521
   42.615    2.5101
   42.630    2.7558
   42.645    2.5101
   42.660    2.5803
   42.675    2.8612
   42.690    2.6505
   42.705    2.7909
   42.720    2.8085
   42.735    2.7383
   42.750    2.8085
   42.765    2.6154
   42.780    2.5803
   42.795    2.6681
   42.810    2.7032
   42.825    2.5979
   42.840    2.5276
   42.855    2.6154
   42.870    2.5628
   42.885    2.5979
   42.900    2.9138
   42.915    2.5979
   42.930    2.2117
   42.945    2.6154
   42.960    2.8787
   42.975    2.4750
   42.990    2.4925
   43.005    2.4574
   43.020    2.7734
   43.035    2.5628
   43.050    2.8260
   43.065    2.5276
   43.080    2.9314
   43.095    2.7558
   43.110    2.4925
   43.125    2.4399
   43.140    2.3170
   43.155    2.7558
   43.170    2.8963
   43.185    2.7207
   43.200    2.7032
   43.215    2.8612
   43.230    2.7558
   43.245    2.5276
   43.260    2.2643
   43.275    2.5452
   43.290    2.8612
   43.305    2.8612
   43.320    2.8260
   43.335    2.8260
   43.350    2.9138
   43.365    2.6681
   43.380    2.8963
   43.395    2.7734
   43.410    2.4574
   43.425    2.4048
   43.440    2.7383
   43.455    2.7734
   43.470    2.4925
   43.485    2.5628
   43.500    2.3170
   43.515    2.5101
   43.530    2.6154
   43.545    2.4399
   43.560    2.2995
   43.575    2.3697
   43.590    2.6856
   43.605    2.4048
   43.620    2.4399
   43.635    2.4048
   43.650    2.5276
   43.665    2.6681
   43.680    2.5101
   43.695    2.4925
   43.710    2.5276
   43.725    2.5276
   43.740    2.5803
   43.755    2.5803
   43.770    2.1239
   43.785    2.6505
   43.800    2.6330
   43.815    2.4925
   43.830    2.0362
   43.845    2.5979
   43.860    2.7032
   43.875    2.6681
   43.890    2.3346
   43.905    2.5452
   43.920    2.5276
   43.935    2.4750
   43.950    2.5979
   43.965    2.6154
   43.980    2.4925
   43.995    2.6505
   44.010    2.6505
   44.025    2.5276
   44.040    2.7207
   44.055    2.7383
   44.070    2.9138
   44.085    2.8612
   44.100    2.8085
   44.115    2.5979
   44.130    2.4574
   44.145    2.6154
   44.160    2.8963
   44.175    2.6681
   44.190    2.8436
   44.205    2.9314
   44.220    2.5452
   44.235    2.6681
   44.250    2.9489
   44.265    2.5628
   44.280    2.6681
   44.295    2.7383
   44.310    2.7558
   44.325    2.5452
   44.340    2.7909
   44.355    2.9840
   44.370    2.8260
   44.385    2.5628
   44.400    2.7032
   44.415    2.3346
   44.430    2.5803
   44.445    2.5276
   44.460    2.5101
   44.475    2.5979
   44.490    2.5276
   44.505    2.3521
   44.520    2.5452
   44.535    2.5276
   44.550    2.2643
   44.565    2.3346
   44.580    2.4750
   44.595    2.3872
   44.610    2.6505
   44.625    2.7383
   44.640    2.2292
   44.655    2.2643
   44.670    2.2995
   44.685    2.3170
   44.700    2.3521
   44.715    2.6154
   44.730    2.5276
   44.745    2.6505
   44.760    2.5452
   44.775    2.4399
   44.790    2.5979
   44.805    2.7909
   44.820    2.5979
   44.835    2.6330
   44.850    2.8436
   44.865    2.5101
   44.880    2.5452
   44.895    2.5101
   44.910    2.3697
   44.925    2.5979
   44.940    2.5979
   44.955    2.5452
   44.970    2.7734
   44.985    2.6505
   45.000    2.5628
   45.015    2.7383
   45.030    2.5452
   45.045    2.5452
   45.060    2.5276
   45.075    2.5276
   45.090    2.2292
   45.105    2.4399
   45.120    2.7032
   45.135    2.6681
   45.150    2.5628
   45.165    2.9840
   45.180    2.4223
   45.195    2.6681
   45.210    2.7032
   45.225    2.7734
   45.240    2.8963
   45.255    2.6681
   45.270    2.5979
   45.285    2.6856
   45.300    2.6856
   45.315    2.2292
   45.330    2.7558
   45.345    2.7909
   45.360    2.3346
   45.375    2.4399
   45.390    2.1064
   45.405    2.5276
   45.420    2.4574
   45.435    2.8436
   45.450    2.7558
   45.465    2.4399
   45.480    2.5628
   45.495    2.6154
   45.510    2.8260
   45.525    2.5803
   45.540    2.7032
   45.555    2.4750
   45.570    2.6505
   45.585    2.5628
   45.600    2.3170
   45.615    2.3872
   45.630    2.6681
   45.645    2.4750
   45.660    2.5628
   45.675    2.6856
   45.690    2.6505
   45.705    2.6505
   45.720    2.4223
   45.735    2.3697
   45.750    2.6856
   45.765    2.6154
   45.780    2.2643
   45.795    2.3872
   45.810    2.7207
   45.825    2.5979
   45.840    2.4048
   45.855    2.4223
   45.870    2.3697
   45.885    2.5979
   45.900    2.4399
   45.915    2.6505
   45.930    2.4750
   45.945    2.1590
   45.960    2.6330
   45.975    2.5276
   45.990    2.5979
   46.005    2.4574
   46.020    2.4925
   46.035    2.4925
   46.050    2.6154
   46.065    2.6330
   46.080    2.5276
   46.095    2.4574
   46.110    2.4750
   46.125    2.5276
   46.140    2.4750
   46.155    2.7032
   46.170    2.4048
   46.185    2.5628
   46.200    2.4925
   46.215    2.7032
   46.230    2.5101
   46.245    2.2468
   46.260    2.5276
   46.275    2.6505
   46.290    2.8787
   46.305    2.4574
   46.320    2.4750
   46.335    3.0893
   46.350    2.7558
   46.365    2.4048
   46.380    2.5803
   46.395    2.5979
   46.410    2.4048
   46.425    2.5276
   46.440    2.7383
   46.455    2.7909
   46.470    2.3521
   46.485    2.6505
   46.500    2.2643
   46.515    2.4048
   46.530    2.5276
   46.545    2.6330
   46.560    2.8085
   46.575    2.3521
   46.590    2.1415
   46.605    2.5101
   46.620    2.5276
   46.635    2.5276
   46.650    2.3521
   46.665    2.5628
   46.680    2.5628
   46.695    2.5803
   46.710    2.5276
   46.725    2.5452
   46.740    2.1766
   46.755    2.1415
   46.770    2.4574
   46.785    2.5803
   46.800    2.5803
   46.815    2.1064
   46.830    2.7207
   46.845    2.4574
   46.860    2.6681
   46.875    2.7383
   46.890    2.6330
   46.905    2.0888
   46.920    2.5101
   46.935    2.7032
   46.950    2.3346
   46.965    2.8260
   46.980    2.4925
   46.995    2.4399
   47.010    2.6154
   47.025    2.4925
   47.040    2.4574
   47.055    2.4574
   47.070    2.5276
   47.085    2.5979
   47.100    2.6154
   47.115    2.7207
   47.130    2.2117
   47.145    2.2819
   47.160    2.8085
   47.175    2.7032
   47.190    2.7909
   47.205    2.6154
   47.220    2.3697
   47.235    2.5979
   47.250    2.2468
   47.265    2.4399
   47.280    2.3872
   47.295    2.2995
   47.310    2.5101
   47.325    2.5452
   47.340    2.1941
   47.355    2.4574
   47.370    2.4574
   47.385    2.3872
   47.400    2.4574
   47.415    2.5452
   47.430    2.5803
   47.445    2.6856
   47.460    2.7383
   47.475    2.7558
   47.490    2.5979
   47.505    2.3872
   47.520    2.6505
   47.535    2.1941
   47.550    2.6154
   47.565    2.3697
   47.580    2.3697
   47.595    2.2819
   47.610    2.6681
   47.625    2.7734
   47.640    2.6681
   47.655    2.7734
   47.670    2.7558
   47.685    2.4574
   47.700    2.2643
   47.715    2.4399
   47.730    2.4750
   47.745    2.4750
   47.760    2.4925
   47.775    2.5803
   47.790    2.6681
   47.805    2.6330
   47.820    2.6505
   47.835    2.5452
   47.850    2.4399
   47.865    2.3170
   47.880    2.5628
   47.895    2.5979
   47.910    2.7734
   47.925    2.4048
   47.940    2.4574
   47.955    2.5628
   47.970    2.7383
   47.985    2.6330
   48.000    2.4925
   48.015    2.1239
   48.030    2.2468
   48.045    2.4399
   48.060    2.6505
   48.075    2.4925
   48.090    2.6505
   48.105    2.4925
   48.120    2.5101
   48.135    2.3697
   48.150    2.2292
   48.165    2.3872
   48.180    2.3521
   48.195    2.2117
   48.210    2.1941
   48.225    2.4750
   48.240    2.2292
   48.255    2.4750
   48.270    2.4048
   48.285    2.5452
   48.300    2.3872
   48.315    2.3697
   48.330    2.2995
   48.345    2.3346
   48.360    2.2643
   48.375    2.3697
   48.390    2.3697
   48.405    2.5452
   48.420    2.3170
   48.435    2.5276
   48.450    2.6154
   48.465    2.6505
   48.480    2.5276
   48.495    2.5101
   48.510    2.5276
   48.525    2.6330
   48.540    2.6330
   48.555    2.9489
   48.570    2.7909
   48.585    2.5452
   48.600    2.8260
   48.615    2.4223
   48.630    2.4048
   48.645    2.5101
   48.660    2.5979
   48.675    3.0893
   48.690    2.8963
   48.705    2.6505
   48.720    2.4048
   48.735    2.3170
   48.750    2.7734
   48.765    2.8787
   48.780    2.6856
   48.795    2.4399
   48.810    2.6154
   48.825    2.2643
   48.840    2.6330
   48.855    2.3346
   48.870    2.4223
   48.885    2.3697
   48.900    2.3697
   48.915    2.2995
   48.930    2.5803
   48.945    2.7207
   48.960    2.7032
   48.975    2.7207
   48.990    2.4048
   49.005    2.4925
   49.020    2.5276
   49.035    2.5452
   49.050    2.3170
   49.065    2.2995
   49.080    2.5276
   49.095    2.6856
   49.110    2.3521
   49.125    2.0537
   49.140    2.2995
   49.155    2.6681
   49.170    2.7207
   49.185    2.3697
   49.200    2.6154
   49.215    2.2995
   49.230    2.3346
   49.245    2.4223
   49.260    2.4223
   49.275    2.2643
   49.290    2.4048
   49.305    2.5803
   49.320    2.1766
   49.335    2.4399
   49.350    2.4925
   49.365    2.0713
   49.380    2.4574
   49.395    2.4574
   49.410    2.2995
   49.425    2.2643
   49.440    2.2819
   49.455    2.1064
   49.470    2.3872
   49.485    2.4399
   49.500    2.2117
   49.515    2.4048
   49.530    2.2819
   49.545    2.7032
   49.560    2.8260
   49.575    2.5628
   49.590    2.3872
   49.605    2.2643
   49.620    2.3346
   49.635    2.2819
   49.650    2.1415
   49.665    2.5101
   49.680    2.2995
   49.695    1.9835
   49.710    2.4223
   49.725    2.4223
   49.740    2.3521
   49.755    2.7734
   49.770    2.7383
   49.785    2.1941
   49.800    2.0011
   49.815    2.2468
   49.830    2.1064
   49.845    2.1766
   49.860    2.4574
   49.875    2.7558
   49.890    2.4574
   49.905    2.7032
   49.920    2.6330
   49.935    2.4925
   49.950    2.5276
   49.965    2.4223
   49.980    2.6856
