    1.500   42.1274
    1.515   42.4434
    1.530   41.8115
    1.545   40.5055
    1.560   39.6314
    1.575   39.1153
    1.590   39.4207
    1.605   37.6830
    1.620   36.7035
    1.635   36.3033
    1.650   35.6925
    1.665   35.3765
    1.680   35.9979
    1.695   34.5234
    1.710   33.9968
    1.725   33.5440
    1.740   32.2380
    1.755   31.8694
    1.770   30.9321
    1.785   30.3528
    1.800   30.9110
    1.815   30.4581
    1.830   29.5313
    1.845   29.3312
    1.860   29.1627
    1.875   28.0253
    1.890   28.8678
    1.905   27.2775
    1.920   27.0142
    1.935   26.4666
    1.950   26.7193
    1.965   26.5298
    1.980   26.5087
    1.995   25.2449
    2.010   24.8025
    2.025   24.7077
    2.040   24.2233
    2.055   23.7915
    2.070   23.8231
    2.085   23.7599
    2.100   23.2859
    2.115   23.9494
    2.130   23.2859
    2.145   22.1485
    2.160   22.4961
    2.175   21.7272
    2.190   22.1380
    2.205   20.9268
    2.220   21.7904
    2.235   21.8431
    2.250   21.0532
    2.265   21.0321
    2.280   20.5055
    2.295   20.0843
    2.310   20.3054
    2.325   20.9268
    2.340   19.9579
    2.355   19.4629
    2.370   19.6946
    2.385   19.7367
    2.400   19.1890
    2.415   19.1575
    2.430   19.0732
    2.445   19.0627
    2.460   18.6940
    2.475   18.0832
    2.490   18.9573
    2.505   17.8936
    2.520   18.8415
    2.535   18.4939
    2.550   17.9779
    2.565   18.6098
    2.580   18.5782
    2.595   17.9042
    2.610   17.9147
    2.625   18.1780
    2.640   18.4097
    2.655   18.3149
    2.670   18.0937
    2.685   18.0727
    2.700   18.3570
    2.715   18.3254
    2.730   17.4408
    2.745   17.3144
    2.760   17.0932
    2.775   16.8826
    2.790   17.4092
    2.805   18.4518
    2.820   18.2096
    2.835   17.5040
    2.850   17.5355
    2.865   17.8304
    2.880   18.5045
    2.895   18.4202
    2.910   18.4623
    2.925   18.3570
    2.940   18.7888
    2.955   18.3781
    2.970   17.6514
    2.985   17.9674
    3.000   18.2096
    3.015   19.0100
    3.030   18.4939
    3.045   18.7572
    3.060   18.6625
    3.075   19.1048
    3.090   19.8315
    3.105   19.7788
    3.120   19.7262
    3.135   20.8636
    3.150   20.6108
    3.165   20.5477
    3.180   20.6951
    3.195   21.8220
    3.210   21.2954
    3.225   21.5587
    3.240   21.5061
    3.255   22.8541
    3.270   23.2543
    3.285   23.5282
    3.300   23.6124
    3.315   24.8025
    3.330   24.3813
    3.345   24.5287
    3.360   25.4871
    3.375   25.9716
    3.390   27.0879
    3.405   27.9094
    3.420   28.1411
    3.435   28.7941
    3.450   29.7630
    3.465   29.0785
    3.480   30.8268
    3.495   31.0479
    3.510   30.7320
    3.525   30.7109
    3.540   31.4903
    3.555   31.5640
    3.570   31.9326
    3.585   32.4276
    3.600   33.9337
    3.615   34.1338
    3.630   35.0290
    3.645   36.8615
    3.660   38.7256
    3.675   40.1580
    3.690   40.6846
    3.705   43.3386
    3.720   45.0342
    3.735   47.3618
    3.750   49.0679
    3.765   52.3855
    3.780   56.6509
    3.795   59.6840
    3.810   62.8436
    3.825   69.6472
    3.840   75.9979
    3.855   84.6130
    3.870   88.8362
    3.885   88.6572
    3.900   81.6746
    3.915   70.3739
    3.930   53.5650
    3.945   39.1153
    3.960   28.2991
    3.975   22.9595
    3.990   19.5682
    4.005   17.9779
    4.020   17.0300
    4.035   15.4186
    4.050   15.0290
    4.065   14.4076
    4.080   13.6177
    4.095   13.5861
    4.110   13.2491
    4.125   12.8594
    4.140   12.2801
    4.155   11.6166
    4.170   11.3744
    4.185   11.3744
    4.200   11.1006
    4.215   11.2691
    4.230   10.4792
    4.245   10.2370
    4.260   10.9321
    4.275   11.1216
    4.290   10.8373
    4.305   10.4265
    4.320   10.0053
    4.335   10.1632
    4.350   10.0685
    4.365    9.7209
    4.380    9.7314
    4.395   10.1738
    4.410    9.7209
    4.425    9.8473
    4.440    9.6367
    4.455    9.6577
    4.470    9.3102
    4.485    9.6998
    4.500    9.1627
    4.515    9.2259
    4.530    9.3102
    4.545    9.4471
    4.560    9.3839
    4.575    9.2154
    4.590    9.4681
    4.605    9.1943
    4.620    8.8889
    4.635    9.5629
    4.650    9.0785
    4.665    8.9731
    4.680    9.3523
    4.695    8.8362
    4.710    9.1101
    4.725    9.6051
    4.740    9.3628
    4.755    9.2154
    4.770    9.7104
    4.785    9.1417
    4.800    9.5524
    4.815   10.0263
    4.830    9.2680
    4.845    9.0890
    4.860    9.6893
    4.875    9.4471
    4.890    9.2259
    4.905   10.0579
    4.920   10.1632
    4.935   10.0053
    4.950   10.2686
    4.965    9.4892
    4.980    9.9105
    4.995   10.0685
    5.010   10.2370
    5.025   10.1211
    5.040   10.6793
    5.055   10.4687
    5.070   10.2159
    5.085   10.6372
    5.100   11.0690
    5.115   10.9953
    5.130   10.8373
    5.145   11.2902
    5.160   10.9531
    5.175   11.5745
    5.190   12.1327
    5.205   12.2170
    5.220   11.5324
    5.235   12.1222
    5.250   12.1748
    5.265   12.6804
    5.280   13.0174
    5.295   13.4492
    5.310   13.8599
    5.325   14.4392
    5.340   14.8499
    5.355   15.2712
    5.370   15.8399
    5.385   15.4186
    5.400   16.4929
    5.415   17.1985
    5.430   18.6098
    5.445   19.1469
    5.460   20.3160
    5.475   22.7067
    5.490   23.6756
    5.505   23.6440
    5.520   22.8857
    5.535   20.4739
    5.550   16.7246
    5.565   13.8810
    5.580   12.3960
    5.595   10.7004
    5.610    9.7420
    5.625    9.9315
    5.640    9.0574
    5.655    8.9731
    5.670    8.8994
    5.685    9.0469
    5.700    8.7836
    5.715    8.8994
    5.730    8.6361
    5.745    8.6572
    5.760    8.7730
    5.775    8.3623
    5.790    8.6151
    5.805    8.4992
    5.820    8.5203
    5.835    8.3518
    5.850    8.0463
    5.865    8.6151
    5.880    8.0253
    5.895    8.3728
    5.910    8.5203
    5.925    8.2254
    5.940    8.1622
    5.955    8.2570
    5.970    8.0779
    5.985    8.3834
    6.000    8.5097
    6.015    7.9831
    6.030    8.0463
    6.045    8.4360
    6.060    8.3834
    6.075    8.3518
    6.090    8.0147
    6.105    8.1411
    6.120    8.0253
    6.135    8.3623
    6.150    8.1095
    6.165    8.2886
    6.180    7.7093
    6.195    8.3096
    6.210    7.9937
    6.225    8.4360
    6.240    8.3728
    6.255    8.3202
    6.270    8.0253
    6.285    8.0147
    6.300    8.5413
    6.315    8.1095
    6.330    8.4676
    6.345    8.1938
    6.360    8.6045
    6.375    8.5203
    6.390    8.6467
    6.405    8.6993
    6.420    8.8257
    6.435    8.9942
    6.450    9.4576
    6.465    8.8046
    6.480    8.7309
    6.495    8.8468
    6.510    8.8468
    6.525    9.0785
    6.540    9.0153
    6.555    9.0153
    6.570    9.1101
    6.585    9.2680
    6.600    9.1417
    6.615    9.7736
    6.630   10.1948
    6.645   10.1106
    6.660   10.1316
    6.675   10.3844
    6.690   10.2791
    6.705   10.4687
    6.720   11.6377
    6.735   12.0695
    6.750   11.6482
    6.765   11.4165
    6.780   10.0369
    6.795   10.4581
    6.810   10.3633
    6.825    9.9315
    6.840    8.6361
    6.855    8.2780
    6.870    8.7836
    6.885    8.9731
    6.900    8.8784
    6.915    8.3939
    6.930    8.6993
    6.945    8.4255
    6.960    8.7098
    6.975    8.6993
    6.990    8.8046
    7.005    8.4676
    7.020    8.4781
    7.035    8.0885
    7.050    8.3096
    7.065    8.6888
    7.080    8.3518
    7.095    7.8568
    7.110    7.9200
    7.125    8.2043
    7.140    8.3623
    7.155    8.1938
    7.170    8.5940
    7.185    8.1201
    7.200    7.9305
    7.215    8.2675
    7.230    8.4571
    7.245    8.1095
    7.260    8.0042
    7.275    8.6993
    7.290    8.9837
    7.305    8.3096
    7.320    8.3202
    7.335    8.2886
    7.350    8.3202
    7.365    8.5097
    7.380    8.4887
    7.395    7.9094
    7.410    8.2570
    7.425    8.1095
    7.440    8.6783
    7.455    8.6572
    7.470    8.8152
    7.485    8.8046
    7.500    8.1938
    7.515    8.1938
    7.530    8.2780
    7.545    8.8046
    7.560    8.9942
    7.575    9.0995
    7.590    8.9310
    7.605    9.1311
    7.620    9.4365
    7.635    8.8994
    7.650    9.3839
    7.665   10.0158
    7.680    9.5208
    7.695    9.7209
    7.710   10.6372
    7.725   10.6688
    7.740   11.2691
    7.755   11.6482
    7.770   11.1954
    7.785   11.8483
    7.800   12.5750
    7.815   11.7009
    7.830   11.0900
    7.845   10.8057
    7.860    9.9947
    7.875    9.5840
    7.890    9.0469
    7.905    9.1522
    7.920    8.7098
    7.935    8.3096
    7.950    8.5940
    7.965    8.8257
    7.980    8.3939
    7.995    8.2043
    8.010    8.4571
    8.025    8.3096
    8.040    8.0674
    8.055    8.1622
    8.070    8.5940
    8.085    8.3728
    8.100    8.2464
    8.115    8.7098
    8.130    8.2570
    8.145    8.0779
    8.160    8.2886
    8.175    8.3202
    8.190    8.5835
    8.205    8.4466
    8.220    8.1201
    8.235    8.2886
    8.250    8.2886
    8.265    8.4571
    8.280    8.6677
    8.295    8.1622
    8.310    8.2149
    8.325    8.2780
    8.340    8.0674
    8.355    8.3202
    8.370    8.2991
    8.385    8.2991
    8.400    8.5308
    8.415    8.1727
    8.430    8.5624
    8.445    8.7520
    8.460    8.1938
    8.475    8.3834
    8.490    8.7414
    8.505    8.7941
    8.520    8.7098
    8.535    8.4676
    8.550    8.5308
    8.565    8.4676
    8.580    8.3202
    8.595    8.8468
    8.610    8.9942
    8.625    8.8046
    8.640    9.0995
    8.655    8.6783
    8.670    8.6467
    8.685    8.8362
    8.700    8.5097
    8.715    8.1833
    8.730    8.8257
    8.745    8.7520
    8.760    8.7309
    8.775    8.3412
    8.790    8.8046
    8.805    8.5097
    8.820    8.7730
    8.835    8.5519
    8.850    8.4150
    8.865    8.8468
    8.880    8.9310
    8.895    8.6783
    8.910    8.3518
    8.925    8.4360
    8.940    8.2359
    8.955    8.3939
    8.970    8.2254
    8.985    8.3939
    9.000    8.4887
    9.015    8.2254
    9.030    8.6361
    9.045    8.4360
    9.060    8.6256
    9.075    8.8994
    9.090    8.7625
    9.105    8.9205
    9.120    8.5624
    9.135    8.7836
    9.150    9.0890
    9.165    9.4050
    9.180    9.2470
    9.195    9.2154
    9.210    9.2575
    9.225    9.0679
    9.240    9.4260
    9.255    9.7525
    9.270    9.2891
    9.285    9.3628
    9.300    9.2891
    9.315    9.5524
    9.330    9.6998
    9.345    9.7209
    9.360   10.5951
    9.375   10.0579
    9.390   10.5845
    9.405   10.5740
    9.420   10.9321
    9.435   11.1427
    9.450   11.3533
    9.465   12.1959
    9.480   13.4597
    9.495   13.2596
    9.510   13.2596
    9.525   14.4918
    9.540   15.5240
    9.555   16.1769
    9.570   15.9979
    9.585   15.3239
    9.600   14.2285
    9.615   12.9647
    9.630   11.7325
    9.645   11.0269
    9.660   10.1632
    9.675    9.7209
    9.690    9.5735
    9.705    9.4365
    9.720    9.1311
    9.735    8.7941
    9.750    8.6256
    9.765    8.6467
    9.780    8.7098
    9.795    8.4676
    9.810    8.4676
    9.825    8.5835
    9.840    8.6888
    9.855    8.7414
    9.870    9.2786
    9.885    9.0363
    9.900    8.7625
    9.915    8.4044
    9.930    8.2991
    9.945    8.2675
    9.960    8.9626
    9.975    8.8573
    9.990    8.6151
   10.005    8.7098
   10.020    8.9942
   10.035    8.5940
   10.050    8.5097
   10.065    8.9521
   10.080    8.6993
   10.095    9.1206
   10.110    9.1732
   10.125    8.5729
   10.140    9.2891
   10.155    9.0574
   10.170    8.8257
   10.185    9.5629
   10.200    9.2364
   10.215    9.1311
   10.230    9.6472
   10.245   10.2159
   10.260   10.0685
   10.275   10.4160
   10.290   10.2686
   10.305   10.3633
   10.320   10.9215
   10.335   10.6898
   10.350   10.6372
   10.365   10.8268
   10.380   10.7004
   10.395    9.8894
   10.410    9.8999
   10.425    9.3207
   10.440    9.0785
   10.455    8.6151
   10.470    8.8046
   10.485    8.8152
   10.500    8.3307
   10.515    8.5097
   10.530    8.0042
   10.545    8.1833
   10.560    8.4676
   10.575    8.4150
   10.590    8.2149
   10.605    8.2254
   10.620    8.4255
   10.635    8.3096
   10.650    8.2570
   10.665    8.0990
   10.680    7.9937
   10.695    8.4887
   10.710    9.0363
   10.725    8.5203
   10.740    7.9937
   10.755    8.3623
   10.770    8.9942
   10.785    9.1206
   10.800    8.8784
   10.815    8.7309
   10.830    8.2254
   10.845    8.1727
   10.860    8.4781
   10.875    8.6361
   10.890    8.8468
   10.905    8.7520
   10.920    8.6993
   10.935    8.8362
   10.950    9.2786
   10.965    9.1417
   10.980    9.1311
   10.995    9.6051
   11.010   10.1948
   11.025    9.9737
   11.040   10.1001
   11.055   10.2159
   11.070   10.1001
   11.085   10.0263
   11.100    9.7314
   11.115    9.5208
   11.130    8.3939
   11.145    8.3202
   11.160    8.3728
   11.175    8.1938
   11.190    8.1306
   11.205    8.3518
   11.220    8.6993
   11.235    8.1201
   11.250    7.8778
   11.265    8.1201
   11.280    8.1622
   11.295    8.2149
   11.310    8.2149
   11.325    8.4255
   11.340    7.9516
   11.355    7.8146
   11.370    8.0463
   11.385    8.3412
   11.400    8.1201
   11.415    7.8989
   11.430    8.4992
   11.445    7.9410
   11.460    7.8568
   11.475    8.0779
   11.490    8.5203
   11.505    8.0885
   11.520    8.2359
   11.535    8.1517
   11.550    8.5729
   11.565    8.2886
   11.580    8.5097
   11.595    8.4044
   11.610    8.8889
   11.625    8.9837
   11.640    9.3523
   11.655    9.1627
   11.670    8.9837
   11.685    9.7209
   11.700    9.9210
   11.715   10.2264
   11.730    9.8052
   11.745   10.2580
   11.760    9.6893
   11.775    9.4365
   11.790    9.1943
   11.805    8.9626
   11.820    8.1201
   11.835    8.0885
   11.850    8.3096
   11.865    8.1095
   11.880    7.6251
   11.895    7.9937
   11.910    7.7409
   11.925    7.7830
   11.940    7.7725
   11.955    7.6777
   11.970    7.5513
   11.985    7.4250
   12.000    7.2775
   12.015    7.7409
   12.030    7.5408
   12.045    7.4882
   12.060    7.7830
   12.075    7.9937
   12.090    7.4460
   12.105    7.3723
   12.120    7.4987
   12.135    7.6777
   12.150    7.5829
   12.165    7.5408
   12.180    7.4987
   12.195    7.4566
   12.210    7.5303
   12.225    7.8989
   12.240    7.7304
   12.255    7.6356
   12.270    7.5829
   12.285    7.6251
   12.300    7.4882
   12.315    7.9621
   12.330    7.9516
   12.345    8.1201
   12.360    7.7830
   12.375    7.6777
   12.390    8.0042
   12.405    8.1727
   12.420    7.5197
   12.435    7.5724
   12.450    7.7830
   12.465    7.5935
   12.480    7.4882
   12.495    7.6145
   12.510    7.6251
   12.525    7.6883
   12.540    7.3091
   12.555    7.4776
   12.570    7.3828
   12.585    7.2038
   12.600    7.5829
   12.615    7.4987
   12.630    7.3618
   12.645    7.2775
   12.660    7.5408
   12.675    7.6040
   12.690    7.5724
   12.705    7.1090
   12.720    7.4355
   12.735    7.7725
   12.750    7.5829
   12.765    8.0253
   12.780    7.8252
   12.795    7.5408
   12.810    7.5935
   12.825    7.9094
   12.840    8.0569
   12.855    7.8673
   12.870    7.8673
   12.885    8.0990
   12.900    8.4044
   12.915    8.3202
   12.930    8.8046
   12.945    8.6783
   12.960    9.1206
   12.975    8.7204
   12.990    8.8784
   13.005    8.8678
   13.020    8.7414
   13.035    8.3307
   13.050    7.8673
   13.065    7.9305
   13.080    7.8568
   13.095    7.4882
   13.110    7.1827
   13.125    7.7199
   13.140    7.5724
   13.155    7.5197
   13.170    6.9932
   13.185    7.3091
   13.200    7.0985
   13.215    7.6567
   13.230    7.5092
   13.245    7.4144
   13.260    7.9516
   13.275    7.7936
   13.290    7.3723
   13.305    7.4671
   13.320    7.5829
   13.335    7.3512
   13.350    7.4355
   13.365    7.3934
   13.380    7.3934
   13.395    7.6672
   13.410    7.5829
   13.425    7.4566
   13.440    7.2249
   13.455    7.6988
   13.470    7.3302
   13.485    7.5303
   13.500    7.6883
   13.515    7.8462
   13.530    7.8568
   13.545    7.8673
   13.560    7.8357
   13.575    7.8673
   13.590    8.2359
   13.605    7.5197
   13.620    7.2354
   13.635    7.6356
   13.650    7.7725
   13.665    7.5619
   13.680    7.3196
   13.695    7.0563
   13.710    7.3828
   13.725    7.3618
   13.740    7.1406
   13.755    7.2565
   13.770    7.3407
   13.785    7.3407
   13.800    6.8878
   13.815    6.8246
   13.830    7.3618
   13.845    7.3302
   13.860    7.0985
   13.875    7.5197
   13.890    7.1195
   13.905    7.2038
   13.920    7.2354
   13.935    7.1933
   13.950    7.2670
   13.965    7.2986
   13.980    7.6145
   13.995    7.4144
   14.010    7.5724
   14.025    7.8462
   14.040    7.7620
   14.055    7.8989
   14.070    8.3307
   14.085    8.2570
   14.100    7.9726
   14.115    8.1517
   14.130    8.2570
   14.145    8.6783
   14.160    8.3623
   14.175    7.5724
   14.190    7.7093
   14.205    7.3618
   14.220    7.4355
   14.235    7.6672
   14.250    7.4250
   14.265    7.0669
   14.280    7.2986
   14.295    7.3302
   14.310    7.4250
   14.325    7.4882
   14.340    7.2986
   14.355    7.3618
   14.370    7.3512
   14.385    7.2038
   14.400    6.8668
   14.415    7.0353
   14.430    7.3196
   14.445    7.2565
   14.460    7.4039
   14.475    7.2143
   14.490    6.9089
   14.505    7.0248
   14.520    7.0248
   14.535    6.9300
   14.550    6.8773
   14.565    6.6351
   14.580    7.0563
   14.595    7.1933
   14.610    7.1617
   14.625    7.0985
   14.640    7.2038
   14.655    7.0458
   14.670    6.8984
   14.685    7.4355
   14.700    7.5935
   14.715    7.1195
   14.730    6.9510
   14.745    6.7509
   14.760    7.0353
   14.775    6.8878
   14.790    7.3091
   14.805    7.3196
   14.820    7.3512
   14.835    7.2670
   14.850    6.7930
   14.865    6.5403
   14.880    6.7825
   14.895    7.2249
   14.910    7.0774
   14.925    7.2143
   14.940    7.2565
   14.955    6.9721
   14.970    7.0879
   14.985    7.1090
   15.000    7.0353
   15.015    7.0563
   15.030    7.2038
   15.045    7.0985
   15.060    7.5303
   15.075    7.4355
   15.090    7.7514
   15.105    7.6040
   15.120    7.3407
   15.135    7.3407
   15.150    7.4776
   15.165    7.9726
   15.180    7.5513
   15.195    7.1511
   15.210    7.2249
   15.225    7.0774
   15.240    7.1301
   15.255    7.0563
   15.270    7.2565
   15.285    7.6777
   15.300    7.4250
   15.315    7.5619
   15.330    7.1511
   15.345    7.0142
   15.360    6.9721
   15.375    7.0563
   15.390    7.0563
   15.405    7.2670
   15.420    7.0774
   15.435    6.9826
   15.450    7.1617
   15.465    7.0353
   15.480    7.4039
   15.495    7.3934
   15.510    7.3091
   15.525    7.3723
   15.540    7.2880
   15.555    6.8562
   15.570    7.0774
   15.585    7.3091
   15.600    7.2565
   15.615    7.0353
   15.630    6.6035
   15.645    6.8773
   15.660    7.1933
   15.675    7.4460
   15.690    7.2459
   15.705    7.1195
   15.720    7.1301
   15.735    7.3407
   15.750    6.6667
   15.765    6.8352
   15.780    6.7720
   15.795    6.8668
   15.810    7.1195
   15.825    6.8352
   15.840    6.7825
   15.855    6.9932
   15.870    7.0353
   15.885    7.2354
   15.900    7.3196
   15.915    6.5824
   15.930    7.0879
   15.945    7.2565
   15.960    7.2354
   15.975    7.0669
   15.990    7.1301
   16.005    7.6777
   16.020    7.5829
   16.035    7.4671
   16.050    7.4039
   16.065    7.2775
   16.080    7.4566
   16.095    7.6145
   16.110    7.6672
   16.125    7.5513
   16.140    7.5197
   16.155    7.8568
   16.170    7.5408
   16.185    7.4671
   16.200    7.4566
   16.215    7.6567
   16.230    7.4460
   16.245    7.2880
   16.260    7.4250
   16.275    7.6461
   16.290    7.2143
   16.305    7.3618
   16.320    7.4039
   16.335    7.0142
   16.350    7.6356
   16.365    7.0563
   16.380    7.1511
   16.395    7.0985
   16.410    7.0879
   16.425    7.1933
   16.440    7.2038
   16.455    7.1933
   16.470    7.0774
   16.485    7.5303
   16.500    6.8668
   16.515    7.5619
   16.530    7.5829
   16.545    7.3618
   16.560    7.1827
   16.575    7.1933
   16.590    7.7936
   16.605    7.9094
   16.620    7.9621
   16.635    7.7093
   16.650    7.6567
   16.665    7.8146
   16.680    7.4776
   16.695    8.0042
   16.710    7.5408
   16.725    7.4987
   16.740    7.3091
   16.755    7.1827
   16.770    7.1090
   16.785    6.9616
   16.800    7.2249
   16.815    7.4671
   16.830    7.7409
   16.845    7.3618
   16.860    6.7720
   16.875    7.1933
   16.890    7.1933
   16.905    7.5619
   16.920    7.4039
   16.935    7.2565
   16.950    7.4987
   16.965    7.5619
   16.980    7.7199
   16.995    7.7304
   17.010    7.9831
   17.025    7.9200
   17.040    8.3412
   17.055    8.6151
   17.070    8.7098
   17.085    8.8257
   17.100    8.3096
   17.115    8.6677
   17.130    8.4887
   17.145    7.7199
   17.160    7.4776
   17.175    7.7830
   17.190    7.2459
   17.205    7.0563
   17.220    7.4460
   17.235    7.7514
   17.250    7.4566
   17.265    7.5303
   17.280    7.3407
   17.295    7.3407
   17.310    7.5197
   17.325    7.4144
   17.340    7.2670
   17.355    7.1301
   17.370    6.7720
   17.385    6.7825
   17.400    6.9300
   17.415    7.5303
   17.430    7.1301
   17.445    7.0879
   17.460    7.3407
   17.475    7.3512
   17.490    7.1617
   17.505    7.4144
   17.520    7.6356
   17.535    7.4355
   17.550    7.2565
   17.565    7.2038
   17.580    7.5408
   17.595    7.4039
   17.610    7.3196
   17.625    7.2880
   17.640    7.4039
   17.655    7.5619
   17.670    7.2986
   17.685    7.1511
   17.700    7.0142
   17.715    7.0669
   17.730    7.1617
   17.745    7.3618
   17.760    7.0985
   17.775    7.4039
   17.790    7.5619
   17.805    7.2986
   17.820    7.3512
   17.835    7.3302
   17.850    7.2249
   17.865    7.3934
   17.880    7.6040
   17.895    7.3302
   17.910    7.5724
   17.925    7.5303
   17.940    7.3407
   17.955    7.6251
   17.970    7.3934
   17.985    7.3618
   18.000    7.3091
   18.015    7.3828
   18.030    7.2249
   18.045    7.2354
   18.060    7.2565
   18.075    7.1406
   18.090    7.4882
   18.105    7.2038
   18.120    7.0669
   18.135    7.0774
   18.150    6.9405
   18.165    7.3302
   18.180    7.1933
   18.195    7.0563
   18.210    7.1827
   18.225    7.1511
   18.240    7.1617
   18.255    6.8984
   18.270    7.3934
   18.285    7.4460
   18.300    7.4460
   18.315    7.6145
   18.330    7.4144
   18.345    7.4460
   18.360    7.5935
   18.375    7.5513
   18.390    7.7304
   18.405    7.5935
   18.420    7.4987
   18.435    7.4776
   18.450    7.6777
   18.465    7.0248
   18.480    7.5303
   18.495    7.4566
   18.510    7.6567
   18.525    7.4776
   18.540    7.2459
   18.555    7.4671
   18.570    7.6461
   18.585    7.2038
   18.600    7.5408
   18.615    7.5935
   18.630    7.1617
   18.645    7.3196
   18.660    7.4250
   18.675    7.4987
   18.690    7.4776
   18.705    7.2775
   18.720    7.6883
   18.735    7.7093
   18.750    7.4250
   18.765    7.4566
   18.780    7.1090
   18.795    7.5303
   18.810    7.3407
   18.825    7.3196
   18.840    7.3934
   18.855    7.5303
   18.870    7.7199
   18.885    7.7199
   18.900    8.1727
   18.915    8.3728
   18.930    8.2359
   18.945    8.2043
   18.960    8.7941
   18.975    8.8994
   18.990    8.7836
   19.005    8.3728
   19.020    8.5624
   19.035    8.5203
   19.050    8.3939
   19.065    7.9516
   19.080    8.0885
   19.095    7.4987
   19.110    7.2143
   19.125    7.2354
   19.140    7.3618
   19.155    7.1933
   19.170    6.6667
   19.185    6.9405
   19.200    7.1301
   19.215    7.2880
   19.230    7.4882
   19.245    7.2986
   19.260    7.1722
   19.275    7.6777
   19.290    7.6040
   19.305    7.3407
   19.320    7.3407
   19.335    7.3512
   19.350    7.3512
   19.365    7.5092
   19.380    7.2354
   19.395    7.7830
   19.410    6.9300
   19.425    7.0353
   19.440    7.3828
   19.455    7.6251
   19.470    7.2775
   19.485    7.2143
   19.500    6.9721
   19.515    7.2880
   19.530    7.1406
   19.545    7.5724
   19.560    7.9831
   19.575    7.5092
   19.590    7.6672
   19.605    7.3302
   19.620    7.4460
   19.635    7.5408
   19.650    7.6040
   19.665    8.0147
   19.680    7.8989
   19.695    7.6883
   19.710    7.4460
   19.725    7.3828
   19.740    7.7514
   19.755    7.6461
   19.770    7.7409
   19.785    7.6672
   19.800    7.7725
   19.815    7.7093
   19.830    7.3091
   19.845    7.4355
   19.860    7.5513
   19.875    7.1406
   19.890    7.5408
   19.905    7.6461
   19.920    7.3091
   19.935    7.1827
   19.950    7.3407
   19.965    7.4460
   19.980    7.6672
   19.995    7.2775
   20.010    7.3407
   20.025    7.2880
   20.040    7.7199
   20.055    7.6145
   20.070    6.9721
   20.085    7.2143
   20.100    7.3407
   20.115    7.4671
   20.130    7.4671
   20.145    7.8041
   20.160    7.5092
   20.175    7.6356
   20.190    7.5724
   20.205    7.3512
   20.220    6.8878
   20.235    7.6883
   20.250    7.6883
   20.265    7.3407
   20.280    7.6883
   20.295    7.7830
   20.310    7.5724
   20.325    7.5724
   20.340    7.5303
   20.355    7.5513
   20.370    7.5829
   20.385    7.7725
   20.400    8.2886
   20.415    8.2675
   20.430    8.1095
   20.445    8.0147
   20.460    8.0885
   20.475    8.1517
   20.490    7.5197
   20.505    7.5513
   20.520    7.6251
   20.535    7.4671
   20.550    7.3512
   20.565    7.7304
   20.580    7.4460
   20.595    7.1090
   20.610    7.1406
   20.625    7.1511
   20.640    7.7830
   20.655    7.6672
   20.670    7.6145
   20.685    7.2354
   20.700    7.5829
   20.715    7.2880
   20.730    7.2670
   20.745    7.7199
   20.760    7.2880
   20.775    7.5197
   20.790    7.5935
   20.805    7.5197
   20.820    7.3512
   20.835    7.5724
   20.850    7.2670
   20.865    7.5935
   20.880    7.6251
   20.895    7.7620
   20.910    7.1933
   20.925    7.4987
   20.940    7.1933
   20.955    7.1511
   20.970    7.3618
   20.985    7.7409
   21.000    7.2670
   21.015    7.1933
   21.030    7.2038
   21.045    7.2775
   21.060    7.2986
   21.075    7.3302
   21.090    7.7725
   21.105    7.5619
   21.120    7.1722
   21.135    7.2986
   21.150    7.4566
   21.165    7.7093
   21.180    7.8462
   21.195    7.8041
   21.210    7.3828
   21.225    7.7514
   21.240    7.4566
   21.255    7.3828
   21.270    7.4460
   21.285    7.4250
   21.300    7.6567
   21.315    7.6883
   21.330    7.1511
   21.345    7.4671
   21.360    7.7093
   21.375    7.6883
   21.390    7.4882
   21.405    7.5829
   21.420    7.9200
   21.435    7.5303
   21.450    7.9305
   21.465    7.4776
   21.480    7.5619
   21.495    7.5513
   21.510    7.4460
   21.525    7.9937
   21.540    7.6251
   21.555    7.3934
   21.570    7.5092
   21.585    7.6040
   21.600    7.2670
   21.615    7.0774
   21.630    7.2459
   21.645    7.7725
   21.660    7.4882
   21.675    7.7093
   21.690    7.6883
   21.705    7.4987
   21.720    7.4987
   21.735    7.3723
   21.750    7.4250
   21.765    7.3407
   21.780    7.6672
   21.795    7.9831
   21.810    8.0990
   21.825    7.8568
   21.840    7.8989
   21.855    8.0569
   21.870    7.9831
   21.885    8.3939
   21.900    8.1727
   21.915    7.9937
   21.930    8.1306
   21.945    7.9831
   21.960    7.9831
   21.975    7.5619
   21.990    7.4039
   22.005    7.6567
   22.020    7.5513
   22.035    7.8778
   22.050    7.7620
   22.065    7.8884
   22.080    7.6672
   22.095    8.0779
   22.110    8.3834
   22.125    8.0990
   22.140    7.9305
   22.155    7.4882
   22.170    7.8884
   22.185    8.1938
   22.200    8.0569
   22.215    7.7514
   22.230    7.8357
   22.245    7.7409
   22.260    8.0253
   22.275    7.6777
   22.290    8.0358
   22.305    8.3307
   22.320    7.8462
   22.335    7.9621
   22.350    8.2359
   22.365    7.8041
   22.380    7.4144
   22.395    7.9410
   22.410    7.7620
   22.425    7.9831
   22.440    7.9094
   22.455    8.5835
   22.470    8.3307
   22.485    8.1517
   22.500    8.4571
   22.515    8.6993
   22.530    8.7625
   22.545    9.0890
   22.560    9.2786
   22.575    9.5419
   22.590    9.4681
   22.605    9.2575
   22.620    8.8889
   22.635    9.1101
   22.650    8.8784
   22.665    9.0469
   22.680    8.4992
   22.695    7.9516
   22.710    8.6151
   22.725    8.3412
   22.740    8.1938
   22.755    8.1938
   22.770    7.7304
   22.785    8.3834
   22.800    7.6567
   22.815    8.0463
   22.830    8.5413
   22.845    8.5835
   22.860    8.7520
   22.875    8.3307
   22.890    8.1095
   22.905    8.6572
   22.920    8.2991
   22.935    8.5835
   22.950    8.3728
   22.965    8.6572
   22.980    8.4676
   22.995    8.6151
   23.010    8.2359
   23.025    8.1517
   23.040    8.6045
   23.055    7.9937
   23.070    8.3096
   23.085    8.0569
   23.100    8.2886
   23.115    8.3096
   23.130    7.9831
   23.145    8.0779
   23.160    8.3096
   23.175    7.7830
   23.190    7.9410
   23.205    7.8462
   23.220    7.5724
   23.235    8.0147
   23.250    7.4566
   23.265    7.9621
   23.280    7.7409
   23.295    7.8568
   23.310    7.8146
   23.325    7.9621
   23.340    8.1201
   23.355    7.6356
   23.370    7.8989
   23.385    8.0569
   23.400    8.1306
   23.415    7.4250
   23.430    7.6040
   23.445    7.9094
   23.460    7.9621
   23.475    7.6988
   23.490    7.9094
   23.505    7.8989
   23.520    7.9410
   23.535    8.0463
   23.550    8.5624
   23.565    8.0674
   23.580    8.1411
   23.595    8.1622
   23.610    8.2359
   23.625    8.3834
   23.640    8.5729
   23.655    7.7725
   23.670    7.7304
   23.685    7.8252
   23.700    7.7304
   23.715    7.7725
   23.730    7.5935
   23.745    7.5513
   23.760    7.6251
   23.775    7.6461
   23.790    7.3196
   23.805    7.8462
   23.820    7.7620
   23.835    7.5408
   23.850    7.5513
   23.865    7.6672
   23.880    7.7304
   23.895    8.0885
   23.910    7.9831
   23.925    8.1411
   23.940    7.8462
   23.955    7.7199
   23.970    7.4250
   23.985    7.7409
   24.000    7.4882
   24.015    7.7514
   24.030    7.6356
   24.045    7.4987
   24.060    7.9200
   24.075    7.7304
   24.090    7.9410
   24.105    7.4250
   24.120    7.3934
   24.135    7.3091
   24.150    7.3091
   24.165    7.1827
   24.180    7.2354
   24.195    7.1195
   24.210    7.1827
   24.225    7.8252
   24.240    7.1511
   24.255    7.0669
   24.270    7.2670
   24.285    7.3618
   24.300    7.2354
   24.315    7.6461
   24.330    7.4566
   24.345    7.5092
   24.360    7.5408
   24.375    7.4460
   24.390    7.3618
   24.405    7.4039
   24.420    7.1511
   24.435    7.1195
   24.450    7.4460
   24.465    7.6356
   24.480    6.9194
   24.495    6.9300
   24.510    7.0774
   24.525    7.6567
   24.540    7.7409
   24.555    7.4460
   24.570    7.5092
   24.585    7.6777
   24.600    7.6145
   24.615    7.7725
   24.630    7.8252
   24.645    7.8568
   24.660    7.2670
   24.675    7.2354
   24.690    7.2565
   24.705    7.2143
   24.720    7.2249
   24.735    7.2880
   24.750    7.4250
   24.765    7.4987
   24.780    7.1195
   24.795    7.2880
   24.810    7.4882
   24.825    7.1301
   24.840    7.1511
   24.855    7.2459
   24.870    7.4882
   24.885    6.9721
   24.900    7.0353
   24.915    7.2354
   24.930    7.7409
   24.945    7.8252
   24.960    7.5619
   24.975    7.3407
   24.990    7.5303
   25.005    7.6777
   25.020    7.7199
   25.035    7.3828
   25.050    7.0879
   25.065    7.4250
   25.080    6.5719
   25.095    7.1195
   25.110    7.2249
   25.125    7.5619
   25.140    7.3618
   25.155    7.1617
   25.170    7.0563
   25.185    7.6145
   25.200    7.5303
   25.215    7.5303
   25.230    7.2986
   25.245    7.3618
   25.260    7.3723
   25.275    7.0142
   25.290    7.4671
   25.305    7.7409
   25.320    7.3196
   25.335    7.5197
   25.350    7.4776
   25.365    7.6567
   25.380    8.1622
   25.395    7.2880
   25.410    7.2986
   25.425    7.5724
   25.440    7.3302
   25.455    7.2986
   25.470    7.6356
   25.485    7.8462
   25.500    7.8568
   25.515    7.8252
   25.530    7.7409
   25.545    7.8252
   25.560    7.7199
   25.575    7.3723
   25.590    7.2143
   25.605    7.6145
   25.620    7.9621
   25.635    7.1722
   25.650    7.3934
   25.665    7.3934
   25.680    7.3934
   25.695    7.7304
   25.710    7.1827
   25.725    7.3407
   25.740    7.3618
   25.755    7.4566
   25.770    7.7830
   25.785    7.7620
   25.800    7.5303
   25.815    7.6567
   25.830    8.0042
   25.845    7.8462
   25.860    8.0463
   25.875    8.3412
   25.890    8.0147
   25.905    7.6988
   25.920    7.8778
   25.935    7.6883
   25.950    7.6883
   25.965    7.8673
   25.980    7.6356
   25.995    7.7725
   26.010    7.1301
   26.025    7.2565
   26.040    7.3407
   26.055    7.1511
   26.070    7.4355
   26.085    7.1827
   26.100    7.2670
   26.115    7.2986
   26.130    7.4144
   26.145    7.4355
   26.160    7.2670
   26.175    6.9721
   26.190    7.5303
   26.205    6.9089
   26.220    7.1301
   26.235    7.4882
   26.250    7.2880
   26.265    7.0248
   26.280    7.2880
   26.295    7.0142
   26.310    7.2880
   26.325    7.0563
   26.340    7.0142
   26.355    7.2670
   26.370    7.3407
   26.385    7.2986
   26.400    6.9405
   26.415    7.0142
   26.430    7.4671
   26.445    7.5197
   26.460    7.3618
   26.475    7.4039
   26.490    7.2143
   26.505    7.1933
   26.520    7.1827
   26.535    7.3618
   26.550    7.2038
   26.565    6.9510
   26.580    7.0563
   26.595    6.7930
   26.610    7.3091
   26.625    7.2354
   26.640    6.9194
   26.655    6.8036
   26.670    6.9721
   26.685    6.8773
   26.700    6.6667
   26.715    6.9089
   26.730    6.9089
   26.745    7.0669
   26.760    7.2354
   26.775    6.8352
   26.790    6.7930
   26.805    7.2038
   26.820    7.0669
   26.835    7.2459
   26.850    6.9932
   26.865    7.1617
   26.880    6.8352
   26.895    6.9932
   26.910    7.3512
   26.925    6.7088
   26.940    6.4876
   26.955    7.2038
   26.970    7.3723
   26.985    7.2565
   27.000    7.3196
   27.015    7.3934
   27.030    7.2249
   27.045    7.8252
   27.060    7.2249
   27.075    7.5092
   27.090    7.5197
   27.105    7.1406
   27.120    7.5197
   27.135    7.2038
   27.150    7.1301
   27.165    7.0458
   27.180    7.0563
   27.195    7.3618
   27.210    7.0879
   27.225    7.1195
   27.240    7.4987
   27.255    7.3302
   27.270    7.1301
   27.285    7.0774
   27.300    6.9405
   27.315    6.8984
   27.330    6.8246
   27.345    7.3618
   27.360    7.2986
   27.375    6.8878
   27.390    7.1617
   27.405    7.0879
   27.420    6.9194
   27.435    6.7825
   27.450    6.9721
   27.465    6.8352
   27.480    6.9932
   27.495    7.1195
   27.510    6.7404
   27.525    7.3196
   27.540    7.1511
   27.555    7.0669
   27.570    6.9616
   27.585    7.0669
   27.600    6.8141
   27.615    7.3828
   27.630    7.4671
   27.645    7.2354
   27.660    7.1933
   27.675    7.0985
   27.690    7.3091
   27.705    7.3828
   27.720    7.3828
   27.735    7.5619
   27.750    6.9932
   27.765    6.9510
   27.780    6.9089
   27.795    6.4455
   27.810    6.3612
   27.825    7.1301
   27.840    7.3618
   27.855    7.3828
   27.870    7.1722
   27.885    7.2670
   27.900    7.0985
   27.915    7.2143
   27.930    7.6988
   27.945    7.8989
   27.960    8.0147
   27.975    8.1833
   27.990    7.9094
   28.005    8.4992
   28.020    8.2675
   28.035    7.8568
   28.050    7.6145
   28.065    7.5092
   28.080    7.5092
   28.095    7.6040
   28.110    7.6145
   28.125    7.3196
   28.140    7.0037
   28.155    7.0037
   28.170    7.5513
   28.185    7.6988
   28.200    7.6145
   28.215    7.4671
   28.230    7.6356
   28.245    7.4566
   28.260    6.9932
   28.275    7.1827
   28.290    7.1406
   28.305    7.1827
   28.320    7.4355
   28.335    7.3512
   28.350    7.0879
   28.365    6.7930
   28.380    6.7193
   28.395    6.8878
   28.410    6.6877
   28.425    6.9616
   28.440    6.6667
   28.455    6.8246
   28.470    7.3302
   28.485    7.2038
   28.500    7.0985
   28.515    7.2670
   28.530    7.1933
   28.545    6.8246
   28.560    6.7930
   28.575    7.0037
   28.590    7.0142
   28.605    7.0879
   28.620    7.0563
   28.635    7.0774
   28.650    6.8984
   28.665    6.8036
   28.680    6.9616
   28.695    7.1090
   28.710    6.7825
   28.725    7.0985
   28.740    7.1406
   28.755    6.5087
   28.770    6.4876
   28.785    7.0248
   28.800    6.9300
   28.815    6.9194
   28.830    6.4982
   28.845    7.0353
   28.860    6.9616
   28.875    7.2565
   28.890    7.9094
   28.905    7.9726
   28.920    7.9621
   28.935    7.5408
   28.950    7.5303
   28.965    7.8146
   28.980    7.7620
   28.995    7.4671
   29.010    7.9516
   29.025    7.6040
   29.040    7.4671
   29.055    7.0774
   29.070    6.9405
   29.085    7.0669
   29.100    6.4771
   29.115    6.6667
   29.130    6.6772
   29.145    6.5087
   29.160    6.7088
   29.175    6.9721
   29.190    6.8036
   29.205    6.9300
   29.220    6.9826
   29.235    7.2038
   29.250    6.8457
   29.265    7.0458
   29.280    6.9826
   29.295    7.3407
   29.310    6.9300
   29.325    7.1406
   29.340    7.1722
   29.355    7.1090
   29.370    7.3512
   29.385    7.0458
   29.400    6.7615
   29.415    6.8668
   29.430    6.9510
   29.445    6.6983
   29.460    6.7404
   29.475    6.6245
   29.490    6.9194
   29.505    6.8246
   29.520    6.7615
   29.535    6.7930
   29.550    6.8984
   29.565    6.6561
   29.580    6.9300
   29.595    6.9510
   29.610    6.5403
   29.625    6.7930
   29.640    6.9721
   29.655    6.4560
   29.670    6.7193
   29.685    6.5719
   29.700    6.8773
   29.715    6.6772
   29.730    6.5613
   29.745    6.4560
   29.760    6.4771
   29.775    6.8246
   29.790    6.9826
   29.805    6.7404
   29.820    6.9616
   29.835    6.5508
   29.850    6.5613
   29.865    6.7509
   29.880    6.7615
   29.895    7.0142
   29.910    6.6983
   29.925    6.4455
   29.940    6.6877
   29.955    7.2459
   29.970    6.8246
   29.985    7.2143
   30.000    6.8668
   30.015    6.6140
   30.030    6.4455
   30.045    6.9721
   30.060    7.0353
   30.075    6.4244
   30.090    6.9405
   30.105    6.6877
   30.120    6.9826
   30.135    6.8352
   30.150    6.6456
   30.165    6.6035
   30.180    6.5929
   30.195    6.7825
   30.210    6.7509
   30.225    6.5403
   30.240    6.2033
   30.255    6.4666
   30.270    6.5508
   30.285    6.3296
   30.300    6.6772
   30.315    6.9300
   30.330    6.7404
   30.345    6.0874
   30.360    6.6035
   30.375    6.6772
   30.390    6.5403
   30.405    6.3507
   30.420    6.7404
   30.435    6.4666
   30.450    6.3191
   30.465    6.4876
   30.480    6.4982
   30.495    6.2665
   30.510    6.4982
   30.525    6.7825
   30.540    6.7193
   30.555    6.5929
   30.570    6.6772
   30.585    6.7825
   30.600    6.7720
   30.615    6.5824
   30.630    6.4771
   30.645    6.7930
   30.660    6.6351
   30.675    6.5403
   30.690    6.5298
   30.705    7.0142
   30.720    6.6035
   30.735    6.3402
   30.750    6.4455
   30.765    6.7299
   30.780    6.4560
   30.795    6.3191
   30.810    6.1822
   30.825    6.4244
   30.840    6.1822
   30.855    6.1295
   30.870    6.5087
   30.885    6.2559
   30.900    6.6667
   30.915    6.5298
   30.930    6.4560
   30.945    6.3507
   30.960    6.5298
   30.975    6.3823
   30.990    6.4666
   31.005    6.6140
   31.020    6.3191
   31.035    6.6561
   31.050    7.0985
   31.065    6.6877
   31.080    6.4350
   31.095    6.5087
   31.110    6.3402
   31.125    6.2454
   31.140    6.4139
   31.155    6.1506
   31.170    6.4771
   31.185    6.8984
   31.200    6.5613
   31.215    6.4876
   31.230    6.2665
   31.245    6.2138
   31.260    6.2033
   31.275    6.2981
   31.290    6.3823
   31.305    6.7509
   31.320    6.2138
   31.335    6.2243
   31.350    6.1927
   31.365    6.6772
   31.380    6.4244
   31.395    6.4876
   31.410    6.3612
   31.425    6.2349
   31.440    6.6667
   31.455    6.9089
   31.470    6.7825
   31.485    6.5719
   31.500    6.3823
   31.515    6.7088
   31.530    6.6245
   31.545    6.4350
   31.560    6.7825
   31.575    6.7088
   31.590    6.6035
   31.605    6.8668
   31.620    6.4455
   31.635    6.5929
   31.650    6.7088
   31.665    7.1722
   31.680    7.2670
   31.695    7.0248
   31.710    7.3407
   31.725    7.6883
   31.740    7.5408
   31.755    7.4566
   31.770    7.7304
   31.785    7.1933
   31.800    7.3828
   31.815    8.0990
   31.830    8.0147
   31.845    7.7725
   31.860    7.5829
   31.875    7.2670
   31.890    7.1511
   31.905    6.9194
   31.920    7.2038
   31.935    7.2459
   31.950    6.9405
   31.965    6.6772
   31.980    7.0879
   31.995    7.2986
   32.010    7.6040
   32.025    7.9094
   32.040    8.3096
   32.055    8.5624
   32.070    8.6993
   32.085    8.8257
   32.100    8.8257
   32.115    9.3418
   32.130    8.9310
   32.145    8.5624
   32.160    8.2570
   32.175    8.2043
   32.190    7.4776
   32.205    7.0458
   32.220    7.0458
   32.235    6.3612
   32.250    6.2349
   32.265    6.2559
   32.280    6.3823
   32.295    5.7609
   32.310    5.8873
   32.325    6.1190
   32.340    6.0979
   32.355    6.4876
   32.370    6.6140
   32.385    6.3612
   32.400    6.2243
   32.415    5.9400
   32.430    6.1611
   32.445    6.4350
   32.460    6.4034
   32.475    6.2981
   32.490    6.3296
   32.505    6.6351
   32.520    6.3612
   32.535    6.5087
   32.550    6.6667
   32.565    6.4666
   32.580    6.4455
   32.595    6.2033
   32.610    5.9926
   32.625    5.9926
   32.640    6.1506
   32.655    6.3718
   32.670    6.3296
   32.685    6.1085
   32.700    6.0137
   32.715    6.1506
   32.730    5.9926
   32.745    6.2981
   32.760    6.2349
   32.775    6.2138
   32.790    6.2138
   32.805    6.2033
   32.820    6.2981
   32.835    6.1717
   32.850    5.9716
   32.865    6.1295
   32.880    6.1085
   32.895    6.2454
   32.910    6.2349
   32.925    5.8768
   32.940    6.5192
   32.955    6.3507
   32.970    6.4455
   32.985    6.2138
   33.000    5.9926
   33.015    6.0242
   33.030    6.1822
   33.045    6.1927
   33.060    6.2981
   33.075    5.9716
   33.090    6.1822
   33.105    6.2559
   33.120    6.2454
   33.135    6.1927
   33.150    6.1401
   33.165    6.1717
   33.180    6.0979
   33.195    6.0874
   33.210    6.3402
   33.225    6.4876
   33.240    6.5403
   33.255    6.3402
   33.270    5.9400
   33.285    6.1295
   33.300    6.0664
   33.315    6.0453
   33.330    6.3191
   33.345    6.1506
   33.360    6.3191
   33.375    6.2033
   33.390    6.2665
   33.405    6.2875
   33.420    6.3086
   33.435    6.4350
   33.450    6.2981
   33.465    6.0664
   33.480    6.0979
   33.495    6.4350
   33.510    6.3718
   33.525    6.0558
   33.540    5.8452
   33.555    6.0769
   33.570    6.0242
   33.585    6.1401
   33.600    6.4139
   33.615    6.4139
   33.630    6.1611
   33.645    6.4034
   33.660    6.1190
   33.675    6.2875
   33.690    6.5824
   33.705    6.3296
   33.720    7.0669
   33.735    6.7825
   33.750    7.0248
   33.765    7.4671
   33.780    7.2880
   33.795    6.8878
   33.810    6.9405
   33.825    7.0353
   33.840    7.0037
   33.855    6.9300
   33.870    7.6145
   33.885    7.5197
   33.900    7.1722
   33.915    7.1722
   33.930    7.2880
   33.945    7.3512
   33.960    6.7825
   33.975    6.8141
   33.990    7.0458
   34.005    6.9616
   34.020    6.8141
   34.035    6.6140
   34.050    6.5824
   34.065    6.1190
   34.080    6.2875
   34.095    6.6245
   34.110    6.1190
   34.125    5.8978
   34.140    5.8873
   34.155    6.2138
   34.170    6.0558
   34.185    6.1822
   34.200    6.1506
   34.215    6.1611
   34.230    6.2875
   34.245    6.2981
   34.260    6.0348
   34.275    6.2138
   34.290    6.2243
   34.305    6.4034
   34.320    6.1190
   34.335    6.0558
   34.350    6.2033
   34.365    6.3086
   34.380    5.7925
   34.395    6.0874
   34.410    6.0664
   34.425    6.0874
   34.440    6.3507
   34.455    6.0558
   34.470    6.0453
   34.485    6.0032
   34.500    6.0137
   34.515    6.2243
   34.530    6.2981
   34.545    6.1822
   34.560    6.0664
   34.575    6.2033
   34.590    5.8452
   34.605    5.7504
   34.620    5.9926
   34.635    5.7504
   34.650    5.8873
   34.665    6.0558
   34.680    6.2138
   34.695    5.9821
   34.710    5.7188
   34.725    5.7399
   34.740    6.0558
   34.755    6.1295
   34.770    5.9821
   34.785    6.0558
   34.800    5.7504
   34.815    5.8241
   34.830    5.7925
   34.845    6.0558
   34.860    6.2243
   34.875    6.3823
   34.890    5.9400
   34.905    6.0032
   34.920    5.4028
   34.935    5.6556
   34.950    5.8873
   34.965    6.1822
   34.980    5.9505
   34.995    6.0558
   35.010    6.1506
   35.025    6.1506
   35.040    6.0874
   35.055    6.2138
   35.070    5.7504
   35.085    6.1717
   35.100    5.8031
   35.115    5.8031
   35.130    5.8873
   35.145    5.9926
   35.160    6.0242
   35.175    5.8768
   35.190    5.6977
   35.205    5.7504
   35.220    6.0348
   35.235    6.2454
   35.250    6.2665
   35.265    6.0348
   35.280    5.7609
   35.295    6.0242
   35.310    5.9610
   35.325    5.7609
   35.340    5.8557
   35.355    5.8873
   35.370    5.9610
   35.385    6.2559
   35.400    5.8662
   35.415    5.7399
   35.430    5.8662
   35.445    6.0032
   35.460    6.1085
   35.475    6.0032
   35.490    6.1190
   35.505    5.9189
   35.520    5.7820
   35.535    5.7083
   35.550    6.3296
   35.565    6.1295
   35.580    5.7399
   35.595    5.5714
   35.610    5.7609
   35.625    5.6767
   35.640    6.2033
   35.655    5.9084
   35.670    5.7293
   35.685    5.9189
   35.700    6.0769
   35.715    5.8241
   35.730    5.5503
   35.745    6.0558
   35.760    5.8662
   35.775    6.3928
   35.790    5.8873
   35.805    5.7609
   35.820    5.6767
   35.835    5.9610
   35.850    5.8241
   35.865    5.8031
   35.880    6.2349
   35.895    6.0032
   35.910    5.8978
   35.925    5.8031
   35.940    5.9821
   35.955    6.0664
   35.970    6.2770
   35.985    5.8978
   36.000    5.9084
   36.015    5.5503
   36.030    6.0242
   36.045    5.9821
   36.060    6.0032
   36.075    5.8347
   36.090    5.9294
   36.105    5.8136
   36.120    5.7504
   36.135    5.8873
   36.150    5.7293
   36.165    5.7504
   36.180    5.5082
   36.195    5.8978
   36.210    6.2559
   36.225    6.0242
   36.240    5.7504
   36.255    5.7504
   36.270    6.0348
   36.285    5.8136
   36.300    5.6977
   36.315    5.9716
   36.330    6.0979
   36.345    5.9821
   36.360    5.9716
   36.375    5.8241
   36.390    5.7820
   36.405    5.6661
   36.420    5.9821
   36.435    6.1927
   36.450    6.0558
   36.465    5.8347
   36.480    5.7715
   36.495    5.8241
   36.510    6.2349
   36.525    6.0032
   36.540    5.6451
   36.555    5.8768
   36.570    5.8136
   36.585    5.7083
   36.600    5.8136
   36.615    5.8557
   36.630    6.0769
   36.645    5.7399
   36.660    5.5924
   36.675    5.4976
   36.690    5.6977
   36.705    6.0032
   36.720    5.8031
   36.735    5.5608
   36.750    5.7399
   36.765    5.9716
   36.780    5.8241
   36.795    5.8557
   36.810    5.9294
   36.825    5.7399
   36.840    5.5503
   36.855    5.7399
   36.870    5.7083
   36.885    5.5398
   36.900    6.0137
   36.915    5.7293
   36.930    6.1611
   36.945    5.9084
   36.960    5.9610
   36.975    5.9821
   36.990    6.0137
   37.005    5.9926
   37.020    6.2559
   37.035    6.0558
   37.050    5.8978
   37.065    5.9189
   37.080    5.5503
   37.095    5.7609
   37.110    5.7925
   37.125    6.0348
   37.140    5.7188
   37.155    5.4766
   37.170    5.7188
   37.185    5.6556
   37.200    5.7083
   37.215    6.0769
   37.230    6.1085
   37.245    6.0874
   37.260    5.8031
   37.275    5.8347
   37.290    6.0032
   37.305    5.8241
   37.320    5.8031
   37.335    5.9189
   37.350    5.4766
   37.365    6.1295
   37.380    5.5608
   37.395    5.5082
   37.410    5.6556
   37.425    5.8978
   37.440    6.0032
   37.455    6.0137
   37.470    5.9926
   37.485    5.6451
   37.500    5.6767
   37.515    6.0453
   37.530    5.7715
   37.545    5.8662
   37.560    5.8873
   37.575    5.9716
   37.590    6.0348
   37.605    5.7293
   37.620    5.8873
   37.635    6.1295
   37.650    6.0558
   37.665    5.8241
   37.680    5.6451
   37.695    5.8662
   37.710    5.6767
   37.725    5.8557
   37.740    5.8873
   37.755    6.3296
   37.770    5.9084
   37.785    5.9084
   37.800    5.5608
   37.815    6.1611
   37.830    6.1401
   37.845    5.7188
   37.860    5.9926
   37.875    6.0874
   37.890    5.8241
   37.905    5.9716
   37.920    5.7820
   37.935    5.9505
   37.950    6.1717
   37.965    5.8662
   37.980    6.0558
   37.995    5.9294
   38.010    5.7293
   38.025    5.6556
   38.040    5.6240
   38.055    5.8136
   38.070    6.0558
   38.085    5.5924
   38.100    5.7715
   38.115    5.5398
   38.130    5.5398
   38.145    6.0348
   38.160    5.9821
   38.175    5.8031
   38.190    5.5292
   38.205    5.7609
   38.220    6.1717
   38.235    6.0348
   38.250    5.6029
   38.265    5.8557
   38.280    5.8662
   38.295    6.3086
   38.310    6.0874
   38.325    5.8347
   38.340    5.4976
   38.355    5.5608
   38.370    5.9505
   38.385    5.6977
   38.400    5.8662
   38.415    6.0769
   38.430    5.3818
   38.445    5.7715
   38.460    5.7083
   38.475    5.9926
   38.490    6.2665
   38.505    6.2665
   38.520    6.4244
   38.535    6.0137
   38.550    6.2349
   38.565    6.3612
   38.580    6.2875
   38.595    6.3191
   38.610    6.2559
   38.625    6.2559
   38.640    6.4350
   38.655    5.8557
   38.670    5.8031
   38.685    5.9926
   38.700    5.8241
   38.715    5.8452
   38.730    5.6767
   38.745    6.1190
   38.760    5.9400
   38.775    5.6661
   38.790    5.7399
   38.805    5.9400
   38.820    5.4239
   38.835    5.3712
   38.850    6.0348
   38.865    5.8347
   38.880    5.9505
   38.895    5.7083
   38.910    5.7820
   38.925    5.4239
   38.940    5.6767
   38.955    5.4450
   38.970    5.6977
   38.985    5.8031
   39.000    6.0558
   39.015    5.8557
   39.030    5.8347
   39.045    5.8347
   39.060    5.7715
   39.075    5.7504
   39.090    5.7715
   39.105    5.8768
   39.120    5.6345
   39.135    5.8241
   39.150    5.7609
   39.165    5.9610
   39.180    5.7609
   39.195    5.7399
   39.210    5.5503
   39.225    5.7925
   39.240    5.9505
   39.255    6.2349
   39.270    5.8347
   39.285    5.6029
   39.300    5.8136
   39.315    5.8347
   39.330    5.9294
   39.345    5.9294
   39.360    5.9189
   39.375    5.7399
   39.390    5.8557
   39.405    6.0558
   39.420    6.0453
   39.435    5.7820
   39.450    5.8662
   39.465    5.9926
   39.480    5.6451
   39.495    5.6661
   39.510    5.8768
   39.525    5.9821
   39.540    5.7925
   39.555    5.6872
   39.570    5.6767
   39.585    5.9294
   39.600    5.6345
   39.615    5.5503
   39.630    5.6029
   39.645    5.7609
   39.660    5.9294
   39.675    6.1190
   39.690    5.6977
   39.705    5.7399
   39.720    5.9610
   39.735    5.9084
   39.750    6.0664
   39.765    5.6135
   39.780    5.9505
   39.795    5.8768
   39.810    5.5819
   39.825    5.8347
   39.840    5.8557
   39.855    5.8136
   39.870    5.7609
   39.885    5.5608
   39.900    5.6977
   39.915    5.6135
   39.930    5.7293
   39.945    5.8873
   39.960    5.8031
   39.975    5.6240
   39.990    5.5608
