    1.500   36.8088
    1.515   36.9844
    1.530   36.6333
    1.545   36.6333
    1.560   36.0014
    1.575   34.8956
    1.590   33.5615
    1.605   33.8775
    1.620   31.7184
    1.635   31.8238
    1.650   31.2796
    1.665   32.2977
    1.680   30.4020
    1.695   29.5770
    1.710   29.5243
    1.725   28.5413
    1.740   27.1020
    1.755   26.3648
    1.770   26.7509
    1.785   26.1015
    1.800   25.8733
    1.815   25.4695
    1.830   24.4690
    1.845   24.2233
    1.860   23.5563
    1.875   23.7844
    1.890   22.4153
    1.905   22.7664
    1.920   21.5728
    1.935   22.5206
    1.950   21.6781
    1.965   21.3270
    1.980   20.9760
    1.995   20.6424
    2.010   19.6595
    2.025   19.6419
    2.040   18.9749
    2.055   18.3781
    2.070   18.5010
    2.085   17.8339
    2.100   17.7286
    2.115   17.3074
    2.130   18.1675
    2.145   17.7813
    2.160   16.6052
    2.175   16.9914
    2.190   16.2717
    2.205   15.7802
    2.220   15.4116
    2.235   15.9207
    2.250   15.9031
    2.265   15.0255
    2.280   14.4813
    2.295   14.7622
    2.310   15.3239
    2.325   14.0249
    2.340   13.8494
    2.355   13.8143
    2.370   13.5510
    2.385   13.2877
    2.400   13.1999
    2.415   13.0420
    2.430   13.6212
    2.445   13.6037
    2.460   12.7787
    2.475   12.9366
    2.490   11.9888
    2.505   12.1292
    2.520   12.2170
    2.535   12.6031
    2.550   12.7084
    2.565   11.6728
    2.580   11.7606
    2.595   12.1994
    2.610   11.0409
    2.625   11.3569
    2.640   11.5675
    2.655   11.8659
    2.670   11.6904
    2.685   10.5670
    2.700   10.6021
    2.715   10.8478
    2.730   10.8654
    2.745   10.9531
    2.760   10.2861
    2.775   10.6021
    2.790   10.6547
    2.805   10.6372
    2.820   10.5319
    2.835   10.6372
    2.850   10.4090
    2.865    9.8648
    2.880   10.2861
    2.895   10.3388
    2.910    9.9702
    2.925    9.8824
    2.940   10.5494
    2.955    9.8999
    2.970   10.3914
    2.985   10.4441
    3.000    9.9877
    3.015    9.6542
    3.030    9.8297
    3.045    9.3382
    3.060    9.2154
    3.075    9.1978
    3.090    9.6191
    3.105    9.5138
    3.120    9.3909
    3.135    8.8643
    3.150    9.2680
    3.165    9.3558
    3.180    9.4962
    3.195    9.3909
    3.210    9.1627
    3.225    8.9521
    3.240    8.9521
    3.255    9.0398
    3.270    8.9872
    3.285    9.1627
    3.300    8.6010
    3.315    8.9345
    3.330    8.7941
    3.345    8.7765
    3.360    8.5659
    3.375    9.0398
    3.390    8.6010
    3.405    8.3553
    3.420    8.7590
    3.435    8.2149
    3.450    8.3553
    3.465    8.4957
    3.480    8.6888
    3.495    8.4957
    3.510    8.3026
    3.525    8.3553
    3.540    8.8292
    3.555    8.6712
    3.570    8.7414
    3.585    8.1446
    3.600    7.8462
    3.615    7.9867
    3.630    8.4957
    3.645    8.2500
    3.660    8.1271
    3.675    8.5308
    3.690    7.8287
    3.705    7.7058
    3.720    8.4781
    3.735    8.4606
    3.750    7.9164
    3.765    8.3728
    3.780    8.4255
    3.795    8.1446
    3.810    8.1797
    3.825    8.3904
    3.840    8.1973
    3.855    8.1446
    3.870    8.0744
    3.885    7.8989
    3.900    8.4430
    3.915    8.2149
    3.930    8.3377
    3.945    9.0223
    3.960    8.8819
    3.975    8.1446
    3.990    8.4957
    4.005    8.5835
    4.020    8.5133
    4.035    7.8111
    4.050    9.0398
    4.065    8.7765
    4.080    8.1622
    4.095    8.4957
    4.110    8.4079
    4.125    8.6712
    4.140    8.3904
    4.155    7.4250
    4.170    7.7760
    4.185    7.6532
    4.200    8.3904
    4.215    8.5308
    4.230    8.3377
    4.245    7.7760
    4.260    7.6356
    4.275    7.9516
    4.290    8.6537
    4.305    8.6537
    4.320    8.7414
    4.335    8.6010
    4.350    7.9340
    4.365    8.2675
    4.380    7.9516
    4.395    7.8638
    4.410    8.1446
    4.425    8.3202
    4.440    8.1622
    4.455    8.0920
    4.470    8.3026
    4.485    7.7409
    4.500    8.2675
    4.515    7.8462
    4.530    8.3553
    4.545    8.7941
    4.560    8.6712
    4.575    9.1452
    4.590    8.6888
    4.605    8.0569
    4.620    8.0920
    4.635    8.5835
    4.650    8.5659
    4.665    8.3202
    4.680    7.8462
    4.695    8.2149
    4.710    8.1446
    4.725    7.8638
    4.740    7.7585
    4.755    8.6010
    4.770    8.6010
    4.785    8.4255
    4.800    8.0920
    4.815    8.1973
    4.830    8.3904
    4.845    8.4079
    4.860    8.0569
    4.875    8.5659
    4.890    8.4430
    4.905    8.7941
    4.920    8.6537
    4.935    8.1622
    4.950    8.5308
    4.965    8.9345
    4.980    8.4781
    4.995    8.5835
    5.010    8.9696
    5.025    9.5138
    5.040    8.8468
    5.055    9.2856
    5.070    9.4260
    5.085    9.0398
    5.100    9.3207
    5.115    9.7946
    5.130    9.7244
    5.145    8.9170
    5.160    9.4962
    5.175    9.4611
    5.190    9.8824
    5.205    9.6015
    5.220    9.1803
    5.235    9.6893
    5.250    9.3558
    5.265   10.1632
    5.280    9.8473
    5.295   10.1281
    5.310   10.5845
    5.325    9.9702
    5.340   10.2335
    5.355    9.8824
    5.370   10.3914
    5.385   10.4792
    5.400    9.7420
    5.415    9.7244
    5.430   10.0930
    5.445   11.4973
    5.460   10.6021
    5.475   10.4265
    5.490   10.3914
    5.505   10.1457
    5.520   10.5670
    5.535   10.5143
    5.550   10.5319
    5.565   10.9005
    5.580   11.2515
    5.595   10.3388
    5.610   10.7074
    5.625   10.1808
    5.640   10.2686
    5.655   10.2510
    5.670    9.8473
    5.685    9.8824
    5.700   10.0930
    5.715    9.6367
    5.730   10.4616
    5.745   10.4265
    5.760    9.4436
    5.775   10.3914
    5.790    9.5138
    5.805    9.2329
    5.820    9.3031
    5.835    9.3909
    5.850    9.0574
    5.865    8.9170
    5.880    9.0750
    5.895    9.3558
    5.910    8.7239
    5.925    8.5484
    5.940    8.7590
    5.955    8.6537
    5.970    8.4957
    5.985    8.4781
    6.000    8.6537
    6.015    9.1978
    6.030    8.3377
    6.045    7.9516
    6.060    8.3728
    6.075    8.2851
    6.090    8.7414
    6.105    7.9867
    6.120    7.6005
    6.135    7.7409
    6.150    7.6005
    6.165    7.7936
    6.180    7.8462
    6.195    7.7760
    6.210    7.4776
    6.225    7.8111
    6.240    7.7585
    6.255    7.9340
    6.270    7.8287
    6.285    7.6356
    6.300    8.2675
    6.315    7.7058
    6.330    7.2845
    6.345    7.3899
    6.360    7.7234
    6.375    7.7760
    6.390    7.9691
    6.405    7.2845
    6.420    7.3372
    6.435    7.2845
    6.450    7.8287
    6.465    7.4952
    6.480    7.3723
    6.495    7.6005
    6.510    7.2845
    6.525    7.2845
    6.540    7.2143
    6.555    7.3899
    6.570    7.4952
    6.585    7.3723
    6.600    7.3899
    6.615    7.3899
    6.630    7.4776
    6.645    7.4425
    6.660    7.2670
    6.675    7.1792
    6.690    6.8106
    6.705    6.6877
    6.720    7.1266
    6.735    7.3547
    6.750    7.7585
    6.765    7.4425
    6.780    7.4776
    6.795    7.0563
    6.810    7.1792
    6.825    7.2845
    6.840    6.6526
    6.855    6.5122
    6.870    6.9335
    6.885    7.1090
    6.900    6.9510
    6.915    6.9335
    6.930    6.9686
    6.945    7.1968
    6.960    7.0388
    6.975    6.6526
    6.990    7.0563
    7.005    6.8282
    7.020    6.5824
    7.035    7.0388
    7.050    6.7228
    7.065    7.2845
    7.080    7.2319
    7.095    6.6877
    7.110    7.4425
    7.125    6.9510
    7.140    6.7404
    7.155    6.5298
    7.170    6.7930
    7.185    6.8282
    7.200    6.5649
    7.215    6.1962
    7.230    6.8282
    7.245    6.4244
    7.260    6.7755
    7.275    6.5298
    7.290    6.4420
    7.305    6.2665
    7.320    6.4946
    7.335    6.4595
    7.350    6.5649
    7.365    6.2840
    7.380    6.4595
    7.395    6.4420
    7.410    6.8808
    7.425    6.6877
    7.440    6.4069
    7.455    6.4069
    7.470    6.5473
    7.485    6.4069
    7.500    6.3542
    7.515    6.7404
    7.530    6.2840
    7.545    6.6175
    7.560    6.3542
    7.575    6.4244
    7.590    6.3542
    7.605    7.0037
    7.620    6.1962
    7.635    6.6000
    7.650    6.2665
    7.665    5.7048
    7.680    6.0383
    7.695    6.3191
    7.710    6.2665
    7.725    6.2313
    7.740    6.3016
    7.755    6.5824
    7.770    5.9154
    7.785    6.0909
    7.800    5.8627
    7.815    5.9154
    7.830    6.2840
    7.845    6.4069
    7.860    5.8276
    7.875    5.7925
    7.890    6.1260
    7.905    6.0032
    7.920    6.2489
    7.935    6.4244
    7.950    6.3542
    7.965    5.6872
    7.980    5.9505
    7.995    6.6351
    8.010    6.2138
    8.025    6.2489
    8.040    6.5824
    8.055    6.2489
    8.070    6.0734
    8.085    6.0558
    8.100    5.7048
    8.115    6.1436
    8.130    6.0734
    8.145    6.6702
    8.160    6.3367
    8.175    5.8627
    8.190    5.9681
    8.205    6.5824
    8.220    6.4244
    8.235    6.0734
    8.250    6.1085
    8.265    6.1962
    8.280    6.4069
    8.295    5.8452
    8.310    5.9154
    8.325    5.8978
    8.340    6.1787
    8.355    5.8627
    8.370    6.1787
    8.385    5.5643
    8.400    5.8627
    8.415    5.9329
    8.430    5.5819
    8.445    6.1787
    8.460    5.6872
    8.475    6.0383
    8.490    5.8276
    8.505    5.8101
    8.520    5.5292
    8.535    5.8452
    8.550    5.6697
    8.565    5.7925
    8.580    5.4590
    8.595    5.5994
    8.610    5.7750
    8.625    6.2138
    8.640    6.0909
    8.655    5.9681
    8.670    5.5819
    8.685    5.4415
    8.700    5.6697
    8.715    5.6521
    8.730    5.8276
    8.745    5.7399
    8.760    5.9154
    8.775    5.7574
    8.790    5.4941
    8.805    5.6697
    8.820    5.3361
    8.835    5.6170
    8.850    5.4239
    8.865    5.3186
    8.880    5.7048
    8.895    5.3537
    8.910    5.2835
    8.925    5.3537
    8.940    5.4941
    8.955    5.4415
    8.970    5.3712
    8.985    5.6697
    9.000    5.7574
    9.015    5.7574
    9.030    5.6697
    9.045    5.4064
    9.060    5.8276
    9.075    5.7399
    9.090    5.2835
    9.105    5.4239
    9.120    5.2659
    9.135    5.3361
    9.150    5.5994
    9.165    5.4239
    9.180    5.8276
    9.195    5.4766
    9.210    5.3712
    9.225    5.5994
    9.240    6.2489
    9.255    5.6697
    9.270    5.3010
    9.285    5.0553
    9.300    4.9851
    9.315    5.3010
    9.330    5.5994
    9.345    5.3010
    9.360    5.2133
    9.375    5.4064
    9.390    5.5994
    9.405    5.4415
    9.420    5.4590
    9.435    5.0904
    9.450    5.4590
    9.465    6.0207
    9.480    5.5819
    9.495    5.4590
    9.510    5.2133
    9.525    5.0553
    9.540    5.6521
    9.555    5.4590
    9.570    4.9675
    9.585    4.4936
    9.600    4.9149
    9.615    5.0026
    9.630    5.4766
    9.645    5.6345
    9.660    5.6521
    9.675    5.6521
    9.690    5.2835
    9.705    5.3888
    9.720    5.3712
    9.735    5.2484
    9.750    5.2308
    9.765    5.3537
    9.780    5.4941
    9.795    5.2835
    9.810    5.5643
    9.825    5.1957
    9.840    5.1431
    9.855    5.1782
    9.870    4.9500
    9.885    5.3010
    9.900    5.3010
    9.915    5.0377
    9.930    5.3186
    9.945    5.1080
    9.960    5.3010
    9.975    5.5819
    9.990    4.9324
   10.005    5.0904
   10.020    5.5468
   10.035    5.1080
   10.050    5.6697
   10.065    5.5468
   10.080    5.0728
   10.095    5.0728
   10.110    5.1080
   10.125    5.6697
   10.140    5.5994
   10.155    5.5643
   10.170    5.2484
   10.185    5.4239
   10.200    5.5643
   10.215    5.1957
   10.230    5.0728
   10.245    4.6867
   10.260    5.4415
   10.275    5.2835
   10.290    5.3010
   10.305    5.3361
   10.320    5.7925
   10.335    5.2484
   10.350    5.3186
   10.365    5.6697
   10.380    5.3186
   10.395    5.5292
   10.410    5.3186
   10.425    5.3888
   10.440    5.6521
   10.455    5.6170
   10.470    5.5643
   10.485    5.6697
   10.500    5.6345
   10.515    5.6170
   10.530    6.1436
   10.545    5.3537
   10.560    4.9500
   10.575    5.3186
   10.590    5.5994
   10.605    5.6170
   10.620    5.6697
   10.635    5.4239
   10.650    5.9856
   10.665    5.4415
   10.680    5.3888
   10.695    5.4766
   10.710    5.5643
   10.725    5.8276
   10.740    6.1260
   10.755    6.2138
   10.770    5.7750
   10.785    5.3712
   10.800    5.3888
   10.815    5.2659
   10.830    5.4415
   10.845    5.5292
   10.860    5.2484
   10.875    6.0558
   10.890    5.7750
   10.905    5.5468
   10.920    5.7223
   10.935    5.9329
   10.950    5.5819
   10.965    5.5117
   10.980    5.0377
   10.995    5.5643
   11.010    5.7574
   11.025    5.5819
   11.040    5.7574
   11.055    5.8627
   11.070    6.0909
   11.085    5.4766
   11.100    5.5468
   11.115    5.6697
   11.130    5.4766
   11.145    5.5468
   11.160    5.4766
   11.175    5.4590
   11.190    5.4766
   11.205    5.5468
   11.220    5.7223
   11.235    5.4590
   11.250    5.6170
   11.265    5.0904
   11.280    5.3361
   11.295    5.4766
   11.310    5.3712
   11.325    5.7048
   11.340    5.7223
   11.355    5.3712
   11.370    5.0553
   11.385    5.3537
   11.400    5.4064
   11.415    5.9681
   11.430    5.7223
   11.445    5.5819
   11.460    5.1957
   11.475    5.5994
   11.490    5.4766
   11.505    5.6345
   11.520    5.5994
   11.535    5.6872
   11.550    5.1957
   11.565    5.7925
   11.580    5.3361
   11.595    5.4766
   11.610    5.5643
   11.625    6.0909
   11.640    5.4590
   11.655    5.2659
   11.670    5.7399
   11.685    5.6872
   11.700    4.9675
   11.715    5.2133
   11.730    5.1431
   11.745    5.6521
   11.760    5.3712
   11.775    5.3010
   11.790    5.3186
   11.805    5.0553
   11.820    5.0904
   11.835    5.2484
   11.850    5.1606
   11.865    5.1080
   11.880    5.1782
   11.895    4.8973
   11.910    4.8447
   11.925    4.8973
   11.940    5.5468
   11.955    5.8276
   11.970    5.4766
   11.985    5.1606
   12.000    5.4064
   12.015    5.6872
   12.030    5.5994
   12.045    5.3888
   12.060    5.2835
   12.075    5.5117
   12.090    5.4415
   12.105    5.2659
   12.120    5.4590
   12.135    5.5994
   12.150    5.3537
   12.165    4.7569
   12.180    5.2835
   12.195    5.6170
   12.210    5.2308
   12.225    5.8276
   12.240    5.1606
   12.255    5.5643
   12.270    5.4064
   12.285    5.3712
   12.300    5.0728
   12.315    5.1782
   12.330    5.2835
   12.345    5.2659
   12.360    4.9851
   12.375    5.1080
   12.390    5.0728
   12.405    5.2133
   12.420    5.6521
   12.435    4.8798
   12.450    5.0202
   12.465    5.4415
   12.480    5.3186
   12.495    5.3537
   12.510    4.8973
   12.525    5.2484
   12.540    5.1782
   12.555    5.0377
   12.570    5.0026
   12.585    5.1782
   12.600    5.0202
   12.615    4.7393
   12.630    5.4941
   12.645    4.9500
   12.660    4.8447
   12.675    4.6691
   12.690    5.0026
   12.705    5.0553
   12.720    4.7042
   12.735    4.6691
   12.750    5.0202
   12.765    5.1080
   12.780    5.2308
   12.795    4.8447
   12.810    4.9851
   12.825    4.8973
   12.840    5.1080
   12.855    5.2308
   12.870    5.0728
   12.885    5.0377
   12.900    4.6867
   12.915    5.2835
   12.930    5.0904
   12.945    5.2308
   12.960    4.9500
   12.975    5.5994
   12.990    5.1606
   13.005    5.4415
   13.020    5.1080
   13.035    5.4415
   13.050    5.1080
   13.065    5.3186
   13.080    4.9149
   13.095    4.9675
   13.110    5.0553
   13.125    4.9149
   13.140    4.8271
   13.155    4.6867
   13.170    4.8798
   13.185    5.0202
   13.200    5.4941
   13.215    4.8622
   13.230    5.0202
   13.245    5.0377
   13.260    4.9500
   13.275    5.1606
   13.290    5.0728
   13.305    5.1957
   13.320    5.0202
   13.335    5.4239
   13.350    5.4415
   13.365    4.7393
   13.380    4.7042
   13.395    4.9324
   13.410    4.9675
   13.425    5.2133
   13.440    5.1431
   13.455    5.0904
   13.470    5.2659
   13.485    5.3537
   13.500    5.0553
   13.515    5.0728
   13.530    5.4064
   13.545    5.2308
   13.560    5.3888
   13.575    5.2133
   13.590    5.3888
   13.605    4.9675
   13.620    5.3361
   13.635    4.9851
   13.650    5.2659
   13.665    4.7569
   13.680    5.1782
   13.695    4.8622
   13.710    5.0377
   13.725    5.1606
   13.740    5.2133
   13.755    4.8447
   13.770    5.2659
   13.785    5.1080
   13.800    5.1782
   13.815    5.4415
   13.830    5.2835
   13.845    5.5292
   13.860    5.3010
   13.875    5.4941
   13.890    5.1255
   13.905    5.2308
   13.920    5.2835
   13.935    5.3888
   13.950    5.2484
   13.965    5.6170
   13.980    5.7574
   13.995    5.2133
   14.010    5.6872
   14.025    5.2835
   14.040    5.1957
   14.055    5.2308
   14.070    5.1431
   14.085    5.4415
   14.100    5.3010
   14.115    4.9500
   14.130    5.2659
   14.145    5.3186
   14.160    5.5292
   14.175    5.2484
   14.190    5.2308
   14.205    5.8978
   14.220    6.0734
   14.235    4.8973
   14.250    5.3010
   14.265    5.6697
   14.280    5.2659
   14.295    5.6697
   14.310    5.4415
   14.325    5.8276
   14.340    5.8803
   14.355    5.8978
   14.370    5.3537
   14.385    5.4239
   14.400    6.0032
   14.415    5.9154
   14.430    5.7574
   14.445    5.5292
   14.460    5.4239
   14.475    5.0904
   14.490    5.3712
   14.505    5.7750
   14.520    5.5819
   14.535    5.7223
   14.550    5.9856
   14.565    5.2659
   14.580    5.0904
   14.595    5.7048
   14.610    5.5117
   14.625    5.3186
   14.640    5.5117
   14.655    5.5292
   14.670    5.5994
   14.685    5.5468
   14.700    5.7048
   14.715    5.6872
   14.730    5.4415
   14.745    5.5468
   14.760    5.8101
   14.775    5.4064
   14.790    4.9149
   14.805    5.4415
   14.820    5.8803
   14.835    6.1260
   14.850    5.4590
   14.865    5.2484
   14.880    5.5468
   14.895    5.4415
   14.910    5.2308
   14.925    5.2484
   14.940    5.4415
   14.955    5.3010
   14.970    5.1606
   14.985    5.3010
   15.000    5.1957
   15.015    4.7569
   15.030    5.0728
   15.045    4.9851
   15.060    4.9500
   15.075    4.9500
   15.090    5.0026
   15.105    4.9500
   15.120    4.9675
   15.135    4.9851
   15.150    5.1957
   15.165    5.1606
   15.180    5.3537
   15.195    5.4239
   15.210    5.1255
   15.225    5.1080
   15.240    5.0377
   15.255    5.4941
   15.270    5.4941
   15.285    5.4941
   15.300    4.9500
   15.315    5.0553
   15.330    5.2133
   15.345    5.1606
   15.360    5.3186
   15.375    5.5819
   15.390    5.1606
   15.405    5.3888
   15.420    5.7750
   15.435    5.1255
   15.450    4.5638
   15.465    4.8622
   15.480    5.2835
   15.495    4.8271
   15.510    5.0026
   15.525    5.1255
   15.540    5.3888
   15.555    5.2659
   15.570    5.3010
   15.585    5.1431
   15.600    5.0904
   15.615    5.0553
   15.630    4.9324
   15.645    5.0377
   15.660    5.9505
   15.675    5.0026
   15.690    4.8271
   15.705    4.9149
   15.720    5.1080
   15.735    5.0553
   15.750    4.6691
   15.765    5.1957
   15.780    5.2308
   15.795    5.3537
   15.810    5.1255
   15.825    5.0202
   15.840    4.7393
   15.855    4.8622
   15.870    5.1606
   15.885    4.7744
   15.900    5.2835
   15.915    5.4590
   15.930    4.6165
   15.945    5.4941
   15.960    5.3361
   15.975    5.2484
   15.990    4.7569
   16.005    5.0202
   16.020    5.4941
   16.035    5.2484
   16.050    5.3537
   16.065    5.3010
   16.080    5.4239
   16.095    5.4064
   16.110    5.6170
   16.125    5.0377
   16.140    5.5117
   16.155    5.5643
   16.170    5.4590
   16.185    5.1957
   16.200    4.8973
   16.215    5.1957
   16.230    5.2308
   16.245    4.9500
   16.260    5.4766
   16.275    5.6697
   16.290    5.3537
   16.305    5.2133
   16.320    5.6345
   16.335    5.4239
   16.350    5.5468
   16.365    5.5468
   16.380    4.8973
   16.395    5.2484
   16.410    4.6165
   16.425    5.2308
   16.440    5.6872
   16.455    5.7223
   16.470    5.1431
   16.485    5.0904
   16.500    5.1431
   16.515    4.9675
   16.530    5.1957
   16.545    4.9500
   16.560    5.2835
   16.575    5.2484
   16.590    5.4941
   16.605    5.5117
   16.620    5.6521
   16.635    5.1957
   16.650    4.7920
   16.665    4.9149
   16.680    5.7223
   16.695    5.7925
   16.710    5.0377
   16.725    5.2133
   16.740    5.6345
   16.755    5.3010
   16.770    4.5463
   16.785    4.9675
   16.800    5.3010
   16.815    4.8095
   16.830    4.6867
   16.845    5.2133
   16.860    5.5117
   16.875    5.3010
   16.890    5.2484
   16.905    5.3712
   16.920    5.0904
   16.935    5.2835
   16.950    5.3186
   16.965    5.0728
   16.980    5.1782
   16.995    5.2659
   17.010    5.1606
   17.025    5.1606
   17.040    4.9675
   17.055    4.9149
   17.070    5.0026
   17.085    5.4239
   17.100    5.5468
   17.115    5.3361
   17.130    5.7574
   17.145    5.1431
   17.160    5.0728
   17.175    5.1255
   17.190    5.2835
   17.205    5.0026
   17.220    4.9851
   17.235    4.9675
   17.250    5.1606
   17.265    5.1957
   17.280    4.5463
   17.295    4.9851
   17.310    5.3361
   17.325    5.6345
   17.340    5.3888
   17.355    4.9851
   17.370    4.8973
   17.385    5.1431
   17.400    4.8973
   17.415    4.8798
   17.430    4.7744
   17.445    5.0728
   17.460    5.3186
   17.475    5.2308
   17.490    5.3361
   17.505    5.3537
   17.520    4.9149
   17.535    5.2659
   17.550    5.1080
   17.565    5.2659
   17.580    4.7042
   17.595    5.4415
   17.610    5.2308
   17.625    5.1782
   17.640    5.2484
   17.655    5.2659
   17.670    5.2133
   17.685    4.8271
   17.700    5.2484
   17.715    5.5643
   17.730    5.2484
   17.745    5.1957
   17.760    5.3537
   17.775    5.3712
   17.790    5.5468
   17.805    5.2133
   17.820    5.1606
   17.835    5.2659
   17.850    5.5292
   17.865    4.8973
   17.880    4.8973
   17.895    5.3537
   17.910    5.4766
   17.925    5.1606
   17.940    5.1255
   17.955    5.3186
   17.970    5.8101
   17.985    4.8447
   18.000    5.0202
   18.015    4.9851
   18.030    4.8973
   18.045    5.0202
   18.060    5.0026
   18.075    5.2659
   18.090    5.1782
   18.105    5.1255
   18.120    4.8798
   18.135    4.7744
   18.150    4.9675
   18.165    5.3361
   18.180    5.5819
   18.195    5.0377
   18.210    5.1957
   18.225    5.3712
   18.240    5.0377
   18.255    5.2484
   18.270    5.2133
   18.285    5.3361
   18.300    5.4941
   18.315    5.0377
   18.330    4.8973
   18.345    5.5117
   18.360    5.5643
   18.375    5.4064
   18.390    5.2308
   18.405    5.1080
   18.420    4.9675
   18.435    5.1957
   18.450    4.8798
   18.465    5.0026
   18.480    4.9324
   18.495    5.0904
   18.510    5.0728
   18.525    5.0026
   18.540    5.2835
   18.555    5.2659
   18.570    5.1255
   18.585    5.4415
   18.600    4.8271
   18.615    5.0728
   18.630    5.7925
   18.645    5.4239
   18.660    4.8271
   18.675    4.9500
   18.690    5.3537
   18.705    5.2484
   18.720    5.4239
   18.735    4.9500
   18.750    4.9851
   18.765    5.0026
   18.780    4.8095
   18.795    5.4590
   18.810    5.0026
   18.825    5.4064
   18.840    5.6170
   18.855    5.3010
   18.870    5.0026
   18.885    5.3361
   18.900    5.1957
   18.915    5.7223
   18.930    5.4590
   18.945    6.0032
   18.960    6.3718
   18.975    6.2138
   18.990    5.9505
   19.005    5.6345
   19.020    5.6345
   19.035    5.1080
   19.050    4.8095
   19.065    5.2835
   19.080    5.3361
   19.095    5.0202
   19.110    4.9500
   19.125    5.3712
   19.140    5.2659
   19.155    4.6516
   19.170    5.1782
   19.185    5.2835
   19.200    5.0026
   19.215    5.3186
   19.230    5.4766
   19.245    4.6867
   19.260    4.9149
   19.275    4.8798
   19.290    4.9851
   19.305    5.0728
   19.320    5.1080
   19.335    5.7925
   19.350    5.2835
   19.365    5.4415
   19.380    5.1782
   19.395    4.9675
   19.410    4.9851
   19.425    4.8973
   19.440    5.1080
   19.455    5.1255
   19.470    5.4064
   19.485    4.9149
   19.500    4.8798
   19.515    5.1431
   19.530    4.6165
   19.545    5.1431
   19.560    5.1957
   19.575    5.1606
   19.590    4.7920
   19.605    4.7042
   19.620    5.1606
   19.635    5.3537
   19.650    4.9851
   19.665    4.8095
   19.680    5.0904
   19.695    4.6340
   19.710    4.7218
   19.725    5.1255
   19.740    5.4415
   19.755    4.9500
   19.770    4.8798
   19.785    5.3888
   19.800    5.0728
   19.815    5.1255
   19.830    5.0202
   19.845    5.1431
   19.860    5.2308
   19.875    5.3361
   19.890    4.9675
   19.905    4.7569
   19.920    4.7042
   19.935    4.7920
   19.950    4.4409
   19.965    4.7744
   19.980    4.9149
   19.995    4.4936
   20.010    5.1080
   20.025    5.1080
   20.040    5.5468
   20.055    4.8271
   20.070    4.6516
   20.085    4.5287
   20.100    5.2308
   20.115    5.2484
   20.130    5.2133
   20.145    5.0202
   20.160    5.1782
   20.175    5.0553
   20.190    5.5468
   20.205    5.2133
   20.220    4.9500
   20.235    4.9149
   20.250    5.2484
   20.265    4.8095
   20.280    4.9500
   20.295    4.8095
   20.310    5.7223
   20.325    4.7744
   20.340    4.5814
   20.355    5.0904
   20.370    4.8095
   20.385    4.9851
   20.400    5.3361
   20.415    4.8798
   20.430    4.9675
   20.445    4.9500
   20.460    4.4585
   20.475    4.7920
   20.490    5.1606
   20.505    5.1431
   20.520    4.8271
   20.535    4.8798
   20.550    5.4239
   20.565    5.2659
   20.580    5.0026
   20.595    4.3356
   20.610    4.7393
   20.625    4.6867
   20.640    4.6165
   20.655    4.8447
   20.670    5.3010
   20.685    5.1782
   20.700    4.7744
   20.715    4.4058
   20.730    5.1431
   20.745    4.8622
   20.760    5.0553
   20.775    4.9149
   20.790    5.0904
   20.805    4.8271
   20.820    4.6867
   20.835    4.7569
   20.850    4.3005
   20.865    4.6691
   20.880    4.6516
   20.895    4.5111
   20.910    4.9675
   20.925    4.6516
   20.940    4.8622
   20.955    4.7042
   20.970    4.6165
   20.985    4.4234
   21.000    4.5463
   21.015    4.5287
   21.030    5.1431
   21.045    4.6867
   21.060    4.7393
   21.075    4.8622
   21.090    4.4409
   21.105    4.7042
   21.120    4.6516
   21.135    4.7744
   21.150    4.7920
   21.165    4.5111
   21.180    4.6340
   21.195    4.7393
   21.210    4.4936
   21.225    4.4760
   21.240    4.3532
   21.255    4.5638
   21.270    4.6340
   21.285    4.6691
   21.300    4.9675
   21.315    5.2133
   21.330    4.9149
   21.345    5.0202
   21.360    4.9324
   21.375    5.1606
   21.390    4.9324
   21.405    4.5814
   21.420    4.4760
   21.435    4.6340
   21.450    4.6691
   21.465    4.5638
   21.480    4.9149
   21.495    4.7920
   21.510    4.6516
   21.525    4.6165
   21.540    4.9851
   21.555    5.0904
   21.570    5.0026
   21.585    4.7042
   21.600    4.9324
   21.615    4.9500
   21.630    4.7569
   21.645    4.8271
   21.660    4.8447
   21.675    4.6867
   21.690    4.5814
   21.705    4.9149
   21.720    4.8973
   21.735    4.3707
   21.750    4.4234
   21.765    4.4585
   21.780    4.7393
   21.795    4.8447
   21.810    4.5638
   21.825    4.9675
   21.840    4.5989
   21.855    4.4760
   21.870    4.4760
   21.885    4.6867
   21.900    4.5463
   21.915    4.8622
   21.930    4.8798
   21.945    4.7569
   21.960    4.8798
   21.975    5.3537
   21.990    4.5814
   22.005    4.4234
   22.020    4.5814
   22.035    5.0553
   22.050    4.4409
   22.065    4.5638
   22.080    4.6867
   22.095    4.8973
   22.110    4.5638
   22.125    4.5111
   22.140    4.6165
   22.155    4.5463
   22.170    4.3707
   22.185    4.5463
   22.200    4.7393
   22.215    4.4058
   22.230    4.2478
   22.245    4.3005
   22.260    4.5989
   22.275    4.7393
   22.290    4.5814
   22.305    4.1074
   22.320    4.3181
   22.335    4.5638
   22.350    4.3005
   22.365    4.6340
   22.380    4.0197
   22.395    4.4585
   22.410    4.7218
   22.425    5.1957
   22.440    4.8622
   22.455    4.5989
   22.470    4.5111
   22.485    4.6516
   22.500    4.3707
   22.515    4.4058
   22.530    4.1601
   22.545    4.2303
   22.560    4.6867
   22.575    4.8095
   22.590    4.6340
   22.605    4.1425
   22.620    4.1074
   22.635    4.5989
   22.650    4.5989
   22.665    4.5111
   22.680    4.5989
   22.695    4.3883
   22.710    4.2830
   22.725    4.6165
   22.740    4.5287
   22.755    4.5287
   22.770    4.4058
   22.785    4.6867
   22.800    4.8622
   22.815    4.4409
   22.830    4.1952
   22.845    4.2830
   22.860    4.2654
   22.875    4.4409
   22.890    4.6867
   22.905    4.7042
   22.920    4.2478
   22.935    4.4936
   22.950    4.6165
   22.965    4.0899
   22.980    4.4936
   22.995    4.0723
   23.010    3.9670
   23.025    4.5287
   23.040    4.5814
   23.055    4.3707
   23.070    4.4760
   23.085    4.6516
   23.100    4.6340
   23.115    4.2478
   23.130    4.3356
   23.145    4.4058
   23.160    4.4760
   23.175    4.1776
   23.190    4.1601
   23.205    3.9670
   23.220    4.1952
   23.235    4.2303
   23.250    4.6867
   23.265    3.8617
   23.280    4.1952
   23.295    4.5638
   23.310    4.1425
   23.325    4.1074
   23.340    4.2127
   23.355    4.3356
   23.370    4.5287
   23.385    4.4936
   23.400    4.3181
   23.415    4.5287
   23.430    4.6867
   23.445    4.3883
   23.460    4.2303
   23.475    4.4234
   23.490    4.2830
   23.505    4.0723
   23.520    4.6867
   23.535    4.3883
   23.550    4.1425
   23.565    4.0723
   23.580    4.1776
   23.595    3.7564
   23.610    4.3883
   23.625    3.9846
   23.640    4.1952
   23.655    4.4760
   23.670    4.3181
   23.685    4.1074
   23.700    3.8968
   23.715    3.7213
   23.730    4.2127
   23.745    4.1601
   23.760    4.2303
   23.775    3.9670
   23.790    4.2478
   23.805    4.5287
   23.820    4.1776
   23.835    4.3005
   23.850    4.1601
   23.865    4.0548
   23.880    4.2830
   23.895    4.2478
   23.910    4.1425
   23.925    4.1601
   23.940    4.6516
   23.955    4.2127
   23.970    4.1776
   23.985    4.3005
   24.000    4.2830
   24.015    4.4234
   24.030    3.9670
   24.045    3.9846
   24.060    4.2303
   24.075    3.7388
   24.090    3.8266
   24.105    4.1425
   24.120    4.2127
   24.135    4.1952
   24.150    4.1776
   24.165    4.2303
   24.180    3.8968
   24.195    3.8441
   24.210    4.0548
   24.225    3.5808
   24.240    3.9494
   24.255    4.0372
   24.270    3.8266
   24.285    3.8090
   24.300    4.3883
   24.315    3.7037
   24.330    4.1250
   24.345    4.4760
   24.360    4.0197
   24.375    3.8441
   24.390    4.0021
   24.405    3.8090
   24.420    3.9494
   24.435    4.3532
   24.450    3.7564
   24.465    3.8617
   24.480    3.8266
   24.495    3.7739
   24.510    4.1776
   24.525    4.0548
   24.540    3.5106
   24.555    3.6510
   24.570    3.6862
   24.585    3.7564
   24.600    3.9846
   24.615    4.1425
   24.630    4.0899
   24.645    3.7564
   24.660    4.1425
   24.675    3.4755
   24.690    4.1776
   24.705    4.1425
   24.720    3.8441
   24.735    3.7037
   24.750    3.7213
   24.765    3.7915
   24.780    3.7037
   24.795    3.6686
   24.810    3.6510
   24.825    3.6510
   24.840    3.8266
   24.855    3.7388
   24.870    3.6862
   24.885    4.0723
   24.900    3.9846
   24.915    4.0197
   24.930    3.8441
   24.945    4.0723
   24.960    3.7915
   24.975    3.8792
   24.990    3.4404
   25.005    4.1952
   25.020    3.9670
   25.035    3.7037
   25.050    3.8617
   25.065    4.0372
   25.080    4.0197
   25.095    3.9846
   25.110    3.9670
   25.125    3.6159
   25.140    3.9494
   25.155    3.8090
   25.170    3.5633
   25.185    3.7213
   25.200    3.7564
   25.215    3.6510
   25.230    3.8266
   25.245    3.6862
   25.260    3.4580
   25.275    3.8090
   25.290    3.8792
   25.305    3.8441
   25.320    3.5808
   25.335    3.8968
   25.350    3.8617
   25.365    3.8266
   25.380    3.6510
   25.395    3.7739
   25.410    3.7213
   25.425    4.1952
   25.440    4.0021
   25.455    3.9143
   25.470    3.7564
   25.485    3.9670
   25.500    3.8617
   25.515    3.7915
   25.530    3.5633
   25.545    3.6159
   25.560    3.3000
   25.575    3.5457
   25.590    3.5106
   25.605    3.6335
   25.620    3.7388
   25.635    3.6335
   25.650    3.6686
   25.665    3.5984
   25.680    3.7213
   25.695    3.7213
   25.710    3.6862
   25.725    3.7564
   25.740    3.6862
   25.755    3.6862
   25.770    3.5808
   25.785    3.8441
   25.800    3.7915
   25.815    3.5282
   25.830    3.6335
   25.845    3.6686
   25.860    3.7037
   25.875    3.3175
   25.890    3.3526
   25.905    3.8792
   25.920    3.9143
   25.935    3.5106
   25.950    3.5808
   25.965    3.6686
   25.980    3.7388
   25.995    3.6510
   26.010    3.7915
   26.025    3.6862
   26.040    4.2127
   26.055    3.8441
   26.070    3.4580
   26.085    3.6159
   26.100    3.6335
   26.115    3.3526
   26.130    3.1420
   26.145    3.2473
   26.160    3.1596
   26.175    3.5633
   26.190    3.3351
   26.205    3.5106
   26.220    3.8968
   26.235    3.2649
   26.250    3.8968
   26.265    3.7739
   26.280    3.7213
   26.295    3.3351
   26.310    3.4755
   26.325    3.6159
   26.340    3.3000
   26.355    3.6335
   26.370    3.0542
   26.385    3.2649
   26.400    3.4931
   26.415    3.7388
   26.430    3.4755
   26.445    3.1771
   26.460    3.0893
   26.475    3.2473
   26.490    3.7037
   26.505    3.4931
   26.520    3.9494
   26.535    3.3351
   26.550    3.5984
   26.565    3.4755
   26.580    3.4053
   26.595    3.4580
   26.610    3.5984
   26.625    3.3877
   26.640    3.3175
   26.655    3.3702
   26.670    3.3526
   26.685    3.2298
   26.700    3.6510
   26.715    3.5282
   26.730    3.3526
   26.745    3.2122
   26.760    3.3526
   26.775    3.1771
   26.790    3.4053
   26.805    3.4580
   26.820    3.3351
   26.835    3.2473
   26.850    3.5808
   26.865    3.2473
   26.880    3.4580
   26.895    3.1069
   26.910    3.1771
   26.925    3.4755
   26.940    3.2473
   26.955    3.1771
   26.970    3.3702
   26.985    3.4580
   27.000    3.2298
   27.015    3.1420
   27.030    3.2122
   27.045    3.1596
   27.060    3.4229
   27.075    3.1596
   27.090    3.0542
   27.105    3.4580
   27.120    3.3702
   27.135    3.4931
   27.150    3.4580
   27.165    3.3351
   27.180    3.1069
   27.195    3.2473
   27.210    3.4580
   27.225    3.0367
   27.240    2.9138
   27.255    3.2122
   27.270    3.2473
   27.285    2.8436
   27.300    3.2824
   27.315    2.9840
   27.330    2.8963
   27.345    3.1771
   27.360    3.0542
   27.375    3.5808
   27.390    3.3175
   27.405    3.2649
   27.420    3.0367
   27.435    3.1771
   27.450    3.1596
   27.465    3.1069
   27.480    2.8436
   27.495    3.2122
   27.510    3.6159
   27.525    3.3000
   27.540    3.3351
   27.555    3.4053
   27.570    3.4404
   27.585    3.2824
   27.600    3.1245
   27.615    3.3000
   27.630    3.3175
   27.645    2.8787
   27.660    3.3702
   27.675    3.4053
   27.690    3.4229
   27.705    3.1420
   27.720    3.0542
   27.735    3.1245
   27.750    3.2649
   27.765    3.4580
   27.780    3.2473
   27.795    2.9840
   27.810    2.8612
   27.825    2.9489
   27.840    3.1245
   27.855    3.0893
   27.870    2.8612
   27.885    2.8436
   27.900    3.0718
   27.915    3.5106
   27.930    3.6159
   27.945    3.6159
   27.960    3.8266
   27.975    4.3707
   27.990    4.0372
   28.005    3.9494
   28.020    3.7739
   28.035    3.3351
   28.050    3.1771
   28.065    3.1245
   28.080    3.0016
   28.095    2.8612
   28.110    3.1245
   28.125    3.1771
   28.140    2.9138
   28.155    3.1245
   28.170    3.2122
   28.185    2.9489
   28.200    2.9840
   28.215    2.9840
   28.230    3.0718
   28.245    2.9665
   28.260    3.0542
   28.275    2.6681
   28.290    2.9489
   28.305    3.1596
   28.320    3.0542
   28.335    2.9489
   28.350    3.0893
   28.365    3.0191
   28.380    3.0016
   28.395    3.0718
   28.410    3.0016
   28.425    2.8963
   28.440    2.8787
   28.455    3.0191
   28.470    3.2649
   28.485    3.1245
   28.500    3.1420
   28.515    2.9314
   28.530    3.1771
   28.545    3.0542
   28.560    3.3351
   28.575    3.1771
   28.590    2.9314
   28.605    2.8787
   28.620    2.5628
   28.635    2.7032
   28.650    2.6330
   28.665    2.9138
   28.680    2.8787
   28.695    2.8260
   28.710    3.0191
   28.725    2.9665
   28.740    3.0367
   28.755    3.0893
   28.770    2.9489
   28.785    3.0893
   28.800    2.8260
   28.815    2.8612
   28.830    2.9665
   28.845    3.1947
   28.860    2.8963
   28.875    3.2122
   28.890    3.5457
   28.905    3.4755
   28.920    4.0021
   28.935    4.1425
   28.950    4.3532
   28.965    3.9670
   28.980    3.7739
   28.995    3.2298
   29.010    3.0367
   29.025    2.7383
   29.040    3.0542
   29.055    3.0718
   29.070    2.6681
   29.085    2.9314
   29.100    2.6154
   29.115    2.8963
   29.130    3.1069
   29.145    2.4925
   29.160    2.6681
   29.175    2.7558
   29.190    3.1069
   29.205    3.0893
   29.220    3.0542
   29.235    2.8260
   29.250    3.0542
   29.265    3.0718
   29.280    3.2298
   29.295    3.1947
   29.310    2.7207
   29.325    2.6154
   29.340    2.6505
   29.355    3.0367
   29.370    3.0718
   29.385    2.8436
   29.400    2.8436
   29.415    3.1596
   29.430    2.8085
   29.445    2.7734
   29.460    2.9314
   29.475    2.8787
   29.490    2.8963
   29.505    2.7909
   29.520    3.0191
   29.535    2.6505
   29.550    2.4925
   29.565    2.7032
   29.580    2.5101
   29.595    2.2819
   29.610    2.5803
   29.625    2.5803
   29.640    2.6330
   29.655    2.2117
   29.670    2.3521
   29.685    2.5979
   29.700    2.8963
   29.715    2.8787
   29.730    2.3521
   29.745    2.8963
   29.760    2.7734
   29.775    2.7383
   29.790    2.8085
   29.805    2.4925
   29.820    2.5452
   29.835    2.3697
   29.850    2.3521
   29.865    2.6681
   29.880    2.6330
   29.895    2.5101
   29.910    2.5452
   29.925    2.6856
   29.940    2.7383
   29.955    2.2117
   29.970    2.2292
   29.985    2.5628
   30.000    2.7558
   30.015    2.5101
   30.030    2.5276
   30.045    2.5452
   30.060    2.5803
   30.075    2.4048
   30.090    2.3697
   30.105    2.3521
   30.120    2.6856
   30.135    2.5979
   30.150    2.4574
   30.165    2.3346
   30.180    2.4048
   30.195    2.5628
   30.210    2.3697
   30.225    2.5803
   30.240    2.7032
   30.255    2.4750
   30.270    2.4048
   30.285    2.2995
   30.300    2.5276
   30.315    2.4925
   30.330    2.5452
   30.345    2.3170
   30.360    2.5276
   30.375    2.5979
   30.390    2.3346
   30.405    2.6505
   30.420    2.6330
   30.435    2.4399
   30.450    2.5452
   30.465    2.1766
   30.480    2.1590
   30.495    2.5101
   30.510    2.8085
   30.525    2.3697
   30.540    2.3872
   30.555    2.2643
   30.570    2.3521
   30.585    2.2995
   30.600    2.4574
   30.615    2.4223
   30.630    2.6154
   30.645    2.6154
   30.660    2.5276
   30.675    2.2995
   30.690    2.2819
   30.705    2.3697
   30.720    2.3170
   30.735    2.1064
   30.750    2.4399
   30.765    2.5628
   30.780    2.4223
   30.795    2.3346
   30.810    2.1239
   30.825    2.3170
   30.840    2.0888
   30.855    2.0011
   30.870    2.0186
   30.885    2.2468
   30.900    2.4048
   30.915    2.5452
   30.930    2.3697
   30.945    2.4399
   30.960    2.5979
   30.975    2.3697
   30.990    2.0186
   31.005    2.2117
   31.020    2.2643
   31.035    2.5803
   31.050    2.1239
   31.065    2.1590
   31.080    2.2643
   31.095    2.2819
   31.110    2.1590
   31.125    2.2819
   31.140    2.2643
   31.155    2.1941
   31.170    2.3170
   31.185    2.4925
   31.200    2.2292
   31.215    2.1415
   31.230    1.9133
   31.245    1.9659
   31.260    2.2819
   31.275    2.1590
   31.290    2.1766
   31.305    2.0186
   31.320    2.1239
   31.335    2.4048
   31.350    2.4048
   31.365    2.2292
   31.380    2.3521
   31.395    2.0186
   31.410    2.1941
   31.425    2.1590
   31.440    2.1766
   31.455    2.4925
   31.470    2.5101
   31.485    2.5101
   31.500    2.2468
   31.515    2.2468
   31.530    2.1239
   31.545    2.5452
   31.560    2.1941
   31.575    2.2643
   31.590    2.3170
   31.605    2.2117
   31.620    2.0713
   31.635    2.1590
   31.650    1.8782
   31.665    2.3521
   31.680    2.1415
   31.695    2.4574
   31.710    2.5628
   31.725    2.5803
   31.740    2.8612
   31.755    3.0893
   31.770    3.1947
   31.785    2.7558
   31.800    2.7207
   31.815    2.5628
   31.830    2.2117
   31.845    2.5803
   31.860    2.2995
   31.875    2.1766
   31.890    2.2643
   31.905    2.3697
   31.920    2.2819
   31.935    2.3346
   31.950    2.1941
   31.965    2.0011
   31.980    1.8431
   31.995    2.4925
   32.010    2.7207
   32.025    2.9665
   32.040    3.7915
   32.055    3.9670
   32.070    4.5989
   32.085    4.5287
   32.100    3.8792
   32.115    3.3702
   32.130    3.1069
   32.145    2.2643
   32.160    2.0362
   32.175    2.0713
   32.190    2.3346
   32.205    2.4574
   32.220    2.0186
   32.235    1.7553
   32.250    2.0537
   32.265    2.0537
   32.280    1.9659
   32.295    2.1064
   32.310    1.8782
   32.325    2.0888
   32.340    1.9308
   32.355    2.1064
   32.370    1.8080
   32.385    2.2117
   32.400    2.3170
   32.415    2.1766
   32.430    2.0713
   32.445    1.7729
   32.460    1.8782
   32.475    1.8606
   32.490    1.8080
   32.505    2.0888
   32.520    2.1064
   32.535    2.0186
   32.550    2.0362
   32.565    2.1766
   32.580    1.9835
   32.595    1.9133
   32.610    2.0362
   32.625    1.9308
   32.640    1.8255
   32.655    2.0186
   32.670    2.2643
   32.685    2.2117
   32.700    1.9133
   32.715    1.9484
   32.730    2.2468
   32.745    1.9133
   32.760    1.6851
   32.775    1.9659
   32.790    1.9133
   32.805    2.0537
   32.820    1.9133
   32.835    2.0186
   32.850    1.9659
   32.865    2.2292
   32.880    2.1766
   32.895    2.1415
   32.910    2.3170
   32.925    2.0186
   32.940    1.9659
   32.955    1.7904
   32.970    1.8431
   32.985    1.7378
   33.000    1.9133
   33.015    1.7729
   33.030    2.0186
   33.045    1.6500
   33.060    1.8606
   33.075    1.8957
   33.090    2.0888
   33.105    1.7553
   33.120    1.9484
   33.135    1.8255
   33.150    1.9659
   33.165    1.9659
   33.180    2.0713
   33.195    2.0186
   33.210    1.9484
   33.225    1.7904
   33.240    2.1239
   33.255    2.1239
   33.270    2.0362
   33.285    1.9133
   33.300    1.8080
   33.315    1.9308
   33.330    1.8255
   33.345    1.8431
   33.360    1.9659
   33.375    1.8080
   33.390    1.8080
   33.405    1.7904
   33.420    1.6149
   33.435    1.6675
   33.450    1.8957
   33.465    1.9659
   33.480    1.9659
   33.495    2.0888
   33.510    1.8782
   33.525    2.0011
   33.540    2.1590
   33.555    1.9308
   33.570    1.8255
   33.585    1.7202
   33.600    1.7729
   33.615    2.0011
   33.630    2.0011
   33.645    1.8431
   33.660    1.9835
   33.675    1.7378
   33.690    2.0713
   33.705    1.9133
   33.720    1.8606
   33.735    2.0888
   33.750    2.6330
   33.765    2.5452
   33.780    2.7909
   33.795    2.7032
   33.810    2.4223
   33.825    2.4223
   33.840    1.9835
   33.855    1.7378
   33.870    1.9308
   33.885    1.7027
   33.900    1.8080
   33.915    2.3170
   33.930    2.4223
   33.945    2.3697
   33.960    2.2995
   33.975    1.9308
   33.990    2.1941
   34.005    2.0888
   34.020    2.0186
   34.035    2.1239
   34.050    1.8080
   34.065    1.9659
   34.080    1.9133
   34.095    1.6675
   34.110    2.0186
   34.125    1.9484
   34.140    2.0888
   34.155    1.8080
   34.170    1.9484
   34.185    1.8080
   34.200    1.6851
   34.215    1.6675
   34.230    1.7027
   34.245    1.7202
   34.260    2.1239
   34.275    1.8957
   34.290    1.7378
   34.305    1.7904
   34.320    1.6851
   34.335    1.8431
   34.350    1.8255
   34.365    1.7027
   34.380    1.9308
   34.395    1.6675
   34.410    2.0011
   34.425    1.9835
   34.440    1.8606
   34.455    1.6851
   34.470    2.2117
   34.485    1.9659
   34.500    1.7729
   34.515    1.9133
   34.530    1.6675
   34.545    1.8255
   34.560    2.0537
   34.575    1.8255
   34.590    2.0362
   34.605    2.0888
   34.620    1.7553
   34.635    1.8431
   34.650    1.6851
   34.665    1.7027
   34.680    1.8606
   34.695    1.6675
   34.710    1.8080
   34.725    2.0011
   34.740    1.7729
   34.755    1.7729
   34.770    1.5447
   34.785    1.6324
   34.800    1.8782
   34.815    1.3516
   34.830    1.6675
   34.845    1.5447
   34.860    1.8080
   34.875    2.0011
   34.890    1.8957
   34.905    1.9659
   34.920    1.7729
   34.935    1.8782
   34.950    1.7904
   34.965    1.8957
   34.980    1.8606
   34.995    1.8255
   35.010    1.9659
   35.025    1.9484
   35.040    1.7378
   35.055    1.8782
   35.070    2.1590
   35.085    1.8080
   35.100    1.6324
   35.115    1.8606
   35.130    1.8606
   35.145    1.6675
   35.160    1.8080
   35.175    1.8782
   35.190    1.8782
   35.205    1.7553
   35.220    1.8957
   35.235    1.7378
   35.250    1.7027
   35.265    1.9484
   35.280    1.5447
   35.295    1.6851
   35.310    2.0888
   35.325    1.4920
   35.340    1.4218
   35.355    1.5973
   35.370    1.7553
   35.385    1.6851
   35.400    1.5973
   35.415    1.6149
   35.430    1.8606
   35.445    1.9659
   35.460    1.8080
   35.475    1.7553
   35.490    1.7553
   35.505    1.6675
   35.520    1.6149
   35.535    1.7553
   35.550    1.6675
   35.565    1.5096
   35.580    1.6851
   35.595    1.7202
   35.610    1.9308
   35.625    1.8255
   35.640    1.7553
   35.655    1.6675
   35.670    1.7904
   35.685    1.7553
   35.700    1.8606
   35.715    1.8782
   35.730    1.9308
   35.745    1.9659
   35.760    1.7729
   35.775    1.9659
   35.790    1.8431
   35.805    1.8080
   35.820    1.7553
   35.835    1.5973
   35.850    1.6851
   35.865    1.9133
   35.880    1.9835
   35.895    1.6675
   35.910    1.8255
   35.925    1.6324
   35.940    1.6500
   35.955    1.5798
   35.970    1.6851
   35.985    1.7027
   36.000    1.8431
   36.015    1.5798
   36.030    1.7027
   36.045    2.0011
   36.060    1.8080
   36.075    2.0186
   36.090    2.0713
   36.105    1.6851
   36.120    1.7553
   36.135    1.8782
   36.150    1.6851
   36.165    1.7904
   36.180    1.7553
   36.195    2.0011
   36.210    1.7378
   36.225    1.7378
   36.240    1.6675
   36.255    1.8255
   36.270    1.7553
   36.285    1.7378
   36.300    1.7027
   36.315    1.5973
   36.330    2.0713
   36.345    1.9308
   36.360    1.6675
   36.375    1.9133
   36.390    1.8606
   36.405    1.9308
   36.420    2.0888
   36.435    1.7027
   36.450    1.5798
   36.465    1.5622
   36.480    1.5096
   36.495    1.6851
   36.510    1.8431
   36.525    1.7202
   36.540    1.7553
   36.555    1.7904
   36.570    1.5447
   36.585    1.4218
   36.600    1.5622
   36.615    1.5622
   36.630    1.7202
   36.645    1.8255
   36.660    1.9308
   36.675    1.8080
   36.690    1.6851
   36.705    1.6675
   36.720    1.7378
   36.735    1.8957
   36.750    1.7027
   36.765    2.0362
   36.780    1.5271
   36.795    1.7202
   36.810    1.6149
   36.825    1.5096
   36.840    1.9484
   36.855    1.8606
   36.870    1.5447
   36.885    1.6500
   36.900    1.8431
   36.915    1.5447
   36.930    1.5973
   36.945    1.6675
   36.960    1.8606
   36.975    1.5973
   36.990    1.6324
   37.005    1.4394
   37.020    1.6851
   37.035    1.7553
   37.050    1.7553
   37.065    1.7553
   37.080    1.7378
   37.095    1.6851
   37.110    1.7202
   37.125    1.7904
   37.140    1.7729
   37.155    2.0186
   37.170    1.9484
   37.185    1.5271
   37.200    1.5271
   37.215    1.7027
   37.230    1.9484
   37.245    1.7904
   37.260    1.5798
   37.275    1.8080
   37.290    1.7378
   37.305    1.6149
   37.320    1.6675
   37.335    1.5447
   37.350    1.8957
   37.365    1.6324
   37.380    1.5973
   37.395    1.4394
   37.410    1.7553
   37.425    1.7378
   37.440    1.7553
   37.455    1.6324
   37.470    1.6675
   37.485    1.4745
   37.500    1.4042
   37.515    1.6851
   37.530    1.7553
   37.545    1.5096
   37.560    1.6324
   37.575    1.5622
   37.590    1.7027
   37.605    1.9133
   37.620    1.8080
   37.635    1.8782
   37.650    1.4920
   37.665    1.4745
   37.680    1.6500
   37.695    1.7729
   37.710    1.6500
   37.725    1.7027
   37.740    1.5973
   37.755    1.8080
   37.770    1.5447
   37.785    1.7027
   37.800    1.5798
   37.815    1.7378
   37.830    1.6149
   37.845    1.6675
   37.860    1.8957
   37.875    1.5622
   37.890    1.5973
   37.905    1.6675
   37.920    1.7027
   37.935    1.4745
   37.950    1.5622
   37.965    2.0186
   37.980    1.7202
   37.995    1.6324
   38.010    1.6675
   38.025    2.0713
   38.040    2.0362
   38.055    1.6324
   38.070    1.7378
   38.085    1.5798
   38.100    1.6324
   38.115    1.6149
   38.130    1.8255
   38.145    1.4569
   38.160    1.6500
   38.175    1.5447
   38.190    1.8431
   38.205    1.6675
   38.220    1.4920
   38.235    1.7904
   38.250    1.7202
   38.265    1.6324
   38.280    1.6149
   38.295    1.7378
   38.310    2.0011
   38.325    2.0011
   38.340    1.8782
   38.355    1.7202
   38.370    1.7553
   38.385    1.7378
   38.400    1.8606
   38.415    1.4218
   38.430    1.6149
   38.445    1.8606
   38.460    1.6851
   38.475    1.7904
   38.490    1.7378
   38.505    1.8782
   38.520    2.0362
   38.535    2.2292
   38.550    1.8431
   38.565    1.9659
   38.580    2.0713
   38.595    1.9484
   38.610    2.0537
   38.625    1.8431
   38.640    1.6149
   38.655    1.4745
   38.670    1.5973
   38.685    1.4394
   38.700    1.5447
   38.715    1.7202
   38.730    1.6851
   38.745    1.6324
   38.760    1.8255
   38.775    1.7378
   38.790    1.7553
   38.805    1.5622
   38.820    1.7553
   38.835    1.5096
   38.850    1.6324
   38.865    1.4218
   38.880    1.8782
   38.895    1.8431
   38.910    1.7027
   38.925    1.6675
   38.940    1.8255
   38.955    1.8606
   38.970    1.8606
   38.985    1.6675
   39.000    1.6851
   39.015    1.6675
   39.030    1.7202
   39.045    1.5096
   39.060    1.6675
   39.075    1.4745
   39.090    1.7202
   39.105    2.0011
   39.120    1.8255
   39.135    1.5973
   39.150    1.5447
   39.165    1.3691
   39.180    1.7553
   39.195    1.7202
   39.210    1.8782
   39.225    1.7202
   39.240    1.9484
   39.255    1.9133
   39.270    1.4569
   39.285    1.4920
   39.300    1.5447
   39.315    1.7378
   39.330    1.7027
   39.345    1.5096
   39.360    1.5622
   39.375    1.7729
   39.390    1.7202
   39.405    1.7729
   39.420    1.6675
   39.435    1.8431
   39.450    1.5622
   39.465    1.6149
   39.480    1.5798
   39.495    1.3867
   39.510    1.5096
   39.525    1.4920
   39.540    1.6500
   39.555    1.6851
   39.570    1.5622
   39.585    1.6500
   39.600    1.5973
   39.615    1.6324
   39.630    1.8606
   39.645    1.7027
   39.660    1.4042
   39.675    1.5973
   39.690    1.5622
   39.705    1.5096
   39.720    1.6149
   39.735    1.3516
   39.750    1.6851
   39.765    1.5798
   39.780    1.6851
   39.795    1.5798
   39.810    1.5973
   39.825    1.5798
   39.840    1.6324
   39.855    1.6500
   39.870    1.4745
   39.885    1.7904
   39.900    1.6500
   39.915    1.4569
   39.930    1.3867
   39.945    1.6500
   39.960    1.7027
   39.975    1.5447
   39.990    1.5271
