    1.500    4.4234
    1.515    4.1601
    1.530    4.6867
    1.545    4.5638
    1.560    4.2127
    1.575    4.0899
    1.590    4.1074
    1.605    3.9319
    1.620    4.0197
    1.635    4.1601
    1.650    4.3181
    1.665    4.3005
    1.680    4.1601
    1.695    4.1425
    1.710    3.7037
    1.725    4.0899
    1.740    4.2303
    1.755    4.3005
    1.770    4.1250
    1.785    4.0021
    1.800    4.6691
    1.815    4.2303
    1.830    4.4409
    1.845    4.7569
    1.860    4.4409
    1.875    4.3356
    1.890    4.5463
    1.905    4.5463
    1.920    4.3532
    1.935    4.5638
    1.950    4.7393
    1.965    4.3181
    1.980    4.0548
    1.995    4.5989
    2.010    4.5638
    2.025    5.0377
    2.040    4.9851
    2.055    4.7042
    2.070    4.8447
    2.085    5.0026
    2.100    4.8271
    2.115    4.7569
    2.130    4.9324
    2.145    5.2133
    2.160    4.7393
    2.175    4.7042
    2.190    5.3010
    2.205    4.7218
    2.220    5.0553
    2.235    5.4239
    2.250    5.1431
    2.265    4.9851
    2.280    5.3361
    2.295    5.4239
    2.310    5.3010
    2.325    5.1606
    2.340    5.6872
    2.355    5.6697
    2.370    5.8101
    2.385    5.5468
    2.400    5.3537
    2.415    5.8803
    2.430    5.8101
    2.445    5.9505
    2.460    5.6872
    2.475    5.7223
    2.490    5.7574
    2.505    6.3367
    2.520    6.4069
    2.535    6.7228
    2.550    6.4946
    2.565    6.4771
    2.580    6.1787
    2.595    6.7755
    2.610    6.9510
    2.625    7.3547
    2.640    7.1792
    2.655    7.3372
    2.670    7.3723
    2.685    8.2324
    2.700    7.8813
    2.715    8.1271
    2.730    7.9164
    2.745    8.1446
    2.760    8.9170
    2.775    8.6712
    2.790    9.4436
    2.805    9.6367
    2.820    9.0925
    2.835    9.4085
    2.850    9.4260
    2.865    8.8994
    2.880   10.1808
    2.895   10.2510
    2.910   10.6723
    2.925   10.3388
    2.940   10.9531
    2.955   11.3393
    2.970   11.5148
    2.985   12.1467
    3.000   11.6553
    3.015   12.5856
    3.030   12.6382
    3.045   12.6207
    3.060   12.9191
    3.075   13.1824
    3.090   14.0074
    3.105   14.2005
    3.120   15.4643
    3.135   16.5701
    3.150   16.4121
    3.165   17.2898
    3.180   17.6058
    3.195   18.6063
    3.210   19.2031
    3.225   20.2738
    3.240   21.4674
    3.255   22.5206
    3.270   23.3456
    3.285   25.0307
    3.300   26.7685
    3.315   26.9616
    3.330   29.4717
    3.345   30.8759
    3.360   33.4913
    3.375   35.7908
    3.390   37.3705
    3.405   37.6338
    3.420   38.2131
    3.435   37.9322
    3.450   34.5269
    3.465   29.7701
    3.480   25.3642
    3.495   21.8009
    3.510   19.7648
    3.525   15.7451
    3.540   14.0425
    3.555   13.3930
    3.570   11.5850
    3.585   11.0585
    3.600   11.5850
    3.615   10.5143
    3.630   11.0936
    3.645   10.9005
    3.660   10.7249
    3.675   10.4441
    3.690   10.6021
    3.705   10.6372
    3.720   10.6723
    3.735   11.6904
    3.750   11.1462
    3.765   11.8308
    3.780   11.9888
    3.795   12.8138
    3.810   13.2526
    3.825   13.3930
    3.840   13.4457
    3.855   14.3233
    3.870   15.0781
    3.885   15.4116
    3.900   16.0962
    3.915   15.3063
    3.930   16.2542
    3.945   17.3074
    3.960   16.7457
    3.975   16.5526
    3.990   17.0967
    4.005   16.2893
    4.020   17.6233
    4.035   18.0095
    4.050   18.1324
    4.065   16.9036
    4.080   15.6925
    4.095   15.4643
    4.110   15.6925
    4.125   14.7095
    4.140   14.2005
    4.155   12.7260
    4.170   12.1116
    4.185   11.7255
    4.200   10.9531
    4.215   10.6723
    4.230    9.1803
    4.245    8.9170
    4.260    8.3904
    4.275    6.8106
    4.290    6.8633
    4.305    6.8282
    4.320    6.3893
    4.335    5.5117
    4.350    5.3186
    4.365    5.6170
    4.380    4.9500
    4.395    4.7218
    4.410    4.4409
    4.425    4.1952
    4.440    4.0899
    4.455    3.8441
    4.470    3.7213
    4.485    3.9670
    4.500    3.8617
    4.515    3.6686
    4.530    3.5282
    4.545    3.3175
    4.560    2.7383
    4.575    3.2649
    4.590    2.8963
    4.605    3.4053
    4.620    2.9665
    4.635    3.1947
    4.650    2.9665
    4.665    2.9138
    4.680    2.8436
    4.695    2.6154
    4.710    2.8260
    4.725    3.1245
    4.740    2.8260
    4.755    2.5979
    4.770    2.3697
    4.785    2.6505
    4.800    2.8963
    4.815    2.5979
    4.830    2.8085
    4.845    2.8260
    4.860    2.8787
    4.875    2.4750
    4.890    2.5101
    4.905    2.7558
    4.920    2.5276
    4.935    2.5979
    4.950    2.5276
    4.965    2.7383
    4.980    2.4925
    4.995    2.7734
    5.010    3.0191
    5.025    2.7383
    5.040    2.4399
    5.055    2.5101
    5.070    2.3521
    5.085    2.4399
    5.100    2.7032
    5.115    2.7383
    5.130    2.6505
    5.145    2.5452
    5.160    2.4750
    5.175    2.4399
    5.190    2.2292
    5.205    2.4048
    5.220    2.7032
    5.235    2.5628
    5.250    2.7734
    5.265    2.5628
    5.280    2.5628
    5.295    2.5101
    5.310    2.6154
    5.325    2.6856
    5.340    2.6505
    5.355    2.8085
    5.370    2.5452
    5.385    2.3521
    5.400    2.4223
    5.415    2.3697
    5.430    2.0011
    5.445    2.1590
    5.460    2.5803
    5.475    2.7383
    5.490    2.8612
    5.505    2.8612
    5.520    2.5101
    5.535    2.4925
    5.550    2.2995
    5.565    2.7383
    5.580    2.2468
    5.595    2.1415
    5.610    2.7207
    5.625    2.7032
    5.640    2.4750
    5.655    2.2995
    5.670    2.1415
    5.685    2.7558
    5.700    2.6330
    5.715    2.7909
    5.730    2.4399
    5.745    2.4048
    5.760    2.3170
    5.775    2.5101
    5.790    2.4223
    5.805    2.3697
    5.820    2.8612
    5.835    2.6856
    5.850    2.4048
    5.865    2.1064
    5.880    2.1415
    5.895    2.3521
    5.910    2.3872
    5.925    2.8260
    5.940    2.1239
    5.955    2.3170
    5.970    2.3872
    5.985    2.1766
    6.000    2.1941
    6.015    2.4048
    6.030    2.4223
    6.045    2.2643
    6.060    2.3170
    6.075    2.4574
    6.090    2.4574
    6.105    2.2468
    6.120    2.6154
    6.135    2.4925
    6.150    2.5628
    6.165    2.3346
    6.180    2.6330
    6.195    2.8787
    6.210    2.3697
    6.225    2.6681
    6.240    2.6330
    6.255    2.4750
    6.270    2.5276
    6.285    2.7032
    6.300    2.8085
    6.315    2.6681
    6.330    2.2643
    6.345    2.4925
    6.360    2.5452
    6.375    2.6856
    6.390    2.8436
    6.405    2.5979
    6.420    2.9138
    6.435    2.7207
    6.450    2.7207
    6.465    2.6681
    6.480    2.7734
    6.495    2.9138
    6.510    2.7558
    6.525    2.7032
    6.540    2.5452
    6.555    2.9138
    6.570    2.8787
    6.585    2.9489
    6.600    2.9314
    6.615    3.2649
    6.630    3.1596
    6.645    3.6510
    6.660    3.4580
    6.675    3.3351
    6.690    3.1947
    6.705    3.4229
    6.720    4.1074
    6.735    4.2478
    6.750    4.5638
    6.765    4.3005
    6.780    4.0197
    6.795    4.3532
    6.810    4.7569
    6.825    4.8095
    6.840    5.4064
    6.855    5.4590
    6.870    5.6345
    6.885    5.9681
    6.900    6.6877
    6.915    6.3542
    6.930    6.4946
    6.945    5.7750
    6.960    5.0377
    6.975    4.6867
    6.990    4.2303
    7.005    4.0021
    7.020    3.8968
    7.035    3.4580
    7.050    3.0893
    7.065    2.9840
    7.080    2.6330
    7.095    3.1947
    7.110    3.1245
    7.125    3.0367
    7.140    2.8963
    7.155    2.6681
    7.170    2.8085
    7.185    2.2819
    7.200    2.7909
    7.215    2.1590
    7.230    2.1590
    7.245    2.4925
    7.260    2.7734
    7.275    2.6505
    7.290    2.2819
    7.305    2.2117
    7.320    2.3170
    7.335    2.7207
    7.350    2.2292
    7.365    2.3872
    7.380    2.2819
    7.395    2.4750
    7.410    2.4574
    7.425    2.6681
    7.440    2.6330
    7.455    2.4399
    7.470    2.4925
    7.485    2.7032
    7.500    2.4750
    7.515    2.5803
    7.530    2.9840
    7.545    2.6154
    7.560    2.4574
    7.575    2.4750
    7.590    3.0542
    7.605    2.7909
    7.620    2.7383
    7.635    2.6154
    7.650    2.7734
    7.665    2.7558
    7.680    2.6154
    7.695    2.9665
    7.710    3.0542
    7.725    2.7558
    7.740    2.7207
    7.755    2.8436
    7.770    2.7734
    7.785    2.7032
    7.800    3.1596
    7.815    2.9138
    7.830    2.9489
    7.845    2.9314
    7.860    3.1069
    7.875    3.1947
    7.890    3.4053
    7.905    3.6510
    7.920    3.3351
    7.935    3.2649
    7.950    3.2649
    7.965    3.4931
    7.980    3.6159
    7.995    3.5808
    8.010    3.5282
    8.025    3.7739
    8.040    3.8792
    8.055    3.8792
    8.070    3.9319
    8.085    3.4931
    8.100    3.5282
    8.115    3.5984
    8.130    3.6686
    8.145    3.9494
    8.160    3.5457
    8.175    3.7564
    8.190    3.5282
    8.205    3.7388
    8.220    3.5633
    8.235    3.7739
    8.250    3.5282
    8.265    3.4580
    8.280    3.9846
    8.295    3.7739
    8.310    3.4580
    8.325    3.3000
    8.340    3.4404
    8.355    3.6335
    8.370    3.6510
    8.385    3.6159
    8.400    3.2298
    8.415    3.0542
    8.430    3.3702
    8.445    3.3351
    8.460    2.9665
    8.475    3.0542
    8.490    3.2824
    8.505    2.7734
    8.520    2.8436
    8.535    2.8963
    8.550    2.7207
    8.565    2.8963
    8.580    2.8787
    8.595    3.0893
    8.610    3.0542
    8.625    2.6330
    8.640    3.0718
    8.655    3.0367
    8.670    2.8085
    8.685    2.9489
    8.700    2.7734
    8.715    2.5979
    8.730    2.6505
    8.745    2.6505
    8.760    2.3872
    8.775    2.6154
    8.790    2.7383
    8.805    2.4399
    8.820    2.4925
    8.835    2.3170
    8.850    2.3521
    8.865    2.6330
    8.880    2.4574
    8.895    2.0713
    8.910    2.1941
    8.925    2.3170
    8.940    2.3697
    8.955    2.4574
    8.970    2.4925
    8.985    2.3872
    9.000    2.3872
    9.015    2.3872
    9.030    2.4574
    9.045    2.5101
    9.060    2.5101
    9.075    2.2643
    9.090    2.1590
    9.105    1.8782
    9.120    1.9659
    9.135    2.1239
    9.150    2.0537
    9.165    2.2643
    9.180    2.4048
    9.195    2.3170
    9.210    2.4574
    9.225    2.3872
    9.240    2.5101
    9.255    2.1064
    9.270    2.1064
    9.285    2.1590
    9.300    2.3346
    9.315    2.1766
    9.330    2.3346
    9.345    2.1766
    9.360    2.3170
    9.375    2.0713
    9.390    2.2468
    9.405    2.5452
    9.420    2.3170
    9.435    2.1941
    9.450    2.2117
    9.465    2.4048
    9.480    2.1941
    9.495    2.0537
    9.510    2.1064
    9.525    2.1239
    9.540    2.1415
    9.555    2.1941
    9.570    1.9835
    9.585    2.2117
    9.600    2.2995
    9.615    2.1415
    9.630    2.3346
    9.645    2.1415
    9.660    1.9835
    9.675    2.1766
    9.690    2.1941
    9.705    2.1239
    9.720    2.2117
    9.735    2.4750
    9.750    2.5101
    9.765    2.5628
    9.780    2.5979
    9.795    2.0888
    9.810    2.0537
    9.825    2.1415
    9.840    2.4574
    9.855    2.3346
    9.870    2.2292
    9.885    1.9133
    9.900    2.3346
    9.915    2.1766
    9.930    2.0011
    9.945    2.0888
    9.960    2.3872
    9.975    2.2819
    9.990    2.4925
   10.005    2.1766
   10.020    2.1415
   10.035    2.2819
   10.050    1.8957
   10.065    2.1064
   10.080    2.1064
   10.095    2.1415
   10.110    2.2643
   10.125    1.9835
   10.140    2.4399
   10.155    2.2292
   10.170    2.0362
   10.185    2.2643
   10.200    2.2117
   10.215    2.3346
   10.230    2.4048
   10.245    2.5101
   10.260    2.4223
   10.275    2.3521
   10.290    2.4048
   10.305    2.7032
   10.320    2.6330
   10.335    2.6856
   10.350    2.5101
   10.365    2.3521
   10.380    2.5979
   10.395    2.3697
   10.410    2.5628
   10.425    2.5979
   10.440    2.4574
   10.455    2.4399
   10.470    2.4925
   10.485    2.4925
   10.500    2.2995
   10.515    2.5101
   10.530    2.3872
   10.545    2.0362
   10.560    2.0011
   10.575    2.1941
   10.590    2.1941
   10.605    2.1239
   10.620    1.9659
   10.635    2.0011
   10.650    2.2643
   10.665    1.8606
   10.680    1.9659
   10.695    2.1941
   10.710    2.3697
   10.725    2.3346
   10.740    2.4925
   10.755    2.1941
   10.770    2.2468
   10.785    2.1064
   10.800    2.1766
   10.815    2.2117
   10.830    2.2819
   10.845    1.9659
   10.860    2.1064
   10.875    2.3697
   10.890    2.1415
   10.905    2.1766
   10.920    2.0011
   10.935    2.3346
   10.950    2.1766
   10.965    2.1590
   10.980    2.2995
   10.995    2.3872
   11.010    2.2292
   11.025    2.5101
   11.040    2.1064
   11.055    2.1941
   11.070    2.3521
   11.085    2.3170
   11.100    2.4574
   11.115    2.0186
   11.130    1.9484
   11.145    2.0713
   11.160    2.2468
   11.175    2.1415
   11.190    2.0011
   11.205    2.0537
   11.220    2.4574
   11.235    2.3521
   11.250    2.1766
   11.265    2.1064
   11.280    2.1064
   11.295    2.1590
   11.310    2.1941
   11.325    2.1590
   11.340    2.0888
   11.355    1.8782
   11.370    2.2292
   11.385    2.3346
   11.400    2.1415
   11.415    2.2468
   11.430    2.2292
   11.445    2.3346
   11.460    2.1239
   11.475    2.2995
   11.490    2.3521
   11.505    2.3346
   11.520    2.2292
   11.535    2.1239
   11.550    2.1239
   11.565    2.1941
   11.580    2.2643
   11.595    2.1239
   11.610    2.3170
   11.625    2.1941
   11.640    2.2819
   11.655    2.2468
   11.670    2.5452
   11.685    2.4750
   11.700    2.1415
   11.715    2.2292
   11.730    2.0713
   11.745    2.1941
   11.760    2.5101
   11.775    2.5452
   11.790    2.5276
   11.805    2.6505
   11.820    2.3346
   11.835    2.2643
   11.850    2.2819
   11.865    2.3872
   11.880    2.2468
   11.895    2.2643
   11.910    2.2292
   11.925    2.1064
   11.940    2.0713
   11.955    2.4048
   11.970    2.4399
   11.985    2.2468
   12.000    2.2292
   12.015    2.6505
   12.030    2.3872
   12.045    2.7734
   12.060    2.5101
   12.075    2.3872
   12.090    2.1766
   12.105    2.3697
   12.120    2.3697
   12.135    2.0362
   12.150    2.7207
   12.165    2.3521
   12.180    2.2643
   12.195    2.6505
   12.210    2.0186
   12.225    2.1590
   12.240    2.6505
   12.255    2.2995
   12.270    2.5101
   12.285    2.5452
   12.300    2.3697
   12.315    2.1941
   12.330    2.3521
   12.345    2.4574
   12.360    2.1941
   12.375    2.5276
   12.390    2.3170
   12.405    2.3697
   12.420    2.2819
   12.435    2.2995
   12.450    2.2995
   12.465    2.5101
   12.480    2.5452
   12.495    2.4223
   12.510    2.3521
   12.525    2.2468
   12.540    2.3697
   12.555    2.1941
   12.570    2.4574
   12.585    2.1415
   12.600    2.2643
   12.615    2.3872
   12.630    2.4048
   12.645    2.5452
   12.660    2.3521
   12.675    2.4399
   12.690    2.3346
   12.705    2.3697
   12.720    2.2643
   12.735    2.2468
   12.750    2.2117
   12.765    2.2643
   12.780    2.3872
   12.795    2.2643
   12.810    2.4223
   12.825    2.7207
   12.840    2.2995
   12.855    2.1941
   12.870    2.2292
   12.885    2.4048
   12.900    2.5276
   12.915    2.1766
   12.930    2.1941
   12.945    1.9835
   12.960    1.9835
   12.975    2.4223
   12.990    2.5452
   13.005    2.1941
   13.020    2.2117
   13.035    2.3346
   13.050    2.4223
   13.065    2.0713
   13.080    2.2995
   13.095    2.2995
   13.110    2.2468
   13.125    2.1590
   13.140    2.2819
   13.155    2.3521
   13.170    2.1415
   13.185    2.3872
   13.200    2.5452
   13.215    2.3346
   13.230    2.2468
   13.245    2.5101
   13.260    2.2643
   13.275    2.4925
   13.290    2.5276
   13.305    2.2468
   13.320    2.3521
   13.335    2.2643
   13.350    2.0186
   13.365    2.0888
   13.380    2.1941
   13.395    2.2995
   13.410    2.1064
   13.425    2.4223
   13.440    2.4223
   13.455    2.6681
   13.470    2.4399
   13.485    2.3170
   13.500    2.8085
   13.515    2.7558
   13.530    2.2819
   13.545    2.4399
   13.560    2.0713
   13.575    2.1941
   13.590    2.4399
   13.605    2.4048
   13.620    2.0537
   13.635    2.8085
   13.650    2.2995
   13.665    1.9835
   13.680    2.3697
   13.695    2.4223
   13.710    2.1239
   13.725    2.4048
   13.740    2.5452
   13.755    2.4750
   13.770    2.0713
   13.785    2.1590
   13.800    2.4223
   13.815    2.4925
   13.830    2.4925
   13.845    2.3872
   13.860    2.3872
   13.875    2.6154
   13.890    2.2819
   13.905    2.3521
   13.920    2.2995
   13.935    2.4399
   13.950    2.1239
   13.965    2.2117
   13.980    2.2292
   13.995    2.2995
   14.010    2.3170
   14.025    2.1941
   14.040    1.9308
   14.055    2.0362
   14.070    2.0888
   14.085    2.0713
   14.100    2.0537
   14.115    2.1239
   14.130    2.1239
   14.145    1.8431
   14.160    1.9484
   14.175    2.0362
   14.190    2.2117
   14.205    2.2643
   14.220    2.4574
   14.235    2.0888
   14.250    1.9484
   14.265    2.1415
   14.280    2.0186
   14.295    2.2292
   14.310    2.2292
   14.325    2.0888
   14.340    2.1415
   14.355    1.9659
   14.370    2.3170
   14.385    2.4925
   14.400    2.0362
   14.415    2.0186
   14.430    2.1415
   14.445    2.1590
   14.460    2.1239
   14.475    1.9835
   14.490    2.1590
   14.505    2.1590
   14.520    2.2292
   14.535    2.3521
   14.550    2.0888
   14.565    2.0362
   14.580    2.2643
   14.595    2.1415
   14.610    2.0186
   14.625    2.2292
   14.640    2.1590
   14.655    1.9835
   14.670    2.0186
   14.685    1.9659
   14.700    2.0537
   14.715    2.0362
   14.730    2.2292
   14.745    2.1239
   14.760    2.0537
   14.775    2.0362
   14.790    2.1415
   14.805    2.2995
   14.820    2.1590
   14.835    2.2819
   14.850    2.1239
   14.865    2.1415
   14.880    2.2468
   14.895    2.1590
   14.910    2.2117
   14.925    2.4399
   14.940    1.8782
   14.955    1.9308
   14.970    2.0011
   14.985    2.0186
   15.000    1.9484
   15.015    2.1239
   15.030    1.9659
   15.045    2.1766
   15.060    2.2117
   15.075    2.1415
   15.090    2.2643
   15.105    2.1941
   15.120    2.0537
   15.135    2.2643
   15.150    2.1766
   15.165    2.2117
   15.180    2.1590
   15.195    2.5628
   15.210    2.4925
   15.225    2.0186
   15.240    2.1941
   15.255    2.1415
   15.270    2.2468
   15.285    2.2643
   15.300    2.2643
   15.315    2.0537
   15.330    2.0362
   15.345    2.2819
   15.360    2.0011
   15.375    2.3170
   15.390    2.2643
   15.405    2.1941
   15.420    2.1064
   15.435    2.1766
   15.450    2.0362
   15.465    2.1941
   15.480    2.2117
   15.495    2.4925
   15.510    2.1766
   15.525    2.1941
   15.540    2.1415
   15.555    1.8606
   15.570    2.2117
   15.585    2.0713
   15.600    2.1766
   15.615    2.2117
   15.630    1.9133
   15.645    1.9484
   15.660    2.1766
   15.675    2.1064
   15.690    2.1064
   15.705    2.1239
   15.720    2.2117
   15.735    2.0537
   15.750    2.1415
   15.765    1.8957
   15.780    1.8782
   15.795    1.9308
   15.810    2.3521
   15.825    2.0362
   15.840    2.3521
   15.855    2.2292
   15.870    2.0362
   15.885    2.2643
   15.900    2.1415
   15.915    1.9133
   15.930    2.0888
   15.945    2.3697
   15.960    2.2292
   15.975    2.1941
   15.990    2.5276
   16.005    2.3697
   16.020    2.1064
   16.035    2.1766
   16.050    2.1239
   16.065    2.2117
   16.080    2.1064
   16.095    1.8255
   16.110    2.1064
   16.125    2.3170
   16.140    2.1239
   16.155    2.2292
   16.170    2.1064
   16.185    2.2643
   16.200    2.1064
   16.215    1.8255
   16.230    2.2292
   16.245    2.2117
   16.260    2.2117
   16.275    2.1941
   16.290    2.4048
   16.305    2.0011
   16.320    2.0186
   16.335    1.8431
   16.350    2.1941
   16.365    2.2819
   16.380    2.0888
   16.395    1.9133
   16.410    2.1590
   16.425    2.1590
   16.440    2.0713
   16.455    2.0888
   16.470    2.2819
   16.485    2.0888
   16.500    1.9835
   16.515    2.0011
   16.530    1.8431
   16.545    2.0011
   16.560    2.0888
   16.575    2.1239
   16.590    1.8255
   16.605    2.0362
   16.620    1.8782
   16.635    2.1415
   16.650    2.3170
   16.665    2.0888
   16.680    2.0713
   16.695    2.0537
   16.710    2.0186
   16.725    2.0362
   16.740    2.3697
   16.755    2.2292
   16.770    2.1415
   16.785    2.0713
   16.800    2.1064
   16.815    2.4574
   16.830    2.3170
   16.845    2.3697
   16.860    2.0537
   16.875    2.2468
   16.890    2.1766
   16.905    2.1415
   16.920    2.3346
   16.935    2.2643
   16.950    2.0186
   16.965    2.0713
   16.980    1.9659
   16.995    2.0186
   17.010    2.4574
   17.025    2.4223
   17.040    2.4750
   17.055    2.2292
   17.070    2.2819
   17.085    2.2117
   17.100    2.3346
   17.115    2.1064
   17.130    2.1064
   17.145    2.2995
   17.160    2.2995
   17.175    2.0362
   17.190    2.4048
   17.205    2.4574
   17.220    2.4399
   17.235    2.3346
   17.250    1.9835
   17.265    2.2995
   17.280    2.0713
   17.295    2.1239
   17.310    2.1941
   17.325    2.0186
   17.340    2.1766
   17.355    1.8782
   17.370    2.1590
   17.385    2.3697
   17.400    1.9133
   17.415    2.0537
   17.430    2.2468
   17.445    2.0713
   17.460    2.2819
   17.475    2.0888
   17.490    1.9835
   17.505    2.2117
   17.520    2.1941
   17.535    2.3521
   17.550    2.2643
   17.565    1.9835
   17.580    2.0362
   17.595    2.3872
   17.610    2.2292
   17.625    2.0186
   17.640    2.0713
   17.655    1.9308
   17.670    2.2117
   17.685    2.1766
   17.700    2.3170
   17.715    2.5979
   17.730    2.0537
   17.745    2.2468
   17.760    2.2117
   17.775    2.2468
   17.790    2.0713
   17.805    2.2643
   17.820    2.4750
   17.835    2.2292
   17.850    2.1064
   17.865    2.2995
   17.880    2.3521
   17.895    2.2117
   17.910    2.2468
   17.925    2.1941
   17.940    2.3170
   17.955    2.1064
   17.970    2.1766
   17.985    2.3170
   18.000    2.0888
   18.015    2.4223
   18.030    2.4223
   18.045    1.9308
   18.060    2.0713
   18.075    2.0888
   18.090    2.0888
   18.105    2.3697
   18.120    2.1064
   18.135    2.4574
   18.150    2.5276
   18.165    2.4750
   18.180    2.4223
   18.195    2.2995
   18.210    2.3697
   18.225    2.1064
   18.240    1.9484
   18.255    2.2819
   18.270    2.2292
   18.285    1.9308
   18.300    2.3872
   18.315    2.5276
   18.330    1.8957
   18.345    2.0186
   18.360    2.4574
   18.375    2.2292
   18.390    2.4750
   18.405    2.1415
   18.420    2.1766
   18.435    2.2292
   18.450    2.3697
   18.465    2.1064
   18.480    1.9659
   18.495    1.8957
   18.510    2.1766
   18.525    2.1064
   18.540    2.1941
   18.555    2.0713
   18.570    2.3170
   18.585    2.0713
   18.600    2.0888
   18.615    1.9308
   18.630    2.0888
   18.645    2.2468
   18.660    2.1766
   18.675    2.3697
   18.690    2.0362
   18.705    2.0537
   18.720    2.0011
   18.735    2.1590
   18.750    1.9835
   18.765    2.4048
   18.780    2.4574
   18.795    2.4223
   18.810    2.3697
   18.825    2.2819
   18.840    2.0186
   18.855    2.2468
   18.870    2.3521
   18.885    2.2995
   18.900    1.8782
   18.915    2.0537
   18.930    2.0362
   18.945    2.1590
   18.960    2.4048
   18.975    2.2819
   18.990    2.0011
   19.005    2.2819
   19.020    2.1064
   19.035    1.9659
   19.050    2.0537
   19.065    2.2468
   19.080    2.3697
   19.095    2.0713
   19.110    2.2819
   19.125    2.0011
   19.140    2.0362
   19.155    2.1941
   19.170    1.8957
   19.185    2.2643
   19.200    2.2995
   19.215    2.2468
   19.230    2.2643
   19.245    2.0713
   19.260    2.1415
   19.275    2.3872
   19.290    2.2292
   19.305    2.1239
   19.320    2.3521
   19.335    2.3346
   19.350    2.1590
   19.365    2.1239
   19.380    2.3170
   19.395    2.2819
   19.410    2.1590
   19.425    2.2292
   19.440    2.1941
   19.455    2.1590
   19.470    2.2292
   19.485    2.1941
   19.500    2.2117
   19.515    2.4399
   19.530    2.2643
   19.545    2.2292
   19.560    2.2468
   19.575    2.1590
   19.590    2.3872
   19.605    2.4399
   19.620    2.4048
   19.635    2.6330
   19.650    2.3346
   19.665    2.5628
   19.680    2.4925
   19.695    2.4574
   19.710    2.3697
   19.725    2.6154
   19.740    2.5276
   19.755    2.2819
   19.770    2.3872
   19.785    2.3170
   19.800    2.4925
   19.815    2.5276
   19.830    2.2995
   19.845    2.1415
   19.860    2.2292
   19.875    2.3872
   19.890    2.4048
   19.905    2.0888
   19.920    2.2819
   19.935    2.4399
   19.950    2.7207
   19.965    2.3697
   19.980    2.0362
   19.995    2.4574
   20.010    2.4048
   20.025    2.6330
   20.040    2.4574
   20.055    2.3521
   20.070    2.4399
   20.085    2.2292
   20.100    2.6856
   20.115    2.5628
   20.130    2.5452
   20.145    2.5101
   20.160    2.2117
   20.175    2.3170
   20.190    2.4750
   20.205    2.3521
   20.220    2.2819
   20.235    2.3170
   20.250    2.3170
   20.265    2.5101
   20.280    2.4750
   20.295    2.4750
   20.310    2.2292
   20.325    2.4399
   20.340    2.2995
   20.355    2.4223
   20.370    2.2292
   20.385    2.3697
   20.400    2.3346
   20.415    2.2819
   20.430    2.2995
   20.445    2.4574
   20.460    2.3697
   20.475    2.4574
   20.490    2.6681
   20.505    2.3346
   20.520    2.1941
   20.535    2.4574
   20.550    2.5101
   20.565    2.5276
   20.580    2.5803
   20.595    2.1941
   20.610    2.1766
   20.625    2.3697
   20.640    2.2643
   20.655    2.4399
   20.670    2.2468
   20.685    2.2643
   20.700    2.1941
   20.715    1.9835
   20.730    2.3346
   20.745    2.5101
   20.760    2.1941
   20.775    2.0186
   20.790    2.3170
   20.805    2.2292
   20.820    2.1941
   20.835    2.1766
   20.850    2.4399
   20.865    2.3872
   20.880    2.3697
   20.895    2.2468
   20.910    2.3521
   20.925    2.5452
   20.940    2.2468
   20.955    2.3697
   20.970    2.5101
   20.985    2.7558
   21.000    2.3170
   21.015    2.4399
   21.030    2.2819
   21.045    2.4925
   21.060    2.3521
   21.075    2.0713
   21.090    2.4925
   21.105    2.7032
   21.120    2.5979
   21.135    2.2819
   21.150    2.4223
   21.165    2.5276
   21.180    2.5101
   21.195    2.6154
   21.210    2.6154
   21.225    2.3872
   21.240    2.5276
   21.255    2.5628
   21.270    2.4048
   21.285    2.4925
   21.300    2.1590
   21.315    2.2292
   21.330    2.2292
   21.345    2.4048
   21.360    2.5452
   21.375    2.1590
   21.390    2.1766
   21.405    2.5452
   21.420    2.2117
   21.435    2.6330
   21.450    2.1590
   21.465    2.4750
   21.480    2.3170
   21.495    2.4223
   21.510    2.3170
   21.525    2.4574
   21.540    2.4925
   21.555    2.5803
   21.570    2.4048
   21.585    2.4574
   21.600    2.7032
   21.615    2.2643
   21.630    2.4750
   21.645    2.5628
   21.660    2.4750
   21.675    2.1590
   21.690    2.4223
   21.705    2.2819
   21.720    2.6505
   21.735    2.1590
   21.750    2.1415
   21.765    2.5979
   21.780    2.4399
   21.795    2.4223
   21.810    2.3170
   21.825    2.2995
   21.840    2.4399
   21.855    2.3170
   21.870    2.6154
   21.885    2.6154
   21.900    2.5452
   21.915    2.4925
   21.930    2.0537
   21.945    2.5628
   21.960    2.4574
   21.975    2.2468
   21.990    1.9484
   22.005    2.3521
   22.020    2.2643
   22.035    2.7909
   22.050    2.2643
   22.065    2.1239
   22.080    2.2468
   22.095    2.4574
   22.110    2.2468
   22.125    2.6154
   22.140    2.3521
   22.155    2.0713
   22.170    2.1064
   22.185    2.4399
   22.200    2.1766
   22.215    2.2292
   22.230    2.4399
   22.245    2.7558
   22.260    2.4399
   22.275    2.1415
   22.290    2.4048
   22.305    2.2643
   22.320    2.3170
   22.335    2.4574
   22.350    2.5452
   22.365    2.3697
   22.380    2.0713
   22.395    2.0713
   22.410    2.3697
   22.425    2.2643
   22.440    2.3697
   22.455    2.0888
   22.470    2.4574
   22.485    2.5628
   22.500    2.5452
   22.515    2.3346
   22.530    2.3872
   22.545    2.5452
   22.560    2.4574
   22.575    2.4048
   22.590    2.6856
   22.605    2.4750
   22.620    2.5101
   22.635    2.6330
   22.650    2.3697
   22.665    2.2643
   22.680    2.0537
   22.695    2.4574
   22.710    2.4925
   22.725    2.6154
   22.740    2.1941
   22.755    2.3521
   22.770    2.1941
   22.785    2.5979
   22.800    2.6330
   22.815    2.1766
   22.830    2.0362
   22.845    2.0888
   22.860    2.4925
   22.875    2.7383
   22.890    2.4925
   22.905    2.2468
   22.920    2.3872
   22.935    2.5628
   22.950    2.6856
   22.965    2.5452
   22.980    2.2819
   22.995    2.6856
   23.010    2.2468
   23.025    2.5101
   23.040    2.4223
   23.055    2.5803
   23.070    2.1766
   23.085    2.3872
   23.100    2.4925
   23.115    2.2468
   23.130    2.3872
   23.145    2.5452
   23.160    2.5101
   23.175    2.4574
   23.190    2.5452
   23.205    2.5452
   23.220    2.1766
   23.235    2.2995
   23.250    2.5628
   23.265    2.2117
   23.280    2.1239
   23.295    2.1941
   23.310    2.7734
   23.325    2.4925
   23.340    2.3346
   23.355    2.5101
   23.370    2.2468
   23.385    2.3697
   23.400    2.4223
   23.415    2.6681
   23.430    2.4574
   23.445    2.2117
   23.460    2.0713
   23.475    1.9133
   23.490    2.2995
   23.505    2.3521
   23.520    2.4223
   23.535    2.0888
   23.550    2.2292
   23.565    2.2819
   23.580    2.2643
   23.595    2.4925
   23.610    2.3872
   23.625    2.2819
   23.640    2.2995
   23.655    2.2643
   23.670    2.2995
   23.685    2.4399
   23.700    2.2819
   23.715    2.0362
   23.730    2.0713
   23.745    2.3170
   23.760    2.3170
   23.775    2.3170
   23.790    2.2292
   23.805    2.3170
   23.820    2.5101
   23.835    2.5101
   23.850    2.6505
   23.865    2.3872
   23.880    2.1766
   23.895    2.4750
   23.910    2.3697
   23.925    2.1415
   23.940    2.1590
   23.955    2.0011
   23.970    2.1766
   23.985    2.3170
   24.000    2.5452
   24.015    2.2643
   24.030    2.2468
   24.045    2.1590
   24.060    2.2292
   24.075    2.5276
   24.090    2.4048
   24.105    2.2117
   24.120    2.2468
   24.135    2.1766
   24.150    2.1766
   24.165    2.2468
   24.180    2.4223
   24.195    2.2819
   24.210    2.0537
   24.225    2.0713
   24.240    2.5276
   24.255    2.3346
   24.270    2.2468
   24.285    2.2468
   24.300    2.2117
   24.315    2.4399
   24.330    2.4048
   24.345    2.2819
   24.360    2.3170
   24.375    2.0186
   24.390    2.0011
   24.405    2.0186
   24.420    2.4574
   24.435    2.5276
   24.450    2.4223
   24.465    2.5452
   24.480    2.4048
   24.495    2.2292
   24.510    2.2292
   24.525    2.1239
   24.540    2.1415
   24.555    2.1766
   24.570    1.8606
   24.585    2.1590
   24.600    2.4399
   24.615    2.1590
   24.630    2.2819
   24.645    2.3697
   24.660    2.2643
   24.675    2.3521
   24.690    2.2292
   24.705    2.2468
   24.720    2.5276
   24.735    2.2117
   24.750    2.3872
   24.765    2.3872
   24.780    2.1941
   24.795    2.1941
   24.810    2.0011
   24.825    2.1064
   24.840    2.1766
   24.855    2.4223
   24.870    2.3872
   24.885    2.2995
   24.900    2.1941
   24.915    2.3872
   24.930    2.1415
   24.945    1.9835
   24.960    2.2468
   24.975    2.1415
   24.990    1.9835
   25.005    2.2819
   25.020    2.2819
   25.035    2.1590
   25.050    2.2468
   25.065    2.3170
   25.080    2.3170
   25.095    2.0888
   25.110    2.0713
   25.125    2.1239
   25.140    2.1415
   25.155    2.0186
   25.170    2.2117
   25.185    2.2643
   25.200    2.1590
   25.215    2.1064
   25.230    2.4750
   25.245    2.2819
   25.260    2.2292
   25.275    2.2468
   25.290    2.2292
   25.305    1.9308
   25.320    2.5276
   25.335    2.4048
   25.350    2.1064
   25.365    1.9659
   25.380    2.2643
   25.395    2.3697
   25.410    2.1415
   25.425    2.4048
   25.440    2.1590
   25.455    2.2292
   25.470    2.4750
   25.485    2.2292
   25.500    2.2468
   25.515    1.8782
   25.530    1.9659
   25.545    2.3697
   25.560    1.9659
   25.575    2.2819
   25.590    2.1064
   25.605    2.2819
   25.620    2.2117
   25.635    2.4223
   25.650    1.9133
   25.665    2.0186
   25.680    2.2117
   25.695    2.1064
   25.710    2.2292
   25.725    2.3697
   25.740    2.0888
   25.755    2.1941
   25.770    1.9484
   25.785    2.4223
   25.800    2.2292
   25.815    2.3346
   25.830    2.1590
   25.845    2.2117
   25.860    2.2995
   25.875    2.2292
   25.890    2.5101
   25.905    2.1941
   25.920    2.2117
   25.935    2.3521
   25.950    2.0537
   25.965    1.8782
   25.980    2.2292
   25.995    2.1941
   26.010    2.2292
   26.025    1.8606
   26.040    2.0011
   26.055    2.2117
   26.070    2.1064
   26.085    2.1239
   26.100    2.2292
   26.115    1.9484
   26.130    1.9308
   26.145    2.0537
   26.160    2.0186
   26.175    2.2643
   26.190    1.9484
   26.205    2.1941
   26.220    1.8606
   26.235    2.0713
   26.250    2.0362
   26.265    1.9308
   26.280    1.8080
   26.295    2.1766
   26.310    1.9835
   26.325    2.2292
   26.340    2.0537
   26.355    2.0011
   26.370    2.0362
   26.385    2.3521
   26.400    2.1415
   26.415    2.1766
   26.430    2.0011
   26.445    1.9835
   26.460    1.6500
   26.475    2.1590
   26.490    2.1941
   26.505    2.2819
   26.520    2.0011
   26.535    1.9659
   26.550    2.2468
   26.565    2.2117
   26.580    2.1064
   26.595    1.9659
   26.610    2.0537
   26.625    2.0362
   26.640    2.1064
   26.655    2.0011
   26.670    1.9308
   26.685    1.9659
   26.700    2.1590
   26.715    2.0537
   26.730    2.0186
   26.745    2.1766
   26.760    2.1415
   26.775    1.8957
   26.790    1.9133
   26.805    1.9484
   26.820    1.7553
   26.835    1.8255
   26.850    2.0888
   26.865    2.1415
   26.880    2.0362
   26.895    2.0537
   26.910    2.3170
   26.925    1.8080
   26.940    2.1590
   26.955    1.8606
   26.970    2.0011
   26.985    2.1064
   27.000    2.1941
   27.015    2.2292
   27.030    2.1415
   27.045    2.0537
   27.060    1.9835
   27.075    2.0186
   27.090    1.9308
   27.105    1.8606
   27.120    1.7553
   27.135    2.0888
   27.150    1.8957
   27.165    2.0011
   27.180    2.2292
   27.195    2.3170
   27.210    1.7553
   27.225    1.8606
   27.240    2.0537
   27.255    2.0713
   27.270    1.9484
   27.285    1.8431
   27.300    2.0537
   27.315    2.1415
   27.330    1.9484
   27.345    2.2117
   27.360    2.2292
   27.375    2.0186
   27.390    1.7904
   27.405    2.0011
   27.420    1.9835
   27.435    1.9835
   27.450    2.2292
   27.465    1.9659
   27.480    1.8606
   27.495    2.0362
   27.510    1.9835
   27.525    2.2819
   27.540    2.0888
   27.555    2.2643
   27.570    1.9484
   27.585    1.8080
   27.600    2.1766
   27.615    1.9308
   27.630    2.1064
   27.645    1.8957
   27.660    1.9659
   27.675    2.0362
   27.690    1.8431
   27.705    2.1239
   27.720    1.9484
   27.735    1.9308
   27.750    2.2995
   27.765    2.1415
   27.780    1.9484
   27.795    1.9835
   27.810    2.0011
   27.825    1.7729
   27.840    1.8431
   27.855    2.0362
   27.870    1.9308
   27.885    1.9835
   27.900    1.8957
   27.915    1.9308
   27.930    2.0186
   27.945    2.0186
   27.960    1.9835
   27.975    1.8431
   27.990    1.7904
   28.005    2.1239
   28.020    2.2819
   28.035    2.2468
   28.050    1.8431
   28.065    1.9659
   28.080    2.1064
   28.095    2.1941
   28.110    2.0011
   28.125    2.1239
   28.140    2.0713
   28.155    1.8957
   28.170    2.0537
   28.185    2.0011
   28.200    2.0186
   28.215    2.1239
   28.230    2.2819
   28.245    1.9835
   28.260    1.9484
   28.275    2.1064
   28.290    1.8080
   28.305    2.1064
   28.320    2.0713
   28.335    2.2819
   28.350    2.0011
   28.365    2.1941
   28.380    2.0186
   28.395    1.9659
   28.410    1.9835
   28.425    1.8782
   28.440    1.9484
   28.455    1.9835
   28.470    1.8957
   28.485    1.7553
   28.500    1.9308
   28.515    2.1415
   28.530    2.0888
   28.545    2.1239
   28.560    1.8606
   28.575    1.9659
   28.590    2.0537
   28.605    2.2117
   28.620    1.8606
   28.635    1.9308
   28.650    1.9308
   28.665    1.8957
   28.680    2.1590
   28.695    2.0362
   28.710    2.0713
   28.725    1.7729
   28.740    2.0362
   28.755    2.1766
   28.770    2.0537
   28.785    1.9133
   28.800    1.7904
   28.815    1.9659
   28.830    2.0362
   28.845    1.7904
   28.860    1.7027
   28.875    1.7904
   28.890    1.9308
   28.905    2.2468
   28.920    1.7729
   28.935    1.9308
   28.950    1.8957
   28.965    1.8782
   28.980    1.8606
   28.995    1.7202
   29.010    1.7553
   29.025    2.1064
   29.040    1.8606
   29.055    1.8606
   29.070    1.9133
   29.085    1.9133
   29.100    1.6500
   29.115    1.8782
   29.130    1.8080
   29.145    1.9659
   29.160    2.1064
   29.175    2.0186
   29.190    1.8606
   29.205    2.0186
   29.220    1.9484
   29.235    1.6149
   29.250    2.1766
   29.265    2.0186
   29.280    1.9308
   29.295    1.7202
   29.310    1.9659
   29.325    1.8957
   29.340    2.0713
   29.355    2.0537
   29.370    1.9835
   29.385    2.0011
   29.400    1.8255
   29.415    2.1239
   29.430    2.1239
   29.445    1.7553
   29.460    1.9133
   29.475    1.7553
   29.490    1.5622
   29.505    1.6675
   29.520    1.7904
   29.535    2.1239
   29.550    2.0186
   29.565    1.6851
   29.580    1.8782
   29.595    2.0362
   29.610    1.8606
   29.625    1.9133
   29.640    1.8080
   29.655    1.8255
   29.670    1.7729
   29.685    1.7729
   29.700    1.7904
   29.715    2.0011
   29.730    1.9133
   29.745    2.4574
   29.760    2.0186
   29.775    2.0186
   29.790    1.8606
   29.805    1.7553
   29.820    1.6851
   29.835    2.0362
   29.850    1.7729
   29.865    1.9308
   29.880    1.6675
   29.895    2.1064
   29.910    1.9133
   29.925    1.7729
   29.940    1.8080
   29.955    1.9659
   29.970    1.9835
   29.985    1.9133
   30.000    1.7904
   30.015    1.4745
   30.030    1.5447
   30.045    1.7378
   30.060    1.5271
   30.075    1.8431
   30.090    1.9835
   30.105    2.1239
   30.120    1.9308
   30.135    1.9835
   30.150    1.6675
   30.165    1.8080
   30.180    1.9133
   30.195    1.6500
   30.210    1.8431
   30.225    1.7202
   30.240    1.7553
   30.255    1.8431
   30.270    2.0888
   30.285    1.8957
   30.300    1.7027
   30.315    1.7729
   30.330    1.7378
   30.345    1.9308
   30.360    1.8431
   30.375    1.6851
   30.390    2.1590
   30.405    2.0362
   30.420    2.1415
   30.435    1.5271
   30.450    1.8606
   30.465    2.0186
   30.480    2.0888
   30.495    1.8255
   30.510    1.8431
   30.525    1.7378
   30.540    1.4394
   30.555    1.8431
   30.570    2.0011
   30.585    1.8606
   30.600    2.0011
   30.615    1.6851
   30.630    1.4745
   30.645    1.7027
   30.660    1.8782
   30.675    1.9308
   30.690    1.6675
   30.705    1.8255
   30.720    1.9659
   30.735    1.6675
   30.750    1.7553
   30.765    1.9659
   30.780    1.8782
   30.795    1.7729
   30.810    1.7553
   30.825    1.8255
   30.840    1.7202
   30.855    1.7729
   30.870    1.8957
   30.885    2.0011
   30.900    1.8957
   30.915    1.8080
   30.930    1.7553
   30.945    1.5271
   30.960    1.6149
   30.975    1.6675
   30.990    1.7378
   31.005    1.8957
   31.020    1.8957
   31.035    1.7553
   31.050    1.5096
   31.065    1.9484
   31.080    1.9308
   31.095    1.7027
   31.110    1.5973
   31.125    1.7553
   31.140    1.4745
   31.155    1.6675
   31.170    1.8606
   31.185    1.7553
   31.200    1.9308
   31.215    1.8255
   31.230    1.8957
   31.245    1.8255
   31.260    1.8782
   31.275    1.7729
   31.290    1.8957
   31.305    1.8782
   31.320    1.7729
   31.335    1.5798
   31.350    1.7027
   31.365    1.8782
   31.380    1.9308
   31.395    1.7729
   31.410    1.5973
   31.425    1.8431
   31.440    1.7202
   31.455    1.7553
   31.470    1.9133
   31.485    1.7378
   31.500    1.8255
   31.515    1.7027
   31.530    1.6149
   31.545    1.7027
   31.560    1.6500
   31.575    1.6500
   31.590    1.9659
   31.605    1.8957
   31.620    1.9484
   31.635    1.7729
   31.650    1.7729
   31.665    1.7729
   31.680    1.5447
   31.695    1.7202
   31.710    1.5798
   31.725    1.7729
   31.740    1.6500
   31.755    1.5973
   31.770    1.7553
   31.785    1.6149
   31.800    1.7202
   31.815    1.9133
   31.830    1.7553
   31.845    1.7378
   31.860    1.8431
   31.875    1.7202
   31.890    1.6500
   31.905    1.5622
   31.920    1.5271
   31.935    1.7729
   31.950    1.5622
   31.965    1.7202
   31.980    1.8080
   31.995    1.9484
   32.010    1.6149
   32.025    1.9484
   32.040    1.8080
   32.055    1.8080
   32.070    1.4042
   32.085    1.5447
   32.100    1.7904
   32.115    1.9835
   32.130    1.9133
   32.145    1.7027
   32.160    1.8431
   32.175    1.6851
   32.190    1.6675
   32.205    1.7904
   32.220    1.6500
   32.235    1.5622
   32.250    1.5973
   32.265    1.9484
   32.280    1.6675
   32.295    1.7729
   32.310    1.5973
   32.325    1.6324
   32.340    1.7027
   32.355    1.7729
   32.370    1.7202
   32.385    1.5447
   32.400    1.6500
   32.415    1.8782
   32.430    1.6149
   32.445    1.7202
   32.460    1.8782
   32.475    1.6500
   32.490    1.6500
   32.505    1.6500
   32.520    1.7553
   32.535    1.4569
   32.550    1.7027
   32.565    1.6675
   32.580    1.5798
   32.595    1.7378
   32.610    1.7378
   32.625    1.5973
   32.640    1.6149
   32.655    1.8431
   32.670    1.7027
   32.685    1.7378
   32.700    1.5447
   32.715    1.5447
   32.730    1.5973
   32.745    1.7378
   32.760    1.7904
   32.775    1.9835
   32.790    1.7027
   32.805    1.3867
   32.820    1.3867
   32.835    1.4042
   32.850    1.4745
   32.865    1.4218
   32.880    1.4218
   32.895    1.2814
   32.910    1.6149
   32.925    1.7904
   32.940    1.5271
   32.955    1.6675
   32.970    1.4569
   32.985    1.5447
   33.000    1.4920
   33.015    1.5622
   33.030    1.5622
   33.045    1.6675
   33.060    1.6675
   33.075    1.5622
   33.090    1.8080
   33.105    1.8606
   33.120    1.7904
   33.135    2.0713
   33.150    1.7904
   33.165    1.6149
   33.180    1.5271
   33.195    1.5798
   33.210    1.8606
   33.225    1.8782
   33.240    1.9484
   33.255    1.5096
   33.270    1.4745
   33.285    1.5622
   33.300    1.7202
   33.315    1.7904
   33.330    1.7378
   33.345    1.4569
   33.360    1.6500
   33.375    1.4920
   33.390    1.3691
   33.405    1.7904
   33.420    1.7553
   33.435    1.3165
   33.450    1.2989
   33.465    1.3867
   33.480    1.5447
   33.495    1.6851
   33.510    1.6324
   33.525    1.6324
   33.540    1.4920
   33.555    1.6149
   33.570    1.4569
   33.585    1.2814
   33.600    1.3516
   33.615    1.4394
   33.630    1.4218
   33.645    1.5622
   33.660    1.5973
   33.675    1.4920
   33.690    1.5271
   33.705    1.4569
   33.720    1.5271
   33.735    1.5798
   33.750    1.4920
   33.765    1.2989
   33.780    1.5096
   33.795    1.6500
   33.810    1.3340
   33.825    1.2638
   33.840    1.5271
   33.855    1.4745
   33.870    1.6324
   33.885    1.4745
   33.900    1.4569
   33.915    1.5798
   33.930    1.6149
   33.945    1.5271
   33.960    1.3691
   33.975    1.4042
   33.990    1.5447
   34.005    1.4569
   34.020    1.4394
   34.035    1.2814
   34.050    1.3165
   34.065    1.5622
   34.080    1.4042
   34.095    1.4394
   34.110    1.3340
   34.125    1.4394
   34.140    1.4920
   34.155    1.5622
   34.170    1.5622
   34.185    1.5973
   34.200    1.3867
   34.215    1.5096
   34.230    1.4042
   34.245    1.4745
   34.260    1.5096
   34.275    1.4569
   34.290    1.5798
   34.305    1.4920
   34.320    1.4218
   34.335    1.3165
   34.350    1.6149
   34.365    1.4745
   34.380    1.5622
   34.395    1.4042
   34.410    1.4569
   34.425    1.2989
   34.440    1.4218
   34.455    1.6324
   34.470    1.3867
   34.485    1.4394
   34.500    1.3165
   34.515    1.5096
   34.530    1.4218
   34.545    1.3340
   34.560    1.2989
   34.575    1.3867
   34.590    1.2112
   34.605    1.5271
   34.620    1.4394
   34.635    1.1936
   34.650    1.4042
   34.665    1.3867
   34.680    1.1936
   34.695    1.3867
   34.710    1.5096
   34.725    1.1761
   34.740    1.5622
   34.755    1.7378
   34.770    1.4920
   34.785    1.3165
   34.800    1.4394
   34.815    1.2112
   34.830    1.2814
   34.845    1.3516
   34.860    1.2814
   34.875    1.3867
   34.890    1.1410
   34.905    1.3516
   34.920    1.5798
   34.935    1.3340
   34.950    1.1585
   34.965    1.3516
   34.980    1.6851
   34.995    1.4218
   35.010    1.4569
   35.025    1.5271
   35.040    1.5271
   35.055    1.4569
   35.070    1.6500
   35.085    1.5798
   35.100    1.3340
   35.115    1.3516
   35.130    1.3691
   35.145    1.4218
   35.160    1.4920
   35.175    1.3867
   35.190    1.4042
   35.205    1.2463
   35.220    1.3516
   35.235    1.4218
   35.250    1.5096
   35.265    1.3516
   35.280    1.3165
   35.295    1.3165
   35.310    1.0707
   35.325    1.5096
   35.340    1.4745
   35.355    1.2638
   35.370    1.3691
   35.385    1.4745
   35.400    1.3165
   35.415    1.4920
   35.430    1.7904
   35.445    1.6149
   35.460    1.3340
   35.475    1.4920
   35.490    1.2989
   35.505    1.1936
   35.520    1.3867
   35.535    1.3691
   35.550    1.4394
   35.565    1.3691
   35.580    1.4920
   35.595    1.4394
   35.610    1.2463
   35.625    1.6500
   35.640    1.4218
   35.655    1.3165
   35.670    1.4042
   35.685    1.3165
   35.700    1.3691
   35.715    1.4218
   35.730    1.3165
   35.745    1.3867
   35.760    1.2989
   35.775    1.2989
   35.790    1.3340
   35.805    1.1234
   35.820    1.1761
   35.835    1.4218
   35.850    1.5096
   35.865    1.4920
   35.880    1.2989
   35.895    1.4745
   35.910    1.2287
   35.925    1.2814
   35.940    1.2638
   35.955    1.4569
   35.970    1.3691
   35.985    1.1936
   36.000    1.5447
   36.015    1.3516
   36.030    1.5096
   36.045    1.3516
   36.060    1.3867
   36.075    1.3340
   36.090    1.4569
   36.105    1.3867
   36.120    1.2989
   36.135    1.3516
   36.150    1.1058
   36.165    1.0707
   36.180    1.4920
   36.195    1.3165
   36.210    1.2463
   36.225    1.2814
   36.240    1.2287
   36.255    1.4569
   36.270    1.4042
   36.285    1.2112
   36.300    1.1585
   36.315    1.2463
   36.330    1.2112
   36.345    1.1058
   36.360    1.3165
   36.375    1.1936
   36.390    1.2989
   36.405    1.2814
   36.420    1.3516
   36.435    1.2989
   36.450    1.2463
   36.465    1.3340
   36.480    1.2638
   36.495    1.1936
   36.510    1.1058
   36.525    1.3516
   36.540    1.1936
   36.555    1.3867
   36.570    1.6149
   36.585    1.2638
   36.600    1.1058
   36.615    1.4218
   36.630    1.2989
   36.645    1.0707
   36.660    1.2638
   36.675    1.2287
   36.690    1.2112
   36.705    1.2989
   36.720    1.4218
   36.735    1.3691
   36.750    1.3340
   36.765    1.1410
   36.780    1.2287
   36.795    1.5096
   36.810    1.5096
   36.825    1.4042
   36.840    1.4920
   36.855    1.1410
   36.870    1.4218
   36.885    1.2814
   36.900    1.5096
   36.915    1.4042
   36.930    1.2989
   36.945    1.1585
   36.960    1.2814
   36.975    1.3165
   36.990    1.1585
   37.005    1.2112
   37.020    1.0532
   37.035    1.2287
   37.050    1.2463
   37.065    1.2287
   37.080    1.2989
   37.095    1.1936
   37.110    1.1058
   37.125    0.9654
   37.140    1.2638
   37.155    1.1234
   37.170    1.1234
   37.185    1.2287
   37.200    1.1936
   37.215    1.3165
   37.230    1.2463
   37.245    1.5271
   37.260    1.1585
   37.275    1.2814
   37.290    1.1936
   37.305    1.1058
   37.320    1.1761
   37.335    1.1936
   37.350    1.3691
   37.365    1.2989
   37.380    1.2287
   37.395    1.4394
   37.410    1.1936
   37.425    1.2287
   37.440    1.2638
   37.455    1.1058
   37.470    1.3516
   37.485    1.2287
   37.500    1.1058
   37.515    1.2287
   37.530    1.2287
   37.545    1.1585
   37.560    1.2112
   37.575    1.0356
   37.590    1.3340
   37.605    1.2112
   37.620    1.4218
   37.635    1.1936
   37.650    1.3165
   37.665    1.0707
   37.680    1.2989
   37.695    1.2989
   37.710    1.1234
   37.725    1.3165
   37.740    1.1761
   37.755    1.2112
   37.770    1.0707
   37.785    1.1058
   37.800    1.1585
   37.815    1.1936
   37.830    1.2112
   37.845    1.1058
   37.860    1.3165
   37.875    1.1936
   37.890    1.3867
   37.905    1.2463
   37.920    1.2112
   37.935    1.3691
   37.950    1.1936
   37.965    1.0883
   37.980    1.0532
   37.995    1.1410
   38.010    1.1936
   38.025    1.2638
   38.040    1.3867
   38.055    1.4042
   38.070    1.2989
   38.085    1.3867
   38.100    1.2463
   38.115    1.2463
   38.130    1.2638
   38.145    1.0005
   38.160    1.2112
   38.175    1.1585
   38.190    1.3165
   38.205    1.4218
   38.220    1.1936
   38.235    1.1936
   38.250    1.2989
   38.265    1.0883
   38.280    1.0356
   38.295    1.0532
   38.310    1.1234
   38.325    1.0532
   38.340    1.1410
   38.355    1.1410
   38.370    1.0883
   38.385    1.0883
   38.400    1.2112
   38.415    1.2814
   38.430    0.9479
   38.445    1.2287
   38.460    1.4394
   38.475    1.2638
   38.490    1.1761
   38.505    1.1936
   38.520    1.1410
   38.535    1.2463
   38.550    1.1410
   38.565    1.1234
   38.580    1.2814
   38.595    1.2989
   38.610    1.1058
   38.625    1.1058
   38.640    1.3165
   38.655    1.4042
   38.670    1.2463
   38.685    1.2638
   38.700    1.2287
   38.715    1.2814
   38.730    1.2989
   38.745    1.3340
   38.760    1.1936
   38.775    1.2287
   38.790    1.1058
   38.805    1.0883
   38.820    1.3165
   38.835    1.2638
   38.850    1.5096
   38.865    1.3165
   38.880    0.9830
   38.895    1.3691
   38.910    1.2638
   38.925    1.2989
   38.940    1.1585
   38.955    1.1936
   38.970    1.0707
   38.985    0.8250
   39.000    1.2989
   39.015    1.4920
   39.030    1.2463
   39.045    1.3691
   39.060    1.2287
   39.075    1.0883
   39.090    1.4042
   39.105    1.3165
   39.120    1.3867
   39.135    1.0532
   39.150    1.3867
   39.165    1.0532
   39.180    1.0181
   39.195    1.2287
   39.210    1.4920
   39.225    1.2463
   39.240    1.2989
   39.255    1.2989
   39.270    1.3867
   39.285    1.1410
   39.300    1.5096
   39.315    1.3691
   39.330    1.1936
   39.345    1.2989
   39.360    1.0883
   39.375    1.0883
   39.390    1.1234
   39.405    0.9128
   39.420    1.1058
   39.435    1.0181
   39.450    1.0005
   39.465    1.0883
   39.480    1.2638
   39.495    1.2463
   39.510    1.1410
   39.525    1.0707
   39.540    1.1234
   39.555    1.0883
   39.570    1.0707
   39.585    1.0883
   39.600    1.2463
   39.615    1.1936
   39.630    1.1234
   39.645    1.0532
   39.660    1.1234
   39.675    1.0707
   39.690    1.2112
   39.705    1.0883
   39.720    1.1410
   39.735    1.2287
   39.750    1.2814
   39.765    1.1761
   39.780    1.2638
   39.795    1.1585
   39.810    1.0005
   39.825    1.0532
   39.840    1.2814
   39.855    1.2814
   39.870    1.0356
   39.885    1.3165
   39.900    1.2287
   39.915    0.9654
   39.930    1.0707
   39.945    1.0356
   39.960    1.0532
   39.975    1.1585
   39.990    0.9654
   40.005    1.1058
   40.020    1.0883
   40.035    1.2814
   40.050    1.3165
   40.065    1.1936
   40.080    1.2112
   40.095    1.2112
   40.110    1.2814
   40.125    1.0356
   40.140    1.1585
   40.155    1.1585
   40.170    1.1761
   40.185    1.1234
   40.200    1.2287
   40.215    1.1234
   40.230    0.9303
   40.245    1.0181
   40.260    1.2814
   40.275    1.1761
   40.290    1.0707
   40.305    1.1234
   40.320    1.0707
   40.335    1.0356
   40.350    1.2112
   40.365    1.1761
   40.380    1.3165
   40.395    1.2287
   40.410    1.1761
   40.425    1.2814
   40.440    1.1761
   40.455    1.0532
   40.470    1.0356
   40.485    1.1058
   40.500    1.2989
   40.515    1.2112
   40.530    1.2112
   40.545    1.2638
   40.560    1.2814
   40.575    1.1761
   40.590    1.3340
   40.605    1.1234
   40.620    1.1761
   40.635    1.2287
   40.650    1.1936
   40.665    1.2463
   40.680    1.1058
   40.695    1.2989
   40.710    1.1058
   40.725    1.0883
   40.740    1.0883
   40.755    1.1936
   40.770    1.0883
   40.785    1.2112
   40.800    1.0532
   40.815    1.1761
   40.830    1.2112
   40.845    1.1585
   40.860    1.1234
   40.875    1.0356
   40.890    1.1058
   40.905    1.2638
   40.920    1.2287
   40.935    0.9830
   40.950    1.0005
   40.965    1.1410
   40.980    1.1585
   40.995    1.2463
   41.010    1.2638
   41.025    1.2638
   41.040    1.2989
   41.055    1.2287
   41.070    1.1234
   41.085    0.9654
   41.100    0.9479
   41.115    1.0181
   41.130    1.0883
   41.145    1.2112
   41.160    1.0883
   41.175    1.1761
   41.190    1.0707
   41.205    1.0181
   41.220    1.1234
   41.235    1.3691
   41.250    1.0883
   41.265    1.2814
   41.280    1.1936
   41.295    1.0707
   41.310    1.1585
   41.325    0.9654
   41.340    1.0532
   41.355    1.1585
   41.370    1.0005
   41.385    0.9303
   41.400    1.0532
   41.415    1.4569
   41.430    1.4042
   41.445    1.1410
   41.460    1.3340
   41.475    1.3867
   41.490    1.2112
   41.505    1.0356
   41.520    1.0356
   41.535    1.2463
   41.550    1.2638
   41.565    1.3516
   41.580    1.5973
   41.595    0.9830
   41.610    1.1234
   41.625    1.2814
   41.640    1.2989
   41.655    1.2112
   41.670    1.1234
   41.685    1.2287
   41.700    1.1585
   41.715    0.9479
   41.730    0.9830
   41.745    0.8952
   41.760    0.9654
   41.775    1.0356
   41.790    1.2463
   41.805    1.1936
   41.820    1.0005
   41.835    0.9654
   41.850    1.0181
   41.865    1.1936
   41.880    1.1058
   41.895    1.0532
   41.910    1.0181
   41.925    1.0883
   41.940    1.0532
   41.955    1.2112
   41.970    1.2287
   41.985    1.2112
   42.000    1.1234
   42.015    1.0005
   42.030    0.8777
   42.045    1.0532
   42.060    1.1234
   42.075    1.3340
   42.090    1.2287
   42.105    1.0707
   42.120    1.1585
   42.135    1.2112
   42.150    1.1410
   42.165    1.0005
   42.180    1.1410
   42.195    1.0883
   42.210    1.1936
   42.225    1.1761
   42.240    1.3165
   42.255    1.1234
   42.270    1.1058
   42.285    1.1585
   42.300    1.0356
   42.315    1.0707
   42.330    0.9654
   42.345    1.1936
   42.360    1.0532
   42.375    1.0356
   42.390    1.0005
   42.405    1.0181
   42.420    1.1761
   42.435    1.2463
   42.450    1.1410
   42.465    1.0707
   42.480    1.0356
   42.495    1.2638
   42.510    1.0532
   42.525    1.1410
   42.540    1.3516
   42.555    1.1585
   42.570    0.9830
   42.585    1.0181
   42.600    1.1410
   42.615    1.1058
   42.630    1.1234
   42.645    1.2463
   42.660    1.0005
   42.675    0.9654
   42.690    1.1058
   42.705    1.0005
   42.720    1.0005
   42.735    1.1234
   42.750    0.9479
   42.765    1.2112
   42.780    0.9479
   42.795    1.2112
   42.810    1.2463
   42.825    1.4042
   42.840    1.2287
   42.855    1.0005
   42.870    1.1585
   42.885    1.1058
   42.900    1.1058
   42.915    1.3516
   42.930    1.0707
   42.945    0.9479
   42.960    1.2463
   42.975    1.1761
   42.990    1.1585
   43.005    1.2989
   43.020    1.1234
   43.035    1.1058
   43.050    1.2112
   43.065    1.1410
   43.080    1.1410
   43.095    1.1410
   43.110    0.8952
   43.125    0.9479
   43.140    1.1936
   43.155    0.9128
   43.170    1.1058
   43.185    1.2287
   43.200    0.9303
   43.215    0.9128
   43.230    0.9830
   43.245    1.1234
   43.260    1.2112
   43.275    1.2638
   43.290    1.2463
   43.305    1.3691
   43.320    1.1585
   43.335    1.2287
   43.350    1.2814
   43.365    1.1234
   43.380    1.0532
   43.395    1.2287
   43.410    1.2814
   43.425    1.1058
   43.440    1.1761
   43.455    1.0707
   43.470    1.3340
   43.485    1.2638
   43.500    1.0181
   43.515    0.9128
   43.530    1.0883
   43.545    1.1936
   43.560    1.1761
   43.575    1.2989
   43.590    1.2112
   43.605    1.0005
   43.620    0.8074
   43.635    1.1410
   43.650    1.1936
   43.665    1.1585
   43.680    1.1410
   43.695    1.1936
   43.710    1.2814
   43.725    1.1234
   43.740    1.2112
   43.755    1.1234
   43.770    1.2463
   43.785    1.0532
   43.800    1.1410
   43.815    1.2112
   43.830    1.1936
   43.845    1.1058
   43.860    0.9303
   43.875    0.9479
   43.890    1.2463
   43.905    1.3516
   43.920    1.1936
   43.935    1.1761
   43.950    1.1761
   43.965    1.1058
   43.980    1.2287
   43.995    1.2287
   44.010    1.0883
   44.025    1.1585
   44.040    1.1936
   44.055    1.2463
   44.070    1.2112
   44.085    1.1234
   44.100    0.9830
   44.115    1.0005
   44.130    1.0356
   44.145    1.0181
   44.160    1.1585
   44.175    1.1410
   44.190    1.0532
   44.205    1.0005
   44.220    0.9479
   44.235    1.2814
   44.250    1.2989
   44.265    1.0883
   44.280    0.9654
   44.295    0.9479
   44.310    1.1058
   44.325    0.9479
   44.340    1.0181
   44.355    0.9654
   44.370    1.0356
   44.385    1.2638
   44.400    1.0883
   44.415    1.0883
   44.430    1.1410
   44.445    1.2287
   44.460    1.3340
   44.475    0.9654
   44.490    1.0181
   44.505    1.1234
   44.520    0.8425
   44.535    0.9479
   44.550    0.8250
   44.565    0.8777
   44.580    0.9830
   44.595    1.0181
   44.610    1.2287
   44.625    1.1234
   44.640    0.9128
   44.655    1.1585
   44.670    1.0356
   44.685    1.1585
   44.700    1.0883
   44.715    0.9654
   44.730    1.0707
   44.745    1.1234
   44.760    1.1936
   44.775    1.2989
   44.790    1.2287
   44.805    1.1234
   44.820    1.1058
   44.835    1.2287
   44.850    1.0356
   44.865    0.9654
   44.880    0.8952
   44.895    0.8777
   44.910    1.2463
   44.925    1.1761
   44.940    1.1234
   44.955    1.2989
   44.970    0.9303
   44.985    0.9303
   45.000    1.1410
   45.015    1.1058
   45.030    1.0532
   45.045    1.0005
   45.060    1.0883
   45.075    0.9479
   45.090    1.0005
   45.105    1.0356
   45.120    1.1585
   45.135    1.1936
   45.150    1.2638
   45.165    0.9303
   45.180    1.2463
   45.195    1.0532
   45.210    1.0883
   45.225    1.1410
   45.240    1.2989
   45.255    1.0883
   45.270    1.1058
   45.285    1.0181
   45.300    1.0181
   45.315    1.0005
   45.330    0.9830
   45.345    1.0532
   45.360    1.3165
   45.375    1.0707
   45.390    1.1234
   45.405    1.3691
   45.420    1.1410
   45.435    1.0356
   45.450    1.0356
   45.465    1.4042
   45.480    1.1585
   45.495    1.1761
   45.510    1.0707
   45.525    1.0356
   45.540    0.8425
   45.555    0.9830
   45.570    1.0707
   45.585    1.1761
   45.600    0.9830
   45.615    0.8601
   45.630    1.1058
   45.645    1.0707
   45.660    1.0005
   45.675    0.9830
   45.690    1.0707
   45.705    1.1410
   45.720    1.2463
   45.735    1.0356
   45.750    1.0532
   45.765    1.0532
   45.780    1.1410
   45.795    1.0356
   45.810    1.0356
   45.825    0.9479
   45.840    1.0356
   45.855    0.8777
   45.870    0.8777
   45.885    0.9654
   45.900    1.1585
   45.915    1.1058
   45.930    1.0707
   45.945    1.0883
   45.960    1.0532
   45.975    1.0707
   45.990    1.0707
   46.005    1.0707
   46.020    0.9654
   46.035    1.2463
   46.050    1.3340
   46.065    1.1585
   46.080    1.2287
   46.095    1.0707
   46.110    1.2112
   46.125    1.1234
   46.140    1.1410
   46.155    1.1058
   46.170    1.0532
   46.185    0.9303
   46.200    1.0005
   46.215    1.0707
   46.230    1.0356
   46.245    0.9830
   46.260    1.1761
   46.275    1.0005
   46.290    1.1761
   46.305    1.0181
   46.320    0.9654
   46.335    1.0356
   46.350    0.9479
   46.365    1.0883
   46.380    1.0532
   46.395    1.0707
   46.410    0.9128
   46.425    0.9830
   46.440    1.1058
   46.455    1.0005
   46.470    1.0005
   46.485    0.9479
   46.500    1.1761
   46.515    1.1058
   46.530    0.8952
   46.545    0.9830
   46.560    0.9303
   46.575    0.9128
   46.590    1.0707
   46.605    1.1410
   46.620    1.0181
   46.635    1.2463
   46.650    1.2989
   46.665    0.8601
   46.680    0.9830
   46.695    0.9830
   46.710    0.8777
   46.725    0.9479
   46.740    0.9654
   46.755    0.9479
   46.770    0.8425
   46.785    0.9830
   46.800    1.0532
   46.815    1.0532
   46.830    1.1410
   46.845    1.2112
   46.860    0.9654
   46.875    1.0005
   46.890    0.7548
   46.905    0.8250
   46.920    1.1585
   46.935    1.1234
   46.950    1.1585
   46.965    1.0181
   46.980    1.0356
   46.995    1.1410
   47.010    1.1234
   47.025    1.0883
   47.040    0.8952
   47.055    1.0883
   47.070    0.9654
   47.085    0.9303
   47.100    0.9830
   47.115    1.2287
   47.130    1.3165
   47.145    1.2287
   47.160    1.0707
   47.175    1.1936
   47.190    1.1585
   47.205    0.9303
   47.220    1.0356
   47.235    1.0356
   47.250    0.9830
   47.265    1.0356
   47.280    0.7372
   47.295    1.1058
   47.310    1.1058
   47.325    0.9479
   47.340    1.0181
   47.355    0.9830
   47.370    0.9654
   47.385    1.1410
   47.400    1.0532
   47.415    0.9654
   47.430    1.0883
   47.445    0.9654
   47.460    1.1058
   47.475    0.9830
   47.490    1.0181
   47.505    0.9830
   47.520    0.9128
   47.535    0.7548
   47.550    0.9303
   47.565    1.0883
   47.580    1.0181
   47.595    1.0356
   47.610    1.0883
   47.625    0.9654
   47.640    1.0707
   47.655    0.8601
   47.670    0.7899
   47.685    0.9479
   47.700    1.0532
   47.715    1.0181
   47.730    0.9654
   47.745    0.8777
   47.760    0.9303
   47.775    1.0181
   47.790    0.7723
   47.805    1.1058
   47.820    1.1936
   47.835    1.0707
   47.850    1.1585
   47.865    1.1058
   47.880    1.1058
   47.895    0.8777
   47.910    0.8952
   47.925    1.0181
   47.940    1.0005
   47.955    1.1234
   47.970    0.9128
   47.985    1.0181
   48.000    1.0707
   48.015    1.0005
   48.030    0.7548
   48.045    1.0005
   48.060    0.7899
   48.075    0.9303
   48.090    1.0883
   48.105    0.9128
   48.120    1.1234
   48.135    1.0181
   48.150    0.9654
   48.165    0.8601
   48.180    0.9830
   48.195    1.1058
   48.210    1.0005
   48.225    0.8952
   48.240    0.9479
   48.255    1.0883
   48.270    1.2112
   48.285    0.8250
   48.300    1.1058
   48.315    1.0181
   48.330    0.8952
   48.345    0.8425
   48.360    0.9479
   48.375    0.9303
   48.390    0.9654
   48.405    0.9830
   48.420    0.7899
   48.435    0.9303
   48.450    1.0532
   48.465    1.0883
   48.480    1.0707
   48.495    1.1058
   48.510    1.1410
   48.525    0.9303
   48.540    1.0181
   48.555    1.0005
   48.570    0.8952
   48.585    1.1234
   48.600    1.1410
   48.615    1.0005
   48.630    1.0707
   48.645    0.8250
   48.660    1.0883
   48.675    1.0532
   48.690    1.1058
   48.705    1.0181
   48.720    0.9128
   48.735    1.0005
   48.750    1.0181
   48.765    1.0356
   48.780    0.9654
   48.795    1.0532
   48.810    0.8777
   48.825    0.8074
   48.840    0.8074
   48.855    1.0181
   48.870    1.1410
   48.885    0.9830
   48.900    0.9303
   48.915    1.0532
   48.930    1.2287
   48.945    1.1585
   48.960    1.1058
   48.975    0.8777
   48.990    0.8601
   49.005    0.8952
   49.020    1.0532
   49.035    1.1058
   49.050    1.2287
   49.065    1.2989
   49.080    1.1936
   49.095    1.1410
   49.110    1.1058
   49.125    1.1936
   49.140    1.0181
   49.155    1.1410
   49.170    1.0883
   49.185    1.0356
   49.200    1.1234
   49.215    0.9654
   49.230    0.8952
   49.245    1.0181
   49.260    1.0005
   49.275    0.8425
   49.290    0.8777
   49.305    0.9128
   49.320    0.9128
   49.335    1.0532
   49.350    0.9303
   49.365    0.9128
   49.380    1.0707
   49.395    1.0707
   49.410    0.9303
   49.425    1.0005
   49.440    1.0883
   49.455    0.9830
   49.470    0.8074
   49.485    1.0356
   49.500    1.0005
   49.515    1.3165
   49.530    1.1761
   49.545    1.0883
   49.560    0.9830
   49.575    1.0532
   49.590    0.8601
   49.605    1.0356
   49.620    0.8601
   49.635    0.7899
   49.650    0.9479
   49.665    1.0707
   49.680    0.8952
   49.695    0.8777
   49.710    0.9128
   49.725    0.9830
   49.740    0.9479
   49.755    1.0181
   49.770    0.7548
   49.785    0.8425
   49.800    0.9479
   49.815    0.8777
   49.830    0.9303
   49.845    1.0181
   49.860    0.9654
   49.875    0.9303
   49.890    0.9830
   49.905    1.1585
   49.920    0.9303
   49.935    1.0707
   49.950    0.8601
   49.965    0.9479
   49.980    1.0356
