    1.500   43.7599
    1.515   43.9284
    1.530   43.5808
    1.545   42.4539
    1.560   41.2217
    1.575   40.9163
    1.590   40.1474
    1.605   39.9473
    1.620   39.7051
    1.635   39.4207
    1.650   38.7994
    1.665   39.3049
    1.680   38.1359
    1.695   37.4934
    1.710   37.4197
    1.725   37.1669
    1.740   37.2091
    1.755   36.5877
    1.770   35.0395
    1.785   35.1238
    1.800   35.1659
    1.815   34.2601
    1.830   34.8078
    1.845   34.6393
    1.860   34.2917
    1.875   33.0068
    1.890   33.7230
    1.905   33.9758
    1.920   34.6709
    1.935   33.9442
    1.950   32.6172
    1.965   32.6804
    1.980   32.0484
    1.995   32.7751
    2.010   33.0595
    2.025   32.4487
    2.040   32.7225
    2.055   31.9115
    2.070   32.1748
    2.085   31.9115
    2.100   31.6693
    2.115   32.8067
    2.130   32.0484
    2.145   32.4171
    2.160   32.9226
    2.175   33.0911
    2.190   32.8805
    2.205   32.9858
    2.220   33.1543
    2.235   33.7020
    2.250   34.1022
    2.265   33.4808
    2.280   35.2080
    2.295   34.0074
    2.310   33.6914
    2.325   33.5334
    2.340   34.2601
    2.355   34.4392
    2.370   34.3233
    2.385   34.7235
    2.400   35.3976
    2.415   35.8504
    2.430   35.4397
    2.445   36.4824
    2.460   37.0511
    2.475   37.7251
    2.490   37.6093
    2.505   38.0305
    2.520   39.0311
    2.535   39.7156
    2.550   39.8631
    2.565   40.2212
    2.580   39.9263
    2.595   41.3481
    2.610   42.5276
    2.625   42.2117
    2.640   42.5382
    2.655   43.9705
    2.670   44.5708
    2.685   45.3607
    2.700   45.9610
    2.715   46.4139
    2.730   47.9726
    2.745   47.8673
    2.760   50.5951
    2.775   50.9110
    2.790   50.4581
    2.805   52.3749
    2.820   54.0811
    2.835   54.7867
    2.850   57.1248
    2.865   58.2622
    2.880   58.2938
    2.895   59.3681
    2.910   62.3591
    2.925   62.9489
    2.940   64.3602
    2.955   65.9084
    2.970   69.0469
    2.985   70.9953
    3.000   72.5961
    3.015   75.5977
    3.030   76.9774
    3.045   79.9579
    3.060   82.5698
    3.075   84.3918
    3.090   86.2665
    3.105   90.2896
    3.120   94.7762
    3.135   97.0090
    3.150  100.2001
    3.165  102.7278
    3.180  107.6040
    3.195  112.0274
    3.210  117.1775
    3.225  121.2744
    3.240  128.3834
    3.255  135.1343
    3.270  140.7794
    3.285  148.7204
    3.300  155.7767
    3.315  163.3702
    3.330  170.9953
    3.345  183.7599
    3.360  193.8073
    3.375  209.6156
    3.390  223.1069
    3.405  239.0732
    3.420  252.7962
    3.435  267.8357
    3.450  274.3760
    3.465  271.5219
    3.480  260.7583
    3.495  237.7251
    3.510  209.1838
    3.525  178.2728
    3.540  153.0279
    3.555  129.9737
    3.570  109.5419
    3.585   98.2728
    3.600   90.5213
    3.615   84.1285
    3.630   80.9795
    3.645   76.8510
    3.660   74.6182
    3.675   74.3233
    3.690   73.7757
    3.705   73.4808
    3.720   74.3865
    3.735   75.4292
    3.750   75.8083
    3.765   77.4408
    3.780   78.4939
    3.795   79.9263
    3.810   81.8536
    3.825   84.9605
    3.840   87.1090
    3.855   90.2370
    3.870   92.8278
    3.885   96.5034
    3.900   98.4308
    3.915  100.7688
    3.930  103.1174
    3.945  105.1080
    3.960  107.4566
    3.975  109.6999
    3.990  111.8378
    4.005  112.1222
    4.020  114.5656
    4.035  113.4492
    4.050  115.1343
    4.065  113.6598
    4.080  111.4903
    4.095  110.1527
    4.110  107.1827
    4.125  103.3913
    4.140   98.3149
    4.155   95.0711
    4.170   92.2170
    4.185   88.3518
    4.200   82.4013
    4.215   77.4408
    4.230   74.3023
    4.245   68.7625
    4.260   65.1817
    4.275   60.2738
    4.290   56.1875
    4.305   51.9958
    4.320   48.3412
    4.335   44.7604
    4.350   40.5371
    4.365   38.5993
    4.380   36.3560
    4.395   31.9221
    4.410   30.0158
    4.425   28.8046
    4.440   27.3196
    4.455   25.6030
    4.470   24.4655
    4.485   23.4966
    4.500   22.4223
    4.515   21.7378
    4.530   20.1580
    4.545   19.7472
    4.560   19.0627
    4.575   18.3781
    4.590   17.1564
    4.605   17.2828
    4.620   17.0511
    4.635   16.5034
    4.650   15.8715
    4.665   15.3239
    4.680   14.7657
    4.695   14.5550
    4.710   14.3023
    4.725   13.7125
    4.740   14.2707
    4.755   13.9442
    4.770   13.3544
    4.785   13.6598
    4.800   13.1332
    4.815   13.2070
    4.830   12.8489
    4.845   12.5329
    4.860   12.2801
    4.875   12.4803
    4.890   12.9226
    4.905   12.4908
    4.920   12.4803
    4.935   12.2064
    4.950   11.8062
    4.965   11.5640
    4.980   12.0590
    4.995   12.2801
    5.010   11.9010
    5.025   11.9431
    5.040   11.6166
    5.055   11.7220
    5.070   11.6693
    5.085   11.2480
    5.100   11.3955
    5.115   11.3428
    5.130   11.2375
    5.145   10.9531
    5.160   11.7220
    5.175   11.4692
    5.190   11.0163
    5.205   11.1111
    5.220   11.1848
    5.235   11.1322
    5.250   10.7741
    5.265   11.0163
    5.280   10.9953
    5.295   11.0374
    5.310   10.1843
    5.325   10.2264
    5.340   10.6266
    5.355   10.5108
    5.370   10.5213
    5.385   10.5108
    5.400   10.8057
    5.415   10.5635
    5.430   10.3528
    5.445   10.3107
    5.460   10.4055
    5.475   10.7425
    5.490   10.9110
    5.505   10.4265
    5.520    9.5735
    5.535   10.0369
    5.550    9.7946
    5.565    9.6893
    5.580    9.7736
    5.595   10.0790
    5.610   10.3423
    5.625    9.9631
    5.640    9.6788
    5.655   10.1106
    5.670    9.5313
    5.685   10.0895
    5.700   10.2475
    5.715    9.7209
    5.730    8.9205
    5.745    9.3312
    5.760    9.8368
    5.775    9.8262
    5.790    9.9210
    5.805    9.3628
    5.820    9.7104
    5.835    9.5629
    5.850    9.7630
    5.865    9.4892
    5.880    9.5840
    5.895    9.6156
    5.910    9.6893
    5.925    9.6051
    5.940    9.4155
    5.955    9.2786
    5.970    9.8999
    5.985    9.8157
    6.000    9.6893
    6.015    9.5945
    6.030    9.6261
    6.045    9.8262
    6.060    9.3102
    6.075    9.5103
    6.090    9.4155
    6.105    9.9315
    6.120    9.5629
    6.135    9.9526
    6.150    9.8157
    6.165   10.1316
    6.180   10.0369
    6.195    9.6682
    6.210    9.7946
    6.225    9.9737
    6.240    9.8789
    6.255   10.1948
    6.270   10.0685
    6.285   10.4792
    6.300   10.4055
    6.315   10.5108
    6.330   10.6372
    6.345   10.7004
    6.360   11.1848
    6.375   11.0585
    6.390   10.8794
    6.405   11.4376
    6.420   10.9110
    6.435   11.2375
    6.450   11.2480
    6.465   11.5008
    6.480   11.8167
    6.495   11.6061
    6.510   12.1538
    6.525   11.9115
    6.540   12.0800
    6.555   12.3328
    6.570   11.9431
    6.585   12.3328
    6.600   12.4276
    6.615   13.1543
    6.630   13.7967
    6.645   13.7651
    6.660   14.4602
    6.675   14.8394
    6.690   14.8920
    6.705   15.4397
    6.720   15.8294
    6.735   16.9879
    6.750   17.4934
    6.765   18.2833
    6.780   18.5150
    6.795   18.9468
    6.810   20.7899
    6.825   21.5271
    6.840   22.6751
    6.855   24.7499
    6.870   25.3186
    6.885   26.8668
    6.900   28.8573
    6.915   31.3955
    6.930   33.3123
    6.945   33.9442
    6.960   35.0290
    6.975   33.3544
    6.990   30.5845
    7.005   28.7730
    7.020   27.2249
    7.035   23.6651
    7.050   20.9057
    7.065   18.4518
    7.080   16.9036
    7.095   15.6187
    7.110   14.4181
    7.125   14.0495
    7.140   13.3965
    7.155   12.5856
    7.170   11.9853
    7.185   12.0800
    7.200   11.2902
    7.215   11.5956
    7.230   11.1322
    7.245   10.9321
    7.260   11.0795
    7.275   10.7425
    7.290   10.8689
    7.305   11.1848
    7.320   10.9110
    7.335   11.1848
    7.350   10.7425
    7.365   10.4265
    7.380   10.5213
    7.395   10.5845
    7.410   10.4581
    7.425   10.8268
    7.440   10.7741
    7.455   10.8583
    7.470   10.7741
    7.485   10.7741
    7.500   11.2586
    7.515   11.6377
    7.530   11.4165
    7.545   11.4797
    7.560   11.5324
    7.575   11.4587
    7.590   11.5429
    7.605   11.2902
    7.620   11.6377
    7.635   11.5850
    7.650   11.3007
    7.665   11.6798
    7.680   12.0590
    7.695   12.3012
    7.710   12.1222
    7.725   12.7330
    7.740   12.3328
    7.755   12.6698
    7.770   12.8805
    7.785   13.1227
    7.800   13.6072
    7.815   13.6177
    7.830   13.6072
    7.845   13.5545
    7.860   13.8283
    7.875   13.8283
    7.890   14.2391
    7.905   14.9026
    7.920   14.8289
    7.935   15.3870
    7.950   15.6398
    7.965   15.7030
    7.980   14.7551
    7.995   15.3765
    8.010   15.9136
    8.025   16.4508
    8.040   16.4718
    8.055   16.6719
    8.070   16.8299
    8.085   16.7351
    8.100   16.5456
    8.115   16.7878
    8.130   16.7246
    8.145   16.6193
    8.160   16.5350
    8.175   17.1353
    8.190   17.0616
    8.205   17.0090
    8.220   17.5987
    8.235   17.0195
    8.250   16.7457
    8.265   17.0195
    8.280   17.1564
    8.295   16.8720
    8.310   16.5877
    8.325   16.9774
    8.340   16.1243
    8.355   15.7135
    8.370   16.4297
    8.385   16.2191
    8.400   16.0927
    8.415   15.6398
    8.430   15.1975
    8.445   15.0606
    8.460   14.7657
    8.475   14.8605
    8.490   14.4708
    8.505   14.7551
    8.520   14.3549
    8.535   14.1127
    8.550   14.1969
    8.565   14.0811
    8.580   13.4387
    8.595   13.6493
    8.610   13.6282
    8.625   12.9963
    8.640   13.0595
    8.655   13.0384
    8.670   12.7120
    8.685   11.9642
    8.700   12.2275
    8.715   11.9221
    8.730   12.0063
    8.745   11.6588
    8.760   10.5635
    8.775   10.8689
    8.790   11.1111
    8.805   11.2164
    8.820   10.9110
    8.835   10.5635
    8.850   10.2370
    8.865   10.1106
    8.880    9.7841
    8.895   10.1843
    8.910   10.0685
    8.925   10.3318
    8.940   10.0053
    8.955    9.6051
    8.970    9.2891
    8.985    9.4260
    9.000    9.8157
    9.015    9.4365
    9.030    9.6788
    9.045    9.5208
    9.060    9.2364
    9.075    9.0679
    9.090    9.2048
    9.105    8.9942
    9.120    9.1417
    9.135    8.8362
    9.150    9.2470
    9.165    9.4787
    9.180    9.4365
    9.195    9.3734
    9.210    9.7209
    9.225    9.2996
    9.240    8.9415
    9.255    8.5308
    9.270    8.6361
    9.285    9.3207
    9.300    8.8362
    9.315    8.9415
    9.330    8.8362
    9.345    8.9626
    9.360    8.8784
    9.375    9.1311
    9.390    9.2680
    9.405    8.6677
    9.420    8.6993
    9.435    8.4360
    9.450    9.1311
    9.465    8.8046
    9.480    8.9837
    9.495    9.3207
    9.510    9.1101
    9.525    9.0363
    9.540    9.4365
    9.555    9.3312
    9.570    8.9205
    9.585    8.8046
    9.600    9.4155
    9.615    8.7520
    9.630    8.8678
    9.645    8.6677
    9.660    9.0890
    9.675    8.4887
    9.690    8.4992
    9.705    9.1311
    9.720    8.4992
    9.735    8.4360
    9.750    8.8573
    9.765    8.8784
    9.780    8.5413
    9.795    8.7204
    9.810    8.6888
    9.825    8.6151
    9.840    8.8994
    9.855    8.8573
    9.870    8.5519
    9.885    8.6361
    9.900    8.1622
    9.915    8.4887
    9.930    8.5940
    9.945    8.7941
    9.960    8.6151
    9.975    8.5729
    9.990    8.3518
   10.005    8.3412
   10.020    8.3307
   10.035    8.8889
   10.050    8.7836
   10.065    8.7414
   10.080    8.9415
   10.095    9.1101
   10.110    9.0047
   10.125    8.7730
   10.140    8.6677
   10.155    8.9942
   10.170    9.3523
   10.185    8.9205
   10.200    9.1943
   10.215    9.3312
   10.230    9.2154
   10.245    9.0153
   10.260    8.8362
   10.275    9.0363
   10.290    9.0363
   10.305    9.0890
   10.320    9.8473
   10.335    9.4260
   10.350    9.4892
   10.365    9.8999
   10.380    9.9737
   10.395    9.9737
   10.410   10.1738
   10.425   10.3528
   10.440   10.2054
   10.455   10.3949
   10.470   10.3423
   10.485   10.4371
   10.500    9.8999
   10.515   10.2686
   10.530   10.1948
   10.545   10.3107
   10.560    9.9315
   10.575    9.7525
   10.590    9.6788
   10.605    9.0153
   10.620    9.3628
   10.635    9.2996
   10.650    8.9837
   10.665    8.5835
   10.680    8.8046
   10.695    9.0574
   10.710    8.9942
   10.725    8.5729
   10.740    8.9942
   10.755    8.5519
   10.770    8.5519
   10.785    8.4360
   10.800    8.6888
   10.815    8.5624
   10.830    8.7941
   10.845    9.0679
   10.860    8.8257
   10.875    8.3202
   10.890    8.5624
   10.905    8.5308
   10.920    8.5940
   10.935    9.0574
   10.950    8.3518
   10.965    8.9310
   10.980    8.8573
   10.995    8.8784
   11.010    8.9626
   11.025    9.0363
   11.040    8.5835
   11.055    8.8784
   11.070    8.8046
   11.085    8.8784
   11.100    8.4676
   11.115    8.4255
   11.130    8.8257
   11.145    8.5835
   11.160    9.0258
   11.175    8.7730
   11.190    8.9100
   11.205    8.9837
   11.220    8.7730
   11.235    8.2359
   11.250    8.3202
   11.265    9.4365
   11.280    8.8994
   11.295    8.8257
   11.310    8.7309
   11.325    8.3939
   11.340    8.5097
   11.355    8.8573
   11.370    9.0258
   11.385    8.8257
   11.400    9.0363
   11.415    9.1417
   11.430    8.8257
   11.445    9.0469
   11.460    8.7625
   11.475    8.9205
   11.490    8.8362
   11.505    8.8994
   11.520    8.7941
   11.535    8.6256
   11.550    8.8046
   11.565    8.6467
   11.580    8.7730
   11.595    8.8678
   11.610    8.8573
   11.625    9.3734
   11.640    9.1943
   11.655    8.7098
   11.670    8.5413
   11.685    8.6572
   11.700    8.6045
   11.715    8.6045
   11.730    9.0679
   11.745    9.2891
   11.760    9.5208
   11.775    9.5208
   11.790    8.9731
   11.805    9.4892
   11.820    9.1732
   11.835    9.5524
   11.850    9.3839
   11.865    9.4155
   11.880    9.4787
   11.895    9.8052
   11.910    9.6472
   11.925    9.1206
   11.940    9.7525
   11.955    9.0258
   11.970    9.5208
   11.985    9.8789
   12.000    9.9947
   12.015    9.4155
   12.030    9.5629
   12.045    9.3207
   12.060    9.1522
   12.075    9.8052
   12.090    9.2786
   12.105    9.7104
   12.120    9.6893
   12.135    9.6367
   12.150    9.6682
   12.165   10.0895
   12.180   10.2791
   12.195    9.5629
   12.210    9.8684
   12.225    9.4365
   12.240    9.3944
   12.255   10.1106
   12.270    9.8789
   12.285   10.0895
   12.300    9.9842
   12.315    9.8262
   12.330   10.4581
   12.345   10.0369
   12.360    9.8578
   12.375   10.2475
   12.390    9.9105
   12.405   10.0685
   12.420   10.1422
   12.435    9.7209
   12.450    9.7104
   12.465   10.2686
   12.480   10.0158
   12.495   10.0895
   12.510    9.8157
   12.525    9.6577
   12.540    9.9210
   12.555    9.8262
   12.570    9.7630
   12.585    9.9526
   12.600    9.7420
   12.615    9.7841
   12.630    9.7736
   12.645    9.7736
   12.660    9.9842
   12.675    9.1522
   12.690    9.5735
   12.705   10.0369
   12.720    9.8999
   12.735    9.1838
   12.750    9.2470
   12.765    9.6261
   12.780    9.6156
   12.795    9.7314
   12.810    9.6998
   12.825    9.8894
   12.840    9.8157
   12.855    9.6682
   12.870    9.5524
   12.885    9.4787
   12.900    9.4892
   12.915    9.0679
   12.930    9.3312
   12.945    9.1522
   12.960    9.2259
   12.975    9.0679
   12.990    9.1732
   13.005    9.5313
   13.020    9.1838
   13.035    8.8468
   13.050    9.3418
   13.065    9.1101
   13.080    9.2364
   13.095    9.5629
   13.110    9.3312
   13.125    9.7525
   13.140    9.5419
   13.155    9.0363
   13.170    9.1627
   13.185    9.5945
   13.200    9.7841
   13.215    9.6051
   13.230    9.4050
   13.245    8.6361
   13.260    9.1417
   13.275    9.5313
   13.290    9.7736
   13.305    9.2786
   13.320    9.2680
   13.335    9.0785
   13.350    9.1522
   13.365    9.2996
   13.380    9.3523
   13.395    9.1943
   13.410    9.2470
   13.425    9.2996
   13.440    9.3523
   13.455    8.9205
   13.470    9.2680
   13.485    9.5524
   13.500    9.4787
   13.515    9.1522
   13.530    9.3628
   13.545    9.6472
   13.560    9.3207
   13.575    9.0890
   13.590    9.0047
   13.605    9.2786
   13.620    9.5313
   13.635    9.3207
   13.650    9.1522
   13.665    9.0995
   13.680    8.9205
   13.695    9.3418
   13.710    9.4155
   13.725    9.1732
   13.740    9.4155
   13.755    9.2154
   13.770    9.1943
   13.785    8.9837
   13.800    8.9415
   13.815    9.1838
   13.830    8.9310
   13.845    8.9415
   13.860    8.8889
   13.875    8.5624
   13.890    8.9521
   13.905    8.9626
   13.920    8.5835
   13.935    9.0047
   13.950    9.1417
   13.965    8.9942
   13.980    8.7941
   13.995    8.6151
   14.010    8.9205
   14.025    9.5735
   14.040    9.0785
   14.055    8.6677
   14.070    8.7414
   14.085    8.9205
   14.100    8.8362
   14.115    9.3523
   14.130    9.0679
   14.145    8.8573
   14.160    8.6572
   14.175    8.7098
   14.190    8.4150
   14.205    8.9837
   14.220    8.6045
   14.235    8.4044
   14.250    8.7309
   14.265    8.7414
   14.280    8.4255
   14.295    8.6888
   14.310    8.7098
   14.325    8.3728
   14.340    8.6151
   14.355    8.8889
   14.370    8.4781
   14.385    8.7836
   14.400    8.4676
   14.415    8.1411
   14.430    8.1411
   14.445    8.7204
   14.460    8.4571
   14.475    9.1838
   14.490    8.4887
   14.505    8.6572
   14.520    8.7204
   14.535    8.2570
   14.550    8.3412
   14.565    8.9205
   14.580    8.1095
   14.595    8.4044
   14.610    8.6572
   14.625    8.5308
   14.640    8.4992
   14.655    8.8152
   14.670    8.3834
   14.685    8.3412
   14.700    8.1517
   14.715    8.3939
   14.730    8.6783
   14.745    8.2675
   14.760    8.7414
   14.775    8.8678
   14.790    8.3412
   14.805    8.5413
   14.820    8.5729
   14.835    8.1201
   14.850    8.4571
   14.865    8.3412
   14.880    8.0885
   14.895    8.1411
   14.910    8.3202
   14.925    8.0990
   14.940    8.3202
   14.955    8.4255
   14.970    8.7520
   14.985    8.5519
   15.000    8.7414
   15.015    8.4676
   15.030    8.0147
   15.045    8.2149
   15.060    8.7836
   15.075    8.8784
   15.090    8.5940
   15.105    8.5729
   15.120    8.7414
   15.135    8.5835
   15.150    8.1517
   15.165    8.5413
   15.180    8.3412
   15.195    8.4466
   15.210    8.6467
   15.225    8.7520
   15.240    8.1517
   15.255    8.7836
   15.270    8.5835
   15.285    8.2359
   15.300    8.6888
   15.315    8.9310
   15.330    9.0469
   15.345    8.7098
   15.360    8.5308
   15.375    8.2464
   15.390    9.0785
   15.405    9.3839
   15.420    8.4992
   15.435    8.2254
   15.450    8.6467
   15.465    8.6677
   15.480    8.5940
   15.495    8.8152
   15.510    8.8784
   15.525    8.4466
   15.540    8.5413
   15.555    8.7098
   15.570    8.4466
   15.585    8.7098
   15.600    8.3939
   15.615    8.7625
   15.630    8.8362
   15.645    9.2259
   15.660    8.7098
   15.675    8.4992
   15.690    8.4781
   15.705    9.0890
   15.720    8.9837
   15.735    8.9731
   15.750    8.5940
   15.765    8.2464
   15.780    8.8257
   15.795    8.2254
   15.810    8.5203
   15.825    8.5835
   15.840    8.5940
   15.855    8.3202
   15.870    8.4360
   15.885    9.0153
   15.900    8.9310
   15.915    8.8994
   15.930    8.9310
   15.945    8.6993
   15.960    8.5097
   15.975    8.6467
   15.990    8.7098
   16.005    8.7309
   16.020    8.4466
   16.035    8.7098
   16.050    8.5308
   16.065    8.3518
   16.080    8.5729
   16.095    8.5835
   16.110    8.5940
   16.125    8.8994
   16.140    8.7414
   16.155    8.5940
   16.170    8.2780
   16.185    8.6045
   16.200    8.9626
   16.215    8.7836
   16.230    8.9521
   16.245    8.1833
   16.260    8.4887
   16.275    8.6361
   16.290    8.7414
   16.305    8.9837
   16.320    8.3834
   16.335    8.4150
   16.350    8.1411
   16.365    8.6361
   16.380    8.3728
   16.395    8.5729
   16.410    8.6888
   16.425    8.6256
   16.440    8.8257
   16.455    8.3623
   16.470    8.1517
   16.485    8.1938
   16.500    8.2043
   16.515    8.2149
   16.530    8.4360
   16.545    8.3518
   16.560    8.3307
   16.575    8.3623
   16.590    8.3728
   16.605    8.3307
   16.620    8.2254
   16.635    8.2886
   16.650    8.4887
   16.665    8.0042
   16.680    8.4992
   16.695    8.6677
   16.710    8.3939
   16.725    8.1306
   16.740    8.1938
   16.755    8.4676
   16.770    8.3412
   16.785    8.4781
   16.800    8.3202
   16.815    8.3202
   16.830    8.7309
   16.845    8.3623
   16.860    8.0674
   16.875    8.2886
   16.890    8.6151
   16.905    8.5203
   16.920    8.8046
   16.935    8.5940
   16.950    8.2464
   16.965    8.6572
   16.980    8.4255
   16.995    8.3096
   17.010    8.6256
   17.025    8.6467
   17.040    8.3412
   17.055    8.3307
   17.070    8.4360
   17.085    8.4887
   17.100    8.5624
   17.115    8.2149
   17.130    8.4466
   17.145    8.3307
   17.160    8.0885
   17.175    7.8462
   17.190    8.4992
   17.205    8.7730
   17.220    8.6572
   17.235    8.3307
   17.250    7.8778
   17.265    8.2570
   17.280    8.6467
   17.295    8.6783
   17.310    8.0779
   17.325    8.1095
   17.340    8.1938
   17.355    8.6467
   17.370    8.6572
   17.385    8.4255
   17.400    8.3412
   17.415    9.0047
   17.430    8.5097
   17.445    8.3307
   17.460    8.5940
   17.475    8.5413
   17.490    8.6888
   17.505    8.6467
   17.520    8.5203
   17.535    8.4781
   17.550    8.3834
   17.565    8.2780
   17.580    8.6677
   17.595    8.8678
   17.610    8.6361
   17.625    8.3202
   17.640    8.4360
   17.655    8.3834
   17.670    8.2780
   17.685    8.5308
   17.700    8.5519
   17.715    8.9310
   17.730    9.0995
   17.745    8.9942
   17.760    8.6467
   17.775    7.9726
   17.790    8.4992
   17.805    8.4992
   17.820    8.5308
   17.835    8.5624
   17.850    8.4571
   17.865    8.4887
   17.880    8.5203
   17.895    9.1522
   17.910    8.5097
   17.925    8.5413
   17.940    9.0785
   17.955    8.9942
   17.970    9.1522
   17.985    8.8046
   18.000    8.7520
   18.015    8.9626
   18.030    8.9415
   18.045    8.6677
   18.060    8.5413
   18.075    9.1943
   18.090    9.0679
   18.105    8.9205
   18.120    8.7941
   18.135    8.7941
   18.150    8.7730
   18.165    9.0890
   18.180    8.1622
   18.195    8.5940
   18.210    9.0785
   18.225    8.7941
   18.240    8.8889
   18.255    8.2675
   18.270    8.5413
   18.285    8.9100
   18.300    8.1517
   18.315    8.4255
   18.330    8.4255
   18.345    8.3728
   18.360    8.6888
   18.375    8.6888
   18.390    8.6045
   18.405    8.2886
   18.420    8.1833
   18.435    8.5203
   18.450    8.8362
   18.465    9.2891
   18.480    8.3307
   18.495    8.3307
   18.510    8.5097
   18.525    8.3518
   18.540    8.8046
   18.555    8.8362
   18.570    8.3623
   18.585    8.5413
   18.600    8.5729
   18.615    8.6572
   18.630    8.8994
   18.645    8.8889
   18.660    8.4044
   18.675    8.4781
   18.690    8.4255
   18.705    8.4781
   18.720    8.1938
   18.735    8.4992
   18.750    8.4781
   18.765    8.6572
   18.780    8.7309
   18.795    8.3412
   18.810    8.6467
   18.825    8.1727
   18.840    7.9831
   18.855    8.3518
   18.870    8.2675
   18.885    8.6361
   18.900    8.7309
   18.915    8.5097
   18.930    8.8046
   18.945    8.2359
   18.960    8.4150
   18.975    8.7625
   18.990    9.1627
   19.005    8.6151
   19.020    8.3834
   19.035    8.5729
   19.050    8.5203
   19.065    8.4255
   19.080    8.6045
   19.095    8.6572
   19.110    8.4992
   19.125    8.7309
   19.140    9.0679
   19.155    8.8152
   19.170    8.9942
   19.185    9.0785
   19.200    8.9415
   19.215    9.0679
   19.230    9.0258
   19.245    9.1732
   19.260    8.7098
   19.275    8.9837
   19.290    8.9415
   19.305    8.6572
   19.320    8.4676
   19.335    9.0153
   19.350    8.9415
   19.365    8.6045
   19.380    9.2575
   19.395    9.1522
   19.410    8.8152
   19.425    8.7941
   19.440    9.1311
   19.455    9.2680
   19.470    9.6156
   19.485    9.4576
   19.500    9.5945
   19.515    9.1206
   19.530    9.6156
   19.545    9.4365
   19.560    9.2786
   19.575    9.3628
   19.590    9.3102
   19.605    9.5419
   19.620    9.3207
   19.635    9.2259
   19.650    8.9205
   19.665    9.6893
   19.680    9.5419
   19.695    9.5524
   19.710    9.6788
   19.725    9.6051
   19.740    9.6261
   19.755    9.7209
   19.770    9.6893
   19.785    8.8046
   19.800    9.2154
   19.815    9.3312
   19.830    9.2891
   19.845    9.4787
   19.860    9.2470
   19.875    9.2259
   19.890    9.5208
   19.905    9.8262
   19.920    9.4576
   19.935    9.9105
   19.950    9.5945
   19.965    9.7736
   19.980    9.5629
   19.995    9.1732
   20.010    9.6051
   20.025   10.1527
   20.040    9.6998
   20.055    9.5629
   20.070    9.7314
   20.085    9.8368
   20.100    9.6682
   20.115    9.6682
   20.130    9.8789
   20.145    9.9210
   20.160    9.5103
   20.175    9.7209
   20.190    9.9842
   20.205    9.9631
   20.220    9.3734
   20.235    9.3839
   20.250    9.2786
   20.265    9.1311
   20.280    8.9415
   20.295    9.2259
   20.310    9.9105
   20.325    9.4892
   20.340    9.3523
   20.355    9.1417
   20.370    9.4365
   20.385    9.6367
   20.400    9.6367
   20.415    9.8894
   20.430    9.7630
   20.445    9.1627
   20.460    9.5840
   20.475    9.5419
   20.490    9.7420
   20.505    9.2470
   20.520    9.3207
   20.535    9.2786
   20.550    9.6682
   20.565    9.1838
   20.580    9.3944
   20.595    9.0469
   20.610    9.1838
   20.625    9.3207
   20.640    9.6682
   20.655    9.2786
   20.670    9.7209
   20.685    9.3734
   20.700    9.2891
   20.715    9.1732
   20.730    9.2048
   20.745    9.0890
   20.760    9.3312
   20.775    9.4892
   20.790    9.1522
   20.805    9.7841
   20.820    9.7314
   20.835    9.2154
   20.850    9.6261
   20.865    9.8052
   20.880    9.3102
   20.895    9.6051
   20.910    9.5208
   20.925    9.2786
   20.940    9.3523
   20.955    9.6156
   20.970    9.5945
   20.985    9.5840
   21.000    9.9842
   21.015    9.5840
   21.030    9.8578
   21.045   10.0158
   21.060    9.6051
   21.075    9.4681
   21.090    9.9315
   21.105    9.5840
   21.120   10.0579
   21.135   10.1106
   21.150   10.0895
   21.165   10.0158
   21.180    9.5313
   21.195    9.7209
   21.210    9.5945
   21.225    9.6156
   21.240   10.0158
   21.255    9.7630
   21.270    9.3839
   21.285    9.5840
   21.300    9.4787
   21.315    9.2996
   21.330    9.5208
   21.345    9.7946
   21.360    9.6051
   21.375    9.5419
   21.390   10.0158
   21.405   10.0895
   21.420   10.1738
   21.435    9.6998
   21.450    9.4787
   21.465    9.7525
   21.480    9.5629
   21.495   10.2475
   21.510    9.6577
   21.525    9.4260
   21.540    9.4892
   21.555    9.5524
   21.570    9.6051
   21.585    9.2891
   21.600    8.8362
   21.615    9.5103
   21.630    9.7841
   21.645    9.8999
   21.660    9.8052
   21.675    9.6682
   21.690    9.6472
   21.705    9.3839
   21.720    9.0047
   21.735    9.3628
   21.750    9.4050
   21.765    9.3312
   21.780    9.1417
   21.795    9.0679
   21.810    9.7104
   21.825    9.4050
   21.840    9.5419
   21.855    9.8684
   21.870    9.3734
   21.885    9.5103
   21.900    9.7630
   21.915   10.0158
   21.930    9.5103
   21.945    9.8262
   21.960   10.1106
   21.975    9.7946
   21.990    9.7525
   22.005    9.4260
   22.020    9.1627
   22.035    9.4260
   22.050    9.7104
   22.065    9.7104
   22.080    9.6893
   22.095    9.5313
   22.110    9.6261
   22.125    9.8894
   22.140    9.5419
   22.155    9.4997
   22.170    9.6367
   22.185    9.2786
   22.200    9.7209
   22.215    9.3523
   22.230    9.6472
   22.245    9.2364
   22.260    9.6156
   22.275    9.2259
   22.290    9.3839
   22.305    9.4471
   22.320    9.4576
   22.335    9.7420
   22.350   10.2264
   22.365    9.6893
   22.380    9.0890
   22.395    9.4050
   22.410    9.6261
   22.425    9.7525
   22.440    9.6367
   22.455    9.5208
   22.470    9.6261
   22.485    9.0363
   22.500    9.3102
   22.515    9.6788
   22.530    9.0995
   22.545    9.3734
   22.560    9.0890
   22.575    8.9100
   22.590    9.4681
   22.605    9.4050
   22.620    9.2154
   22.635    9.6472
   22.650    9.4576
   22.665    9.5840
   22.680    9.3418
   22.695    9.3839
   22.710    9.7630
   22.725    9.6261
   22.740    9.1943
   22.755    9.7736
   22.770    9.5103
   22.785    9.4365
   22.800    9.3839
   22.815    8.9731
   22.830    9.3628
   22.845    9.1206
   22.860    9.4155
   22.875    9.2996
   22.890    9.3312
   22.905    8.9100
   22.920    9.4681
   22.935    9.5945
   22.950    9.5945
   22.965    9.5419
   22.980    9.0469
   22.995    9.5103
   23.010    9.5208
   23.025    9.7630
   23.040    9.6893
   23.055    9.6261
   23.070    9.3418
   23.085    9.5945
   23.100    9.7630
   23.115    8.8468
   23.130    9.2470
   23.145    9.2786
   23.160    9.3207
   23.175    9.1838
   23.190    9.2470
   23.205    9.5419
   23.220    9.4155
   23.235    9.1206
   23.250    9.1417
   23.265    9.4260
   23.280    9.0153
   23.295    9.3418
   23.310    9.3734
   23.325    9.5945
   23.340    9.6367
   23.355    9.0574
   23.370    9.4155
   23.385    9.3734
   23.400    9.2786
   23.415    9.4471
   23.430    9.1417
   23.445    9.0995
   23.460    8.8784
   23.475    8.8573
   23.490    9.1943
   23.505    9.4787
   23.520    9.4365
   23.535    9.4260
   23.550    9.0469
   23.565    9.2891
   23.580    9.2048
   23.595    9.4471
   23.610    9.0995
   23.625    9.0574
   23.640    8.8046
   23.655    8.6256
   23.670    9.0363
   23.685    8.8678
   23.700    8.6256
   23.715    8.9942
   23.730    8.8573
   23.745    9.1206
   23.760    9.0153
   23.775    8.3728
   23.790    8.8046
   23.805    8.8046
   23.820    9.0469
   23.835    8.9415
   23.850    8.9942
   23.865    8.8678
   23.880    9.0153
   23.895    9.2048
   23.910    8.9942
   23.925    9.1101
   23.940    8.8257
   23.955    8.7204
   23.970    9.3628
   23.985    9.2259
   24.000    8.7309
   24.015    8.9521
   24.030    8.8784
   24.045    9.0785
   24.060    8.8152
   24.075    8.8046
   24.090    8.8889
   24.105    9.0995
   24.120    8.9205
   24.135    8.9310
   24.150    9.0890
   24.165    8.9837
   24.180    9.2680
   24.195    8.8573
   24.210    9.0574
   24.225    8.8152
   24.240    8.5835
   24.255    9.0047
   24.270    8.6677
   24.285    8.6361
   24.300    9.1943
   24.315    9.4997
   24.330    9.4787
   24.345    8.9521
   24.360    8.9100
   24.375    8.5835
   24.390    8.6467
   24.405    8.5203
   24.420    8.4255
   24.435    8.8362
   24.450    8.6361
   24.465    8.6045
   24.480    9.2048
   24.495    9.5419
   24.510    9.5945
   24.525    8.7730
   24.540    9.0469
   24.555    9.0469
   24.570    8.9626
   24.585    9.1101
   24.600    9.3523
   24.615    8.9942
   24.630    9.5524
   24.645    9.3734
   24.660    9.7630
   24.675    8.9837
   24.690    9.0995
   24.705    8.8468
   24.720    8.8362
   24.735    8.7414
   24.750    8.8468
   24.765    8.9626
   24.780    8.6993
   24.795    8.6572
   24.810    8.8468
   24.825    8.9837
   24.840    9.1522
   24.855    8.9942
   24.870    8.5835
   24.885    8.8994
   24.900    8.7520
   24.915    9.1522
   24.930    9.1101
   24.945    8.4255
   24.960    8.2675
   24.975    8.6888
   24.990    9.0047
   25.005    8.6783
   25.020    8.4255
   25.035    8.7204
   25.050    8.4571
   25.065    8.7941
   25.080    8.5413
   25.095    8.4150
   25.110    8.6256
   25.125    8.7309
   25.140    8.6677
   25.155    8.6256
   25.170    8.2780
   25.185    8.4992
   25.200    8.1938
   25.215    8.5097
   25.230    8.5203
   25.245    8.4466
   25.260    8.3518
   25.275    8.5097
   25.290    8.5413
   25.305    8.2675
   25.320    8.3518
   25.335    8.1938
   25.350    8.9521
   25.365    8.5413
   25.380    8.0358
   25.395    8.4360
   25.410    8.1201
   25.425    8.7414
   25.440    8.3939
   25.455    8.9837
   25.470    8.2254
   25.485    7.8989
   25.500    8.2886
   25.515    8.2043
   25.530    8.5308
   25.545    9.2154
   25.560    9.1838
   25.575    8.6993
   25.590    8.5835
   25.605    9.0363
   25.620    8.6993
   25.635    8.4571
   25.650    8.4255
   25.665    8.4571
   25.680    8.4781
   25.695    7.9200
   25.710    7.7304
   25.725    8.0042
   25.740    8.4150
   25.755    8.4992
   25.770    8.5203
   25.785    8.8468
   25.800    8.5729
   25.815    8.3202
   25.830    8.4781
   25.845    8.1517
   25.860    8.2886
   25.875    8.0674
   25.890    8.2570
   25.905    8.4571
   25.920    8.2149
   25.935    8.2254
   25.950    8.2780
   25.965    8.2675
   25.980    8.4255
   25.995    8.4150
   26.010    8.3834
   26.025    8.1306
   26.040    7.9621
   26.055    8.1411
   26.070    8.2991
   26.085    7.8673
   26.100    8.1201
   26.115    8.0674
   26.130    8.2043
   26.145    8.1306
   26.160    7.7936
   26.175    8.4044
   26.190    8.2359
   26.205    8.3623
   26.220    8.3307
   26.235    8.3728
   26.250    8.0885
   26.265    8.0885
   26.280    8.3307
   26.295    8.1201
   26.310    8.4150
   26.325    8.3096
   26.340    7.8778
   26.355    8.1938
   26.370    8.6256
   26.385    8.2991
   26.400    7.9726
   26.415    8.0990
   26.430    7.8568
   26.445    8.3412
   26.460    8.5519
   26.475    8.3096
   26.490    8.5835
   26.505    8.1727
   26.520    7.9621
   26.535    8.0674
   26.550    8.0990
   26.565    8.2570
   26.580    8.1833
   26.595    8.3728
   26.610    8.2149
   26.625    7.6145
   26.640    7.8673
   26.655    8.3518
   26.670    7.8146
   26.685    8.0779
   26.700    7.9937
   26.715    7.9200
   26.730    7.8462
   26.745    7.6356
   26.760    7.5408
   26.775    8.0042
   26.790    7.7409
   26.805    8.0042
   26.820    8.1727
   26.835    8.2149
   26.850    7.8568
   26.865    7.9094
   26.880    7.8357
   26.895    8.0042
   26.910    8.2675
   26.925    7.8146
   26.940    7.6356
   26.955    8.2043
   26.970    7.7830
   26.985    7.8462
   27.000    7.8041
   27.015    8.1095
   27.030    8.1622
   27.045    7.6356
   27.060    7.8462
   27.075    8.1517
   27.090    7.6777
   27.105    7.4987
   27.120    7.8673
   27.135    8.1833
   27.150    8.2464
   27.165    8.0779
   27.180    7.9831
   27.195    8.1833
   27.210    8.3728
   27.225    8.1938
   27.240    7.9937
   27.255    7.7936
   27.270    7.7304
   27.285    7.8146
   27.300    7.8989
   27.315    8.0358
   27.330    7.7409
   27.345    7.7093
   27.360    7.8884
   27.375    7.4987
   27.390    7.5513
   27.405    7.3934
   27.420    8.0674
   27.435    7.8462
   27.450    8.1201
   27.465    7.8252
   27.480    7.8884
   27.495    7.7199
   27.510    7.9410
   27.525    8.4044
   27.540    7.5935
   27.555    7.6145
   27.570    7.7936
   27.585    7.9200
   27.600    8.0990
   27.615    7.5092
   27.630    8.1622
   27.645    8.0042
   27.660    7.9410
   27.675    8.1411
   27.690    7.8568
   27.705    8.0990
   27.720    8.2780
   27.735    7.7620
   27.750    7.9831
   27.765    7.8884
   27.780    8.0885
   27.795    7.4566
   27.810    7.4776
   27.825    7.9937
   27.840    7.8146
   27.855    8.0253
   27.870    7.9937
   27.885    7.7620
   27.900    7.6356
   27.915    7.8989
   27.930    7.8357
   27.945    7.5619
   27.960    7.7830
   27.975    8.1517
   27.990    8.4150
   28.005    7.6777
   28.020    7.6356
   28.035    7.6883
   28.050    8.2886
   28.065    8.0779
   28.080    7.9410
   28.095    8.1517
   28.110    8.0569
   28.125    8.0042
   28.140    8.4255
   28.155    8.0674
   28.170    8.0779
   28.185    8.3623
   28.200    8.1938
   28.215    8.3096
   28.230    8.2149
   28.245    8.1938
   28.260    8.3096
   28.275    8.5413
   28.290    8.4255
   28.305    8.1095
   28.320    8.2991
   28.335    8.5097
   28.350    8.6677
   28.365    8.1411
   28.380    7.8989
   28.395    8.2570
   28.410    7.9516
   28.425    7.8252
   28.440    7.8146
   28.455    8.0358
   28.470    8.0253
   28.485    8.1411
   28.500    8.4466
   28.515    7.6251
   28.530    7.8357
   28.545    7.9410
   28.560    7.8884
   28.575    8.1306
   28.590    7.7199
   28.605    8.2570
   28.620    8.2886
   28.635    7.9200
   28.650    7.8462
   28.665    8.2570
   28.680    7.7830
   28.695    7.8146
   28.710    7.8252
   28.725    7.7936
   28.740    7.7725
   28.755    7.7514
   28.770    7.6356
   28.785    7.7199
   28.800    7.5092
   28.815    7.7725
   28.830    7.2459
   28.845    7.7199
   28.860    7.8673
   28.875    7.7409
   28.890    8.1833
   28.905    7.8673
   28.920    7.5092
   28.935    7.2986
   28.950    7.7304
   28.965    7.7304
   28.980    7.8568
   28.995    8.0358
   29.010    7.5724
   29.025    7.7620
   29.040    7.7725
   29.055    7.7409
   29.070    7.9200
   29.085    7.8146
   29.100    7.7409
   29.115    7.7725
   29.130    7.8462
   29.145    7.4144
   29.160    7.6883
   29.175    7.6567
   29.190    7.6777
   29.205    7.6461
   29.220    7.6461
   29.235    7.8884
   29.250    7.5513
   29.265    7.6672
   29.280    7.8568
   29.295    7.8146
   29.310    7.8146
   29.325    7.8778
   29.340    7.8146
   29.355    7.6356
   29.370    7.7620
   29.385    7.7409
   29.400    7.4250
   29.415    7.7830
   29.430    7.8462
   29.445    7.7304
   29.460    7.7304
   29.475    7.2354
   29.490    7.3196
   29.505    7.8462
   29.520    7.7936
   29.535    7.6672
   29.550    7.3407
   29.565    7.2143
   29.580    7.8989
   29.595    7.9726
   29.610    7.8041
   29.625    7.5829
   29.640    7.4882
   29.655    7.6672
   29.670    7.5197
   29.685    7.5092
   29.700    8.0147
   29.715    7.9305
   29.730    7.7409
   29.745    7.6883
   29.760    7.4355
   29.775    7.6356
   29.790    7.5935
   29.805    7.6461
   29.820    7.7620
   29.835    7.7409
   29.850    7.5619
   29.865    7.9516
   29.880    7.7514
   29.895    7.6356
   29.910    7.7620
   29.925    7.6145
   29.940    7.7830
   29.955    7.4355
   29.970    7.4776
   29.985    7.6672
   30.000    7.6883
   30.015    7.9200
   30.030    7.5724
   30.045    7.4355
   30.060    7.3828
   30.075    7.8252
   30.090    7.2775
   30.105    7.1933
   30.120    7.4250
   30.135    7.5724
   30.150    7.2986
   30.165    7.3091
   30.180    7.4144
   30.195    7.4355
   30.210    7.4987
   30.225    7.3618
   30.240    7.6251
   30.255    7.1090
   30.270    7.3302
   30.285    7.4355
   30.300    7.2565
   30.315    7.3828
   30.330    7.8673
   30.345    7.3723
   30.360    7.4671
   30.375    7.5197
   30.390    7.7936
   30.405    7.2775
   30.420    7.8252
   30.435    7.7830
   30.450    7.6883
   30.465    7.3828
   30.480    7.7409
   30.495    7.2775
   30.510    7.5724
   30.525    7.4250
   30.540    7.8884
   30.555    7.4671
   30.570    7.2459
   30.585    7.4987
   30.600    7.5513
   30.615    7.0037
   30.630    7.4987
   30.645    7.5619
   30.660    7.4039
   30.675    7.3828
   30.690    7.4882
   30.705    7.7936
   30.720    7.8146
   30.735    7.5303
   30.750    7.5303
   30.765    7.7304
   30.780    7.8146
   30.795    7.2459
   30.810    7.2249
   30.825    7.4355
   30.840    7.5619
   30.855    7.2775
   30.870    7.6040
   30.885    7.3934
   30.900    7.6145
   30.915    7.7409
   30.930    7.8568
   30.945    7.4250
   30.960    7.8462
   30.975    7.1195
   30.990    7.4776
   31.005    7.7725
   31.020    8.0358
   31.035    7.6988
   31.050    7.6356
   31.065    7.6672
   31.080    7.7199
   31.095    7.4355
   31.110    7.1406
   31.125    7.4566
   31.140    7.2038
   31.155    7.4566
   31.170    7.2986
   31.185    7.6251
   31.200    7.7409
   31.215    7.5092
   31.230    7.2249
   31.245    7.3934
   31.260    7.6040
   31.275    7.4776
   31.290    7.1827
   31.305    7.4566
   31.320    7.4566
   31.335    7.3512
   31.350    7.5197
   31.365    7.2038
   31.380    7.5619
   31.395    7.5935
   31.410    7.7725
   31.425    7.6040
   31.440    7.4250
   31.455    7.7620
   31.470    7.4882
   31.485    6.8773
   31.500    7.5724
   31.515    7.2880
   31.530    7.7409
   31.545    7.6356
   31.560    7.3091
   31.575    7.5197
   31.590    7.5724
   31.605    7.8989
   31.620    7.5197
   31.635    7.4882
   31.650    7.5197
   31.665    7.7304
   31.680    7.8568
   31.695    7.9831
   31.710    7.4355
   31.725    7.5829
   31.740    7.8357
   31.755    7.8568
   31.770    7.2670
   31.785    7.8673
   31.800    7.9305
   31.815    7.5513
   31.830    7.6883
   31.845    7.4671
   31.860    8.1727
   31.875    7.8884
   31.890    7.9094
   31.905    7.7725
   31.920    7.8989
   31.935    7.4987
   31.950    7.3302
   31.965    7.8357
   31.980    7.5935
   31.995    7.6145
   32.010    7.4882
   32.025    7.1827
   32.040    7.1090
   32.055    7.7199
   32.070    7.3091
   32.085    7.4039
   32.100    7.0353
   32.115    7.0879
   32.130    7.2249
   32.145    7.4355
   32.160    7.1722
   32.175    7.2459
   32.190    7.4355
   32.205    7.6567
   32.220    7.5619
   32.235    7.9831
   32.250    7.5724
   32.265    7.4250
   32.280    7.5829
   32.295    7.5092
   32.310    7.4355
   32.325    6.9932
   32.340    7.5829
   32.355    7.8989
   32.370    7.4039
   32.385    7.6040
   32.400    7.3618
   32.415    7.4671
   32.430    7.5092
   32.445    7.2670
   32.460    7.3723
   32.475    7.4671
   32.490    7.6040
   32.505    7.0037
   32.520    7.0142
   32.535    7.6251
   32.550    7.6672
   32.565    7.4460
   32.580    7.4671
   32.595    7.2775
   32.610    7.1933
   32.625    7.3934
   32.640    6.9721
   32.655    7.6356
   32.670    7.6145
   32.685    7.2143
   32.700    7.4460
   32.715    7.3723
   32.730    7.0774
   32.745    7.4355
   32.760    6.8457
   32.775    7.2670
   32.790    7.2670
   32.805    7.2249
   32.820    7.4671
   32.835    7.0774
   32.850    7.1617
   32.865    7.6145
   32.880    7.1617
   32.895    7.2143
   32.910    7.2880
   32.925    6.9405
   32.940    7.1406
   32.955    7.0985
   32.970    7.1301
   32.985    7.1195
   33.000    7.0353
   33.015    7.0037
   33.030    7.3196
   33.045    7.1511
   33.060    6.8668
   33.075    6.9089
   33.090    7.3723
   33.105    7.1195
   33.120    7.3828
   33.135    7.3723
   33.150    7.2459
   33.165    7.6777
   33.180    7.7093
   33.195    7.2880
   33.210    7.2565
   33.225    7.1406
   33.240    7.1090
   33.255    6.8036
   33.270    6.7825
   33.285    7.1511
   33.300    7.5724
   33.315    7.2986
   33.330    7.2670
   33.345    7.4671
   33.360    7.0985
   33.375    7.2249
   33.390    7.3512
   33.405    7.1827
   33.420    6.7930
   33.435    7.0458
   33.450    7.1195
   33.465    7.2249
   33.480    7.5724
   33.495    7.1511
   33.510    7.3723
   33.525    7.3618
   33.540    7.4144
   33.555    7.4460
   33.570    7.1722
   33.585    7.1933
   33.600    7.1195
   33.615    7.1617
   33.630    6.9300
   33.645    7.0879
   33.660    6.5929
   33.675    6.9405
   33.690    6.7825
   33.705    7.3723
   33.720    7.4460
   33.735    7.2143
   33.750    6.8562
   33.765    7.0879
   33.780    7.0142
   33.795    7.3828
   33.810    6.9721
   33.825    6.7509
   33.840    6.9194
   33.855    7.2775
   33.870    6.9194
   33.885    7.2249
   33.900    6.8984
   33.915    7.0248
   33.930    7.1511
   33.945    7.2670
   33.960    7.0774
   33.975    7.1722
   33.990    6.9405
   34.005    6.6245
   34.020    7.2354
   34.035    6.8668
   34.050    6.9300
   34.065    7.1090
   34.080    7.2565
   34.095    7.0353
   34.110    7.2565
   34.125    7.0142
   34.140    6.7404
   34.155    7.2459
   34.170    7.2775
   34.185    7.0985
   34.200    7.2249
   34.215    7.2880
   34.230    6.7930
   34.245    7.2880
   34.260    7.6777
   34.275    7.3934
   34.290    7.0669
   34.305    7.2143
   34.320    7.1090
   34.335    6.6351
   34.350    6.6561
   34.365    6.9300
   34.380    6.8246
   34.395    7.3934
   34.410    7.0985
   34.425    7.2459
   34.440    7.2354
   34.455    6.6245
   34.470    6.9300
   34.485    7.2459
   34.500    7.0353
   34.515    6.9510
   34.530    6.9405
   34.545    6.8036
   34.560    7.5092
   34.575    6.7930
   34.590    7.0248
   34.605    7.4882
   34.620    7.3302
   34.635    6.9405
   34.650    7.1406
   34.665    7.0985
   34.680    6.7930
   34.695    7.0879
   34.710    6.8562
   34.725    7.0248
   34.740    6.6456
   34.755    6.7193
   34.770    6.9405
   34.785    6.8352
   34.800    7.2249
   34.815    6.8141
   34.830    6.7299
   34.845    7.1722
   34.860    6.8352
   34.875    6.9826
   34.890    6.9194
   34.905    6.8352
   34.920    6.9510
   34.935    6.9826
   34.950    7.0248
   34.965    7.0774
   34.980    7.2249
   34.995    7.1617
   35.010    7.1617
   35.025    6.9405
   35.040    7.1090
   35.055    7.0353
   35.070    6.8352
   35.085    6.6772
   35.100    6.8984
   35.115    6.9300
   35.130    7.1827
   35.145    6.8773
   35.160    6.5403
   35.175    7.3196
   35.190    6.7930
   35.205    7.2459
   35.220    7.2670
   35.235    6.8246
   35.250    7.0142
   35.265    7.1090
   35.280    7.0774
   35.295    7.1406
   35.310    6.8773
   35.325    7.1195
   35.340    7.2880
   35.355    6.8878
   35.370    7.0458
   35.385    7.3091
   35.400    7.3302
   35.415    7.0353
   35.430    6.5719
   35.445    6.6561
   35.460    7.0774
   35.475    7.3512
   35.490    7.0774
   35.505    6.8457
   35.520    7.0669
   35.535    7.0669
   35.550    6.9194
   35.565    7.2354
   35.580    6.7193
   35.595    7.1195
   35.610    6.8773
   35.625    6.9932
   35.640    6.8668
   35.655    7.2775
   35.670    6.7193
   35.685    6.8352
   35.700    6.7930
   35.715    6.6667
   35.730    6.7825
   35.745    6.9300
   35.760    7.0458
   35.775    6.6456
   35.790    6.6772
   35.805    7.1511
   35.820    7.3512
   35.835    7.4776
   35.850    7.0985
   35.865    6.5824
   35.880    6.4876
   35.895    6.5929
   35.910    6.9089
   35.925    7.1195
   35.940    7.0563
   35.955    6.8562
   35.970    6.6140
   35.985    6.8668
   36.000    6.9932
   36.015    6.9721
   36.030    7.2775
   36.045    6.7193
   36.060    6.9300
   36.075    6.6140
   36.090    6.6351
   36.105    6.9932
   36.120    7.2880
   36.135    7.3828
   36.150    7.2143
   36.165    7.0458
   36.180    6.9089
   36.195    6.7825
   36.210    6.5403
   36.225    6.7088
   36.240    6.8141
   36.255    6.8036
   36.270    6.6245
   36.285    7.0669
   36.300    6.7299
   36.315    7.0985
   36.330    6.4244
   36.345    6.7088
   36.360    6.6035
   36.375    6.7193
   36.390    6.4455
   36.405    6.8457
   36.420    6.9826
   36.435    6.8878
   36.450    6.8878
   36.465    6.7193
   36.480    6.8457
   36.495    7.1511
   36.510    6.9826
   36.525    6.6140
   36.540    6.8352
   36.555    6.9721
   36.570    6.7509
   36.585    6.9089
   36.600    7.1827
   36.615    6.9510
   36.630    7.0985
   36.645    6.9194
   36.660    6.5613
   36.675    7.1722
   36.690    7.0142
   36.705    6.9510
   36.720    6.7193
   36.735    6.6877
   36.750    7.1090
   36.765    6.9932
   36.780    6.7825
   36.795    7.0669
   36.810    6.8984
   36.825    6.9510
   36.840    6.5719
   36.855    6.5087
   36.870    6.6456
   36.885    6.9721
   36.900    6.9826
   36.915    6.7404
   36.930    6.6561
   36.945    6.8668
   36.960    6.8141
   36.975    6.9616
   36.990    6.5403
   37.005    6.4666
   37.020    6.5508
   37.035    6.9721
   37.050    6.6667
   37.065    7.2354
   37.080    6.8141
   37.095    6.5087
   37.110    6.8878
   37.125    6.8246
   37.140    6.5508
   37.155    6.5087
   37.170    6.5719
   37.185    6.6456
   37.200    6.6561
   37.215    6.7299
   37.230    6.9932
   37.245    6.6561
   37.260    6.7930
   37.275    6.4244
   37.290    6.3191
   37.305    6.8352
   37.320    7.0037
   37.335    6.7299
   37.350    6.4455
   37.365    6.6351
   37.380    6.7509
   37.395    6.6772
   37.410    6.9300
   37.425    6.8773
   37.440    6.8773
   37.455    6.6245
   37.470    6.6035
   37.485    6.8562
   37.500    6.4034
   37.515    6.9089
   37.530    7.0037
   37.545    6.8773
   37.560    6.7193
   37.575    6.8141
   37.590    6.7299
   37.605    6.8457
   37.620    6.8036
   37.635    6.8141
   37.650    6.8562
   37.665    6.5192
   37.680    6.6245
   37.695    6.6035
   37.710    6.7193
   37.725    7.1617
   37.740    6.9194
   37.755    6.7930
   37.770    6.5298
   37.785    6.7299
   37.800    6.7088
   37.815    6.2981
   37.830    6.5824
   37.845    6.6035
   37.860    6.7088
   37.875    6.7404
   37.890    6.8457
   37.905    6.9089
   37.920    7.0037
   37.935    6.5719
   37.950    6.8246
   37.965    6.6035
   37.980    6.7825
   37.995    6.7088
   38.010    6.6245
   38.025    7.0669
   38.040    6.9405
   38.055    6.5613
   38.070    6.5403
   38.085    6.4876
   38.100    6.6983
   38.115    6.6772
   38.130    7.0669
   38.145    6.9616
   38.160    6.8562
   38.175    6.9194
   38.190    6.7930
   38.205    6.5929
   38.220    6.4139
   38.235    6.7825
   38.250    6.9089
   38.265    6.7404
   38.280    6.4560
   38.295    6.6351
   38.310    6.5508
   38.325    7.1722
   38.340    7.0879
   38.355    6.6140
   38.370    6.6140
   38.385    6.8773
   38.400    6.6667
   38.415    6.6245
   38.430    6.5824
   38.445    6.6983
   38.460    6.9405
   38.475    6.4244
   38.490    6.6877
   38.505    6.5403
   38.520    6.1085
   38.535    6.4876
   38.550    6.6035
   38.565    6.5298
   38.580    6.7193
   38.595    6.6140
   38.610    6.6351
   38.625    6.5824
   38.640    6.4034
   38.655    6.9510
   38.670    6.8246
   38.685    6.8457
   38.700    6.7615
   38.715    6.7615
   38.730    6.4034
   38.745    6.6456
   38.760    6.9405
   38.775    6.6877
   38.790    6.7720
   38.805    6.9194
   38.820    6.8457
   38.835    6.7930
   38.850    6.6035
   38.865    6.7299
   38.880    7.0142
   38.895    7.2354
   38.910    6.7930
   38.925    6.9089
   38.940    6.6456
   38.955    6.6245
   38.970    6.6667
   38.985    6.7509
   39.000    6.5403
   39.015    6.4560
   39.030    6.5824
   39.045    6.8352
   39.060    6.5929
   39.075    6.8984
   39.090    6.6667
   39.105    6.8457
   39.120    6.7509
   39.135    6.5613
   39.150    6.6772
   39.165    6.7299
   39.180    6.5719
   39.195    6.8141
   39.210    6.7930
   39.225    6.7509
   39.240    6.5403
   39.255    6.6456
   39.270    6.9510
   39.285    6.4876
   39.300    6.8773
   39.315    6.9721
   39.330    6.8036
   39.345    6.7930
   39.360    6.7825
   39.375    6.3507
   39.390    6.4982
   39.405    6.7720
   39.420    6.2875
   39.435    6.6456
   39.450    6.6561
   39.465    6.6983
   39.480    6.6877
   39.495    6.5719
   39.510    6.9932
   39.525    6.2243
   39.540    6.5298
   39.555    6.4560
   39.570    6.7720
   39.585    6.5719
   39.600    6.6772
   39.615    7.1301
   39.630    6.5298
   39.645    6.5403
   39.660    6.4560
   39.675    6.5508
   39.690    7.0142
   39.705    6.8457
   39.720    7.0563
   39.735    6.7825
   39.750    6.9826
   39.765    6.9932
   39.780    6.8036
   39.795    6.9721
   39.810    6.7825
   39.825    6.4876
   39.840    6.6983
   39.855    6.9089
   39.870    6.6877
   39.885    6.7193
   39.900    6.9300
   39.915    6.9826
   39.930    6.9932
   39.945    6.8773
   39.960    6.6983
   39.975    6.6140
   39.990    6.3928
