    1.500    4.9652
    1.515    5.0508
    1.530    4.8796
    1.545    4.8261
    1.560    4.1413
    1.575    4.5158
    1.590    4.7084
    1.605    4.7619
    1.620    4.2804
    1.635    4.2376
    1.650    4.3874
    1.665    4.3232
    1.680    4.5051
    1.695    4.2483
    1.710    4.2269
    1.725    3.8095
    1.740    4.3660
    1.755    4.0235
    1.770    3.9486
    1.785    3.8202
    1.800    4.0663
    1.815    4.0877
    1.830    3.8844
    1.845    3.8844
    1.860    3.5955
    1.875    3.6490
    1.890    3.8523
    1.905    3.8523
    1.920    3.7881
    1.935    3.6383
    1.950    3.8202
    1.965    3.5634
    1.980    3.6169
    1.995    3.6490
    2.010    3.5741
    2.025    3.4136
    2.040    3.6169
    2.055    3.5848
    2.070    3.5848
    2.085    3.3494
    2.100    3.3173
    2.115    3.4885
    2.130    3.5099
    2.145    3.2959
    2.160    3.0391
    2.175    3.2638
    2.190    3.5527
    2.205    3.2638
    2.220    3.0391
    2.235    2.8571
    2.250    2.8464
    2.265    3.0926
    2.280    2.9642
    2.295    3.0712
    2.310    2.9642
    2.325    3.1247
    2.340    2.9320
    2.355    3.2317
    2.370    2.9535
    2.385    2.9428
    2.400    3.1461
    2.415    3.1889
    2.430    3.2317
    2.445    2.8785
    2.460    2.8464
    2.475    2.7929
    2.490    2.8892
    2.505    2.8999
    2.520    2.8036
    2.535    2.8357
    2.550    2.9535
    2.565    2.7608
    2.580    2.6217
    2.595    2.7501
    2.610    2.8464
    2.625    2.8143
    2.640    2.6645
    2.655    2.8357
    2.670    2.6966
    2.685    2.7822
    2.700    2.8250
    2.715    2.5575
    2.730    2.6110
    2.745    2.6538
    2.760    2.6431
    2.775    2.6645
    2.790    2.8036
    2.805    2.6966
    2.820    2.7822
    2.835    2.8143
    2.850    2.5575
    2.865    2.6966
    2.880    3.0177
    2.895    2.7822
    2.910    2.7180
    2.925    2.7608
    2.940    2.4291
    2.955    2.7608
    2.970    2.7073
    2.985    2.9749
    3.000    2.7501
    3.015    2.7394
    3.030    2.8571
    3.045    2.7715
    3.060    2.7287
    3.075    2.7822
    3.090    2.7929
    3.105    2.7929
    3.120    2.9320
    3.135    3.2103
    3.150    2.9213
    3.165    2.9642
    3.180    2.8464
    3.195    2.8785
    3.210    3.1354
    3.225    2.8892
    3.240    2.9320
    3.255    2.9428
    3.270    3.0177
    3.285    2.8999
    3.300    3.2745
    3.315    2.9320
    3.330    3.1354
    3.345    3.1247
    3.360    3.0926
    3.375    3.5420
    3.390    3.4457
    3.405    3.2745
    3.420    3.4350
    3.435    3.0391
    3.450    3.4457
    3.465    3.4778
    3.480    3.6918
    3.495    3.7667
    3.510    3.6383
    3.525    3.6276
    3.540    3.5206
    3.555    3.5848
    3.570    3.4350
    3.585    4.1091
    3.600    3.9486
    3.615    3.9700
    3.630    4.4302
    3.645    4.1413
    3.660    4.1948
    3.675    4.7833
    3.690    4.8582
    3.705    4.8047
    3.720    4.9866
    3.735    4.6977
    3.750    5.0829
    3.765    5.4147
    3.780    5.3933
    3.795    5.4789
    3.810    5.7785
    3.825    5.5859
    3.840    6.0888
    3.855    6.1209
    3.870    6.2493
    3.885    6.4633
    3.900    6.5276
    3.915    6.8700
    3.930    7.3194
    3.945    7.2552
    3.960    7.5334
    3.975    7.5655
    3.990    8.3253
    4.005    8.3895
    4.020    8.9353
    4.035    8.9139
    4.050    9.4275
    4.065   10.1338
    4.080   10.4655
    4.095   10.7116
    4.110   10.9577
    4.125   11.4928
    4.140   12.2953
    4.155   12.8518
    4.170   13.4082
    4.185   14.0182
    4.200   14.2643
    4.215   15.0883
    4.230   15.4093
    4.245   16.5864
    4.260   17.7742
    4.275   18.4912
    4.290   19.4115
    4.305   20.7063
    4.320   21.8085
    4.335   23.1354
    4.350   24.8903
    4.365   28.1220
    4.380   28.2076
    4.395   31.4393
    4.410   34.2322
    4.425   37.2499
    4.440   40.0000
    4.455   45.2113
    4.470   51.7817
    4.485   60.9524
    4.500   74.3606
    4.515   89.6094
    4.530   92.4345
    4.545   67.2766
    4.560   32.3917
    4.575   13.7721
    4.590    7.2231
    4.605    5.1043
    4.620    3.9272
    4.635    3.4457
    4.650    2.8785
    4.665    2.4612
    4.680    2.3542
    4.695    2.1081
    4.710    2.0011
    4.725    1.9476
    4.740    2.0439
    4.755    1.7764
    4.770    1.8085
    4.785    1.7335
    4.800    1.5516
    4.815    1.5088
    4.830    1.5409
    4.845    1.6158
    4.860    1.4660
    4.875    1.4232
    4.890    1.4874
    4.905    1.4125
    4.920    1.6158
    4.935    1.5409
    4.950    1.7335
    4.965    1.7442
    4.980    1.4767
    4.995    1.4125
    5.010    1.4874
    5.025    1.3804
    5.040    1.4553
    5.055    1.4018
    5.070    1.4446
    5.085    1.1343
    5.100    1.2841
    5.115    1.5088
    5.130    1.4660
    5.145    1.3804
    5.160    1.3483
    5.175    1.3911
    5.190    1.4874
    5.205    1.4767
    5.220    1.3162
    5.235    1.2627
    5.250    1.2734
    5.265    1.5302
    5.280    1.4874
    5.295    1.5409
    5.310    1.3269
    5.325    1.4018
    5.340    1.2841
    5.355    1.2199
    5.370    1.2520
    5.385    1.2413
    5.400    1.3269
    5.415    1.3804
    5.430    1.3162
    5.445    1.1450
    5.460    1.4125
    5.475    1.4767
    5.490    1.3590
    5.505    1.2413
    5.520    1.4125
    5.535    1.4767
    5.550    1.4446
    5.565    1.5944
    5.580    1.4660
    5.595    1.4232
    5.610    1.4874
    5.625    1.5195
    5.640    1.4874
    5.655    1.3376
    5.670    1.5195
    5.685    1.6586
    5.700    1.6051
    5.715    1.8085
    5.730    1.9583
    5.745    1.7228
    5.760    1.8513
    5.775    1.7549
    5.790    1.7121
    5.805    1.6693
    5.820    1.8192
    5.835    1.8620
    5.850    1.7764
    5.865    2.1188
    5.880    1.9583
    5.895    2.0760
    5.910    2.1616
    5.925    2.3221
    5.940    2.2686
    5.955    2.1830
    5.970    2.1081
    5.985    2.5147
    6.000    2.7501
    6.015    2.5575
    6.030    2.7394
    6.045    3.0498
    6.060    3.0712
    6.075    3.2317
    6.090    3.2959
    6.105    3.1354
    6.120    3.2959
    6.135    3.7667
    6.150    3.7667
    6.165    3.8844
    6.180    3.9272
    6.195    4.5372
    6.210    4.8261
    6.225    4.9545
    6.240    5.5752
    6.255    6.1423
    6.270    6.2493
    6.285    7.0305
    6.300    7.3087
    6.315    7.8866
    6.330    8.6998
    6.345   10.1231
    6.360   11.6961
    6.375   13.9540
    6.390   17.3676
    6.405   19.1546
    6.420   17.2178
    6.435   12.1455
    6.450    6.2172
    6.465    3.2638
    6.480    2.0974
    6.495    1.6051
    6.510    1.6372
    6.525    1.4981
    6.540    1.3804
    6.555    1.2199
    6.570    1.2734
    6.585    1.0594
    6.600    1.3697
    6.615    1.1129
    6.630    1.1878
    6.645    1.2413
    6.660    0.9631
    6.675    1.0059
    6.690    1.0915
    6.705    1.1022
    6.720    1.2306
    6.735    1.0380
    6.750    1.0487
    6.765    1.1022
    6.780    1.0808
    6.795    1.0594
    6.810    1.2413
    6.825    1.1557
    6.840    0.9738
    6.855    1.0808
    6.870    1.0915
    6.885    0.9952
    6.900    0.8775
    6.915    0.8347
    6.930    0.9738
    6.945    0.8454
    6.960    1.0701
    6.975    1.1985
    6.990    0.9738
    7.005    1.0380
    7.020    0.9845
    7.035    0.9952
    7.050    1.0701
    7.065    0.9952
    7.080    0.7919
    7.095    1.0166
    7.110    1.0273
    7.125    0.9310
    7.140    0.9631
    7.155    1.0166
    7.170    1.1129
    7.185    1.1557
    7.200    1.0380
    7.215    1.0166
    7.230    0.8775
    7.245    1.1129
    7.260    1.0059
    7.275    1.0594
    7.290    1.0594
    7.305    1.0166
    7.320    1.0808
    7.335    1.0701
    7.350    1.0915
    7.365    1.1343
    7.380    1.1343
    7.395    1.1450
    7.410    1.3269
    7.425    1.1129
    7.440    1.2092
    7.455    1.2734
    7.470    1.2841
    7.485    1.3055
    7.500    1.3911
    7.515    1.1129
    7.530    1.0701
    7.545    1.2627
    7.560    1.2306
    7.575    1.1771
    7.590    1.3269
    7.605    1.4660
    7.620    1.3911
    7.635    1.4553
    7.650    1.7764
    7.665    1.8192
    7.680    1.7442
    7.695    1.8941
    7.710    1.6586
    7.725    1.8941
    7.740    2.1830
    7.755    2.3221
    7.770    2.4291
    7.785    2.7822
    7.800    3.1354
    7.815    3.7132
    7.830    4.1199
    7.845    4.8689
    7.860    4.9973
    7.875    3.7988
    7.890    2.5575
    7.905    1.4981
    7.920    1.1985
    7.935    0.9310
    7.950    0.9310
    7.965    1.0166
    7.980    0.9096
    7.995    0.9738
    8.010    0.9310
    8.025    0.9417
    8.040    0.9524
    8.055    1.0059
    8.070    0.9738
    8.085    0.8989
    8.100    0.9845
    8.115    1.0487
    8.130    0.8775
    8.145    0.9952
    8.160    0.9524
    8.175    0.9203
    8.190    0.9631
    8.205    0.7812
    8.220    0.8668
    8.235    0.8561
    8.250    0.9738
    8.265    0.9310
    8.280    0.8989
    8.295    0.8882
    8.310    0.7812
    8.325    0.9631
    8.340    1.0808
    8.355    0.9845
    8.370    0.7491
    8.385    0.8775
    8.400    0.8561
    8.415    0.7812
    8.430    0.9524
    8.445    0.9845
    8.460    0.9310
    8.475    0.8989
    8.490    0.7705
    8.505    0.8882
    8.520    1.0273
    8.535    0.8989
    8.550    0.9310
    8.565    0.8775
    8.580    1.1022
    8.595    0.9738
    8.610    0.8347
    8.625    1.0059
    8.640    1.1557
    8.655    1.1878
    8.670    1.1450
    8.685    1.0594
    8.700    1.0808
    8.715    1.1236
    8.730    0.8668
    8.745    0.9952
    8.760    1.1129
    8.775    1.1557
    8.790    1.2306
    8.805    1.2092
    8.820    1.2734
    8.835    1.3697
    8.850    1.5088
    8.865    1.6265
    8.880    1.6158
    8.895    1.5409
    8.910    1.6693
    8.925    1.7549
    8.940    1.9797
    8.955    2.0332
    8.970    2.2044
    8.985    2.5040
    9.000    2.6217
    9.015    3.1568
    9.030    3.7667
    9.045    4.3874
    9.060    5.1578
    9.075    5.6394
    9.090    4.8261
    9.105    3.3280
    9.120    2.1509
    9.135    1.3804
    9.150    1.0380
    9.165    1.0808
    9.180    1.0273
    9.195    0.8240
    9.210    0.7598
    9.225    0.8989
    9.240    0.8882
    9.255    0.7384
    9.270    0.8989
    9.285    1.0380
    9.300    0.8347
    9.315    0.8989
    9.330    0.7598
    9.345    0.8133
    9.360    0.7598
    9.375    0.8347
    9.390    0.8454
    9.405    0.8347
    9.420    0.8133
    9.435    0.8454
    9.450    0.7705
    9.465    1.0701
    9.480    0.8668
    9.495    0.8133
    9.510    0.8240
    9.525    0.8347
    9.540    0.8454
    9.555    0.6956
    9.570    0.9310
    9.585    0.8454
    9.600    0.7705
    9.615    0.9096
    9.630    0.9310
    9.645    0.8989
    9.660    0.8240
    9.675    0.7598
    9.690    0.6956
    9.705    0.8454
    9.720    0.8561
    9.735    0.9096
    9.750    0.9096
    9.765    0.8882
    9.780    0.9417
    9.795    0.8454
    9.810    0.6100
    9.825    0.7598
    9.840    0.6849
    9.855    0.6742
    9.870    0.8561
    9.885    0.8026
    9.900    0.8240
    9.915    0.8347
    9.930    0.8775
    9.945    0.8668
    9.960    0.9631
    9.975    0.9417
    9.990    0.7384
   10.005    0.7384
   10.020    0.9417
   10.035    0.7812
   10.050    0.9417
   10.065    0.9845
   10.080    0.8989
   10.095    0.9096
   10.110    1.1450
   10.125    1.1985
   10.140    1.3376
   10.155    1.3269
   10.170    1.2627
   10.185    1.1022
   10.200    0.8454
   10.215    0.7598
   10.230    0.7705
   10.245    0.5993
   10.260    0.7491
   10.275    0.8133
   10.290    0.8989
   10.305    0.8561
   10.320    0.8668
   10.335    0.7812
   10.350    0.7277
   10.365    0.8454
   10.380    0.7705
   10.395    0.7063
   10.410    0.9310
   10.425    0.8882
   10.440    0.8026
   10.455    0.8240
   10.470    0.7277
   10.485    0.7705
   10.500    0.8454
   10.515    0.9203
   10.530    0.7063
   10.545    0.7598
   10.560    0.9631
   10.575    0.9524
   10.590    0.9417
   10.605    0.8775
   10.620    0.8026
   10.635    0.8026
   10.650    0.8347
   10.665    0.8133
   10.680    0.8882
   10.695    1.1129
   10.710    1.1129
   10.725    1.0166
   10.740    0.9524
   10.755    0.8989
   10.770    0.9631
   10.785    0.9738
   10.800    1.1557
   10.815    1.2092
   10.830    1.1664
   10.845    1.3804
   10.860    1.4446
   10.875    1.5302
   10.890    1.6800
   10.905    1.7978
   10.920    1.8513
   10.935    1.8406
   10.950    2.0011
   10.965    2.2044
   10.980    2.3970
   10.995    2.5896
   11.010    3.0070
   11.025    3.4029
   11.040    3.8202
   11.055    4.3767
   11.070    5.0080
   11.085    6.4205
   11.100    7.4371
   11.115    8.5179
   11.130    8.7105
   11.145    7.4799
   11.160    4.7833
   11.175    2.9320
   11.190    1.4446
   11.205    1.1878
   11.220    1.1985
   11.235    1.0594
   11.250    0.8561
   11.265    0.8026
   11.280    0.8240
   11.295    0.8775
   11.310    0.7812
   11.325    0.7919
   11.340    0.7705
   11.355    0.7919
   11.370    0.8026
   11.385    0.7491
   11.400    0.8561
   11.415    0.7063
   11.430    0.5886
   11.445    0.8133
   11.460    0.8561
   11.475    0.8561
   11.490    0.9631
   11.505    0.8347
   11.520    0.7705
   11.535    0.7705
   11.550    0.7598
   11.565    0.8561
   11.580    0.8133
   11.595    0.7277
   11.610    0.7277
   11.625    0.8240
   11.640    0.9952
   11.655    0.9524
   11.670    0.9417
   11.685    0.8561
   11.700    0.7598
   11.715    1.0380
   11.730    1.0059
   11.745    0.9203
   11.760    0.8347
   11.775    0.9203
   11.790    1.0166
   11.805    1.0166
   11.820    0.8989
   11.835    1.1343
   11.850    1.0380
   11.865    1.1450
   11.880    1.2948
   11.895    1.3162
   11.910    1.5837
   11.925    1.6051
   11.940    1.6158
   11.955    1.6693
   11.970    2.1081
   11.985    2.6110
   12.000    3.0819
   12.015    3.3387
   12.030    3.1033
   12.045    2.5254
   12.060    1.8941
   12.075    1.2841
   12.090    1.0166
   12.105    0.8561
   12.120    0.6956
   12.135    0.7063
   12.150    0.6100
   12.165    0.7170
   12.180    0.7277
   12.195    0.7384
   12.210    0.8454
   12.225    0.8026
   12.240    0.7384
   12.255    0.6956
   12.270    0.7919
   12.285    0.7598
   12.300    0.8775
   12.315    0.7491
   12.330    0.7598
   12.345    0.8668
   12.360    0.8882
   12.375    0.8989
   12.390    0.8240
   12.405    0.7384
   12.420    0.8775
   12.435    0.6742
   12.450    0.7384
   12.465    0.6956
   12.480    0.8026
   12.495    0.7170
   12.510    0.6742
   12.525    0.7063
   12.540    0.8668
   12.555    0.8026
   12.570    0.8989
   12.585    1.0915
   12.600    0.9952
   12.615    0.8989
   12.630    0.8775
   12.645    1.1557
   12.660    0.9952
   12.675    0.8989
   12.690    1.1129
   12.705    1.2734
   12.720    1.1450
   12.735    1.3269
   12.750    1.4446
   12.765    1.5516
   12.780    1.7657
   12.795    1.9262
   12.810    2.2579
   12.825    2.8785
   12.840    3.3280
   12.855    3.2852
   12.870    2.8571
   12.885    2.3435
   12.900    1.7657
   12.915    1.0487
   12.930    0.8668
   12.945    0.8454
   12.960    0.8240
   12.975    0.6742
   12.990    0.6956
   13.005    0.7170
   13.020    0.6742
   13.035    0.6956
   13.050    0.8347
   13.065    0.7063
   13.080    0.7812
   13.095    0.7491
   13.110    0.8240
   13.125    0.7277
   13.140    0.5993
   13.155    0.7277
   13.170    0.6956
   13.185    0.6528
   13.200    0.6849
   13.215    0.7063
   13.230    0.6421
   13.245    0.6742
   13.260    0.7919
   13.275    0.8133
   13.290    0.7384
   13.305    0.6421
   13.320    0.6207
   13.335    0.9417
   13.350    0.8026
   13.365    0.9631
   13.380    0.7812
   13.395    0.8989
   13.410    1.0059
   13.425    0.9203
   13.440    1.0487
   13.455    1.0701
   13.470    1.1129
   13.485    1.2627
   13.500    1.4125
   13.515    1.3911
   13.530    1.5195
   13.545    1.7014
   13.560    1.9690
   13.575    2.0653
   13.590    2.4719
   13.605    2.8357
   13.620    3.6169
   13.635    3.5741
   13.650    3.0605
   13.665    2.6217
   13.680    2.0546
   13.695    1.3697
   13.710    0.9631
   13.725    0.8668
   13.740    0.8240
   13.755    0.8026
   13.770    0.7063
   13.785    0.7919
   13.800    0.7063
   13.815    0.6849
   13.830    0.7170
   13.845    0.6635
   13.860    0.6421
   13.875    0.6421
   13.890    0.7170
   13.905    0.6635
   13.920    0.6635
   13.935    0.6635
   13.950    0.8561
   13.965    0.6849
   13.980    0.7063
   13.995    0.7598
   14.010    0.7277
   14.025    0.7919
   14.040    0.7063
   14.055    0.8668
   14.070    0.8347
   14.085    0.7170
   14.100    0.7384
   14.115    0.6528
   14.130    0.7491
   14.145    0.7384
   14.160    0.5886
   14.175    0.7063
   14.190    0.8240
   14.205    0.7491
   14.220    0.8133
   14.235    0.7705
   14.250    0.7063
   14.265    0.8454
   14.280    0.8668
   14.295    0.8989
   14.310    0.9417
   14.325    0.9096
   14.340    0.9417
   14.355    1.0166
   14.370    1.1129
   14.385    0.9417
   14.400    0.9631
   14.415    0.9417
   14.430    0.8454
   14.445    0.7598
   14.460    0.6956
   14.475    0.6956
   14.490    0.5778
   14.505    0.6314
   14.520    0.6207
   14.535    0.6528
   14.550    0.5886
   14.565    0.6100
   14.580    0.6100
   14.595    0.6207
   14.610    0.6314
   14.625    0.7384
   14.640    0.6528
   14.655    0.7919
   14.670    0.7063
   14.685    0.6207
   14.700    0.8454
   14.715    0.7170
   14.730    0.6100
   14.745    0.6528
   14.760    0.6528
   14.775    0.6635
   14.790    0.8026
   14.805    0.5778
   14.820    0.6956
   14.835    0.6956
   14.850    0.8133
   14.865    0.8133
   14.880    0.8133
   14.895    0.7598
   14.910    0.8133
   14.925    0.9096
   14.940    0.8240
   14.955    0.8668
   14.970    0.9845
   14.985    1.2199
   15.000    1.2306
   15.015    1.5730
   15.030    1.6479
   15.045    1.8620
   15.060    2.2900
   15.075    2.4077
   15.090    2.3863
   15.105    2.1830
   15.120    1.9048
   15.135    1.5195
   15.150    1.0487
   15.165    0.6742
   15.180    0.7812
   15.195    0.6421
   15.210    0.7063
   15.225    0.5457
   15.240    0.5778
   15.255    0.7598
   15.270    0.6421
   15.285    0.6956
   15.300    0.6956
   15.315    0.6314
   15.330    0.6849
   15.345    0.5778
   15.360    0.6528
   15.375    0.7063
   15.390    0.6635
   15.405    0.6100
   15.420    0.6314
   15.435    0.6849
   15.450    0.5778
   15.465    0.6314
   15.480    0.6207
   15.495    0.6849
   15.510    0.6207
   15.525    0.6421
   15.540    0.8026
   15.555    0.7063
   15.570    0.7812
   15.585    0.7598
   15.600    0.8026
   15.615    0.8561
   15.630    0.8775
   15.645    0.9096
   15.660    0.9524
   15.675    0.9417
   15.690    1.1129
   15.705    1.1450
   15.720    1.1664
   15.735    1.3269
   15.750    1.4553
   15.765    1.6586
   15.780    1.5409
   15.795    1.1557
   15.810    1.0915
   15.825    0.7919
   15.840    0.6742
   15.855    0.8347
   15.870    0.5671
   15.885    0.6528
   15.900    0.6528
   15.915    0.5778
   15.930    0.6314
   15.945    0.6528
   15.960    0.6849
   15.975    0.6742
   15.990    0.5778
   16.005    0.7598
   16.020    0.5886
   16.035    0.6528
   16.050    0.6207
   16.065    0.6635
   16.080    0.6528
   16.095    0.5457
   16.110    0.5778
   16.125    0.6421
   16.140    0.5886
   16.155    0.7170
   16.170    0.7812
   16.185    0.8026
   16.200    0.8989
   16.215    1.0059
   16.230    0.7812
   16.245    0.7491
   16.260    0.8989
   16.275    0.8026
   16.290    0.8775
   16.305    0.9845
   16.320    0.9952
   16.335    1.1664
   16.350    1.5837
   16.365    1.6265
   16.380    1.8620
   16.395    2.0760
   16.410    2.1830
   16.425    1.9690
   16.440    1.8192
   16.455    1.3911
   16.470    0.9203
   16.485    0.8882
   16.500    0.7598
   16.515    0.6207
   16.530    0.7170
   16.545    0.5993
   16.560    0.5886
   16.575    0.7063
   16.590    0.6849
   16.605    0.6635
   16.620    0.5778
   16.635    0.5993
   16.650    0.5778
   16.665    0.6742
   16.680    0.5564
   16.695    0.6207
   16.710    0.5993
   16.725    0.5993
   16.740    0.5457
   16.755    0.7277
   16.770    0.6956
   16.785    0.7170
   16.800    0.5993
   16.815    0.5993
   16.830    0.6742
   16.845    0.4922
   16.860    0.6207
   16.875    0.7598
   16.890    0.7170
   16.905    0.6742
   16.920    0.6956
   16.935    0.5671
   16.950    0.5778
   16.965    0.6742
   16.980    0.6956
   16.995    0.5457
   17.010    0.6100
   17.025    0.6849
   17.040    0.5778
   17.055    0.6849
   17.070    0.5993
   17.085    0.6314
   17.100    0.5993
   17.115    0.5243
   17.130    0.7384
   17.145    0.6528
   17.160    0.5886
   17.175    0.7919
   17.190    0.5457
   17.205    0.6100
   17.220    0.6100
   17.235    0.6849
   17.250    0.7598
   17.265    0.6207
   17.280    0.6635
   17.295    0.5993
   17.310    0.5886
   17.325    0.5671
   17.340    0.6956
   17.355    0.6528
   17.370    0.6100
   17.385    0.6742
   17.400    0.6100
   17.415    0.5886
   17.430    0.7277
   17.445    0.7812
   17.460    0.6314
   17.475    0.6100
   17.490    0.7598
   17.505    0.6635
   17.520    0.6528
   17.535    0.8347
   17.550    0.7919
   17.565    0.6849
   17.580    0.8133
   17.595    0.8561
   17.610    1.0273
   17.625    0.9417
   17.640    0.9845
   17.655    0.9845
   17.670    0.9310
   17.685    0.7277
   17.700    0.8026
   17.715    0.6528
   17.730    0.7705
   17.745    0.7277
   17.760    0.8026
   17.775    0.7384
   17.790    0.7598
   17.805    0.6956
   17.820    0.6100
   17.835    0.6635
   17.850    0.6956
   17.865    0.6314
   17.880    0.5778
   17.895    0.6635
   17.910    0.6314
   17.925    0.4922
   17.940    0.5993
   17.955    0.7063
   17.970    0.6207
   17.985    0.5886
   18.000    0.6528
   18.015    0.5886
   18.030    0.5350
   18.045    0.5993
   18.060    0.6528
   18.075    0.6421
   18.090    0.5136
   18.105    0.5243
   18.120    0.7170
   18.135    0.5564
   18.150    0.4922
   18.165    0.5136
   18.180    0.5886
   18.195    0.5350
   18.210    0.5029
   18.225    0.5778
   18.240    0.5886
   18.255    0.6421
   18.270    0.8026
   18.285    0.7170
   18.300    0.6528
   18.315    0.6635
   18.330    0.6314
   18.345    0.6528
   18.360    0.5564
   18.375    0.6528
   18.390    0.5886
   18.405    0.6635
   18.420    0.5886
   18.435    0.5457
   18.450    0.7170
   18.465    0.6849
   18.480    0.7063
   18.495    0.7277
   18.510    0.5243
   18.525    0.6207
   18.540    0.6100
   18.555    0.5350
   18.570    0.5993
   18.585    0.6314
   18.600    0.6849
   18.615    0.7063
   18.630    0.6314
   18.645    0.6635
   18.660    0.8026
   18.675    0.8026
   18.690    0.7384
   18.705    0.6207
   18.720    0.7491
   18.735    0.6421
   18.750    0.7063
   18.765    0.9310
   18.780    0.9952
   18.795    0.9845
   18.810    0.8668
   18.825    0.9738
   18.840    0.9096
   18.855    0.7491
   18.870    0.5886
   18.885    0.7277
   18.900    0.7491
   18.915    0.6956
   18.930    0.5564
   18.945    0.7063
   18.960    0.5993
   18.975    0.5136
   18.990    0.5778
   19.005    0.6635
   19.020    0.7170
   19.035    0.5457
   19.050    0.6421
   19.065    0.6207
   19.080    0.6100
   19.095    0.5886
   19.110    0.7277
   19.125    0.6314
   19.140    0.5778
   19.155    0.7170
   19.170    0.5671
   19.185    0.7705
   19.200    0.5886
   19.215    0.7598
   19.230    0.7705
   19.245    0.7384
   19.260    0.7598
   19.275    0.7491
   19.290    0.8454
   19.305    1.0701
   19.320    1.0808
   19.335    1.0166
   19.350    1.0915
   19.365    0.9096
   19.380    0.9310
   19.395    0.8882
   19.410    0.6528
   19.425    0.6742
   19.440    0.5136
   19.455    0.6956
   19.470    0.6742
   19.485    0.6635
   19.500    0.7063
   19.515    0.7277
   19.530    0.7384
   19.545    0.6100
   19.560    0.6421
   19.575    0.5886
   19.590    0.6100
   19.605    0.6528
   19.620    0.7170
   19.635    0.7384
   19.650    0.8026
   19.665    0.6421
   19.680    0.7277
   19.695    0.8561
   19.710    0.6528
   19.725    0.7384
   19.740    0.8561
   19.755    0.8133
   19.770    0.8561
   19.785    1.0915
   19.800    1.1664
   19.815    1.2413
   19.830    1.4874
   19.845    1.8406
   19.860    2.0118
   19.875    1.8941
   19.890    1.7549
   19.905    1.6265
   19.920    1.3055
   19.935    1.0380
   19.950    0.8454
   19.965    0.6207
   19.980    0.6956
   19.995    0.5886
   20.010    0.6956
   20.025    0.6956
   20.040    0.6100
   20.055    0.6635
   20.070    0.7598
   20.085    0.6635
   20.100    0.6421
   20.115    0.7170
   20.130    0.6956
   20.145    0.5993
   20.160    0.6742
   20.175    0.7063
   20.190    0.5457
   20.205    0.5243
   20.220    0.6421
   20.235    0.7598
   20.250    0.7812
   20.265    0.6421
   20.280    0.6100
   20.295    0.7384
   20.310    0.8347
   20.325    0.8668
   20.340    0.7598
   20.355    0.7812
   20.370    0.9203
   20.385    1.1878
   20.400    0.9524
   20.415    0.8882
   20.430    0.9524
   20.445    0.8026
   20.460    0.7598
   20.475    0.5243
   20.490    0.6742
   20.505    0.5993
   20.520    0.6421
   20.535    0.7598
   20.550    0.6528
   20.565    0.5243
   20.580    0.5350
   20.595    0.6742
   20.610    0.6314
   20.625    0.5993
   20.640    0.6849
   20.655    0.5671
   20.670    0.6635
   20.685    0.7812
   20.700    0.6849
   20.715    0.7812
   20.730    0.6207
   20.745    0.6207
   20.760    0.7491
   20.775    0.6421
   20.790    0.6421
   20.805    0.8561
   20.820    0.9310
   20.835    0.9096
   20.850    0.8347
   20.865    0.7598
   20.880    0.8347
   20.895    0.8133
   20.910    0.8989
   20.925    0.9096
   20.940    0.8026
   20.955    0.7491
   20.970    0.7277
   20.985    0.7384
   21.000    0.6849
   21.015    0.5457
   21.030    0.6314
   21.045    0.6742
   21.060    0.5886
   21.075    0.5886
   21.090    0.6421
   21.105    0.6314
   21.120    0.4708
   21.135    0.5350
   21.150    0.5778
   21.165    0.6635
   21.180    0.7491
   21.195    0.6635
   21.210    0.5778
   21.225    0.7063
   21.240    0.6421
   21.255    0.6421
   21.270    0.7491
   21.285    0.6849
   21.300    0.7705
   21.315    0.8775
   21.330    0.8561
   21.345    0.8775
   21.360    0.8882
   21.375    0.9203
   21.390    1.1022
   21.405    1.0380
   21.420    0.9631
   21.435    0.7063
   21.450    0.8347
   21.465    0.8668
   21.480    0.8347
   21.495    0.5886
   21.510    0.5993
   21.525    0.6421
   21.540    0.7705
   21.555    0.6635
   21.570    0.5886
   21.585    0.6635
   21.600    0.6742
   21.615    0.5457
   21.630    0.5993
   21.645    0.5778
   21.660    0.6207
   21.675    0.6100
   21.690    0.7812
   21.705    0.6849
   21.720    0.7063
   21.735    0.8133
   21.750    0.6849
   21.765    0.6849
   21.780    0.6849
   21.795    0.5993
   21.810    0.5564
   21.825    0.5886
   21.840    0.6956
   21.855    0.7170
   21.870    0.6849
   21.885    0.7170
   21.900    0.8240
   21.915    0.7812
   21.930    0.6742
   21.945    0.6956
   21.960    0.6635
   21.975    0.7277
   21.990    0.6207
   22.005    0.7277
   22.020    0.6742
   22.035    0.6742
   22.050    0.5993
   22.065    0.4708
   22.080    0.7170
   22.095    0.6849
   22.110    0.7277
   22.125    0.7491
   22.140    0.7491
   22.155    0.6849
   22.170    0.5886
   22.185    0.5243
   22.200    0.6421
   22.215    0.6528
   22.230    0.8240
   22.245    0.6207
   22.260    0.6528
   22.275    0.6635
   22.290    0.5778
   22.305    0.5993
   22.320    0.7705
   22.335    0.7063
   22.350    0.7812
   22.365    0.6956
   22.380    0.7705
   22.395    0.6314
   22.410    0.6956
   22.425    0.7170
   22.440    0.5350
   22.455    0.5671
   22.470    0.6742
   22.485    0.6956
   22.500    0.7063
   22.515    0.6314
   22.530    0.5993
   22.545    0.5136
   22.560    0.5993
   22.575    0.6849
   22.590    0.7384
   22.605    0.6956
   22.620    0.7598
   22.635    0.6956
   22.650    0.5993
   22.665    0.6956
   22.680    0.5350
   22.695    0.8240
   22.710    0.7063
   22.725    0.7277
   22.740    0.8026
   22.755    0.7705
   22.770    0.9524
   22.785    0.7919
   22.800    0.8882
   22.815    0.9417
   22.830    0.9738
   22.845    0.9417
   22.860    0.9631
   22.875    0.8240
   22.890    0.8989
   22.905    0.8882
   22.920    0.8133
   22.935    0.6635
   22.950    0.5993
   22.965    0.7170
   22.980    0.6849
   22.995    0.6207
   23.010    0.7277
   23.025    0.7063
   23.040    0.5993
   23.055    0.6314
   23.070    0.8454
   23.085    0.7170
   23.100    0.7491
   23.115    0.6956
   23.130    0.7063
   23.145    0.7598
   23.160    0.7491
   23.175    0.6528
   23.190    0.6742
   23.205    0.7384
   23.220    0.7812
   23.235    0.7063
   23.250    0.6207
   23.265    0.7063
   23.280    0.7491
   23.295    0.8989
   23.310    0.7598
   23.325    0.7705
   23.340    0.8347
   23.355    0.6849
   23.370    0.7277
   23.385    0.6956
   23.400    0.6207
   23.415    0.7063
   23.430    0.7491
   23.445    0.6314
   23.460    0.7277
   23.475    0.7063
   23.490    0.5993
   23.505    0.6100
   23.520    0.8347
   23.535    0.6956
   23.550    0.7491
   23.565    0.6421
   23.580    0.6207
   23.595    0.7812
   23.610    0.6849
   23.625    0.8989
   23.640    0.8347
   23.655    0.8561
   23.670    0.8989
   23.685    1.1022
   23.700    1.1450
   23.715    1.3162
   23.730    1.4874
   23.745    1.6907
   23.760    1.5195
   23.775    1.4232
   23.790    1.1878
   23.805    1.1985
   23.820    0.9738
   23.835    0.8240
   23.850    0.6742
   23.865    0.7170
   23.880    0.6956
   23.895    0.6849
   23.910    0.6100
   23.925    0.6742
   23.940    0.7384
   23.955    0.7063
   23.970    0.7063
   23.985    0.6528
   24.000    0.6742
   24.015    0.7491
   24.030    0.7598
   24.045    0.6635
   24.060    0.7170
   24.075    0.6635
   24.090    0.7812
   24.105    0.7705
   24.120    0.7919
   24.135    0.8133
   24.150    0.6849
   24.165    0.7277
   24.180    0.8882
   24.195    0.7277
   24.210    0.6207
   24.225    0.6421
   24.240    0.7491
   24.255    0.5350
   24.270    0.7491
   24.285    0.6956
   24.300    0.7491
   24.315    0.6635
   24.330    0.7384
   24.345    0.7170
   24.360    0.5778
   24.375    0.5564
   24.390    0.6314
   24.405    0.6849
   24.420    0.6314
   24.435    0.5778
   24.450    0.6421
   24.465    0.6421
   24.480    0.7063
   24.495    0.6314
   24.510    0.6528
   24.525    0.7384
   24.540    0.7919
   24.555    0.6528
   24.570    0.6849
   24.585    0.7598
   24.600    0.6421
   24.615    0.6849
   24.630    0.7598
   24.645    0.7277
   24.660    0.6421
   24.675    0.6849
   24.690    0.6849
   24.705    0.6635
   24.720    0.6849
   24.735    0.7063
   24.750    0.8133
   24.765    0.6421
   24.780    0.6635
   24.795    0.6956
   24.810    0.6528
   24.825    0.5778
   24.840    0.8240
   24.855    0.6314
   24.870    0.5564
   24.885    0.6742
   24.900    0.6742
   24.915    0.5993
   24.930    0.6314
   24.945    0.7277
   24.960    0.6421
   24.975    0.6528
   24.990    0.5457
   25.005    0.6635
   25.020    0.6956
   25.035    0.5993
   25.050    0.6314
   25.065    0.6635
   25.080    0.5886
   25.095    0.7277
   25.110    0.7491
   25.125    0.6421
   25.140    0.7170
   25.155    0.7063
   25.170    0.5671
   25.185    0.6849
   25.200    0.7063
   25.215    0.6207
   25.230    0.7170
   25.245    0.7491
   25.260    0.6956
   25.275    0.6528
   25.290    0.6421
   25.305    0.6635
   25.320    0.5993
   25.335    0.5671
   25.350    0.6207
   25.365    0.7705
   25.380    0.7170
   25.395    0.8668
   25.410    0.7277
   25.425    0.8882
   25.440    0.9738
   25.455    0.9845
   25.470    1.0915
   25.485    1.1022
   25.500    1.0166
   25.515    0.7919
   25.530    0.7812
   25.545    0.8668
   25.560    0.8133
   25.575    0.6100
   25.590    0.6635
   25.605    0.7170
   25.620    0.5671
   25.635    0.6742
   25.650    0.6956
   25.665    0.7812
   25.680    0.6849
   25.695    0.8240
   25.710    0.6956
   25.725    0.6956
   25.740    0.7063
   25.755    0.5886
   25.770    0.7705
   25.785    0.6849
   25.800    0.6742
   25.815    0.7705
   25.830    0.8882
   25.845    0.8561
   25.860    0.8989
   25.875    0.9738
   25.890    0.9203
   25.905    0.9524
   25.920    0.8775
   25.935    1.1022
   25.950    1.0915
   25.965    0.6635
   25.980    0.8561
   25.995    0.7705
   26.010    0.6956
   26.025    0.6314
   26.040    0.7598
   26.055    0.6314
   26.070    0.6207
   26.085    0.7598
   26.100    0.7384
   26.115    0.6314
   26.130    0.7491
   26.145    0.8133
   26.160    0.7063
   26.175    0.6956
   26.190    0.8989
   26.205    0.8882
   26.220    1.1343
   26.235    1.2627
   26.250    1.2520
   26.265    1.5088
   26.280    1.6479
   26.295    1.7657
   26.310    2.0332
   26.325    1.5516
   26.340    1.4018
   26.355    1.1450
   26.370    1.0380
   26.385    0.8989
   26.400    0.8561
   26.415    0.7812
   26.430    0.7384
   26.445    0.6956
   26.460    0.6635
   26.475    0.7491
   26.490    0.7598
   26.505    0.7063
   26.520    0.8347
   26.535    0.8882
   26.550    0.8454
   26.565    1.0273
   26.580    0.8454
   26.595    0.9203
   26.610    1.0808
   26.625    1.1557
   26.640    1.2841
   26.655    1.2841
   26.670    1.7978
   26.685    1.7978
   26.700    1.8192
   26.715    1.5623
   26.730    1.6800
   26.745    1.6265
   26.760    1.4553
   26.775    1.2092
   26.790    1.0487
   26.805    0.9738
   26.820    0.7812
   26.835    0.6314
   26.850    0.5564
   26.865    0.7705
   26.880    0.7384
   26.895    0.6742
   26.910    0.7063
   26.925    0.8026
   26.940    0.8347
   26.955    0.5778
   26.970    0.5457
   26.985    0.6528
   27.000    0.6849
   27.015    0.8240
   27.030    0.8454
   27.045    0.9631
   27.060    0.8668
   27.075    0.9631
   27.090    0.9417
   27.105    0.9631
   27.120    0.8668
   27.135    0.8133
   27.150    0.7384
   27.165    0.7919
   27.180    0.6635
   27.195    0.6956
   27.210    0.6421
   27.225    0.6314
   27.240    0.6956
   27.255    0.7170
   27.270    0.7812
   27.285    0.6849
   27.300    0.5886
   27.315    0.6849
   27.330    0.6207
   27.345    0.6742
   27.360    0.7598
   27.375    0.6528
   27.390    0.6528
   27.405    0.7277
   27.420    0.7812
   27.435    0.8347
   27.450    0.7598
   27.465    0.7705
   27.480    0.6528
   27.495    0.6635
   27.510    0.6742
   27.525    0.6849
   27.540    0.6207
   27.555    0.5671
   27.570    0.7063
   27.585    0.7384
   27.600    0.6100
   27.615    0.6314
   27.630    0.7384
   27.645    0.7063
   27.660    0.6421
   27.675    0.6528
   27.690    0.5350
   27.705    0.7384
   27.720    0.7277
   27.735    0.6207
   27.750    0.5778
   27.765    0.5564
   27.780    0.7277
   27.795    0.6528
   27.810    0.6849
   27.825    0.7812
   27.840    0.9631
   27.855    0.9631
   27.870    1.0059
   27.885    0.7919
   27.900    0.8454
   27.915    0.9096
   27.930    0.8775
   27.945    0.8026
   27.960    0.8668
   27.975    0.7170
   27.990    0.6421
   28.005    0.7598
   28.020    0.7705
   28.035    0.5886
   28.050    0.6100
   28.065    0.6742
   28.080    0.6421
   28.095    0.6956
   28.110    0.7277
   28.125    0.5564
   28.140    0.5993
   28.155    0.6207
   28.170    0.6956
   28.185    0.6635
   28.200    0.6956
   28.215    0.7170
   28.230    0.5671
   28.245    0.6528
   28.260    0.6421
   28.275    0.4815
   28.290    0.7063
   28.305    0.6742
   28.320    0.6207
   28.335    0.5136
   28.350    0.5993
   28.365    0.6421
   28.380    0.6314
   28.395    0.5671
   28.410    0.5886
   28.425    0.6742
   28.440    0.5457
   28.455    0.5243
   28.470    0.5564
   28.485    0.5457
   28.500    0.5778
   28.515    0.5886
   28.530    0.5243
   28.545    0.7063
   28.560    0.8882
   28.575    0.7277
   28.590    0.7277
   28.605    0.8133
   28.620    0.7705
   28.635    0.6635
   28.650    0.6207
   28.665    0.7170
   28.680    0.8775
   28.695    0.6100
   28.710    0.6100
   28.725    0.8026
   28.740    0.6207
   28.755    0.5886
   28.770    0.6207
   28.785    0.5886
   28.800    0.6528
   28.815    0.6528
   28.830    0.7063
   28.845    0.6207
   28.860    0.6849
   28.875    0.6207
   28.890    0.6100
   28.905    0.5029
   28.920    0.5778
   28.935    0.7063
   28.950    0.6314
   28.965    0.7491
   28.980    0.7812
   28.995    0.7277
   29.010    0.6956
   29.025    0.6849
   29.040    0.5350
   29.055    0.5886
   29.070    0.7384
   29.085    0.6635
   29.100    0.5350
   29.115    0.6421
   29.130    0.6314
   29.145    0.6314
   29.160    0.5029
   29.175    0.6207
   29.190    0.6314
   29.205    0.6528
   29.220    0.6314
   29.235    0.6314
   29.250    0.5671
   29.265    0.7277
   29.280    0.7170
   29.295    0.6849
   29.310    0.6635
   29.325    0.6849
   29.340    0.7598
   29.355    0.7919
   29.370    0.6956
   29.385    0.7812
   29.400    0.9310
   29.415    0.7063
   29.430    0.6421
   29.445    0.7705
   29.460    0.7277
   29.475    0.7063
   29.490    0.6635
   29.505    0.5243
   29.520    0.7063
   29.535    0.5778
   29.550    0.5136
   29.565    0.6207
   29.580    0.5993
   29.595    0.5993
   29.610    0.6528
   29.625    0.5671
   29.640    0.6421
   29.655    0.6528
   29.670    0.6742
   29.685    0.6849
   29.700    0.6635
   29.715    0.6207
   29.730    0.6528
   29.745    0.8668
   29.760    0.7170
   29.775    0.7277
   29.790    0.7384
   29.805    0.6207
   29.820    0.6635
   29.835    0.7063
   29.850    0.6207
   29.865    0.6528
   29.880    0.5671
   29.895    0.6421
   29.910    0.5671
   29.925    0.5671
   29.940    0.5993
   29.955    0.5886
   29.970    0.5886
   29.985    0.6528
   30.000    0.7170
   30.015    0.6635
   30.030    0.8561
   30.045    1.0487
   30.060    1.1129
   30.075    1.2306
   30.090    1.1878
   30.105    1.2520
   30.120    1.3697
   30.135    1.1343
   30.150    0.9952
   30.165    1.1129
   30.180    1.0594
   30.195    0.9310
   30.210    0.7919
   30.225    0.6421
   30.240    0.5886
   30.255    0.5136
   30.270    0.5457
   30.285    0.5457
   30.300    0.5886
   30.315    0.6956
   30.330    0.6421
   30.345    0.5778
   30.360    0.4815
   30.375    0.5778
   30.390    0.5886
   30.405    0.5457
   30.420    0.5886
   30.435    0.5993
   30.450    0.6742
   30.465    0.5886
   30.480    0.7063
   30.495    0.6314
   30.510    0.6742
   30.525    0.7170
   30.540    0.6528
   30.555    0.6421
   30.570    0.5778
   30.585    0.5350
   30.600    0.6100
   30.615    0.6314
   30.630    0.3959
   30.645    0.5886
   30.660    0.5457
   30.675    0.7063
   30.690    0.6207
   30.705    0.7705
   30.720    0.7384
   30.735    0.7384
   30.750    0.6635
   30.765    0.6421
   30.780    0.8133
   30.795    0.7491
   30.810    0.7063
   30.825    0.7812
   30.840    0.8347
   30.855    0.6742
   30.870    0.8133
   30.885    0.7491
   30.900    0.7598
   30.915    0.6207
   30.930    0.5350
   30.945    0.6314
   30.960    0.6207
   30.975    0.5350
   30.990    0.5243
   31.005    0.6100
   31.020    0.6207
   31.035    0.4494
   31.050    0.6207
   31.065    0.5778
   31.080    0.5993
   31.095    0.4280
   31.110    0.4922
   31.125    0.6421
   31.140    0.6207
   31.155    0.4815
   31.170    0.5778
   31.185    0.6100
   31.200    0.5778
   31.215    0.6528
   31.230    0.5350
   31.245    0.5243
   31.260    0.5993
   31.275    0.5564
   31.290    0.5029
   31.305    0.5564
   31.320    0.5350
   31.335    0.6956
   31.350    0.6314
   31.365    0.6528
   31.380    0.6207
   31.395    0.6421
   31.410    0.6742
   31.425    0.7063
   31.440    0.6742
   31.455    0.6742
   31.470    0.8882
   31.485    0.9203
   31.500    0.8347
   31.515    0.9203
   31.530    0.7919
   31.545    0.8240
   31.560    1.0594
   31.575    0.9738
   31.590    0.7277
   31.605    0.7812
   31.620    0.7384
   31.635    0.7063
   31.650    0.6956
   31.665    0.6849
   31.680    0.5564
   31.695    0.4922
   31.710    0.6314
   31.725    0.6207
   31.740    0.4815
   31.755    0.5993
   31.770    0.5564
   31.785    0.4922
   31.800    0.5564
   31.815    0.4066
   31.830    0.5778
   31.845    0.7277
   31.860    0.6742
   31.875    0.5993
   31.890    0.5778
   31.905    0.4922
   31.920    0.6100
   31.935    0.6314
   31.950    0.5350
   31.965    0.5350
   31.980    0.5457
   31.995    0.5029
   32.010    0.6742
   32.025    0.6421
   32.040    0.6207
   32.055    0.4387
   32.070    0.7491
   32.085    0.5029
   32.100    0.5457
   32.115    0.6100
   32.130    0.5029
   32.145    0.6528
   32.160    0.7277
   32.175    0.8561
   32.190    0.6956
   32.205    0.6849
   32.220    0.6635
   32.235    0.7812
   32.250    0.7812
   32.265    0.8026
   32.280    0.6207
   32.295    0.5886
   32.310    0.7919
   32.325    0.6100
   32.340    0.5564
   32.355    0.6100
   32.370    0.6314
   32.385    0.6207
   32.400    0.6207
   32.415    0.5671
   32.430    0.6421
   32.445    0.5886
   32.460    0.5564
   32.475    0.5564
   32.490    0.5993
   32.505    0.7277
   32.520    0.5671
   32.535    0.6421
   32.550    0.5778
   32.565    0.5993
   32.580    0.7705
   32.595    0.5029
   32.610    0.5136
   32.625    0.5350
   32.640    0.6314
   32.655    0.6207
   32.670    0.5778
   32.685    0.7063
   32.700    0.5993
   32.715    0.6207
   32.730    0.7491
   32.745    0.5029
   32.760    0.5671
   32.775    0.6314
   32.790    0.7170
   32.805    0.8026
   32.820    0.8347
   32.835    0.7063
   32.850    0.7277
   32.865    0.8989
   32.880    0.8347
   32.895    0.8026
   32.910    0.7063
   32.925    0.7170
   32.940    0.7705
   32.955    0.7063
   32.970    0.6742
   32.985    0.5671
   33.000    0.5350
   33.015    0.5886
   33.030    0.5993
   33.045    0.5671
   33.060    0.6100
   33.075    0.6100
   33.090    0.7063
   33.105    0.7277
   33.120    0.6742
   33.135    0.7384
   33.150    0.7170
   33.165    0.8026
   33.180    0.7812
   33.195    0.8775
   33.210    0.8454
   33.225    0.8133
   33.240    0.7491
   33.255    0.8668
   33.270    0.7277
   33.285    0.5886
   33.300    0.5993
   33.315    0.5886
   33.330    0.5564
   33.345    0.5243
   33.360    0.5136
   33.375    0.5671
   33.390    0.4494
   33.405    0.4066
   33.420    0.4494
   33.435    0.5671
   33.450    0.5243
   33.465    0.6528
   33.480    0.5886
   33.495    0.5564
   33.510    0.5993
   33.525    0.5564
   33.540    0.5564
   33.555    0.6100
   33.570    0.5778
   33.585    0.6100
   33.600    0.5886
   33.615    0.4708
   33.630    0.5350
   33.645    0.4922
   33.660    0.4922
   33.675    0.5029
   33.690    0.5671
   33.705    0.5993
   33.720    0.5993
   33.735    0.6528
   33.750    0.5993
   33.765    0.6207
   33.780    0.4922
   33.795    0.6100
   33.810    0.5350
   33.825    0.6314
   33.840    0.6635
   33.855    0.5029
   33.870    0.6100
   33.885    0.6314
   33.900    0.4815
   33.915    0.4601
   33.930    0.6742
   33.945    0.5993
   33.960    0.5778
   33.975    0.4815
   33.990    0.4922
   34.005    0.5671
   34.020    0.5029
   34.035    0.5136
   34.050    0.5671
   34.065    0.5564
   34.080    0.5350
   34.095    0.6100
   34.110    0.6528
   34.125    0.6100
   34.140    0.6314
   34.155    0.6528
   34.170    0.5671
   34.185    0.7170
   34.200    0.7491
   34.215    0.8561
   34.230    0.7384
   34.245    0.5243
   34.260    0.5457
   34.275    0.5243
   34.290    0.5671
   34.305    0.5993
   34.320    0.6100
   34.335    0.3852
   34.350    0.5564
   34.365    0.5886
   34.380    0.5029
   34.395    0.6314
   34.410    0.5136
   34.425    0.4280
   34.440    0.5457
   34.455    0.5243
   34.470    0.4601
   34.485    0.5136
   34.500    0.5029
   34.515    0.4708
   34.530    0.5243
   34.545    0.4922
   34.560    0.5136
   34.575    0.6635
   34.590    0.5136
   34.605    0.4815
   34.620    0.5457
   34.635    0.5350
   34.650    0.5564
   34.665    0.5671
   34.680    0.6742
   34.695    0.6314
   34.710    0.5886
   34.725    0.5671
   34.740    0.5671
   34.755    0.6528
   34.770    0.6742
   34.785    0.6528
   34.800    0.7063
   34.815    0.6421
   34.830    0.7384
   34.845    0.6314
   34.860    0.5564
   34.875    0.4922
   34.890    0.5886
   34.905    0.5136
   34.920    0.4601
   34.935    0.4708
   34.950    0.5029
   34.965    0.4922
   34.980    0.4280
   34.995    0.4494
   35.010    0.5029
   35.025    0.5243
   35.040    0.4922
   35.055    0.6421
   35.070    0.5886
   35.085    0.4387
   35.100    0.5029
   35.115    0.5350
   35.130    0.5671
   35.145    0.4922
   35.160    0.5671
   35.175    0.6314
   35.190    0.6742
   35.205    0.5029
   35.220    0.5243
   35.235    0.5243
   35.250    0.5457
   35.265    0.5671
   35.280    0.5564
   35.295    0.5671
   35.310    0.4708
   35.325    0.4601
   35.340    0.4066
   35.355    0.5243
   35.370    0.5350
   35.385    0.6314
   35.400    0.6207
   35.415    0.6100
   35.430    0.5029
   35.445    0.5671
   35.460    0.5350
   35.475    0.5778
   35.490    0.4922
   35.505    0.5243
   35.520    0.4494
   35.535    0.5136
   35.550    0.4922
   35.565    0.4494
   35.580    0.6100
   35.595    0.5564
   35.610    0.5778
   35.625    0.4922
   35.640    0.4815
   35.655    0.5350
   35.670    0.5564
   35.685    0.5886
   35.700    0.6421
   35.715    0.5457
   35.730    0.5993
   35.745    0.6421
   35.760    0.6635
   35.775    0.5778
   35.790    0.5136
   35.805    0.5671
   35.820    0.6314
   35.835    0.5457
   35.850    0.5564
   35.865    0.5350
   35.880    0.4922
   35.895    0.4601
   35.910    0.5029
   35.925    0.5671
   35.940    0.5778
   35.955    0.6314
   35.970    0.5993
   35.985    0.5564
   36.000    0.4922
   36.015    0.5671
   36.030    0.5243
   36.045    0.4387
   36.060    0.5457
   36.075    0.5564
   36.090    0.5564
   36.105    0.5457
   36.120    0.5457
   36.135    0.5671
   36.150    0.4066
   36.165    0.5350
   36.180    0.4815
   36.195    0.5029
   36.210    0.3852
   36.225    0.4173
   36.240    0.5136
   36.255    0.4601
   36.270    0.6528
   36.285    0.5564
   36.300    0.5350
   36.315    0.4494
   36.330    0.4708
   36.345    0.4922
   36.360    0.4708
   36.375    0.4387
   36.390    0.4387
   36.405    0.5243
   36.420    0.4280
   36.435    0.4708
   36.450    0.3852
   36.465    0.4173
   36.480    0.4708
   36.495    0.4387
   36.510    0.5029
   36.525    0.6100
   36.540    0.4280
   36.555    0.4387
   36.570    0.5993
   36.585    0.4922
   36.600    0.5564
   36.615    0.5778
   36.630    0.5778
   36.645    0.5886
   36.660    0.6207
   36.675    0.6314
   36.690    0.5886
   36.705    0.5564
   36.720    0.4280
   36.735    0.4601
   36.750    0.4066
   36.765    0.5350
   36.780    0.4387
   36.795    0.4601
   36.810    0.4280
   36.825    0.3531
   36.840    0.3638
   36.855    0.6207
   36.870    0.5564
   36.885    0.4922
   36.900    0.5029
   36.915    0.5886
   36.930    0.5136
   36.945    0.4601
   36.960    0.4494
   36.975    0.5029
   36.990    0.4494
   37.005    0.5136
   37.020    0.5564
   37.035    0.5457
   37.050    0.5886
   37.065    0.4922
   37.080    0.5136
   37.095    0.5136
   37.110    0.4815
   37.125    0.3852
   37.140    0.4601
   37.155    0.4387
   37.170    0.5778
   37.185    0.4601
   37.200    0.5886
   37.215    0.4494
   37.230    0.4708
   37.245    0.4280
   37.260    0.5350
   37.275    0.6207
   37.290    0.5993
   37.305    0.5350
   37.320    0.5564
   37.335    0.6100
   37.350    0.4066
   37.365    0.4601
   37.380    0.4494
   37.395    0.3745
   37.410    0.4173
   37.425    0.4173
   37.440    0.4601
   37.455    0.5029
   37.470    0.4387
   37.485    0.4494
   37.500    0.4601
   37.515    0.3852
   37.530    0.5457
   37.545    0.6100
   37.560    0.3959
   37.575    0.5136
   37.590    0.4815
   37.605    0.5243
   37.620    0.4708
   37.635    0.4922
   37.650    0.5564
   37.665    0.3745
   37.680    0.4280
   37.695    0.5136
   37.710    0.4815
   37.725    0.4815
   37.740    0.4601
   37.755    0.5886
   37.770    0.5243
   37.785    0.4601
   37.800    0.4173
   37.815    0.4922
   37.830    0.5243
   37.845    0.4280
   37.860    0.4494
   37.875    0.4280
   37.890    0.4708
   37.905    0.5457
   37.920    0.5136
   37.935    0.4387
   37.950    0.4708
   37.965    0.4387
   37.980    0.3745
   37.995    0.4922
   38.010    0.4173
   38.025    0.4601
   38.040    0.5243
   38.055    0.4815
   38.070    0.5136
   38.085    0.3959
   38.100    0.5029
   38.115    0.5886
   38.130    0.4922
   38.145    0.4066
   38.160    0.4387
   38.175    0.3531
   38.190    0.4815
   38.205    0.4708
   38.220    0.3745
   38.235    0.4387
   38.250    0.4280
   38.265    0.4280
   38.280    0.4494
   38.295    0.4066
   38.310    0.5136
   38.325    0.3959
   38.340    0.5457
   38.355    0.5029
   38.370    0.4387
   38.385    0.4173
   38.400    0.4280
   38.415    0.5029
   38.430    0.5564
   38.445    0.4494
   38.460    0.4173
   38.475    0.4922
   38.490    0.5029
   38.505    0.5136
   38.520    0.4815
   38.535    0.4815
   38.550    0.4387
   38.565    0.4494
   38.580    0.4387
   38.595    0.4387
   38.610    0.3531
   38.625    0.3638
   38.640    0.3959
   38.655    0.3424
   38.670    0.3959
   38.685    0.4387
   38.700    0.3424
   38.715    0.4173
   38.730    0.3852
   38.745    0.3852
   38.760    0.4708
   38.775    0.4815
   38.790    0.5993
   38.805    0.5671
   38.820    0.3959
   38.835    0.4066
   38.850    0.4280
   38.865    0.3531
   38.880    0.4708
   38.895    0.4387
   38.910    0.4601
   38.925    0.4494
   38.940    0.4066
   38.955    0.3959
   38.970    0.4708
   38.985    0.3745
   39.000    0.3852
   39.015    0.4387
   39.030    0.3638
   39.045    0.3317
   39.060    0.3210
   39.075    0.3531
   39.090    0.3424
   39.105    0.3959
   39.120    0.4815
   39.135    0.3745
   39.150    0.4173
   39.165    0.4280
   39.180    0.5029
   39.195    0.4066
   39.210    0.3424
   39.225    0.4708
   39.240    0.5029
   39.255    0.5350
   39.270    0.5243
   39.285    0.3852
   39.300    0.3317
   39.315    0.3638
   39.330    0.3852
   39.345    0.4066
   39.360    0.4922
   39.375    0.4173
   39.390    0.4280
   39.405    0.5350
   39.420    0.4708
   39.435    0.4173
   39.450    0.4494
   39.465    0.3745
   39.480    0.4708
   39.495    0.4815
   39.510    0.4922
   39.525    0.5671
   39.540    0.5671
   39.555    0.5457
   39.570    0.5886
   39.585    0.5457
   39.600    0.6314
   39.615    0.5136
   39.630    0.5136
   39.645    0.5564
   39.660    0.4601
   39.675    0.5243
   39.690    0.4601
   39.705    0.4494
   39.720    0.4708
   39.735    0.3852
   39.750    0.2996
   39.765    0.4173
   39.780    0.3959
   39.795    0.3210
   39.810    0.3745
   39.825    0.3852
   39.840    0.3317
   39.855    0.3531
   39.870    0.3531
   39.885    0.4280
   39.900    0.3959
   39.915    0.4601
   39.930    0.3852
   39.945    0.4708
   39.960    0.4601
   39.975    0.4494
   39.990    0.4280
