    1.500    2.5628
    1.515    2.6330
    1.530    2.4925
    1.545    2.6330
    1.560    2.5101
    1.575    2.4925
    1.590    2.1941
    1.605    2.3521
    1.620    2.2292
    1.635    2.4750
    1.650    2.3697
    1.665    2.1766
    1.680    2.2117
    1.695    2.0888
    1.710    1.9133
    1.725    2.1239
    1.740    2.2117
    1.755    2.3521
    1.770    2.3872
    1.785    2.2117
    1.800    2.1590
    1.815    2.3697
    1.830    1.9484
    1.845    2.1064
    1.860    2.0537
    1.875    2.0713
    1.890    2.1064
    1.905    1.9835
    1.920    2.1590
    1.935    2.1415
    1.950    1.9133
    1.965    1.7553
    1.980    2.0186
    1.995    1.9484
    2.010    1.8606
    2.025    2.0713
    2.040    1.9835
    2.055    2.0362
    2.070    2.2117
    2.085    1.9659
    2.100    1.9484
    2.115    1.7553
    2.130    1.8957
    2.145    1.8782
    2.160    1.7553
    2.175    1.9484
    2.190    1.9835
    2.205    1.6851
    2.220    1.7378
    2.235    1.6675
    2.250    1.6324
    2.265    1.7729
    2.280    2.0011
    2.295    2.0011
    2.310    1.8080
    2.325    1.8606
    2.340    1.7904
    2.355    1.7202
    2.370    1.9835
    2.385    1.9835
    2.400    1.8782
    2.415    1.7202
    2.430    1.8957
    2.445    1.9659
    2.460    2.0011
    2.475    2.0537
    2.490    1.8957
    2.505    2.0186
    2.520    2.2468
    2.535    2.2819
    2.550    2.0011
    2.565    2.1941
    2.580    2.1590
    2.595    2.1415
    2.610    2.2117
    2.625    2.1239
    2.640    2.2819
    2.655    2.2995
    2.670    2.2468
    2.685    2.4223
    2.700    2.5803
    2.715    2.5452
    2.730    2.6505
    2.745    2.8436
    2.760    2.7558
    2.775    2.7207
    2.790    2.9314
    2.805    3.1069
    2.820    2.9138
    2.835    2.9665
    2.850    3.1069
    2.865    2.9138
    2.880    3.2473
    2.895    3.6686
    2.910    3.5984
    2.925    3.7037
    2.940    3.7213
    2.955    3.8617
    2.970    3.9846
    2.985    4.6165
    3.000    4.2303
    3.015    4.6691
    3.030    4.7744
    3.045    5.1606
    3.060    5.2133
    3.075    5.5994
    3.090    5.9681
    3.105    5.9681
    3.120    6.0734
    3.135    6.4420
    3.150    7.1792
    3.165    7.0563
    3.180    7.3372
    3.195    7.2494
    3.210    7.6883
    3.225    9.0047
    3.240    9.6015
    3.255   10.0228
    3.270   10.7952
    3.285   11.5148
    3.300   12.1292
    3.315   12.3223
    3.330   13.9021
    3.345   15.3414
    3.360   15.7627
    3.375   16.6754
    3.390   17.6584
    3.405   18.0797
    3.420   18.2201
    3.435   18.1499
    3.450   16.9036
    3.465   15.7627
    3.480   13.9372
    3.495   12.6558
    3.510   11.0760
    3.525   10.0930
    3.540    9.0047
    3.555    7.7058
    3.570    7.2319
    3.585    7.1090
    3.600    6.5122
    3.615    6.2665
    3.630    6.2489
    3.645    5.6521
    3.660    5.5994
    3.675    6.0909
    3.690    5.7223
    3.705    5.2484
    3.720    5.4941
    3.735    5.7925
    3.750    5.8452
    3.765    6.2138
    3.780    5.7750
    3.795    5.9154
    3.810    6.7053
    3.825    6.3718
    3.840    6.4420
    3.855    6.1611
    3.870    6.6351
    3.885    6.7579
    3.900    7.0212
    3.915    7.6005
    3.930    6.7755
    3.945    7.4074
    3.960    7.5303
    3.975    7.7585
    3.990    7.1617
    4.005    7.7234
    4.020    7.5127
    4.035    7.4074
    4.050    7.0739
    4.065    6.8106
    4.080    6.6702
    4.095    6.7404
    4.110    6.2489
    4.125    6.2665
    4.140    6.0558
    4.155    6.1436
    4.170    5.4766
    4.185    5.0904
    4.200    4.7920
    4.215    4.3005
    4.230    4.2830
    4.245    4.3532
    4.260    3.8968
    4.275    3.9670
    4.290    3.7037
    4.305    3.6159
    4.320    3.2473
    4.335    3.1245
    4.350    2.9489
    4.365    3.0016
    4.380    3.0367
    4.395    2.7032
    4.410    2.7032
    4.425    2.1766
    4.440    2.1766
    4.455    2.1590
    4.470    1.9133
    4.485    2.2995
    4.500    1.9133
    4.515    1.8606
    4.530    2.0888
    4.545    1.9308
    4.560    2.0011
    4.575    1.6324
    4.590    1.9659
    4.605    1.8431
    4.620    1.7904
    4.635    1.6851
    4.650    1.7553
    4.665    1.7027
    4.680    1.8080
    4.695    1.5447
    4.710    1.2463
    4.725    1.4920
    4.740    1.6324
    4.755    1.6149
    4.770    1.4394
    4.785    1.5447
    4.800    1.4920
    4.815    1.3165
    4.830    1.5096
    4.845    1.5447
    4.860    1.5271
    4.875    1.5096
    4.890    1.4394
    4.905    1.1761
    4.920    1.1234
    4.935    1.7729
    4.950    1.5271
    4.965    1.5096
    4.980    1.3691
    4.995    1.2463
    5.010    1.2287
    5.025    1.2287
    5.040    1.2287
    5.055    1.1234
    5.070    1.3691
    5.085    1.0532
    5.100    1.2638
    5.115    1.3691
    5.130    1.1936
    5.145    1.1936
    5.160    1.2638
    5.175    1.3165
    5.190    1.2112
    5.205    1.1410
    5.220    1.0883
    5.235    1.2112
    5.250    1.2638
    5.265    1.3340
    5.280    1.1234
    5.295    1.2989
    5.310    1.2989
    5.325    1.2112
    5.340    1.1410
    5.355    1.2638
    5.370    1.2989
    5.385    1.2814
    5.400    1.1585
    5.415    1.0005
    5.430    0.8777
    5.445    1.1585
    5.460    1.3867
    5.475    1.1761
    5.490    1.2463
    5.505    1.1761
    5.520    1.0883
    5.535    1.0005
    5.550    1.0356
    5.565    1.1234
    5.580    1.1058
    5.595    1.1410
    5.610    1.2112
    5.625    1.0356
    5.640    1.3691
    5.655    1.4569
    5.670    1.1936
    5.685    1.2112
    5.700    1.1585
    5.715    1.1585
    5.730    1.1234
    5.745    1.2287
    5.760    1.0883
    5.775    1.1585
    5.790    1.1585
    5.805    1.2814
    5.820    1.2989
    5.835    1.1761
    5.850    1.0532
    5.865    1.2287
    5.880    0.9303
    5.895    1.0532
    5.910    1.1410
    5.925    1.0532
    5.940    1.0883
    5.955    1.0707
    5.970    1.1410
    5.985    1.1761
    6.000    1.0707
    6.015    0.9303
    6.030    1.0883
    6.045    1.1410
    6.060    1.2287
    6.075    1.0883
    6.090    1.0181
    6.105    1.2638
    6.120    1.1410
    6.135    1.0356
    6.150    1.0883
    6.165    1.3165
    6.180    1.0181
    6.195    0.9830
    6.210    0.9303
    6.225    0.9479
    6.240    1.1058
    6.255    1.4394
    6.270    1.1936
    6.285    0.9128
    6.300    0.9479
    6.315    1.0356
    6.330    1.2112
    6.345    1.2112
    6.360    1.1761
    6.375    1.0707
    6.390    1.0181
    6.405    1.0883
    6.420    1.2814
    6.435    1.1234
    6.450    1.2287
    6.465    1.1410
    6.480    1.2638
    6.495    1.1410
    6.510    1.2287
    6.525    1.2287
    6.540    1.1761
    6.555    1.2989
    6.570    1.3340
    6.585    1.4394
    6.600    1.5096
    6.615    1.2989
    6.630    1.2112
    6.645    1.2463
    6.660    1.5973
    6.675    1.5096
    6.690    1.5096
    6.705    1.6851
    6.720    1.7027
    6.735    1.6675
    6.750    1.7027
    6.765    1.6851
    6.780    1.6324
    6.795    1.8255
    6.810    2.0713
    6.825    2.2117
    6.840    2.0362
    6.855    2.4399
    6.870    2.5452
    6.885    2.9665
    6.900    2.6856
    6.915    2.5979
    6.930    2.7734
    6.945    2.8787
    6.960    2.4750
    6.975    2.2117
    6.990    2.4399
    7.005    2.1590
    7.020    1.7027
    7.035    1.6851
    7.050    1.5798
    7.065    1.6675
    7.080    1.4394
    7.095    1.4394
    7.110    1.5271
    7.125    1.5271
    7.140    1.4920
    7.155    1.4394
    7.170    1.4218
    7.185    1.3691
    7.200    1.2463
    7.215    1.1936
    7.230    1.2112
    7.245    1.1234
    7.260    1.2814
    7.275    1.3691
    7.290    1.1936
    7.305    1.0005
    7.320    0.9303
    7.335    0.9479
    7.350    1.3165
    7.365    1.1234
    7.380    1.0181
    7.395    0.9128
    7.410    1.1761
    7.425    1.0883
    7.440    0.9654
    7.455    1.2989
    7.470    1.0356
    7.485    1.1585
    7.500    1.2287
    7.515    1.2112
    7.530    1.1410
    7.545    1.2989
    7.560    1.3691
    7.575    1.3516
    7.590    1.0707
    7.605    0.8952
    7.620    1.1761
    7.635    1.0883
    7.650    1.3516
    7.665    1.2287
    7.680    1.3516
    7.695    1.1761
    7.710    1.1585
    7.725    1.5096
    7.740    1.2638
    7.755    1.2989
    7.770    1.2638
    7.785    1.4218
    7.800    1.3516
    7.815    1.2287
    7.830    1.4745
    7.845    1.2287
    7.860    1.0883
    7.875    1.4218
    7.890    1.2463
    7.905    1.1234
    7.920    1.3516
    7.935    1.4745
    7.950    1.5096
    7.965    1.7904
    7.980    1.2112
    7.995    1.2287
    8.010    1.2814
    8.025    1.4569
    8.040    1.4218
    8.055    1.4920
    8.070    1.4569
    8.085    1.6851
    8.100    1.5271
    8.115    1.5973
    8.130    1.5096
    8.145    1.5622
    8.160    1.6324
    8.175    1.4920
    8.190    1.5798
    8.205    1.5798
    8.220    1.5973
    8.235    1.5271
    8.250    1.4569
    8.265    1.4394
    8.280    1.6149
    8.295    1.5271
    8.310    1.4394
    8.325    1.4569
    8.340    1.4745
    8.355    1.2638
    8.370    1.4042
    8.385    1.2814
    8.400    1.3340
    8.415    1.5622
    8.430    1.4569
    8.445    1.5973
    8.460    1.5096
    8.475    1.5447
    8.490    1.3691
    8.505    1.1585
    8.520    1.3340
    8.535    1.4920
    8.550    1.4745
    8.565    1.2989
    8.580    1.5622
    8.595    1.6149
    8.610    1.2814
    8.625    1.4218
    8.640    1.2287
    8.655    1.3340
    8.670    1.1058
    8.685    1.1761
    8.700    1.1234
    8.715    1.3340
    8.730    1.4042
    8.745    1.1761
    8.760    1.2112
    8.775    1.2814
    8.790    1.4218
    8.805    1.1936
    8.820    1.0005
    8.835    1.1410
    8.850    1.0883
    8.865    0.9479
    8.880    1.0883
    8.895    1.0532
    8.910    1.0883
    8.925    0.9830
    8.940    1.1410
    8.955    1.2638
    8.970    0.9303
    8.985    1.0883
    9.000    1.1585
    9.015    1.0883
    9.030    1.0707
    9.045    0.9479
    9.060    1.0356
    9.075    1.0883
    9.090    1.0356
    9.105    1.1410
    9.120    1.0181
    9.135    1.1761
    9.150    1.0707
    9.165    0.9830
    9.180    0.9479
    9.195    1.1410
    9.210    0.9128
    9.225    1.0181
    9.240    0.9830
    9.255    1.0883
    9.270    1.0005
    9.285    0.9654
    9.300    0.9303
    9.315    1.1585
    9.330    1.0707
    9.345    1.0181
    9.360    1.0005
    9.375    1.0707
    9.390    1.1410
    9.405    1.0356
    9.420    1.1234
    9.435    1.0005
    9.450    0.9654
    9.465    0.9654
    9.480    1.1058
    9.495    1.0532
    9.510    0.8425
    9.525    1.0005
    9.540    0.9830
    9.555    1.0181
    9.570    1.1058
    9.585    1.1058
    9.600    1.2287
    9.615    0.9830
    9.630    1.0181
    9.645    0.8777
    9.660    1.0005
    9.675    1.0181
    9.690    1.1585
    9.705    0.8952
    9.720    0.8952
    9.735    0.9654
    9.750    0.9654
    9.765    1.0181
    9.780    0.9303
    9.795    0.9830
    9.810    1.1058
    9.825    0.9830
    9.840    1.1058
    9.855    0.9303
    9.870    0.8777
    9.885    0.9479
    9.900    0.9479
    9.915    1.1410
    9.930    1.0707
    9.945    1.0005
    9.960    0.9830
    9.975    0.8074
    9.990    0.7723
   10.005    1.1410
   10.020    1.0356
   10.035    0.6846
   10.050    1.0181
   10.065    1.0181
   10.080    1.0005
   10.095    1.2287
   10.110    1.2638
   10.125    1.1585
   10.140    1.0883
   10.155    0.9303
   10.170    0.9479
   10.185    0.8425
   10.200    1.0532
   10.215    0.8952
   10.230    1.0181
   10.245    1.1410
   10.260    1.0707
   10.275    1.1058
   10.290    1.1585
   10.305    1.0356
   10.320    0.9830
   10.335    1.3165
   10.350    1.2112
   10.365    1.2112
   10.380    0.9654
   10.395    1.1761
   10.410    1.1410
   10.425    1.0532
   10.440    1.0356
   10.455    1.1410
   10.470    1.0707
   10.485    1.2287
   10.500    1.0707
   10.515    1.1058
   10.530    1.1234
   10.545    1.0532
   10.560    1.0005
   10.575    1.0532
   10.590    1.0883
   10.605    0.9830
   10.620    1.0181
   10.635    1.1936
   10.650    0.9303
   10.665    1.1761
   10.680    0.9479
   10.695    0.9128
   10.710    0.9479
   10.725    0.8601
   10.740    0.9654
   10.755    0.9128
   10.770    0.8601
   10.785    0.8952
   10.800    1.1936
   10.815    0.9830
   10.830    0.8777
   10.845    0.9654
   10.860    1.0356
   10.875    0.8952
   10.890    0.8601
   10.905    1.0181
   10.920    1.1761
   10.935    0.9303
   10.950    0.9830
   10.965    1.1058
   10.980    0.8250
   10.995    0.9479
   11.010    0.8074
   11.025    0.8777
   11.040    0.9128
   11.055    1.0181
   11.070    1.0005
   11.085    0.9303
   11.100    0.9128
   11.115    1.0356
   11.130    1.0707
   11.145    0.8250
   11.160    0.9128
   11.175    0.9128
   11.190    1.0532
   11.205    1.0532
   11.220    1.0532
   11.235    1.1585
   11.250    1.0707
   11.265    1.1058
   11.280    1.0356
   11.295    1.0005
   11.310    1.0532
   11.325    0.9830
   11.340    0.9830
   11.355    0.9654
   11.370    0.9654
   11.385    0.8601
   11.400    0.6846
   11.415    0.9479
   11.430    0.9303
   11.445    1.1936
   11.460    1.1936
   11.475    1.1410
   11.490    1.2638
   11.505    1.1058
   11.520    1.1058
   11.535    0.9654
   11.550    0.9303
   11.565    0.9128
   11.580    1.0707
   11.595    0.9654
   11.610    0.8952
   11.625    1.0532
   11.640    1.0532
   11.655    1.2112
   11.670    1.0883
   11.685    1.1058
   11.700    0.8952
   11.715    1.0532
   11.730    1.0356
   11.745    1.0181
   11.760    0.9128
   11.775    0.9654
   11.790    1.0883
   11.805    0.9479
   11.820    1.0707
   11.835    0.8952
   11.850    0.7723
   11.865    0.8777
   11.880    1.0532
   11.895    1.0883
   11.910    0.8952
   11.925    0.9303
   11.940    1.1761
   11.955    0.9654
   11.970    0.8952
   11.985    0.9479
   12.000    1.2463
   12.015    1.0356
   12.030    1.0883
   12.045    1.0356
   12.060    1.1761
   12.075    1.0707
   12.090    0.9128
   12.105    1.0883
   12.120    1.0356
   12.135    0.9128
   12.150    1.0005
   12.165    1.1585
   12.180    1.1058
   12.195    1.0532
   12.210    1.0707
   12.225    1.0532
   12.240    1.1410
   12.255    1.0883
   12.270    1.0356
   12.285    1.0005
   12.300    1.0532
   12.315    1.0532
   12.330    1.0883
   12.345    0.9654
   12.360    1.1058
   12.375    0.8777
   12.390    1.0883
   12.405    1.0532
   12.420    1.1058
   12.435    1.2463
   12.450    1.2287
   12.465    1.0707
   12.480    1.2287
   12.495    1.1234
   12.510    1.2112
   12.525    1.0005
   12.540    0.9303
   12.555    1.1410
   12.570    1.0181
   12.585    1.1234
   12.600    1.1585
   12.615    1.1058
   12.630    1.1585
   12.645    1.0532
   12.660    1.0181
   12.675    0.8777
   12.690    0.8250
   12.705    1.0707
   12.720    1.0883
   12.735    0.8777
   12.750    0.8250
   12.765    0.8074
   12.780    1.1234
   12.795    1.1936
   12.810    0.9128
   12.825    1.1058
   12.840    1.2112
   12.855    1.0883
   12.870    0.7372
   12.885    0.8952
   12.900    1.0356
   12.915    1.0707
   12.930    0.9128
   12.945    0.8601
   12.960    1.1761
   12.975    1.0707
   12.990    1.0005
   13.005    0.9303
   13.020    0.8777
   13.035    1.1585
   13.050    0.9654
   13.065    0.9654
   13.080    1.0005
   13.095    0.8425
   13.110    1.1058
   13.125    1.2638
   13.140    1.0707
   13.155    1.0707
   13.170    1.0532
   13.185    1.1761
   13.200    1.1058
   13.215    1.0532
   13.230    1.0356
   13.245    1.0356
   13.260    0.9830
   13.275    0.9303
   13.290    1.0181
   13.305    1.0005
   13.320    1.1234
   13.335    0.9830
   13.350    1.0181
   13.365    1.0356
   13.380    1.2287
   13.395    0.9479
   13.410    0.8601
   13.425    0.9128
   13.440    1.1410
   13.455    1.1234
   13.470    1.0356
   13.485    0.9830
   13.500    0.8601
   13.515    0.8952
   13.530    0.8952
   13.545    0.9479
   13.560    0.9654
   13.575    0.8777
   13.590    1.1058
   13.605    1.1234
   13.620    0.9303
   13.635    1.0181
   13.650    0.9654
   13.665    0.9479
   13.680    0.8777
   13.695    0.8952
   13.710    1.0005
   13.725    1.0883
   13.740    1.0707
   13.755    0.9654
   13.770    0.9479
   13.785    1.1410
   13.800    0.8601
   13.815    1.1410
   13.830    0.9830
   13.845    0.9479
   13.860    0.9479
   13.875    0.8250
   13.890    1.0532
   13.905    1.0005
   13.920    1.0707
   13.935    1.0356
   13.950    0.9830
   13.965    1.1058
   13.980    0.8952
   13.995    0.8952
   14.010    0.8952
   14.025    0.9654
   14.040    1.0883
   14.055    0.9303
   14.070    1.1234
   14.085    1.0181
   14.100    0.9654
   14.115    1.0181
   14.130    1.0707
   14.145    1.0883
   14.160    0.8777
   14.175    1.0005
   14.190    1.0356
   14.205    1.0181
   14.220    1.1234
   14.235    1.0532
   14.250    1.0005
   14.265    0.9128
   14.280    0.8601
   14.295    0.8074
   14.310    0.8425
   14.325    0.9654
   14.340    0.9830
   14.355    0.8777
   14.370    0.9830
   14.385    0.8777
   14.400    1.0005
   14.415    1.0005
   14.430    0.8425
   14.445    1.1761
   14.460    0.8952
   14.475    0.9303
   14.490    1.0181
   14.505    1.0005
   14.520    0.8250
   14.535    0.8952
   14.550    1.0181
   14.565    1.0883
   14.580    1.1234
   14.595    0.9654
   14.610    0.8777
   14.625    0.9654
   14.640    1.0707
   14.655    0.8777
   14.670    0.8777
   14.685    1.0356
   14.700    1.1936
   14.715    0.9303
   14.730    0.9830
   14.745    0.8601
   14.760    0.9479
   14.775    0.8601
   14.790    0.8074
   14.805    0.9303
   14.820    1.1585
   14.835    0.9830
   14.850    0.8425
   14.865    1.0181
   14.880    0.9128
   14.895    0.9830
   14.910    0.8250
   14.925    0.9830
   14.940    0.9479
   14.955    0.9128
   14.970    0.9830
   14.985    1.0356
   15.000    1.0005
   15.015    0.8250
   15.030    1.1234
   15.045    1.1585
   15.060    0.9479
   15.075    1.1234
   15.090    1.0883
   15.105    0.8777
   15.120    0.9128
   15.135    1.0883
   15.150    0.9654
   15.165    0.8777
   15.180    0.9128
   15.195    0.8952
   15.210    0.7723
   15.225    0.9303
   15.240    0.8777
   15.255    0.9128
   15.270    0.9830
   15.285    0.9830
   15.300    0.8777
   15.315    1.0181
   15.330    0.7372
   15.345    0.7723
   15.360    0.8777
   15.375    1.1234
   15.390    1.1058
   15.405    1.0532
   15.420    0.8952
   15.435    1.1234
   15.450    0.9654
   15.465    0.8952
   15.480    0.9654
   15.495    0.8777
   15.510    0.8425
   15.525    0.7197
   15.540    0.7372
   15.555    0.8952
   15.570    1.0356
   15.585    1.0181
   15.600    1.0707
   15.615    1.0532
   15.630    0.9830
   15.645    1.0356
   15.660    0.9479
   15.675    1.0005
   15.690    0.8952
   15.705    0.8425
   15.720    0.9303
   15.735    0.9303
   15.750    1.0181
   15.765    1.0883
   15.780    1.0005
   15.795    0.9303
   15.810    0.7021
   15.825    0.8425
   15.840    0.8952
   15.855    0.8777
   15.870    0.9830
   15.885    1.0532
   15.900    1.0005
   15.915    1.0356
   15.930    0.9479
   15.945    0.8777
   15.960    0.8250
   15.975    0.8601
   15.990    0.9303
   16.005    0.9479
   16.020    0.8601
   16.035    0.7021
   16.050    1.0356
   16.065    0.9654
   16.080    0.8777
   16.095    0.7372
   16.110    0.9303
   16.125    0.9479
   16.140    1.1058
   16.155    1.0883
   16.170    1.0883
   16.185    1.0883
   16.200    0.9479
   16.215    0.9128
   16.230    1.1234
   16.245    1.0883
   16.260    0.8601
   16.275    0.9830
   16.290    1.0356
   16.305    1.0356
   16.320    0.9128
   16.335    0.8425
   16.350    0.9830
   16.365    0.7899
   16.380    0.8250
   16.395    1.0707
   16.410    1.1585
   16.425    1.0356
   16.440    0.8074
   16.455    0.8952
   16.470    0.8777
   16.485    0.7021
   16.500    0.8777
   16.515    1.2463
   16.530    0.9830
   16.545    0.9479
   16.560    0.8425
   16.575    0.9303
   16.590    0.8074
   16.605    0.9303
   16.620    0.9303
   16.635    0.9128
   16.650    0.7899
   16.665    0.8777
   16.680    1.0356
   16.695    1.0005
   16.710    0.9303
   16.725    0.9654
   16.740    0.9479
   16.755    0.9479
   16.770    0.6319
   16.785    0.8425
   16.800    0.8777
   16.815    0.7899
   16.830    0.8952
   16.845    0.9128
   16.860    0.9303
   16.875    0.9303
   16.890    1.0532
   16.905    0.9830
   16.920    1.0356
   16.935    0.8250
   16.950    0.8952
   16.965    1.1058
   16.980    0.9128
   16.995    0.9479
   17.010    1.0883
   17.025    0.7899
   17.040    0.8250
   17.055    0.6846
   17.070    0.7197
   17.085    0.7197
   17.100    1.1058
   17.115    0.9830
   17.130    1.1936
   17.145    0.9128
   17.160    0.9128
   17.175    0.8601
   17.190    1.0532
   17.205    1.0005
   17.220    1.1410
   17.235    1.0005
   17.250    0.8074
   17.265    0.8952
   17.280    1.0707
   17.295    1.0707
   17.310    0.7723
   17.325    1.0707
   17.340    1.0181
   17.355    0.8601
   17.370    1.0356
   17.385    1.0356
   17.400    0.9479
   17.415    0.9479
   17.430    1.0181
   17.445    1.0005
   17.460    0.9303
   17.475    1.0356
   17.490    1.3340
   17.505    1.2287
   17.520    0.9479
   17.535    0.8601
   17.550    0.9303
   17.565    0.9128
   17.580    0.8074
   17.595    0.7723
   17.610    0.8425
   17.625    1.0005
   17.640    0.9479
   17.655    0.9830
   17.670    0.9830
   17.685    0.9303
   17.700    0.9830
   17.715    1.0005
   17.730    0.8601
   17.745    0.8601
   17.760    1.0181
   17.775    1.0707
   17.790    0.9128
   17.805    0.8601
   17.820    0.8952
   17.835    1.0883
   17.850    1.0181
   17.865    0.7899
   17.880    1.0532
   17.895    1.2112
   17.910    1.0707
   17.925    0.9479
   17.940    0.9303
   17.955    0.8601
   17.970    1.0532
   17.985    0.9128
   18.000    1.0532
   18.015    0.8777
   18.030    0.8952
   18.045    1.0005
   18.060    1.0707
   18.075    1.0181
   18.090    0.8425
   18.105    0.9654
   18.120    0.9654
   18.135    0.8777
   18.150    1.0181
   18.165    0.8952
   18.180    0.8074
   18.195    1.0356
   18.210    0.9479
   18.225    0.8250
   18.240    1.1761
   18.255    1.1058
   18.270    1.0356
   18.285    1.0181
   18.300    1.1936
   18.315    0.9830
   18.330    0.9479
   18.345    0.8952
   18.360    0.8074
   18.375    0.8425
   18.390    0.8250
   18.405    1.0181
   18.420    1.1410
   18.435    1.0181
   18.450    0.9479
   18.465    0.9479
   18.480    1.2638
   18.495    0.9479
   18.510    0.9128
   18.525    0.9479
   18.540    1.0356
   18.555    0.9479
   18.570    1.0181
   18.585    1.0883
   18.600    0.8601
   18.615    0.8952
   18.630    0.8777
   18.645    0.9830
   18.660    1.0005
   18.675    0.9654
   18.690    0.9303
   18.705    1.0005
   18.720    0.9303
   18.735    0.8952
   18.750    0.7548
   18.765    0.9303
   18.780    0.8601
   18.795    1.0181
   18.810    1.0707
   18.825    0.9479
   18.840    0.8952
   18.855    0.8425
   18.870    1.0181
   18.885    0.9830
   18.900    0.9303
   18.915    0.7372
   18.930    0.9830
   18.945    0.9128
   18.960    0.9654
   18.975    1.0005
   18.990    0.9128
   19.005    1.0532
   19.020    1.0883
   19.035    1.1234
   19.050    1.0181
   19.065    1.0707
   19.080    0.8777
   19.095    1.0181
   19.110    0.9303
   19.125    0.8777
   19.140    1.0356
   19.155    1.0005
   19.170    0.8777
   19.185    0.8425
   19.200    1.0005
   19.215    1.0707
   19.230    1.0532
   19.245    1.2463
   19.260    1.0883
   19.275    1.0532
   19.290    1.0181
   19.305    0.9128
   19.320    1.0532
   19.335    1.0181
   19.350    1.1410
   19.365    0.8952
   19.380    1.0005
   19.395    1.0532
   19.410    0.8074
   19.425    1.0005
   19.440    1.0005
   19.455    1.1585
   19.470    1.0356
   19.485    1.1234
   19.500    1.0356
   19.515    1.0005
   19.530    1.0532
   19.545    1.1234
   19.560    0.9479
   19.575    0.9654
   19.590    1.0532
   19.605    0.9479
   19.620    1.0005
   19.635    0.8601
   19.650    0.9479
   19.665    0.9303
   19.680    1.1936
   19.695    1.0005
   19.710    1.0532
   19.725    1.0181
   19.740    1.0005
   19.755    0.9128
   19.770    1.1234
   19.785    0.9128
   19.800    0.9654
   19.815    1.0181
   19.830    0.9830
   19.845    0.8250
   19.860    0.8777
   19.875    1.0707
   19.890    1.0883
   19.905    0.9830
   19.920    0.8777
   19.935    0.9654
   19.950    1.2989
   19.965    1.1585
   19.980    1.0883
   19.995    1.2638
   20.010    0.9303
   20.025    1.0005
   20.040    0.9303
   20.055    0.9654
   20.070    1.0532
   20.085    1.0005
   20.100    1.0532
   20.115    1.1234
   20.130    1.2463
   20.145    1.1761
   20.160    1.0356
   20.175    1.0005
   20.190    0.8777
   20.205    0.8777
   20.220    0.8777
   20.235    0.8601
   20.250    0.8952
   20.265    0.8952
   20.280    0.8777
   20.295    1.0181
   20.310    1.0356
   20.325    1.0532
   20.340    1.0181
   20.355    0.9654
   20.370    1.1585
   20.385    1.0356
   20.400    1.0005
   20.415    0.9830
   20.430    0.9830
   20.445    1.2287
   20.460    1.1234
   20.475    0.9303
   20.490    0.9128
   20.505    0.8601
   20.520    1.2989
   20.535    1.0356
   20.550    0.9128
   20.565    1.0005
   20.580    0.7899
   20.595    0.8601
   20.610    0.8601
   20.625    1.0181
   20.640    1.0883
   20.655    1.1234
   20.670    1.1761
   20.685    1.0181
   20.700    1.0356
   20.715    1.1761
   20.730    1.1761
   20.745    1.1936
   20.760    1.1234
   20.775    1.0883
   20.790    0.9479
   20.805    0.9128
   20.820    1.1058
   20.835    1.0356
   20.850    1.1410
   20.865    1.2989
   20.880    1.2814
   20.895    0.8250
   20.910    1.0883
   20.925    1.1761
   20.940    1.1058
   20.955    1.0707
   20.970    0.8601
   20.985    0.9479
   21.000    1.0356
   21.015    1.1936
   21.030    1.1761
   21.045    1.0181
   21.060    0.9303
   21.075    1.2287
   21.090    0.9830
   21.105    0.9128
   21.120    1.0532
   21.135    0.9479
   21.150    1.1936
   21.165    1.1761
   21.180    1.0707
   21.195    1.0883
   21.210    1.0356
   21.225    1.0005
   21.240    0.9830
   21.255    1.0181
   21.270    1.0181
   21.285    0.9654
   21.300    0.9830
   21.315    0.9654
   21.330    1.1410
   21.345    1.0883
   21.360    1.2112
   21.375    0.9479
   21.390    0.7899
   21.405    0.9830
   21.420    1.1058
   21.435    1.0181
   21.450    1.1936
   21.465    0.9303
   21.480    1.0356
   21.495    0.9128
   21.510    0.9128
   21.525    1.0005
   21.540    0.9654
   21.555    1.0707
   21.570    0.9830
   21.585    1.0883
   21.600    0.9479
   21.615    0.9830
   21.630    0.9479
   21.645    1.0883
   21.660    1.1058
   21.675    0.9479
   21.690    1.1058
   21.705    1.2463
   21.720    1.0883
   21.735    0.9479
   21.750    1.0532
   21.765    1.0883
   21.780    1.2463
   21.795    1.1234
   21.810    1.0005
   21.825    0.9654
   21.840    1.1234
   21.855    1.0883
   21.870    1.0356
   21.885    0.9303
   21.900    0.9479
   21.915    1.0181
   21.930    1.1410
   21.945    1.0707
   21.960    1.2463
   21.975    1.1936
   21.990    0.9830
   22.005    0.9479
   22.020    1.0883
   22.035    1.0356
   22.050    1.0707
   22.065    1.0181
   22.080    1.1410
   22.095    1.1410
   22.110    1.0356
   22.125    1.2112
   22.140    1.0532
   22.155    1.1058
   22.170    1.1234
   22.185    0.9830
   22.200    0.8425
   22.215    0.9479
   22.230    0.9303
   22.245    0.8952
   22.260    1.0005
   22.275    1.1234
   22.290    0.9128
   22.305    0.9654
   22.320    1.1058
   22.335    1.1058
   22.350    1.0181
   22.365    1.0883
   22.380    1.1058
   22.395    1.1936
   22.410    1.1410
   22.425    1.0356
   22.440    0.9830
   22.455    0.8952
   22.470    1.1234
   22.485    1.0356
   22.500    1.0181
   22.515    1.2814
   22.530    0.9128
   22.545    1.1234
   22.560    1.2463
   22.575    1.2463
   22.590    1.0356
   22.605    0.8601
   22.620    0.9830
   22.635    0.9830
   22.650    1.1410
   22.665    1.1234
   22.680    1.1058
   22.695    0.9654
   22.710    1.2638
   22.725    1.0005
   22.740    1.1234
   22.755    1.3516
   22.770    1.3516
   22.785    0.9479
   22.800    0.9128
   22.815    0.9830
   22.830    0.9654
   22.845    0.9830
   22.860    0.9654
   22.875    1.0005
   22.890    1.0883
   22.905    0.9654
   22.920    1.0532
   22.935    1.0181
   22.950    0.9830
   22.965    1.1234
   22.980    1.2287
   22.995    1.1058
   23.010    0.9654
   23.025    1.0356
   23.040    0.9654
   23.055    0.9479
   23.070    1.1936
   23.085    1.1761
   23.100    1.0532
   23.115    0.9654
   23.130    0.9479
   23.145    0.6846
   23.160    0.8952
   23.175    1.0883
   23.190    1.0356
   23.205    1.2463
   23.220    1.1410
   23.235    1.1058
   23.250    0.8952
   23.265    0.9479
   23.280    1.1585
   23.295    1.0707
   23.310    1.1761
   23.325    0.9830
   23.340    0.8777
   23.355    0.9830
   23.370    0.9654
   23.385    0.8777
   23.400    0.8777
   23.415    0.9479
   23.430    1.0005
   23.445    1.0356
   23.460    1.1761
   23.475    1.1058
   23.490    1.0181
   23.505    1.1058
   23.520    1.0181
   23.535    0.8952
   23.550    1.1761
   23.565    1.1585
   23.580    0.9654
   23.595    1.0005
   23.610    1.0181
   23.625    1.1058
   23.640    1.0181
   23.655    0.9654
   23.670    1.0356
   23.685    1.0356
   23.700    0.8777
   23.715    1.0883
   23.730    1.0532
   23.745    0.8601
   23.760    0.9128
   23.775    1.0356
   23.790    1.0181
   23.805    0.8777
   23.820    0.9654
   23.835    1.2112
   23.850    1.1761
   23.865    1.0181
   23.880    0.9830
   23.895    1.0707
   23.910    0.9830
   23.925    0.9830
   23.940    0.8952
   23.955    1.1936
   23.970    1.2989
   23.985    1.0356
   24.000    1.0532
   24.015    1.0356
   24.030    0.8777
   24.045    0.8601
   24.060    0.9303
   24.075    1.0005
   24.090    1.0532
   24.105    0.8777
   24.120    1.0883
   24.135    0.8601
   24.150    0.9479
   24.165    1.0356
   24.180    1.0532
   24.195    0.9128
   24.210    1.0883
   24.225    1.1058
   24.240    0.9654
   24.255    0.8952
   24.270    0.6846
   24.285    0.8425
   24.300    0.9479
   24.315    0.9128
   24.330    0.9479
   24.345    1.1585
   24.360    1.1234
   24.375    1.0005
   24.390    0.8952
   24.405    0.9830
   24.420    1.1761
   24.435    0.9128
   24.450    0.9830
   24.465    1.1234
   24.480    1.0181
   24.495    0.9654
   24.510    0.9479
   24.525    1.0883
   24.540    1.0532
   24.555    1.1058
   24.570    1.0532
   24.585    1.0707
   24.600    1.0532
   24.615    0.9303
   24.630    0.9303
   24.645    1.1936
   24.660    0.9654
   24.675    0.9479
   24.690    0.9303
   24.705    1.0883
   24.720    1.0532
   24.735    0.8425
   24.750    1.0532
   24.765    1.1410
   24.780    1.0181
   24.795    1.0532
   24.810    0.9479
   24.825    0.8952
   24.840    1.0181
   24.855    0.9479
   24.870    0.8250
   24.885    1.0532
   24.900    1.1410
   24.915    1.0883
   24.930    0.9830
   24.945    1.0883
   24.960    1.0532
   24.975    1.0005
   24.990    0.8250
   25.005    0.7723
   25.020    0.9128
   25.035    1.0005
   25.050    0.9830
   25.065    1.0005
   25.080    0.8425
   25.095    0.8777
   25.110    1.1585
   25.125    0.8952
   25.140    0.9479
   25.155    0.8250
   25.170    0.9303
   25.185    1.0356
   25.200    1.0356
   25.215    0.8777
   25.230    0.9479
   25.245    0.8777
   25.260    1.0883
   25.275    0.9654
   25.290    0.8250
   25.305    0.7548
   25.320    0.7021
   25.335    0.7197
   25.350    0.8952
   25.365    0.8074
   25.380    0.8425
   25.395    1.1058
   25.410    0.9128
   25.425    1.0005
   25.440    0.9128
   25.455    0.7899
   25.470    1.0005
   25.485    0.9128
   25.500    0.9479
   25.515    0.9654
   25.530    0.8601
   25.545    0.8250
   25.560    1.0005
   25.575    0.8777
   25.590    0.8601
   25.605    0.8952
   25.620    0.8425
   25.635    0.9128
   25.650    1.1234
   25.665    0.9830
   25.680    0.8777
   25.695    1.0707
   25.710    1.0181
   25.725    0.9128
   25.740    1.1058
   25.755    1.0532
   25.770    1.0005
   25.785    1.0005
   25.800    0.8425
   25.815    0.7548
   25.830    0.8952
   25.845    1.0181
   25.860    0.9830
   25.875    0.8601
   25.890    0.8425
   25.905    0.9128
   25.920    0.9303
   25.935    0.7197
   25.950    0.7899
   25.965    1.0532
   25.980    0.8250
   25.995    0.9128
   26.010    0.9479
   26.025    0.8952
   26.040    1.0356
   26.055    1.0181
   26.070    0.9128
   26.085    1.0532
   26.100    1.0005
   26.115    1.0356
   26.130    0.9303
   26.145    0.8601
   26.160    0.8425
   26.175    0.9303
   26.190    0.8952
   26.205    0.8425
   26.220    0.7899
   26.235    1.0005
   26.250    0.8777
   26.265    0.9830
   26.280    1.1058
   26.295    0.8777
   26.310    0.8777
   26.325    0.8425
   26.340    0.7372
   26.355    0.9303
   26.370    0.9479
   26.385    0.8952
   26.400    0.7372
   26.415    0.8425
   26.430    1.1585
   26.445    1.0356
   26.460    0.9303
   26.475    1.0181
   26.490    1.0181
   26.505    0.8425
   26.520    0.8074
   26.535    0.9479
   26.550    0.8074
   26.565    0.8952
   26.580    0.8952
   26.595    0.7548
   26.610    0.7899
   26.625    0.8074
   26.640    0.9830
   26.655    0.9303
   26.670    1.0005
   26.685    1.0181
   26.700    0.8777
   26.715    0.9303
   26.730    0.8952
   26.745    0.8952
   26.760    0.7548
   26.775    0.8250
   26.790    1.1410
   26.805    0.9128
   26.820    1.1585
   26.835    0.9654
   26.850    0.8777
   26.865    0.9303
   26.880    0.7372
   26.895    1.1058
   26.910    0.8601
   26.925    0.8777
   26.940    0.9654
   26.955    1.1234
   26.970    0.9830
   26.985    0.8952
   27.000    0.8952
   27.015    0.8601
   27.030    0.8601
   27.045    0.8425
   27.060    0.8601
   27.075    0.9830
   27.090    1.0356
   27.105    0.8601
   27.120    1.0181
   27.135    0.8074
   27.150    1.0181
   27.165    0.8250
   27.180    0.9303
   27.195    1.0181
   27.210    0.7723
   27.225    0.7021
   27.240    0.9303
   27.255    1.0181
   27.270    0.9128
   27.285    0.8425
   27.300    0.9303
   27.315    0.9830
   27.330    0.9654
   27.345    0.8250
   27.360    0.9654
   27.375    1.0532
   27.390    1.0883
   27.405    1.0181
   27.420    0.7548
   27.435    0.8250
   27.450    0.8250
   27.465    0.9303
   27.480    0.8952
   27.495    0.7197
   27.510    0.7197
   27.525    0.9128
   27.540    0.9479
   27.555    0.8250
   27.570    0.7372
   27.585    0.7899
   27.600    0.7021
   27.615    0.8250
   27.630    0.8074
   27.645    0.9654
   27.660    1.0356
   27.675    0.9830
   27.690    0.8074
   27.705    0.8952
   27.720    0.7899
   27.735    0.8425
   27.750    0.7899
   27.765    0.8250
   27.780    0.7899
   27.795    0.9303
   27.810    0.8952
   27.825    0.8074
   27.840    0.8777
   27.855    0.8250
   27.870    0.8601
   27.885    1.0356
   27.900    0.8601
   27.915    0.7899
   27.930    0.7899
   27.945    0.6670
   27.960    0.7197
   27.975    0.8777
   27.990    0.8074
   28.005    0.8074
   28.020    1.0883
   28.035    0.9479
   28.050    1.0005
   28.065    0.8777
   28.080    0.8250
   28.095    0.8952
   28.110    0.9654
   28.125    1.0181
   28.140    0.8250
   28.155    0.8425
   28.170    0.7899
   28.185    0.8250
   28.200    0.8601
   28.215    0.7723
   28.230    1.1058
   28.245    0.9830
   28.260    0.9654
   28.275    0.9128
   28.290    0.9479
   28.305    0.9654
   28.320    0.7723
   28.335    0.8250
   28.350    0.8250
   28.365    0.9128
   28.380    0.8952
   28.395    0.8074
   28.410    0.7197
   28.425    0.8074
   28.440    0.7548
   28.455    0.9303
   28.470    0.8250
   28.485    0.8250
   28.500    0.7372
   28.515    1.0356
   28.530    0.8250
   28.545    0.8074
   28.560    0.8952
   28.575    0.8074
   28.590    0.8250
   28.605    0.7548
   28.620    0.7197
   28.635    0.6846
   28.650    0.7723
   28.665    0.8952
   28.680    0.8952
   28.695    0.9479
   28.710    0.7899
   28.725    0.8250
   28.740    0.8074
   28.755    0.7548
   28.770    0.7548
   28.785    0.7372
   28.800    0.7723
   28.815    0.6846
   28.830    0.9303
   28.845    0.8952
   28.860    0.8777
   28.875    0.9479
   28.890    0.8952
   28.905    0.8074
   28.920    1.0181
   28.935    0.9830
   28.950    0.8074
   28.965    0.6846
   28.980    0.8601
   28.995    0.9128
   29.010    0.7723
   29.025    0.6670
   29.040    1.0005
   29.055    0.8250
   29.070    0.7899
   29.085    0.7723
   29.100    0.7372
   29.115    0.8952
   29.130    0.8777
   29.145    0.9479
   29.160    0.8250
   29.175    0.8425
   29.190    0.7548
   29.205    0.8425
   29.220    0.8601
   29.235    0.8074
   29.250    0.8777
   29.265    0.8952
   29.280    0.7899
   29.295    0.8777
   29.310    0.8425
   29.325    0.6319
   29.340    0.6846
   29.355    0.7197
   29.370    0.9303
   29.385    0.8250
   29.400    0.9303
   29.415    0.9654
   29.430    0.7548
   29.445    0.9303
   29.460    0.7723
   29.475    1.0356
   29.490    0.9654
   29.505    0.9303
   29.520    0.8250
   29.535    0.9128
   29.550    0.9654
   29.565    0.9479
   29.580    0.9303
   29.595    0.7372
   29.610    0.8425
   29.625    0.8601
   29.640    0.9654
   29.655    0.8425
   29.670    0.8952
   29.685    0.7899
   29.700    1.0181
   29.715    0.8074
   29.730    0.9479
   29.745    0.7197
   29.760    0.6670
   29.775    0.8425
   29.790    0.8425
   29.805    0.8601
   29.820    0.7899
   29.835    0.6846
   29.850    0.8074
   29.865    0.9479
   29.880    0.8074
   29.895    0.7899
   29.910    0.7021
   29.925    0.7548
   29.940    0.6846
   29.955    0.7372
   29.970    0.8601
   29.985    0.7899
   30.000    0.9303
   30.015    0.8425
   30.030    0.7372
   30.045    0.7372
   30.060    0.8074
   30.075    0.7021
   30.090    0.7021
   30.105    0.8074
   30.120    0.7372
   30.135    0.8074
   30.150    0.8601
   30.165    0.7548
   30.180    0.7548
   30.195    0.7372
   30.210    0.8601
   30.225    0.9479
   30.240    0.7197
   30.255    0.7021
   30.270    0.6319
   30.285    1.0707
   30.300    0.8425
   30.315    0.7899
   30.330    0.7021
   30.345    0.8425
   30.360    0.8425
   30.375    0.8777
   30.390    1.0356
   30.405    0.8425
   30.420    0.7548
   30.435    0.9303
   30.450    0.8952
   30.465    0.7899
   30.480    0.8777
   30.495    0.7021
   30.510    0.8777
   30.525    0.7899
   30.540    0.7197
   30.555    0.8952
   30.570    0.8777
   30.585    0.8601
   30.600    0.8777
   30.615    0.7197
   30.630    0.6670
   30.645    0.7197
   30.660    0.8777
   30.675    0.8425
   30.690    0.7899
   30.705    0.5968
   30.720    0.7021
   30.735    0.8074
   30.750    0.7372
   30.765    0.7548
   30.780    0.7197
   30.795    0.8952
   30.810    0.8074
   30.825    0.7372
   30.840    0.8952
   30.855    0.7548
   30.870    0.7372
   30.885    0.9303
   30.900    0.7548
   30.915    0.7723
   30.930    0.7723
   30.945    0.8074
   30.960    0.8952
   30.975    0.7899
   30.990    0.7723
   31.005    0.7372
   31.020    0.7197
   31.035    0.7548
   31.050    0.8601
   31.065    0.6670
   31.080    0.8250
   31.095    0.9479
   31.110    0.7197
   31.125    0.6846
   31.140    0.7372
   31.155    0.8250
   31.170    0.6670
   31.185    0.6495
   31.200    0.6495
   31.215    0.8250
   31.230    0.9128
   31.245    0.7548
   31.260    0.6495
   31.275    0.6495
   31.290    0.7372
   31.305    0.8425
   31.320    0.7723
   31.335    0.7021
   31.350    0.8074
   31.365    0.8601
   31.380    0.9479
   31.395    0.9128
   31.410    0.7899
   31.425    0.7021
   31.440    0.7021
   31.455    0.7372
   31.470    0.7372
   31.485    0.6846
   31.500    0.7021
   31.515    0.7372
   31.530    0.7899
   31.545    0.7723
   31.560    0.5793
   31.575    0.5968
   31.590    0.7899
   31.605    0.7723
   31.620    0.7548
   31.635    0.7372
   31.650    0.7548
   31.665    0.7548
   31.680    0.6495
   31.695    0.7723
   31.710    0.7372
   31.725    0.5266
   31.740    0.5617
   31.755    0.8074
   31.770    0.7548
   31.785    0.7899
   31.800    0.7723
   31.815    0.6495
   31.830    0.6670
   31.845    0.7197
   31.860    0.6670
   31.875    0.6319
   31.890    0.8777
   31.905    0.9479
   31.920    0.5266
   31.935    0.6846
   31.950    0.9830
   31.965    0.6670
   31.980    0.6319
   31.995    0.7548
   32.010    0.7723
   32.025    0.8601
   32.040    0.6670
   32.055    0.8425
   32.070    0.6846
   32.085    0.7899
   32.100    0.7723
   32.115    0.5968
   32.130    0.7021
   32.145    0.8074
   32.160    0.9479
   32.175    0.7021
   32.190    0.6144
   32.205    0.5968
   32.220    0.6319
   32.235    0.6144
   32.250    0.7548
   32.265    0.8250
   32.280    0.6144
   32.295    0.6495
   32.310    0.7021
   32.325    0.7197
   32.340    0.6846
   32.355    0.6319
   32.370    0.6144
   32.385    0.5441
   32.400    0.7197
   32.415    0.8777
   32.430    0.7723
   32.445    0.8601
   32.460    0.7723
   32.475    0.7548
   32.490    0.6144
   32.505    0.7723
   32.520    0.8250
   32.535    0.7548
   32.550    0.5617
   32.565    0.7021
   32.580    0.6670
   32.595    0.7548
   32.610    0.7548
   32.625    0.8601
   32.640    0.6846
   32.655    0.7021
   32.670    0.7723
   32.685    0.7021
   32.700    0.8777
   32.715    0.6495
   32.730    0.8601
   32.745    0.6319
   32.760    0.6319
   32.775    0.8250
   32.790    0.7197
   32.805    0.9654
   32.820    0.6670
   32.835    0.6319
   32.850    0.8250
   32.865    0.6670
   32.880    0.7372
   32.895    0.9128
   32.910    0.7021
   32.925    0.6319
   32.940    0.7197
   32.955    0.9128
   32.970    0.6319
   32.985    0.7021
   33.000    0.7548
   33.015    0.7197
   33.030    0.5617
   33.045    0.7372
   33.060    0.7372
   33.075    0.6670
   33.090    0.6846
   33.105    0.6319
   33.120    0.5793
   33.135    0.7723
   33.150    0.5793
   33.165    0.8074
   33.180    0.9479
   33.195    0.9479
   33.210    0.8250
   33.225    0.7372
   33.240    0.8425
   33.255    0.7548
   33.270    0.6670
   33.285    0.8952
   33.300    0.7021
   33.315    0.6846
   33.330    0.8425
   33.345    0.7197
   33.360    0.8074
   33.375    0.7021
   33.390    0.6846
   33.405    0.6670
   33.420    0.6144
   33.435    0.7548
   33.450    0.7372
   33.465    0.8074
   33.480    0.7372
   33.495    0.7021
   33.510    0.5266
   33.525    0.5617
   33.540    0.5266
   33.555    0.5793
   33.570    0.5968
   33.585    0.5441
   33.600    0.4915
   33.615    0.5793
   33.630    0.6319
   33.645    0.6495
   33.660    0.7372
   33.675    0.6495
   33.690    0.5441
   33.705    0.7021
   33.720    0.5793
   33.735    0.7372
   33.750    0.6319
   33.765    0.7197
   33.780    0.7021
   33.795    0.6495
   33.810    0.6495
   33.825    0.6319
   33.840    0.6670
   33.855    0.8601
   33.870    0.8074
   33.885    0.6144
   33.900    0.6846
   33.915    0.6144
   33.930    0.7197
   33.945    0.5441
   33.960    0.5617
   33.975    0.7548
   33.990    0.6670
   34.005    0.6319
   34.020    0.4739
   34.035    0.5617
   34.050    0.5266
   34.065    0.6144
   34.080    0.7372
   34.095    0.6319
   34.110    0.7021
   34.125    0.6846
   34.140    0.7372
   34.155    0.5793
   34.170    0.6670
   34.185    0.6670
   34.200    0.5793
   34.215    0.7021
   34.230    0.6495
   34.245    0.7021
   34.260    0.6670
   34.275    0.6144
   34.290    0.4564
   34.305    0.4564
   34.320    0.5968
   34.335    0.7197
   34.350    0.6670
   34.365    0.6846
   34.380    0.7372
   34.395    0.7548
   34.410    0.6144
   34.425    0.7021
   34.440    0.6495
   34.455    0.5617
   34.470    0.7372
   34.485    0.7021
   34.500    0.7372
   34.515    0.6846
   34.530    0.6144
   34.545    0.7197
   34.560    0.5617
   34.575    0.6670
   34.590    0.8952
   34.605    0.7372
   34.620    0.9128
   34.635    0.7021
   34.650    0.7899
   34.665    0.6495
   34.680    0.5266
   34.695    0.6495
   34.710    0.6846
   34.725    0.7899
   34.740    0.6319
   34.755    0.6319
   34.770    0.4915
   34.785    0.5441
   34.800    0.5617
   34.815    0.5441
   34.830    0.5617
   34.845    0.7723
   34.860    0.5968
   34.875    0.5968
   34.890    0.6846
   34.905    0.7548
   34.920    0.5793
   34.935    0.6495
   34.950    0.7899
   34.965    0.5968
   34.980    0.7372
   34.995    0.5266
   35.010    0.7021
   35.025    0.7197
   35.040    0.6670
   35.055    0.4915
   35.070    0.7197
   35.085    0.6670
   35.100    0.4037
   35.115    0.6144
   35.130    0.5793
   35.145    0.6144
   35.160    0.6319
   35.175    0.7021
   35.190    0.7723
   35.205    0.6670
   35.220    0.6144
   35.235    0.6319
   35.250    0.6670
   35.265    0.7197
   35.280    0.6495
   35.295    0.6670
   35.310    0.5968
   35.325    0.5793
   35.340    0.6495
   35.355    0.6846
   35.370    0.6670
   35.385    0.7372
   35.400    0.7899
   35.415    0.5617
   35.430    0.5793
   35.445    0.6495
   35.460    0.6495
   35.475    0.6319
   35.490    0.5968
   35.505    0.6846
   35.520    0.5441
   35.535    0.6319
   35.550    0.6319
   35.565    0.6495
   35.580    0.7197
   35.595    0.6846
   35.610    0.6144
   35.625    0.7197
   35.640    0.5441
   35.655    0.7021
   35.670    0.6495
   35.685    0.5617
   35.700    0.6319
   35.715    0.5968
   35.730    0.5793
   35.745    0.5441
   35.760    0.6144
   35.775    0.5266
   35.790    0.4915
   35.805    0.6319
   35.820    0.5968
   35.835    0.5968
   35.850    0.7372
   35.865    0.6144
   35.880    0.5793
   35.895    0.6319
   35.910    0.6846
   35.925    0.5793
   35.940    0.5266
   35.955    0.5617
   35.970    0.6495
   35.985    0.5441
   36.000    0.6144
   36.015    0.5617
   36.030    0.4564
   36.045    0.3686
   36.060    0.4915
   36.075    0.6846
   36.090    0.6670
   36.105    0.5793
   36.120    0.5090
   36.135    0.6319
   36.150    0.6144
   36.165    0.5968
   36.180    0.5793
   36.195    0.4564
   36.210    0.5793
   36.225    0.6144
   36.240    0.5617
   36.255    0.5266
   36.270    0.5266
   36.285    0.7021
   36.300    0.7197
   36.315    0.5793
   36.330    0.4564
   36.345    0.5617
   36.360    0.4915
   36.375    0.5968
   36.390    0.4915
   36.405    0.4739
   36.420    0.4213
   36.435    0.5441
   36.450    0.6319
   36.465    0.4213
   36.480    0.5266
   36.495    0.5090
   36.510    0.6319
   36.525    0.5968
   36.540    0.6144
   36.555    0.6319
   36.570    0.7197
   36.585    0.5441
   36.600    0.4037
   36.615    0.4915
   36.630    0.6495
   36.645    0.5968
   36.660    0.5617
   36.675    0.6144
   36.690    0.5266
   36.705    0.5617
   36.720    0.5090
   36.735    0.5617
   36.750    0.5968
   36.765    0.5793
   36.780    0.5266
   36.795    0.6319
   36.810    0.5266
   36.825    0.6495
   36.840    0.6670
   36.855    0.4564
   36.870    0.6144
   36.885    0.6846
   36.900    0.6144
   36.915    0.4739
   36.930    0.5617
   36.945    0.6144
   36.960    0.6495
   36.975    0.5968
   36.990    0.4915
   37.005    0.4915
   37.020    0.6319
   37.035    0.5968
   37.050    0.4739
   37.065    0.4739
   37.080    0.6495
   37.095    0.5441
   37.110    0.5441
   37.125    0.5968
   37.140    0.5793
   37.155    0.5441
   37.170    0.4915
   37.185    0.5793
   37.200    0.4388
   37.215    0.6319
   37.230    0.6144
   37.245    0.5441
   37.260    0.5968
   37.275    0.5090
   37.290    0.4564
   37.305    0.5266
   37.320    0.4739
   37.335    0.7548
   37.350    0.5793
   37.365    0.4037
   37.380    0.5617
   37.395    0.4915
   37.410    0.5090
   37.425    0.4388
   37.440    0.4037
   37.455    0.4739
   37.470    0.4564
   37.485    0.3862
   37.500    0.5441
   37.515    0.5441
   37.530    0.5266
   37.545    0.5793
   37.560    0.5793
   37.575    0.6319
   37.590    0.5266
   37.605    0.5617
   37.620    0.5968
   37.635    0.4739
   37.650    0.4564
   37.665    0.5968
   37.680    0.5793
   37.695    0.5266
   37.710    0.6319
   37.725    0.7372
   37.740    0.6670
   37.755    0.4388
   37.770    0.4037
   37.785    0.4739
   37.800    0.6495
   37.815    0.5968
   37.830    0.4388
   37.845    0.4037
   37.860    0.5441
   37.875    0.5793
   37.890    0.5441
   37.905    0.6670
   37.920    0.5793
   37.935    0.4564
   37.950    0.5090
   37.965    0.6319
   37.980    0.5266
   37.995    0.4739
   38.010    0.5793
   38.025    0.4388
   38.040    0.5441
   38.055    0.4915
   38.070    0.5793
   38.085    0.5968
   38.100    0.4564
   38.115    0.4739
   38.130    0.5617
   38.145    0.5968
   38.160    0.4037
   38.175    0.5090
   38.190    0.5090
   38.205    0.5441
   38.220    0.5441
   38.235    0.4388
   38.250    0.5090
   38.265    0.4037
   38.280    0.5968
   38.295    0.4388
   38.310    0.4213
   38.325    0.6319
   38.340    0.5968
   38.355    0.7021
   38.370    0.4739
   38.385    0.5266
   38.400    0.6670
   38.415    0.5617
   38.430    0.4213
   38.445    0.5617
   38.460    0.4564
   38.475    0.5441
   38.490    0.5793
   38.505    0.5266
   38.520    0.4739
   38.535    0.3511
   38.550    0.4739
   38.565    0.6495
   38.580    0.4915
   38.595    0.4388
   38.610    0.5090
   38.625    0.4388
   38.640    0.4915
   38.655    0.4213
   38.670    0.4388
   38.685    0.5968
   38.700    0.5441
   38.715    0.6319
   38.730    0.5090
   38.745    0.5793
   38.760    0.5441
   38.775    0.5793
   38.790    0.5968
   38.805    0.5617
   38.820    0.5793
   38.835    0.5266
   38.850    0.5090
   38.865    0.5266
   38.880    0.5441
   38.895    0.6144
   38.910    0.6319
   38.925    0.4739
   38.940    0.3686
   38.955    0.5441
   38.970    0.5441
   38.985    0.5090
   39.000    0.6144
   39.015    0.5266
   39.030    0.5090
   39.045    0.4037
   39.060    0.4739
   39.075    0.4564
   39.090    0.4564
   39.105    0.4564
   39.120    0.5266
   39.135    0.5441
   39.150    0.4213
   39.165    0.4388
   39.180    0.4564
   39.195    0.4037
   39.210    0.6319
   39.225    0.6144
   39.240    0.5617
   39.255    0.5266
   39.270    0.4037
   39.285    0.4915
   39.300    0.4739
   39.315    0.4739
   39.330    0.4037
   39.345    0.6495
   39.360    0.4564
   39.375    0.5266
   39.390    0.4388
   39.405    0.3862
   39.420    0.5441
   39.435    0.3862
   39.450    0.5090
   39.465    0.5266
   39.480    0.6319
   39.495    0.4388
   39.510    0.5793
   39.525    0.4213
   39.540    0.5441
   39.555    0.6144
   39.570    0.5266
   39.585    0.5090
   39.600    0.4915
   39.615    0.5617
   39.630    0.5793
   39.645    0.6144
   39.660    0.5266
   39.675    0.4213
   39.690    0.5441
   39.705    0.5968
   39.720    0.6144
   39.735    0.4213
   39.750    0.4388
   39.765    0.5793
   39.780    0.5266
   39.795    0.5266
   39.810    0.4037
   39.825    0.4388
   39.840    0.3686
   39.855    0.4564
   39.870    0.5793
   39.885    0.4213
   39.900    0.4739
   39.915    0.5793
   39.930    0.5617
   39.945    0.4739
   39.960    0.5441
   39.975    0.4564
   39.990    0.3862
   40.005    0.4564
   40.020    0.5617
   40.035    0.3862
   40.050    0.4915
   40.065    0.5617
   40.080    0.5441
   40.095    0.5266
   40.110    0.5266
   40.125    0.6670
   40.140    0.4915
   40.155    0.4564
   40.170    0.5441
   40.185    0.5441
   40.200    0.4739
   40.215    0.5617
   40.230    0.5266
   40.245    0.5617
   40.260    0.4213
   40.275    0.5441
   40.290    0.3686
   40.305    0.5266
   40.320    0.4915
   40.335    0.4915
   40.350    0.5266
   40.365    0.5090
   40.380    0.5968
   40.395    0.4213
   40.410    0.3862
   40.425    0.3511
   40.440    0.4564
   40.455    0.4564
   40.470    0.5266
   40.485    0.7021
   40.500    0.4564
   40.515    0.4388
   40.530    0.5090
   40.545    0.5793
   40.560    0.4388
   40.575    0.3686
   40.590    0.5090
   40.605    0.5441
   40.620    0.4915
   40.635    0.5441
   40.650    0.5968
   40.665    0.6144
   40.680    0.5617
   40.695    0.5266
   40.710    0.5090
   40.725    0.6846
   40.740    0.5617
   40.755    0.5968
   40.770    0.4388
   40.785    0.5793
   40.800    0.7021
   40.815    0.6144
   40.830    0.4915
   40.845    0.4739
   40.860    0.5441
   40.875    0.4739
   40.890    0.5266
   40.905    0.4915
   40.920    0.5968
   40.935    0.5617
   40.950    0.4564
   40.965    0.6670
   40.980    0.4915
   40.995    0.5266
   41.010    0.5793
   41.025    0.6144
   41.040    0.5090
   41.055    0.6144
   41.070    0.5968
   41.085    0.4564
   41.100    0.4739
   41.115    0.5441
   41.130    0.6319
   41.145    0.5617
   41.160    0.4213
   41.175    0.3686
   41.190    0.4915
   41.205    0.5793
   41.220    0.5793
   41.235    0.3686
   41.250    0.4388
   41.265    0.5266
   41.280    0.4915
   41.295    0.4739
   41.310    0.4739
   41.325    0.3511
   41.340    0.4037
   41.355    0.5968
   41.370    0.6495
   41.385    0.5793
   41.400    0.4037
   41.415    0.4213
   41.430    0.3335
   41.445    0.4915
   41.460    0.5617
   41.475    0.5793
   41.490    0.5090
   41.505    0.4564
   41.520    0.5441
   41.535    0.5266
   41.550    0.5793
   41.565    0.5968
   41.580    0.5617
   41.595    0.4739
   41.610    0.6495
   41.625    0.4564
   41.640    0.5617
   41.655    0.6495
   41.670    0.5793
   41.685    0.4037
   41.700    0.5968
   41.715    0.6144
   41.730    0.6495
   41.745    0.5793
   41.760    0.4213
   41.775    0.4213
   41.790    0.4564
   41.805    0.4564
   41.820    0.4739
   41.835    0.4037
   41.850    0.4213
   41.865    0.5090
   41.880    0.5617
   41.895    0.6144
   41.910    0.5441
   41.925    0.5968
   41.940    0.4739
   41.955    0.4739
   41.970    0.6144
   41.985    0.6495
   42.000    0.4213
   42.015    0.4564
   42.030    0.5441
   42.045    0.4388
   42.060    0.4739
   42.075    0.4739
   42.090    0.6495
   42.105    0.4915
   42.120    0.4564
   42.135    0.6846
   42.150    0.5266
   42.165    0.4564
   42.180    0.5793
   42.195    0.6319
   42.210    0.4739
   42.225    0.5090
   42.240    0.4388
   42.255    0.4213
   42.270    0.4037
   42.285    0.4739
   42.300    0.5090
   42.315    0.5617
   42.330    0.4915
   42.345    0.4915
   42.360    0.4388
   42.375    0.4564
   42.390    0.4915
   42.405    0.5266
   42.420    0.5793
   42.435    0.5793
   42.450    0.5090
   42.465    0.4388
   42.480    0.5090
   42.495    0.4915
   42.510    0.5090
   42.525    0.4388
   42.540    0.4739
   42.555    0.6319
   42.570    0.5441
   42.585    0.5441
   42.600    0.5266
   42.615    0.4564
   42.630    0.5266
   42.645    0.5266
   42.660    0.5266
   42.675    0.5090
   42.690    0.4739
   42.705    0.6670
   42.720    0.5617
   42.735    0.4388
   42.750    0.5090
   42.765    0.6495
   42.780    0.5968
   42.795    0.6319
   42.810    0.5441
   42.825    0.5090
   42.840    0.6144
   42.855    0.5441
   42.870    0.4564
   42.885    0.5090
   42.900    0.5617
   42.915    0.5090
   42.930    0.4564
   42.945    0.5090
   42.960    0.5793
   42.975    0.5617
   42.990    0.5090
   43.005    0.5266
   43.020    0.4037
   43.035    0.5617
   43.050    0.3335
   43.065    0.4388
   43.080    0.4739
   43.095    0.5441
   43.110    0.5090
   43.125    0.5090
   43.140    0.3862
   43.155    0.4037
   43.170    0.5266
   43.185    0.4388
   43.200    0.4037
   43.215    0.5617
   43.230    0.4739
   43.245    0.4739
   43.260    0.4388
   43.275    0.5266
   43.290    0.4739
   43.305    0.4564
   43.320    0.3686
   43.335    0.5793
   43.350    0.4915
   43.365    0.4915
   43.380    0.5441
   43.395    0.5266
   43.410    0.6144
   43.425    0.4739
   43.440    0.5441
   43.455    0.6846
   43.470    0.4564
   43.485    0.3511
   43.500    0.4915
   43.515    0.3686
   43.530    0.3686
   43.545    0.4564
   43.560    0.4037
   43.575    0.4915
   43.590    0.5266
   43.605    0.4213
   43.620    0.4739
   43.635    0.5793
   43.650    0.4037
   43.665    0.2984
   43.680    0.3335
   43.695    0.4213
   43.710    0.4213
   43.725    0.4564
   43.740    0.4739
   43.755    0.6846
   43.770    0.5441
   43.785    0.5266
   43.800    0.5617
   43.815    0.4388
   43.830    0.4388
   43.845    0.5793
   43.860    0.5793
   43.875    0.4915
   43.890    0.5968
   43.905    0.5266
   43.920    0.4213
   43.935    0.4564
   43.950    0.5968
   43.965    0.6319
   43.980    0.4915
   43.995    0.4739
   44.010    0.6144
   44.025    0.5441
   44.040    0.3686
   44.055    0.4915
   44.070    0.4564
   44.085    0.3686
   44.100    0.3686
   44.115    0.4388
   44.130    0.4739
   44.145    0.4564
   44.160    0.6319
   44.175    0.4564
   44.190    0.5793
   44.205    0.6319
   44.220    0.4739
   44.235    0.3335
   44.250    0.4915
   44.265    0.5617
   44.280    0.3511
   44.295    0.4739
   44.310    0.4388
   44.325    0.4915
   44.340    0.5266
   44.355    0.4915
   44.370    0.3862
   44.385    0.4739
   44.400    0.4388
   44.415    0.4564
   44.430    0.5968
   44.445    0.4915
   44.460    0.4388
   44.475    0.5617
   44.490    0.6319
   44.505    0.5793
   44.520    0.4564
   44.535    0.4388
   44.550    0.3335
   44.565    0.3862
   44.580    0.4213
   44.595    0.5617
   44.610    0.5441
   44.625    0.5617
   44.640    0.5090
   44.655    0.3862
   44.670    0.5441
   44.685    0.5090
   44.700    0.5090
   44.715    0.4739
   44.730    0.4564
   44.745    0.4739
   44.760    0.4739
   44.775    0.5968
   44.790    0.4213
   44.805    0.2984
   44.820    0.3686
   44.835    0.4037
   44.850    0.4213
   44.865    0.4915
   44.880    0.5617
   44.895    0.5266
   44.910    0.4564
   44.925    0.4037
   44.940    0.3686
   44.955    0.4388
   44.970    0.4564
   44.985    0.5617
   45.000    0.3862
   45.015    0.3862
   45.030    0.5266
   45.045    0.4213
   45.060    0.4915
   45.075    0.5441
   45.090    0.5266
   45.105    0.5266
   45.120    0.4564
   45.135    0.5266
   45.150    0.4213
   45.165    0.2984
   45.180    0.5090
   45.195    0.5090
   45.210    0.4388
   45.225    0.5617
   45.240    0.5266
   45.255    0.4037
   45.270    0.5793
   45.285    0.5617
   45.300    0.5090
   45.315    0.5441
   45.330    0.5266
   45.345    0.5090
   45.360    0.4388
   45.375    0.4388
   45.390    0.4213
   45.405    0.5266
   45.420    0.5617
   45.435    0.5441
   45.450    0.5968
   45.465    0.5090
   45.480    0.5266
   45.495    0.4739
   45.510    0.5266
   45.525    0.5266
   45.540    0.5090
   45.555    0.3686
   45.570    0.4915
   45.585    0.3335
   45.600    0.3686
   45.615    0.5441
   45.630    0.5090
   45.645    0.4388
   45.660    0.4213
   45.675    0.5441
   45.690    0.5441
   45.705    0.5793
   45.720    0.5441
   45.735    0.4037
   45.750    0.5090
   45.765    0.4037
   45.780    0.3686
   45.795    0.4915
   45.810    0.3862
   45.825    0.3160
   45.840    0.3862
   45.855    0.4388
   45.870    0.5441
   45.885    0.4564
   45.900    0.5090
   45.915    0.3335
   45.930    0.3511
   45.945    0.4388
   45.960    0.4213
   45.975    0.4915
   45.990    0.5090
   46.005    0.3686
   46.020    0.3511
   46.035    0.3686
   46.050    0.4213
   46.065    0.5090
   46.080    0.5793
   46.095    0.4739
   46.110    0.4388
   46.125    0.4388
   46.140    0.4915
   46.155    0.3862
   46.170    0.5090
   46.185    0.5441
   46.200    0.4213
   46.215    0.4564
   46.230    0.3686
   46.245    0.3862
   46.260    0.4213
   46.275    0.3511
   46.290    0.4739
   46.305    0.5090
   46.320    0.4564
   46.335    0.4564
   46.350    0.5266
   46.365    0.4388
   46.380    0.4915
   46.395    0.4564
   46.410    0.3511
   46.425    0.4739
   46.440    0.4739
   46.455    0.5793
   46.470    0.4037
   46.485    0.4388
   46.500    0.4388
   46.515    0.5266
   46.530    0.5968
   46.545    0.5617
   46.560    0.4213
   46.575    0.3686
   46.590    0.4037
   46.605    0.4037
   46.620    0.4388
   46.635    0.5793
   46.650    0.5266
   46.665    0.4739
   46.680    0.3686
   46.695    0.5266
   46.710    0.5090
   46.725    0.4564
   46.740    0.4388
   46.755    0.5266
   46.770    0.5090
   46.785    0.3686
   46.800    0.4388
   46.815    0.4739
   46.830    0.4564
   46.845    0.4388
   46.860    0.4388
   46.875    0.4213
   46.890    0.4213
   46.905    0.3686
   46.920    0.4213
   46.935    0.2984
   46.950    0.5266
   46.965    0.4564
   46.980    0.3862
   46.995    0.5441
   47.010    0.4739
   47.025    0.4564
   47.040    0.5090
   47.055    0.5793
   47.070    0.5441
   47.085    0.5090
   47.100    0.5090
   47.115    0.4388
   47.130    0.3862
   47.145    0.5793
   47.160    0.4564
   47.175    0.3335
   47.190    0.3511
   47.205    0.4037
   47.220    0.4037
   47.235    0.4739
   47.250    0.5266
   47.265    0.4564
   47.280    0.4388
   47.295    0.5090
   47.310    0.4388
   47.325    0.4739
   47.340    0.4213
   47.355    0.4213
   47.370    0.4915
   47.385    0.3335
   47.400    0.3862
   47.415    0.5090
   47.430    0.4037
   47.445    0.3686
   47.460    0.4564
   47.475    0.4915
   47.490    0.4037
   47.505    0.4564
   47.520    0.3862
   47.535    0.4915
   47.550    0.5090
   47.565    0.5266
   47.580    0.4213
   47.595    0.5266
   47.610    0.4388
   47.625    0.2808
   47.640    0.3511
   47.655    0.4213
   47.670    0.3686
   47.685    0.3686
   47.700    0.4915
   47.715    0.5266
   47.730    0.5090
   47.745    0.4739
   47.760    0.5793
   47.775    0.3686
   47.790    0.4564
   47.805    0.5090
   47.820    0.5090
   47.835    0.5617
   47.850    0.4915
   47.865    0.3335
   47.880    0.4739
   47.895    0.4739
   47.910    0.4388
   47.925    0.4037
   47.940    0.4739
   47.955    0.4037
   47.970    0.4564
   47.985    0.4564
   48.000    0.5090
   48.015    0.4037
   48.030    0.3686
   48.045    0.4037
   48.060    0.4388
   48.075    0.3862
   48.090    0.4037
   48.105    0.3862
   48.120    0.3686
   48.135    0.4915
   48.150    0.5793
   48.165    0.5266
   48.180    0.5441
   48.195    0.5266
   48.210    0.4564
   48.225    0.4739
   48.240    0.3686
   48.255    0.2633
   48.270    0.4213
   48.285    0.3862
   48.300    0.3160
   48.315    0.3511
   48.330    0.4739
   48.345    0.4739
   48.360    0.4915
   48.375    0.3862
   48.390    0.4388
   48.405    0.5090
   48.420    0.4739
   48.435    0.2808
   48.450    0.2984
   48.465    0.3862
   48.480    0.5266
   48.495    0.5793
   48.510    0.3511
   48.525    0.3335
   48.540    0.4564
   48.555    0.5441
   48.570    0.4915
   48.585    0.5090
   48.600    0.4388
   48.615    0.4388
   48.630    0.4388
   48.645    0.4564
   48.660    0.3862
   48.675    0.3335
   48.690    0.4739
   48.705    0.4915
   48.720    0.4915
   48.735    0.4037
   48.750    0.4037
   48.765    0.4213
   48.780    0.4388
   48.795    0.4213
   48.810    0.3862
   48.825    0.3335
   48.840    0.4213
   48.855    0.4564
   48.870    0.4213
   48.885    0.4388
   48.900    0.3686
   48.915    0.3160
   48.930    0.3862
   48.945    0.4213
   48.960    0.4915
   48.975    0.4915
   48.990    0.4739
   49.005    0.3686
   49.020    0.3160
   49.035    0.5793
   49.050    0.4739
   49.065    0.5090
   49.080    0.4564
   49.095    0.3686
   49.110    0.4037
   49.125    0.3335
   49.140    0.4213
   49.155    0.6319
   49.170    0.5090
   49.185    0.4388
   49.200    0.4564
   49.215    0.5617
   49.230    0.4739
   49.245    0.4037
   49.260    0.4213
   49.275    0.3335
   49.290    0.4564
   49.305    0.4388
   49.320    0.4388
   49.335    0.3511
   49.350    0.4037
   49.365    0.4739
   49.380    0.5968
   49.395    0.4037
   49.410    0.4037
   49.425    0.4213
   49.440    0.5617
   49.455    0.3511
   49.470    0.3862
   49.485    0.4213
   49.500    0.4388
   49.515    0.4037
   49.530    0.3335
   49.545    0.4388
   49.560    0.4037
   49.575    0.2808
   49.590    0.4564
   49.605    0.3862
   49.620    0.3335
   49.635    0.4739
   49.650    0.4739
   49.665    0.4037
   49.680    0.4213
   49.695    0.4915
   49.710    0.3862
   49.725    0.4213
   49.740    0.4388
   49.755    0.3686
   49.770    0.4915
   49.785    0.4915
   49.800    0.4037
   49.815    0.3511
   49.830    0.3862
   49.845    0.6319
   49.860    0.5793
   49.875    0.5266
   49.890    0.3862
   49.905    0.4564
   49.920    0.3862
   49.935    0.5090
   49.950    0.4915
   49.965    0.3511
   49.980    0.3511
