    1.500   18.8871
    1.515   18.9749
    1.530   18.7994
    1.545   17.4829
    1.560   18.2552
    1.575   18.2201
    1.590   17.0616
    1.605   18.0270
    1.620   17.7988
    1.635   17.3249
    1.650   16.7281
    1.665   16.4648
    1.680   16.4999
    1.695   16.0260
    1.710   16.4473
    1.725   16.2542
    1.740   15.3414
    1.755   15.5696
    1.770   15.3063
    1.785   15.7978
    1.800   15.4643
    1.815   15.0957
    1.830   14.2356
    1.845   14.1654
    1.860   14.4286
    1.875   13.9372
    1.890   13.8318
    1.905   13.5510
    1.920   13.4632
    1.935   13.4632
    1.950   14.4989
    1.965   14.0074
    1.980   13.5685
    1.995   13.3404
    2.010   13.6563
    2.025   13.5159
    2.040   12.9366
    2.055   13.1122
    2.070   13.5510
    2.085   13.5334
    2.100   12.6031
    2.115   12.9366
    2.130   12.9366
    2.145   13.1122
    2.160   12.9893
    2.175   13.1473
    2.190   12.9366
    2.205   12.4276
    2.220   12.8489
    2.235   13.0595
    2.250   12.9015
    2.265   12.4276
    2.280   12.0239
    2.295   12.4100
    2.310   12.3398
    2.325   11.7255
    2.340   12.1643
    2.355   12.1116
    2.370   12.6031
    2.385   13.3579
    2.400   12.6909
    2.415   12.7611
    2.430   12.7084
    2.445   12.8313
    2.460   13.4632
    2.475   13.8318
    2.490   13.1824
    2.505   12.6909
    2.520   13.5334
    2.535   13.9372
    2.550   14.0951
    2.565   14.1302
    2.580   14.0776
    2.595   14.1302
    2.610   14.6393
    2.625   14.3058
    2.640   14.9201
    2.655   15.6223
    2.670   15.7276
    2.685   16.4824
    2.700   15.4467
    2.715   16.2893
    2.730   16.5877
    2.745   17.8515
    2.760   17.7111
    2.775   18.6940
    2.790   19.7648
    2.805   19.0627
    2.820   19.6419
    2.835   20.4494
    2.850   21.8361
    2.865   22.5031
    2.880   23.1701
    2.895   23.2227
    2.910   23.9775
    2.925   25.6977
    2.940   26.7509
    2.955   27.7339
    2.970   29.8754
    2.985   32.0344
    3.000   32.5610
    3.015   34.6323
    3.030   37.0721
    3.045   39.4067
    3.060   42.6540
    3.075   45.6732
    3.090   49.9737
    3.105   55.2923
    3.120   57.2055
    3.135   60.6460
    3.150   61.6289
    3.165   62.5943
    3.180   61.6465
    3.195   56.7492
    3.210   51.7465
    3.225   45.3748
    3.240   39.0732
    3.255   33.1051
    3.270   28.8397
    3.285   25.0132
    3.300   23.7844
    3.315   23.0648
    3.330   22.1169
    3.345   21.8887
    3.360   21.1164
    3.375   21.4323
    3.390   22.3451
    3.405   22.6962
    3.420   23.5036
    3.435   23.5563
    3.450   23.1525
    3.465   24.2057
    3.480   25.4871
    3.495   26.6105
    3.510   27.3126
    3.525   28.0147
    3.540   29.4365
    3.555   31.8589
    3.570   33.0174
    3.585   34.9482
    3.600   36.8966
    3.615   38.6695
    3.630   41.7764
    3.645   42.3556
    3.660   45.0588
    3.675   49.1487
    3.690   51.1673
    3.705   55.6609
    3.720   60.5582
    3.735   68.0007
    3.750   79.1996
    3.765   86.2033
    3.780   80.6214
    3.795   72.3363
    3.810   62.6470
    3.825   48.7450
    3.840   33.6142
    3.855   26.9967
    3.870   23.8020
    3.885   21.3972
    3.900   20.2914
    3.915   18.9749
    3.930   18.5361
    3.945   16.9387
    3.960   16.1664
    3.975   15.4643
    3.990   14.3935
    4.005   13.3404
    4.020   12.8313
    4.035   12.1116
    4.050   12.2521
    4.065   11.4095
    4.080   11.1638
    4.095   11.4271
    4.110   10.6372
    4.125   10.0053
    4.140    9.5489
    4.155    9.5313
    4.170    9.4260
    4.185   10.1983
    4.200    9.9702
    4.215    9.8473
    4.230    9.4962
    4.245    9.3734
    4.260    9.5664
    4.275    9.2856
    4.290    9.1101
    4.305    9.3207
    4.320    9.0574
    4.335    8.8292
    4.350    8.3377
    4.365    8.7590
    4.380    8.9872
    4.395    9.1452
    4.410    8.8292
    4.425    9.0574
    4.440    9.5840
    4.455    9.5138
    4.470    8.7941
    4.485    8.5659
    4.500    9.5489
    4.515    8.9872
    4.530    9.0574
    4.545    8.8292
    4.560    8.1271
    4.575    8.6186
    4.590    8.7590
    4.605    8.2500
    4.620    9.4260
    4.635    9.0047
    4.650    8.4255
    4.665    8.8292
    4.680    9.1978
    4.695    9.6367
    4.710    9.2154
    4.725    8.7063
    4.740    8.6888
    4.755    8.7941
    4.770    8.9345
    4.785    9.0223
    4.800    8.5835
    4.815    8.8117
    4.830    8.8292
    4.845    9.3207
    4.860    8.7590
    4.875    9.1978
    4.890    9.3382
    4.905    9.1803
    4.920    9.0925
    4.935    9.4611
    4.950    9.5664
    4.965    9.1452
    4.980    9.3031
    4.995    9.9702
    5.010    9.7244
    5.025    9.8999
    5.040    9.8999
    5.055   10.4968
    5.070    9.6015
    5.085   10.3212
    5.100   10.8829
    5.115   10.8654
    5.130   10.6723
    5.145   11.0760
    5.160   10.9005
    5.175   12.1994
    5.190   11.8132
    5.205   12.4978
    5.220   12.8489
    5.235   12.2872
    5.250   13.4457
    5.265   14.0425
    5.280   14.8675
    5.295   16.5877
    5.310   16.9914
    5.325   18.2728
    5.340   20.4143
    5.355   22.6084
    5.370   22.4504
    5.385   20.8706
    5.400   18.0095
    5.415   15.1834
    5.430   12.8313
    5.445   10.8478
    5.460   10.6372
    5.475   10.4265
    5.490   11.0233
    5.505   10.6723
    5.520   10.3212
    5.535   10.7249
    5.550   10.9356
    5.565   10.4265
    5.580   10.7074
    5.595    9.9351
    5.610   10.4968
    5.625   10.3739
    5.640   10.4265
    5.655   10.3037
    5.670   10.2159
    5.685   10.4616
    5.700   10.1632
    5.715   10.1632
    5.730    9.6718
    5.745    9.7244
    5.760   10.3739
    5.775    9.9351
    5.790    9.1627
    5.805    9.4085
    5.820    8.8819
    5.835    9.0223
    5.850    9.8824
    5.865    9.8473
    5.880    8.5308
    5.895    8.8994
    5.910    9.1101
    5.925    9.0925
    5.940    8.8994
    5.955    8.5484
    5.970    8.3904
    5.985    9.1452
    6.000    9.2856
    6.015    8.8819
    6.030    9.3207
    6.045    9.1276
    6.060    8.7414
    6.075    8.3202
    6.090    8.5133
    6.105    9.1803
    6.120    9.0223
    6.135    8.8292
    6.150    8.7414
    6.165    9.0925
    6.180    9.0398
    6.195    9.4962
    6.210    9.8122
    6.225   10.1808
    6.240   10.5143
    6.255   10.7952
    6.270   11.0936
    6.285   11.5148
    6.300   12.1994
    6.315   12.9542
    6.330   13.5510
    6.345   13.9547
    6.360   14.5866
    6.375   14.9552
    6.390   15.2010
    6.405   14.4462
    6.420   14.1302
    6.435   13.6212
    6.450   13.3930
    6.465   12.4627
    6.480   11.3042
    6.495   11.1287
    6.510   11.3393
    6.525   11.3744
    6.540   11.4973
    6.555   11.7079
    6.570   13.0595
    6.585   12.3398
    6.600   11.5850
    6.615   11.4622
    6.630    9.4787
    6.645    9.3207
    6.660    8.7414
    6.675    7.4601
    6.690    7.7936
    6.705    8.1973
    6.720    7.7936
    6.735    7.6356
    6.750    7.5478
    6.765    7.6707
    6.780    7.4250
    6.795    7.0037
    6.810    7.3021
    6.825    7.2143
    6.840    7.5303
    6.855    7.8638
    6.870    7.3021
    6.885    7.3723
    6.900    7.0915
    6.915    7.6883
    6.930    7.4776
    6.945    7.2319
    6.960    7.2319
    6.975    7.4074
    6.990    7.2143
    7.005    6.9861
    7.020    7.3372
    7.035    7.6707
    7.050    7.6005
    7.065    7.0037
    7.080    7.8462
    7.095    7.8462
    7.110    7.3547
    7.125    7.1968
    7.140    7.6356
    7.155    8.0393
    7.170    7.7585
    7.185    7.2494
    7.200    7.5478
    7.215    7.3723
    7.230    6.9159
    7.245    7.2494
    7.260    7.7760
    7.275    8.0393
    7.290    8.1797
    7.305    8.3202
    7.320    7.8462
    7.335    7.8111
    7.350    7.6707
    7.365    8.0218
    7.380    8.2851
    7.395    8.2851
    7.410    8.0920
    7.425    7.9867
    7.440    7.7409
    7.455    8.7765
    7.470    8.5308
    7.485    8.4957
    7.500    8.9521
    7.515    8.7239
    7.530    9.3031
    7.545    9.0398
    7.560    8.8292
    7.575    9.2505
    7.590   10.2686
    7.605   10.7776
    7.620   10.3212
    7.635    9.3382
    7.650    9.3558
    7.665    8.4957
    7.680    8.7414
    7.695    8.3553
    7.710    7.9691
    7.725    7.3196
    7.740    8.0920
    7.755    7.7234
    7.770    7.7058
    7.785    7.2494
    7.800    6.8808
    7.815    7.1266
    7.830    6.9861
    7.845    7.0739
    7.860    6.7228
    7.875    6.7228
    7.890    7.0388
    7.905    6.9861
    7.920    6.3016
    7.935    6.6877
    7.950    7.0388
    7.965    7.1441
    7.980    6.7930
    7.995    6.6175
    8.010    6.5122
    8.025    6.4946
    8.040    6.4244
    8.055    6.5824
    8.070    6.4771
    8.085    6.4244
    8.100    6.2665
    8.115    6.0909
    8.130    5.4941
    8.145    5.6872
    8.160    6.2840
    8.175    5.7750
    8.190    5.7925
    8.205    6.0909
    8.220    5.9329
    8.235    5.8803
    8.250    5.9154
    8.265    5.6170
    8.280    5.4766
    8.295    5.8101
    8.310    5.9681
    8.325    5.2308
    8.340    5.5117
    8.355    6.1260
    8.370    6.0558
    8.385    5.7574
    8.400    5.1782
    8.415    6.0909
    8.430    6.1787
    8.445    6.3016
    8.460    6.1436
    8.475    6.5824
    8.490    7.1617
    8.505    7.2670
    8.520    7.1090
    8.535    7.1792
    8.550    7.1266
    8.565    6.4595
    8.580    6.1436
    8.595    6.0558
    8.610    5.6345
    8.625    5.2133
    8.640    5.6521
    8.655    5.6872
    8.670    5.8101
    8.685    5.6872
    8.700    5.6170
    8.715    5.8101
    8.730    5.7750
    8.745    5.3010
    8.760    5.7223
    8.775    5.3186
    8.790    5.1431
    8.805    5.6170
    8.820    5.4941
    8.835    5.2308
    8.850    5.5292
    8.865    5.5643
    8.880    5.5643
    8.895    5.6345
    8.910    5.6521
    8.925    5.8101
    8.940    5.5117
    8.955    5.3361
    8.970    5.5468
    8.985    4.8973
    9.000    5.2835
    9.015    5.4766
    9.030    5.6170
    9.045    5.1957
    9.060    5.5819
    9.075    5.2484
    9.090    5.7750
    9.105    5.4590
    9.120    5.1431
    9.135    5.1782
    9.150    5.7750
    9.165    5.7048
    9.180    5.4064
    9.195    5.5468
    9.210    5.6697
    9.225    5.6872
    9.240    6.1611
    9.255    6.0558
    9.270    6.1260
    9.285    6.8282
    9.300    6.9159
    9.315    7.8287
    9.330    8.0393
    9.345    8.6186
    9.360    8.3728
    9.375    7.1266
    9.390    6.2665
    9.405    5.8452
    9.420    5.3361
    9.435    4.9500
    9.450    4.9324
    9.465    5.7223
    9.480    5.2133
    9.495    5.2659
    9.510    5.4590
    9.525    5.3010
    9.540    5.4415
    9.555    5.5117
    9.570    5.9154
    9.585    5.6345
    9.600    5.2835
    9.615    5.1606
    9.630    5.5468
    9.645    5.7223
    9.660    5.3888
    9.675    5.1957
    9.690    5.3537
    9.705    5.6521
    9.720    5.5819
    9.735    5.4941
    9.750    5.6697
    9.765    5.7223
    9.780    5.7223
    9.795    5.4239
    9.810    5.7399
    9.825    5.5994
    9.840    5.2835
    9.855    5.6345
    9.870    5.7048
    9.885    5.5819
    9.900    5.8276
    9.915    5.8627
    9.930    5.8276
    9.945    6.1436
    9.960    5.9856
    9.975    5.9329
    9.990    5.9505
   10.005    6.9159
   10.020    6.8106
   10.035    7.5127
   10.050    7.5654
   10.065    8.3904
   10.080    8.7941
   10.095    9.2329
   10.110    9.2329
   10.125    8.4781
   10.140    6.9510
   10.155    6.4069
   10.170    6.0558
   10.185    5.5117
   10.200    5.4415
   10.215    5.5292
   10.230    5.7048
   10.245    5.3010
   10.260    5.4415
   10.275    5.6345
   10.290    5.8627
   10.305    5.8101
   10.320    5.4941
   10.335    5.1957
   10.350    5.5994
   10.365    5.5994
   10.380    5.8101
   10.395    6.0207
   10.410    5.8803
   10.425    5.8276
   10.440    5.8803
   10.455    5.4766
   10.470    5.7574
   10.485    5.8276
   10.500    5.5643
   10.515    5.4415
   10.530    5.5819
   10.545    5.4941
   10.560    6.0558
   10.575    6.0383
   10.590    5.3010
   10.605    5.6345
   10.620    5.2835
   10.635    5.5819
   10.650    5.7223
   10.665    6.1260
   10.680    6.2489
   10.695    5.8627
   10.710    6.5824
   10.725    6.6000
   10.740    7.1792
   10.755    6.8282
   10.770    7.8638
   10.785    7.7409
   10.800    7.6005
   10.815    7.5654
   10.830    7.1090
   10.845    6.4946
   10.860    6.0383
   10.875    5.9154
   10.890    5.7925
   10.905    5.7574
   10.920    5.7925
   10.935    5.8803
   10.950    5.7048
   10.965    5.7750
   10.980    5.6697
   10.995    5.7048
   11.010    5.9329
   11.025    5.4941
   11.040    5.7750
   11.055    5.1255
   11.070    5.5292
   11.085    5.7223
   11.100    5.3186
   11.115    5.8627
   11.130    5.4941
   11.145    5.5643
   11.160    5.5994
   11.175    5.9681
   11.190    5.6697
   11.205    5.4766
   11.220    6.2138
   11.235    5.8101
   11.250    5.5994
   11.265    5.8627
   11.280    5.9505
   11.295    5.8452
   11.310    5.5292
   11.325    5.7048
   11.340    6.3542
   11.355    6.1260
   11.370    6.1787
   11.385    6.2138
   11.400    5.8276
   11.415    5.9154
   11.430    6.4595
   11.445    6.4946
   11.460    6.8633
   11.475    6.1260
   11.490    6.0734
   11.505    5.8101
   11.520    5.9329
   11.535    5.7399
   11.550    6.1260
   11.565    6.0909
   11.580    5.5468
   11.595    5.0904
   11.610    5.4415
   11.625    5.3712
   11.640    5.1782
   11.655    5.5468
   11.670    5.5117
   11.685    5.3010
   11.700    5.4239
   11.715    5.7048
   11.730    5.6697
   11.745    5.4590
   11.760    5.6345
   11.775    5.3186
   11.790    5.2133
   11.805    5.3537
   11.820    5.4590
   11.835    5.3361
   11.850    5.6521
   11.865    5.5819
   11.880    5.2133
   11.895    5.2835
   11.910    5.5292
   11.925    5.8452
   11.940    5.2835
   11.955    5.4766
   11.970    5.6521
   11.985    5.5292
   12.000    6.1436
   12.015    5.9681
   12.030    5.6872
   12.045    5.8276
   12.060    6.1436
   12.075    6.0734
   12.090    5.7574
   12.105    6.1611
   12.120    6.1260
   12.135    5.6697
   12.150    5.5292
   12.165    5.1431
   12.180    5.3186
   12.195    5.3888
   12.210    5.4415
   12.225    5.4941
   12.240    5.4064
   12.255    4.7920
   12.270    5.7574
   12.285    6.0032
   12.300    5.2835
   12.315    5.0202
   12.330    5.1957
   12.345    5.5117
   12.360    5.4239
   12.375    5.5117
   12.390    5.5117
   12.405    5.1957
   12.420    5.5643
   12.435    5.6521
   12.450    5.7223
   12.465    5.4239
   12.480    5.7048
   12.495    5.3186
   12.510    5.4064
   12.525    6.0558
   12.540    5.6872
   12.555    5.2659
   12.570    5.1606
   12.585    5.7223
   12.600    5.5292
   12.615    5.6872
   12.630    6.1260
   12.645    6.2840
   12.660    6.4595
   12.675    6.7053
   12.690    6.5473
   12.705    5.9154
   12.720    6.0909
   12.735    5.4941
   12.750    5.4590
   12.765    5.2835
   12.780    5.3361
   12.795    5.3361
   12.810    4.9149
   12.825    5.4064
   12.840    5.5819
   12.855    5.2484
   12.870    5.1782
   12.885    5.0202
   12.900    5.3186
   12.915    5.6872
   12.930    5.3712
   12.945    5.5292
   12.960    5.0553
   12.975    5.3010
   12.990    5.8452
   13.005    5.7223
   13.020    4.9851
   13.035    4.9851
   13.050    5.3010
   13.065    5.5292
   13.080    5.6170
   13.095    5.3712
   13.110    5.0904
   13.125    5.4590
   13.140    5.6521
   13.155    5.3537
   13.170    5.1080
   13.185    5.8276
   13.200    5.4766
   13.215    5.2308
   13.230    5.5468
   13.245    5.9154
   13.260    5.5994
   13.275    5.0904
   13.290    4.9675
   13.305    5.2659
   13.320    5.0904
   13.335    5.1255
   13.350    5.2659
   13.365    5.4766
   13.380    5.7399
   13.395    4.8798
   13.410    4.9500
   13.425    5.3186
   13.440    5.5994
   13.455    5.1080
   13.470    5.0728
   13.485    5.3888
   13.500    5.5643
   13.515    5.2484
   13.530    5.4590
   13.545    5.3712
   13.560    4.9500
   13.575    5.1255
   13.590    5.3888
   13.605    5.3186
   13.620    5.3712
   13.635    5.1606
   13.650    5.3186
   13.665    5.1606
   13.680    5.2835
   13.695    5.7223
   13.710    5.3888
   13.725    5.8803
   13.740    6.2840
   13.755    6.2313
   13.770    6.9159
   13.785    7.5654
   13.800    7.7058
   13.815    7.0563
   13.830    7.3372
   13.845    6.8282
   13.860    6.3893
   13.875    5.8803
   13.890    5.4239
   13.905    5.4415
   13.920    5.4239
   13.935    5.1431
   13.950    5.5468
   13.965    5.8101
   13.980    5.6345
   13.995    5.5468
   14.010    5.5117
   14.025    5.7750
   14.040    5.1255
   14.055    5.3010
   14.070    5.2835
   14.085    5.6170
   14.100    5.2835
   14.115    5.9154
   14.130    5.3888
   14.145    5.2659
   14.160    5.4766
   14.175    5.9329
   14.190    5.8978
   14.205    5.3712
   14.220    5.5468
   14.235    5.5643
   14.250    5.3888
   14.265    5.3712
   14.280    5.3888
   14.295    6.3016
   14.310    5.8978
   14.325    5.2484
   14.340    5.9681
   14.355    5.9505
   14.370    5.7223
   14.385    5.6872
   14.400    5.6872
   14.415    5.7048
   14.430    5.9681
   14.445    6.3718
   14.460    6.2313
   14.475    5.7925
   14.490    5.4064
   14.505    5.7223
   14.520    5.8978
   14.535    5.6872
   14.550    5.2835
   14.565    5.5819
   14.580    5.7750
   14.595    5.8101
   14.610    5.4941
   14.625    5.8803
   14.640    5.6697
   14.655    5.7223
   14.670    5.4415
   14.685    5.7574
   14.700    5.5117
   14.715    5.5117
   14.730    5.5994
   14.745    5.6521
   14.760    5.8101
   14.775    5.7574
   14.790    6.0032
   14.805    6.2313
   14.820    6.0734
   14.835    6.3893
   14.850    6.2313
   14.865    5.5643
   14.880    5.6170
   14.895    6.0207
   14.910    5.5819
   14.925    5.1255
   14.940    5.2484
   14.955    5.0728
   14.970    5.3361
   14.985    5.3712
   15.000    4.9149
   15.015    5.6170
   15.030    5.8276
   15.045    5.5117
   15.060    5.4064
   15.075    5.4590
   15.090    5.3010
   15.105    5.1255
   15.120    5.4239
   15.135    5.4064
   15.150    5.1431
   15.165    5.4766
   15.180    5.4590
   15.195    5.2133
   15.210    5.2484
   15.225    4.7569
   15.240    4.7920
   15.255    5.0553
   15.270    5.2659
   15.285    5.4239
   15.300    5.5468
   15.315    5.5117
   15.330    5.1431
   15.345    5.2659
   15.360    5.0728
   15.375    5.0026
   15.390    5.5117
   15.405    5.1957
   15.420    5.2835
   15.435    5.1255
   15.450    5.0377
   15.465    5.0904
   15.480    5.0202
   15.495    4.7920
   15.510    5.0728
   15.525    5.3712
   15.540    4.5814
   15.555    4.9851
   15.570    5.1255
   15.585    5.6170
   15.600    5.0553
   15.615    4.8447
   15.630    5.0904
   15.645    5.4064
   15.660    5.1606
   15.675    4.8447
   15.690    5.1255
   15.705    5.5468
   15.720    5.5994
   15.735    5.3186
   15.750    5.2133
   15.765    5.4415
   15.780    5.7223
   15.795    5.5468
   15.810    5.6872
   15.825    5.5643
   15.840    5.6521
   15.855    5.9681
   15.870    5.8803
   15.885    5.2308
   15.900    5.1431
   15.915    4.8271
   15.930    4.4585
   15.945    4.8095
   15.960    5.2308
   15.975    5.0728
   15.990    5.3010
   16.005    5.7750
   16.020    5.7223
   16.035    5.3712
   16.050    5.4415
   16.065    5.3712
   16.080    5.2484
   16.095    5.1957
   16.110    5.2659
   16.125    5.2133
   16.140    5.0904
   16.155    5.2484
   16.170    4.6516
   16.185    5.1606
   16.200    5.3888
   16.215    5.9681
   16.230    5.1782
   16.245    5.1431
   16.260    5.3186
   16.275    5.2308
   16.290    5.0728
   16.305    5.1255
   16.320    5.3010
   16.335    4.8622
   16.350    5.1606
   16.365    5.0026
   16.380    5.0728
   16.395    4.8447
   16.410    4.9324
   16.425    5.0904
   16.440    5.3712
   16.455    5.2308
   16.470    5.0728
   16.485    5.3186
   16.500    5.2133
   16.515    5.0553
   16.530    5.0026
   16.545    4.9851
   16.560    5.2133
   16.575    4.9851
   16.590    5.1782
   16.605    5.3010
   16.620    4.9500
   16.635    4.8447
   16.650    5.5468
   16.665    5.8452
   16.680    5.1255
   16.695    5.7574
   16.710    5.7574
   16.725    5.7399
   16.740    5.5994
   16.755    5.4239
   16.770    5.0377
   16.785    4.7920
   16.800    4.6340
   16.815    4.7393
   16.830    4.8271
   16.845    5.3186
   16.860    5.0026
   16.875    4.9675
   16.890    5.1255
   16.905    4.8973
   16.920    4.6867
   16.935    4.8973
   16.950    4.6691
   16.965    5.3712
   16.980    5.2484
   16.995    5.3888
   17.010    5.0377
   17.025    5.0728
   17.040    4.7569
   17.055    4.9851
   17.070    5.1957
   17.085    5.1782
   17.100    5.2133
   17.115    5.4766
   17.130    5.1957
   17.145    5.3712
   17.160    5.4415
   17.175    5.2659
   17.190    5.4941
   17.205    5.0377
   17.220    5.2835
   17.235    4.9851
   17.250    4.9675
   17.265    5.0904
   17.280    5.0904
   17.295    5.3361
   17.310    5.1782
   17.325    5.0904
   17.340    5.1255
   17.355    5.0377
   17.370    5.3537
   17.385    5.3010
   17.400    4.9149
   17.415    5.0904
   17.430    4.9324
   17.445    4.9851
   17.460    5.0377
   17.475    5.3537
   17.490    4.9675
   17.505    4.5814
   17.520    4.7920
   17.535    5.0377
   17.550    4.9500
   17.565    5.2484
   17.580    5.3361
   17.595    5.5468
   17.610    5.1080
   17.625    4.9149
   17.640    5.2835
   17.655    5.2308
   17.670    5.1255
   17.685    5.3010
   17.700    5.0904
   17.715    5.1431
   17.730    4.6516
   17.745    5.0728
   17.760    4.3356
   17.775    4.2303
   17.790    4.9500
   17.805    4.8798
   17.820    5.0202
   17.835    5.1431
   17.850    5.2835
   17.865    4.8973
   17.880    4.3883
   17.895    4.9149
   17.910    5.1782
   17.925    4.8271
   17.940    4.7569
   17.955    4.8973
   17.970    5.1431
   17.985    5.5643
   18.000    5.1782
   18.015    5.0904
   18.030    5.2133
   18.045    4.9500
   18.060    4.8973
   18.075    4.9324
   18.090    5.1080
   18.105    5.0553
   18.120    5.1782
   18.135    5.3537
   18.150    4.8622
   18.165    4.6165
   18.180    5.3888
   18.195    5.0728
   18.210    5.0026
   18.225    4.6340
   18.240    4.9500
   18.255    5.3361
   18.270    5.0377
   18.285    4.5638
   18.300    4.8095
   18.315    5.0377
   18.330    4.7744
   18.345    5.1606
   18.360    4.9149
   18.375    5.1431
   18.390    5.0377
   18.405    5.6345
   18.420    5.5468
   18.435    5.1080
   18.450    5.0026
   18.465    4.6340
   18.480    4.8973
   18.495    5.5643
   18.510    5.3888
   18.525    4.9149
   18.540    4.7218
   18.555    4.9675
   18.570    4.6867
   18.585    5.0553
   18.600    4.8798
   18.615    5.1957
   18.630    4.7920
   18.645    5.1957
   18.660    4.8798
   18.675    4.7218
   18.690    5.2308
   18.705    4.8973
   18.720    5.1782
   18.735    5.5819
   18.750    4.8798
   18.765    4.6691
   18.780    4.8798
   18.795    4.9149
   18.810    5.1431
   18.825    5.0026
   18.840    4.9149
   18.855    5.1957
   18.870    5.0026
   18.885    4.7744
   18.900    4.8973
   18.915    5.1255
   18.930    4.8973
   18.945    5.0728
   18.960    5.3361
   18.975    5.7223
   18.990    6.0032
   19.005    5.9681
   19.020    5.5117
   19.035    5.0202
   19.050    5.0553
   19.065    5.0728
   19.080    5.0553
   19.095    5.2308
   19.110    4.8798
   19.125    5.2308
   19.140    4.8798
   19.155    4.5111
   19.170    5.1255
   19.185    4.8095
   19.200    5.2835
   19.215    4.9675
   19.230    5.0904
   19.245    4.9851
   19.260    5.1255
   19.275    4.7569
   19.290    5.0026
   19.305    5.1957
   19.320    5.2308
   19.335    5.0728
   19.350    5.0904
   19.365    4.7920
   19.380    4.7042
   19.395    5.0026
   19.410    4.8622
   19.425    4.8798
   19.440    4.8798
   19.455    5.1255
   19.470    4.7042
   19.485    4.8095
   19.500    5.0202
   19.515    4.8622
   19.530    4.8798
   19.545    5.1080
   19.560    4.9675
   19.575    5.3712
   19.590    4.6340
   19.605    4.9149
   19.620    4.5287
   19.635    4.6165
   19.650    4.6516
   19.665    4.7920
   19.680    5.0377
   19.695    5.0904
   19.710    5.0553
   19.725    5.0377
   19.740    4.9149
   19.755    4.6340
   19.770    5.0553
   19.785    5.1782
   19.800    5.2133
   19.815    4.7920
   19.830    4.5463
   19.845    5.1080
   19.860    4.6516
   19.875    4.7920
   19.890    4.8622
   19.905    5.1782
   19.920    5.5819
   19.935    5.5994
   19.950    5.7925
   19.965    5.7048
   19.980    5.6345
   19.995    5.5468
   20.010    5.4590
   20.025    5.2133
   20.040    4.7920
   20.055    4.8973
   20.070    4.5638
   20.085    4.7393
   20.100    4.6340
   20.115    4.7569
   20.130    4.8798
   20.145    5.0026
   20.160    4.4409
   20.175    4.6691
   20.190    4.3356
   20.205    4.9675
   20.220    4.7744
   20.235    5.0553
   20.250    5.2659
   20.265    4.8798
   20.280    5.0026
   20.295    4.5638
   20.310    5.1606
   20.325    4.6165
   20.340    4.8973
   20.355    4.8622
   20.370    4.6165
   20.385    5.0202
   20.400    4.7218
   20.415    4.4936
   20.430    4.2654
   20.445    4.1776
   20.460    4.7042
   20.475    4.9851
   20.490    4.4234
   20.505    4.6867
   20.520    5.1080
   20.535    4.6340
   20.550    4.9500
   20.565    5.1782
   20.580    5.4064
   20.595    4.8271
   20.610    5.0553
   20.625    4.7569
   20.640    5.1431
   20.655    4.8973
   20.670    4.8271
   20.685    5.4590
   20.700    5.0202
   20.715    5.1255
   20.730    5.0377
   20.745    4.6691
   20.760    4.4936
   20.775    4.8798
   20.790    5.0377
   20.805    4.6340
   20.820    4.6165
   20.835    4.7920
   20.850    4.9149
   20.865    4.7569
   20.880    4.7920
   20.895    4.8271
   20.910    4.6691
   20.925    4.5814
   20.940    4.9500
   20.955    4.8622
   20.970    4.5989
   20.985    4.5638
   21.000    4.5463
   21.015    4.5287
   21.030    4.9149
   21.045    4.8798
   21.060    5.5292
   21.075    4.7042
   21.090    4.6691
   21.105    4.5638
   21.120    4.8095
   21.135    4.8271
   21.150    4.6165
   21.165    4.8095
   21.180    4.5989
   21.195    4.7920
   21.210    5.0202
   21.225    4.7042
   21.240    4.3883
   21.255    4.6867
   21.270    4.6867
   21.285    4.2830
   21.300    4.6165
   21.315    5.0026
   21.330    4.6516
   21.345    4.7920
   21.360    5.4766
   21.375    4.6867
   21.390    4.8271
   21.405    5.1957
   21.420    5.4064
   21.435    5.4064
   21.450    4.7042
   21.465    4.9324
   21.480    4.9324
   21.495    4.7920
   21.510    4.6691
   21.525    4.6867
   21.540    4.7042
   21.555    4.9324
   21.570    4.5287
   21.585    4.6340
   21.600    4.3883
   21.615    4.5463
   21.630    4.7744
   21.645    4.6691
   21.660    5.1957
   21.675    4.9149
   21.690    4.3356
   21.705    4.8798
   21.720    4.8622
   21.735    4.7042
   21.750    5.0026
   21.765    4.5814
   21.780    5.0728
   21.795    4.7218
   21.810    4.9324
   21.825    4.7393
   21.840    5.3010
   21.855    4.8271
   21.870    4.8798
   21.885    4.8271
   21.900    4.6165
   21.915    4.7920
   21.930    4.5111
   21.945    5.2659
   21.960    4.7042
   21.975    4.7042
   21.990    4.8447
   22.005    4.6165
   22.020    5.0904
   22.035    4.9324
   22.050    4.7920
   22.065    5.0904
   22.080    4.8447
   22.095    5.0026
   22.110    5.4415
   22.125    5.6170
   22.140    4.7920
   22.155    4.9149
   22.170    4.4409
   22.185    4.9324
   22.200    4.9500
   22.215    4.6691
   22.230    4.9851
   22.245    4.3883
   22.260    4.4760
   22.275    4.4409
   22.290    4.5463
   22.305    4.7393
   22.320    5.0377
   22.335    4.8447
   22.350    4.8447
   22.365    4.8798
   22.380    5.3010
   22.395    4.9675
   22.410    5.2835
   22.425    5.1080
   22.440    5.2133
   22.455    4.8973
   22.470    4.5287
   22.485    4.7744
   22.500    5.0377
   22.515    4.9324
   22.530    4.5814
   22.545    4.7744
   22.560    5.0377
   22.575    4.8622
   22.590    4.5463
   22.605    4.6340
   22.620    4.5111
   22.635    4.9675
   22.650    4.3883
   22.665    4.5989
   22.680    4.1601
   22.695    4.7920
   22.710    4.5287
   22.725    4.3356
   22.740    4.7218
   22.755    4.3883
   22.770    4.9500
   22.785    5.0728
   22.800    3.8792
   22.815    4.0197
   22.830    4.3005
   22.845    4.4936
   22.860    4.6340
   22.875    4.3532
   22.890    4.3532
   22.905    4.7393
   22.920    4.3356
   22.935    4.4058
   22.950    4.5111
   22.965    4.7920
   22.980    4.9149
   22.995    4.7042
   23.010    3.9846
   23.025    4.1776
   23.040    4.4936
   23.055    4.8095
   23.070    4.7920
   23.085    4.3532
   23.100    4.0372
   23.115    4.2127
   23.130    4.2303
   23.145    4.4760
   23.160    4.3883
   23.175    4.5111
   23.190    4.5463
   23.205    4.3005
   23.220    4.4234
   23.235    4.4058
   23.250    4.5638
   23.265    4.6340
   23.280    4.5287
   23.295    4.3181
   23.310    4.3883
   23.325    4.4585
   23.340    4.2303
   23.355    4.4760
   23.370    4.7920
   23.385    4.9149
   23.400    4.6165
   23.415    4.8095
   23.430    4.8973
   23.445    4.8798
   23.460    4.8447
   23.475    4.4760
   23.490    4.3532
   23.505    4.4936
   23.520    4.0723
   23.535    4.3883
   23.550    4.7393
   23.565    4.9851
   23.580    4.5814
   23.595    4.6340
   23.610    4.2478
   23.625    4.1425
   23.640    4.8271
   23.655    4.0723
   23.670    4.4409
   23.685    4.5638
   23.700    4.4409
   23.715    4.7920
   23.730    4.2830
   23.745    4.3005
   23.760    4.2654
   23.775    4.3532
   23.790    4.2303
   23.805    4.6691
   23.820    4.4936
   23.835    3.8968
   23.850    4.5638
   23.865    5.0202
   23.880    4.7393
   23.895    4.4058
   23.910    4.4058
   23.925    4.3356
   23.940    3.7564
   23.955    3.9846
   23.970    4.1776
   23.985    4.1250
   24.000    4.0197
   24.015    4.4058
   24.030    4.3883
   24.045    4.3356
   24.060    4.1074
   24.075    4.2303
   24.090    4.3356
   24.105    4.0548
   24.120    4.4585
   24.135    4.7042
   24.150    4.6165
   24.165    4.0197
   24.180    4.1952
   24.195    4.2303
   24.210    4.1776
   24.225    4.7218
   24.240    4.5814
   24.255    4.3181
   24.270    4.3883
   24.285    4.5111
   24.300    4.6340
   24.315    4.0723
   24.330    4.4234
   24.345    4.1776
   24.360    4.4409
   24.375    4.4585
   24.390    4.2303
   24.405    4.1776
   24.420    4.1425
   24.435    4.2127
   24.450    4.3532
   24.465    3.9846
   24.480    4.0723
   24.495    4.0197
   24.510    4.2830
   24.525    4.4058
   24.540    4.1601
   24.555    4.1952
   24.570    4.6165
   24.585    4.4058
   24.600    4.3356
   24.615    4.3181
   24.630    4.0899
   24.645    3.9143
   24.660    3.9143
   24.675    4.4936
   24.690    4.5638
   24.705    4.4234
   24.720    3.7739
   24.735    4.0021
   24.750    4.0548
   24.765    3.9670
   24.780    4.4409
   24.795    4.3181
   24.810    3.8266
   24.825    4.1601
   24.840    4.2303
   24.855    4.0548
   24.870    4.0021
   24.885    4.3356
   24.900    4.4058
   24.915    3.9319
   24.930    3.8792
   24.945    4.3707
   24.960    4.1074
   24.975    4.2127
   24.990    3.9494
   25.005    4.2127
   25.020    4.7744
   25.035    4.3883
   25.050    4.1601
   25.065    4.1074
   25.080    4.0723
   25.095    4.2478
   25.110    4.1776
   25.125    3.7564
   25.140    3.7388
   25.155    3.8266
   25.170    3.9846
   25.185    4.2830
   25.200    4.4058
   25.215    4.5463
   25.230    4.2303
   25.245    4.4936
   25.260    4.7744
   25.275    4.7393
   25.290    4.9149
   25.305    4.6340
   25.320    4.4760
   25.335    4.4936
   25.350    4.1074
   25.365    4.1601
   25.380    4.0021
   25.395    4.1074
   25.410    4.1074
   25.425    4.0197
   25.440    3.9143
   25.455    3.9846
   25.470    4.3532
   25.485    4.3883
   25.500    4.3356
   25.515    4.0372
   25.530    3.9670
   25.545    4.0021
   25.560    3.9846
   25.575    3.8792
   25.590    3.5106
   25.605    4.1250
   25.620    4.2478
   25.635    4.1074
   25.650    3.8266
   25.665    3.5984
   25.680    3.8792
   25.695    3.9319
   25.710    4.2830
   25.725    3.5106
   25.740    4.2127
   25.755    4.3532
   25.770    4.0899
   25.785    3.7388
   25.800    3.8968
   25.815    4.1952
   25.830    3.8792
   25.845    4.4585
   25.860    4.4234
   25.875    4.3181
   25.890    4.4585
   25.905    3.7213
   25.920    3.7388
   25.935    3.9846
   25.950    3.8266
   25.965    3.9846
   25.980    3.9494
   25.995    4.0548
   26.010    4.1425
   26.025    4.0197
   26.040    3.7388
   26.055    3.5282
   26.070    3.8090
   26.085    3.5984
   26.100    3.9143
   26.115    3.8441
   26.130    3.8266
   26.145    4.1425
   26.160    3.7915
   26.175    3.6510
   26.190    3.5457
   26.205    3.5808
   26.220    3.9319
   26.235    3.8090
   26.250    3.6862
   26.265    4.2303
   26.280    4.4936
   26.295    3.9846
   26.310    3.6862
   26.325    4.0723
   26.340    3.7915
   26.355    4.0021
   26.370    4.2478
   26.385    3.8441
   26.400    3.8792
   26.415    3.6686
   26.430    3.8266
   26.445    3.8090
   26.460    4.0372
   26.475    4.1425
   26.490    4.0723
   26.505    3.7388
   26.520    3.8617
   26.535    3.5984
   26.550    3.7388
   26.565    4.0548
   26.580    3.5457
   26.595    4.0197
   26.610    3.9319
   26.625    3.8266
   26.640    3.9670
   26.655    3.4404
   26.670    3.9494
   26.685    4.0021
   26.700    4.1425
   26.715    3.9319
   26.730    4.0899
   26.745    3.6159
   26.760    3.5106
   26.775    3.5106
   26.790    3.6862
   26.805    3.8090
   26.820    3.8266
   26.835    3.8441
   26.850    3.6862
   26.865    3.6510
   26.880    3.5633
   26.895    3.8617
   26.910    3.6862
   26.925    3.8266
   26.940    3.6686
   26.955    3.4229
   26.970    3.7213
   26.985    3.9670
   27.000    4.0197
   27.015    3.4580
   27.030    3.9143
   27.045    3.6335
   27.060    3.9494
   27.075    3.6510
   27.090    3.4755
   27.105    3.8090
   27.120    3.9846
   27.135    3.7739
   27.150    3.4931
   27.165    3.8792
   27.180    3.7388
   27.195    4.0021
   27.210    4.0021
   27.225    3.7739
   27.240    4.0372
   27.255    3.5984
   27.270    3.7037
   27.285    3.8968
   27.300    3.6159
   27.315    3.4931
   27.330    3.5984
   27.345    3.6335
   27.360    3.6335
   27.375    3.7388
   27.390    3.7564
   27.405    3.5457
   27.420    3.4053
   27.435    3.4931
   27.450    3.7388
   27.465    3.7564
   27.480    3.6510
   27.495    3.3351
   27.510    3.5808
   27.525    3.3877
   27.540    3.4229
   27.555    3.8441
   27.570    3.6862
   27.585    3.6335
   27.600    3.7213
   27.615    3.8792
   27.630    3.7213
   27.645    3.7388
   27.660    3.8266
   27.675    4.0723
   27.690    3.8266
   27.705    3.7037
   27.720    3.3877
   27.735    3.8968
   27.750    3.3877
   27.765    3.4229
   27.780    3.6686
   27.795    3.8792
   27.810    3.8441
   27.825    3.4931
   27.840    3.6510
   27.855    3.4755
   27.870    3.8617
   27.885    3.7739
   27.900    3.6335
   27.915    3.4404
   27.930    3.4755
   27.945    3.7564
   27.960    3.5808
   27.975    3.3351
   27.990    3.7037
   28.005    3.8792
   28.020    3.5808
   28.035    3.6335
   28.050    3.5808
   28.065    3.7213
   28.080    3.4229
   28.095    3.4404
   28.110    3.6510
   28.125    3.5984
   28.140    3.4580
   28.155    3.4229
   28.170    3.4229
   28.185    3.7739
   28.200    3.8617
   28.215    3.5457
   28.230    3.5808
   28.245    3.4755
   28.260    3.4404
   28.275    3.2122
   28.290    3.6686
   28.305    3.4931
   28.320    3.2122
   28.335    3.5984
   28.350    3.5808
   28.365    3.3877
   28.380    3.5633
   28.395    3.5282
   28.410    3.7388
   28.425    3.6862
   28.440    3.4229
   28.455    3.5457
   28.470    3.6862
   28.485    3.2473
   28.500    3.3000
   28.515    3.5808
   28.530    3.9494
   28.545    3.7388
   28.560    3.4404
   28.575    3.3000
   28.590    3.7739
   28.605    3.8617
   28.620    3.8090
   28.635    4.1776
   28.650    3.9494
   28.665    3.9319
   28.680    3.8792
   28.695    3.9143
   28.710    3.8968
   28.725    4.1074
   28.740    4.1601
   28.755    3.5808
   28.770    3.5633
   28.785    3.5457
   28.800    3.8090
   28.815    3.5633
   28.830    3.2649
   28.845    3.5457
   28.860    3.4580
   28.875    3.4931
   28.890    3.3877
   28.905    3.5106
   28.920    3.5106
   28.935    3.6159
   28.950    3.6159
   28.965    3.8617
   28.980    3.8792
   28.995    4.2654
   29.010    3.5633
   29.025    3.8090
   29.040    3.6510
   29.055    3.9143
   29.070    3.7213
   29.085    3.1245
   29.100    3.6862
   29.115    3.8441
   29.130    3.3877
   29.145    3.6159
   29.160    3.6686
   29.175    3.8266
   29.190    3.6686
   29.205    3.6335
   29.220    3.5282
   29.235    3.4755
   29.250    3.4580
   29.265    3.5106
   29.280    3.3526
   29.295    3.2298
   29.310    3.4931
   29.325    3.3877
   29.340    3.9143
   29.355    3.9143
   29.370    3.6510
   29.385    3.3351
   29.400    3.6159
   29.415    3.5106
   29.430    3.1420
   29.445    3.0542
   29.460    3.0367
   29.475    3.4053
   29.490    3.7213
   29.505    3.4404
   29.520    3.0016
   29.535    3.5633
   29.550    3.5633
   29.565    3.1771
   29.580    3.0016
   29.595    2.9314
   29.610    3.3526
   29.625    3.4580
   29.640    3.3000
   29.655    3.3000
   29.670    3.1771
   29.685    3.1596
   29.700    3.2298
   29.715    3.3351
   29.730    3.1069
   29.745    3.1069
   29.760    3.0542
   29.775    3.0718
   29.790    3.7037
   29.805    3.7388
   29.820    3.1069
   29.835    3.0016
   29.850    3.2298
   29.865    3.1069
   29.880    2.8085
   29.895    3.0016
   29.910    3.4053
   29.925    3.3702
   29.940    3.3526
   29.955    3.3702
   29.970    3.3175
   29.985    3.5633
   30.000    3.0542
   30.015    3.3175
   30.030    3.2824
   30.045    3.2122
   30.060    3.0893
   30.075    2.8963
   30.090    2.8436
   30.105    3.0893
   30.120    3.3351
   30.135    3.3702
   30.150    2.9138
   30.165    3.2122
   30.180    3.4229
   30.195    3.0718
   30.210    3.1069
   30.225    3.7564
   30.240    3.3702
   30.255    3.2649
   30.270    3.1771
   30.285    3.1245
   30.300    3.2122
   30.315    3.1947
   30.330    3.5457
   30.345    3.2122
   30.360    3.2473
   30.375    2.9840
   30.390    3.1947
   30.405    3.2649
   30.420    3.0893
   30.435    3.2649
   30.450    2.9138
   30.465    3.3175
   30.480    3.3877
   30.495    3.2649
   30.510    3.2473
   30.525    2.9840
   30.540    3.3175
   30.555    3.3702
   30.570    3.5633
   30.585    3.3175
   30.600    3.1245
   30.615    3.3175
   30.630    3.1947
   30.645    3.1947
   30.660    2.9314
   30.675    3.2649
   30.690    3.1245
   30.705    2.8260
   30.720    3.1069
   30.735    3.0191
   30.750    3.0542
   30.765    3.4755
   30.780    3.3000
   30.795    2.9314
   30.810    3.2122
   30.825    3.0542
   30.840    3.3000
   30.855    3.4580
   30.870    3.2824
   30.885    3.1069
   30.900    2.9665
   30.915    3.2298
   30.930    3.2473
   30.945    3.4053
   30.960    3.2298
   30.975    2.9314
   30.990    2.9314
   31.005    3.1420
   31.020    3.0718
   31.035    2.5979
   31.050    3.0191
   31.065    3.2122
   31.080    3.1420
   31.095    2.8787
   31.110    3.0542
   31.125    2.8612
   31.140    2.8612
   31.155    2.8085
   31.170    3.2473
   31.185    3.2298
   31.200    2.8963
   31.215    2.8260
   31.230    3.3351
   31.245    3.1069
   31.260    3.0893
   31.275    3.1420
   31.290    3.4931
   31.305    2.9314
   31.320    2.9138
   31.335    3.1069
   31.350    2.9138
   31.365    2.6856
   31.380    2.9138
   31.395    3.0191
   31.410    2.8436
   31.425    2.8963
   31.440    2.5101
   31.455    2.6681
   31.470    2.9665
   31.485    3.0893
   31.500    3.3877
   31.515    3.4404
   31.530    2.8436
   31.545    2.6505
   31.560    2.8612
   31.575    2.6330
   31.590    2.7734
   31.605    2.8260
   31.620    2.7558
   31.635    3.0016
   31.650    2.8085
   31.665    3.0718
   31.680    3.2298
   31.695    2.8085
   31.710    3.1420
   31.725    3.3000
   31.740    2.7383
   31.755    2.9489
   31.770    3.4580
   31.785    3.2473
   31.800    3.3000
   31.815    2.9138
   31.830    2.6681
   31.845    2.8085
   31.860    3.0191
   31.875    3.0718
   31.890    2.7734
   31.905    2.9840
   31.920    2.9665
   31.935    2.8085
   31.950    3.0542
   31.965    3.1245
   31.980    2.8787
   31.995    2.8963
   32.010    2.8787
   32.025    3.2298
   32.040    3.5808
   32.055    3.6686
   32.070    3.7739
   32.085    3.9143
   32.100    4.2127
   32.115    4.1952
   32.130    4.0197
   32.145    3.3526
   32.160    3.2298
   32.175    3.2824
   32.190    3.2824
   32.205    3.5282
   32.220    2.9665
   32.235    2.8787
   32.250    3.0542
   32.265    2.7734
   32.280    2.7909
   32.295    3.1069
   32.310    3.2649
   32.325    2.5979
   32.340    2.8612
   32.355    3.2824
   32.370    3.0893
   32.385    2.8787
   32.400    2.8963
   32.415    2.7558
   32.430    3.0893
   32.445    2.9138
   32.460    2.8085
   32.475    2.8612
   32.490    2.8787
   32.505    2.7032
   32.520    3.1947
   32.535    3.1596
   32.550    2.8612
   32.565    2.8787
   32.580    2.9489
   32.595    2.7558
   32.610    2.7383
   32.625    2.7734
   32.640    2.8787
   32.655    3.1596
   32.670    3.1596
   32.685    2.3697
   32.700    3.0893
   32.715    3.2298
   32.730    3.2649
   32.745    2.9489
   32.760    2.8085
   32.775    2.8963
   32.790    3.0718
   32.805    3.2122
   32.820    2.7383
   32.835    2.8436
   32.850    3.0542
   32.865    2.6330
   32.880    2.5803
   32.895    2.7734
   32.910    3.0367
   32.925    2.9314
   32.940    2.9138
   32.955    2.8963
   32.970    2.7207
   32.985    2.6681
   33.000    2.7032
   33.015    3.0191
   33.030    2.8436
   33.045    2.7909
   33.060    2.3697
   33.075    2.7558
   33.090    2.5628
   33.105    2.8085
   33.120    2.8436
   33.135    3.0542
   33.150    2.8260
   33.165    2.8085
   33.180    2.5452
   33.195    2.9138
   33.210    3.1069
   33.225    2.9314
   33.240    2.7909
   33.255    2.8260
   33.270    2.5803
   33.285    2.8612
   33.300    2.7558
   33.315    2.5452
   33.330    2.7207
   33.345    2.6330
   33.360    2.8436
   33.375    2.9665
   33.390    2.7734
   33.405    2.9314
   33.420    2.3697
   33.435    2.5452
   33.450    2.8612
   33.465    2.6330
   33.480    2.6154
   33.495    2.6681
   33.510    2.5276
   33.525    2.5101
   33.540    2.5101
   33.555    3.0542
   33.570    2.9840
   33.585    2.6330
   33.600    2.7383
   33.615    2.8787
   33.630    2.5101
   33.645    2.6154
   33.660    3.0016
   33.675    3.1420
   33.690    2.6681
   33.705    2.8260
   33.720    2.9138
   33.735    3.1245
   33.750    3.1771
   33.765    2.9489
   33.780    2.7207
   33.795    3.2649
   33.810    2.9138
   33.825    3.3175
   33.840    3.2649
   33.855    3.0191
   33.870    2.7558
   33.885    2.5628
   33.900    2.5628
   33.915    2.7207
   33.930    2.4399
   33.945    2.6505
   33.960    2.8963
   33.975    2.8787
   33.990    2.8963
   34.005    3.0191
   34.020    2.7383
   34.035    3.0191
   34.050    2.8436
   34.065    2.4223
   34.080    2.6330
   34.095    2.9489
   34.110    2.9314
   34.125    2.8787
   34.140    2.8612
   34.155    2.4925
   34.170    2.5628
   34.185    2.6505
   34.200    2.6681
   34.215    2.5101
   34.230    2.8260
   34.245    2.7032
   34.260    2.7909
   34.275    2.7734
   34.290    2.8612
   34.305    2.7032
   34.320    2.3521
   34.335    2.6681
   34.350    2.8963
   34.365    2.5101
   34.380    2.4925
   34.395    2.6330
   34.410    2.6681
   34.425    2.4750
   34.440    2.8787
   34.455    2.8085
   34.470    2.7207
   34.485    2.6856
   34.500    2.7734
   34.515    2.6856
   34.530    2.3872
   34.545    2.7032
   34.560    2.9138
   34.575    2.6856
   34.590    2.7383
   34.605    2.4750
   34.620    2.8436
   34.635    2.5803
   34.650    2.7909
   34.665    2.8436
   34.680    2.7207
   34.695    2.6330
   34.710    2.6681
   34.725    2.7383
   34.740    2.7383
   34.755    2.6154
   34.770    2.6505
   34.785    2.6154
   34.800    2.6154
   34.815    2.7909
   34.830    2.8260
   34.845    2.9665
   34.860    2.6330
   34.875    2.7207
   34.890    2.6154
   34.905    2.9489
   34.920    3.0367
   34.935    2.7558
   34.950    2.7207
   34.965    2.6154
   34.980    2.6330
   34.995    2.7734
   35.010    2.3872
   35.025    2.5628
   35.040    2.4574
   35.055    2.2292
   35.070    2.3872
   35.085    2.7734
   35.100    2.5628
   35.115    2.5276
   35.130    2.6154
   35.145    2.6330
   35.160    2.4223
   35.175    2.4925
   35.190    2.6330
   35.205    2.4223
   35.220    2.2643
   35.235    2.3697
   35.250    2.5276
   35.265    2.3872
   35.280    2.3346
   35.295    2.4399
   35.310    2.6330
   35.325    2.8436
   35.340    2.5803
   35.355    2.6505
   35.370    2.9840
   35.385    2.8787
   35.400    2.6505
   35.415    2.5452
   35.430    2.7734
   35.445    3.0718
   35.460    2.7032
   35.475    2.5276
   35.490    2.8260
   35.505    2.5979
   35.520    2.7383
   35.535    2.6154
   35.550    2.7032
   35.565    2.7032
   35.580    2.7558
   35.595    2.4048
   35.610    2.3872
   35.625    2.5452
   35.640    2.6681
   35.655    3.0191
   35.670    2.8963
   35.685    2.7383
   35.700    2.6856
   35.715    2.6154
   35.730    2.7032
   35.745    2.7207
   35.760    2.9314
   35.775    2.5101
   35.790    2.4399
   35.805    2.7734
   35.820    2.8260
   35.835    2.8963
   35.850    2.7909
   35.865    2.7734
   35.880    2.5979
   35.895    2.5452
   35.910    2.4223
   35.925    2.7734
   35.940    2.7032
   35.955    2.7383
   35.970    3.0718
   35.985    2.6330
   36.000    2.4048
   36.015    2.4223
   36.030    2.6856
   36.045    2.6856
   36.060    2.6154
   36.075    2.6330
   36.090    2.7032
   36.105    2.7032
   36.120    2.7383
   36.135    2.7558
   36.150    2.7558
   36.165    2.8260
   36.180    2.8260
   36.195    2.8260
   36.210    3.1245
   36.225    2.5628
   36.240    2.7734
   36.255    2.8260
   36.270    2.6154
   36.285    3.0016
   36.300    2.7558
   36.315    2.4223
   36.330    2.4048
   36.345    2.7558
   36.360    2.8963
   36.375    2.7558
   36.390    2.7383
   36.405    2.7383
   36.420    2.6330
   36.435    2.4223
   36.450    2.7207
   36.465    2.6154
   36.480    2.8260
   36.495    2.5452
   36.510    2.6856
   36.525    2.4925
   36.540    2.6681
   36.555    2.6681
   36.570    2.7558
   36.585    2.8787
   36.600    2.5803
   36.615    2.5276
   36.630    2.5276
   36.645    2.5276
   36.660    2.6505
   36.675    2.4925
   36.690    2.7032
   36.705    2.5452
   36.720    2.2995
   36.735    2.5628
   36.750    2.6154
   36.765    2.4223
   36.780    2.5276
   36.795    2.9840
   36.810    2.7207
   36.825    2.7383
   36.840    2.8612
   36.855    3.0191
   36.870    2.6505
   36.885    2.7032
   36.900    2.4223
   36.915    2.3697
   36.930    2.4399
   36.945    2.6681
   36.960    2.7558
   36.975    2.6154
   36.990    2.6856
   37.005    2.6330
   37.020    2.3346
   37.035    2.4925
   37.050    2.6154
   37.065    2.5276
   37.080    2.4574
   37.095    2.4048
   37.110    2.5628
   37.125    2.7383
   37.140    2.9138
   37.155    2.7734
   37.170    2.8436
   37.185    2.8963
   37.200    2.8787
   37.215    2.5452
   37.230    2.5979
   37.245    2.6154
   37.260    2.3346
   37.275    2.6154
   37.290    2.4750
   37.305    2.2995
   37.320    2.5101
   37.335    2.4574
   37.350    2.6330
   37.365    2.8436
   37.380    2.7383
   37.395    2.6681
   37.410    2.5101
   37.425    2.8085
   37.440    2.6856
   37.455    2.6330
   37.470    2.4750
   37.485    2.3521
   37.500    2.6154
   37.515    2.8260
   37.530    2.5101
   37.545    2.7032
   37.560    2.4750
   37.575    2.5979
   37.590    2.6154
   37.605    2.3521
   37.620    2.2643
   37.635    2.2468
   37.650    2.4574
   37.665    2.6330
   37.680    2.9665
   37.695    3.1069
   37.710    2.8260
   37.725    2.6154
   37.740    2.9489
   37.755    2.5628
   37.770    2.6505
   37.785    2.5979
   37.800    2.2468
   37.815    2.4750
   37.830    2.8787
   37.845    2.5452
   37.860    2.4223
   37.875    2.6154
   37.890    2.2819
   37.905    2.0888
   37.920    2.1064
   37.935    2.3170
   37.950    2.7734
   37.965    2.7032
   37.980    2.4925
   37.995    2.5803
   38.010    2.6154
   38.025    2.7032
   38.040    2.5101
   38.055    2.1941
   38.070    2.2292
   38.085    2.9138
   38.100    2.7032
   38.115    2.5276
   38.130    2.4750
   38.145    2.2643
   38.160    2.5276
   38.175    2.7207
   38.190    2.9138
   38.205    2.4925
   38.220    2.5628
   38.235    2.2468
   38.250    2.4574
   38.265    2.3872
   38.280    2.4925
   38.295    2.6154
   38.310    2.4925
   38.325    2.4223
   38.340    2.6505
   38.355    2.9138
   38.370    2.7909
   38.385    2.5101
   38.400    2.3872
   38.415    2.5979
   38.430    2.5979
   38.445    2.8787
   38.460    2.5979
   38.475    2.4048
   38.490    2.6330
   38.505    2.5452
   38.520    2.1415
   38.535    2.4925
   38.550    2.7383
   38.565    2.7558
   38.580    2.8612
   38.595    2.8963
   38.610    3.1420
   38.625    2.5452
   38.640    2.7383
   38.655    2.5979
   38.670    2.5628
   38.685    2.6856
   38.700    2.4399
   38.715    2.2468
   38.730    2.6330
   38.745    2.4223
   38.760    2.4399
   38.775    2.3346
   38.790    2.2292
   38.805    2.4223
   38.820    2.3170
   38.835    2.6856
   38.850    2.5628
   38.865    2.7909
   38.880    2.5628
   38.895    2.3697
   38.910    2.5979
   38.925    2.4223
   38.940    2.5979
   38.955    2.4048
   38.970    2.1239
   38.985    2.3170
   39.000    2.8085
   39.015    2.5101
   39.030    2.9489
   39.045    2.4223
   39.060    2.3697
   39.075    2.2117
   39.090    2.5628
   39.105    2.5803
   39.120    2.4750
   39.135    2.5276
   39.150    2.4399
   39.165    2.4750
   39.180    2.4223
   39.195    2.4925
   39.210    2.2995
   39.225    2.7734
   39.240    2.8787
   39.255    2.3872
   39.270    2.4925
   39.285    2.6505
   39.300    2.5979
   39.315    2.5979
   39.330    2.2819
   39.345    2.4925
   39.360    2.5628
   39.375    2.4048
   39.390    2.7558
   39.405    2.6330
   39.420    2.5452
   39.435    2.2995
   39.450    2.2117
   39.465    2.4750
   39.480    2.1415
   39.495    2.2117
   39.510    2.8436
   39.525    2.8085
   39.540    2.6505
   39.555    2.7383
   39.570    2.4574
   39.585    2.5628
   39.600    2.8085
   39.615    2.9314
   39.630    2.7383
   39.645    2.5628
   39.660    2.1941
   39.675    2.5803
   39.690    2.5452
   39.705    2.3346
   39.720    2.4574
   39.735    2.7383
   39.750    2.3697
   39.765    2.6681
   39.780    2.5628
   39.795    2.4574
   39.810    2.3346
   39.825    2.3170
   39.840    2.6154
   39.855    2.6505
   39.870    2.4048
   39.885    2.3697
   39.900    2.5979
   39.915    2.5101
   39.930    2.3872
   39.945    2.4574
   39.960    2.4750
   39.975    2.4399
   39.990    2.3872
