    1.500   21.6219
    1.515   21.9695
    1.530   21.2638
    1.545   21.1164
    1.560   20.8636
    1.575   20.8215
    1.590   20.1369
    1.605   19.3997
    1.620   19.4207
    1.635   19.1048
    1.650   19.4839
    1.665   18.4518
    1.680   18.9363
    1.695   18.5045
    1.710   18.6835
    1.725   18.8520
    1.740   18.3149
    1.755   18.0727
    1.770   17.8936
    1.785   16.7667
    1.800   17.3881
    1.815   17.7567
    1.830   17.5461
    1.845   16.7773
    1.860   16.4929
    1.875   16.5034
    1.890   16.9036
    1.905   16.2612
    1.920   15.9242
    1.935   16.3770
    1.950   15.9031
    1.965   16.4297
    1.980   15.5134
    1.995   15.5872
    2.010   15.1764
    2.025   15.3870
    2.040   15.3344
    2.055   15.7241
    2.070   15.1027
    2.085   15.0184
    2.100   14.6919
    2.115   14.5656
    2.130   14.9763
    2.145   14.3444
    2.160   14.5024
    2.175   14.5024
    2.190   14.1548
    2.205   14.1022
    2.220   13.9126
    2.235   14.3233
    2.250   14.6709
    2.265   14.5761
    2.280   14.6077
    2.295   14.5129
    2.310   14.6498
    2.325   13.7335
    2.340   13.5545
    2.355   13.7335
    2.370   13.6072
    2.385   13.6809
    2.400   13.6704
    2.415   13.9337
    2.430   13.6282
    2.445   13.0490
    2.460   13.4387
    2.475   13.2807
    2.490   13.4492
    2.505   13.7125
    2.520   13.3333
    2.535   12.5645
    2.550   13.3755
    2.565   13.2070
    2.580   13.1227
    2.595   12.9121
    2.610   13.6704
    2.625   13.0068
    2.640   12.9015
    2.655   12.7962
    2.670   12.8173
    2.685   13.2280
    2.700   13.0595
    2.715   13.0700
    2.730   13.5966
    2.745   13.2912
    2.760   13.3860
    2.775   13.3649
    2.790   13.3123
    2.805   13.2280
    2.820   13.7019
    2.835   13.4071
    2.850   13.3649
    2.865   13.3333
    2.880   13.2070
    2.895   13.2280
    2.910   13.1754
    2.925   13.5229
    2.940   13.9021
    2.955   13.8705
    2.970   13.8389
    2.985   13.8178
    3.000   13.9442
    3.015   13.9231
    3.030   14.1443
    3.045   14.0390
    3.060   14.3971
    3.075   14.1443
    3.090   13.7441
    3.105   14.6077
    3.120   14.7551
    3.135   14.9974
    3.150   14.8078
    3.165   15.0395
    3.180   15.3976
    3.195   15.7662
    3.210   15.7451
    3.225   15.8610
    3.240   16.5666
    3.255   15.8294
    3.270   16.1032
    3.285   16.8720
    3.300   17.0511
    3.315   16.7983
    3.330   17.0932
    3.345   17.7251
    3.360   17.9358
    3.375   17.9252
    3.390   18.9047
    3.405   18.8520
    3.420   19.1364
    3.435   19.9157
    3.450   19.2628
    3.465   19.4102
    3.480   21.4218
    3.495   21.8957
    3.510   22.4645
    3.525   22.8015
    3.540   23.4966
    3.555   24.2127
    3.570   23.9916
    3.585   25.0553
    3.600   26.8878
    3.615   28.3939
    3.630   28.8994
    3.645   29.1627
    3.660   30.9321
    3.675   31.7746
    3.690   33.4071
    3.705   34.8183
    3.720   36.4402
    3.735   40.2422
    3.750   41.7483
    3.765   43.1701
    3.780   46.3928
    3.795   50.2475
    3.810   54.2391
    3.825   61.1796
    3.840   65.3186
    3.855   69.7525
    3.870   72.1116
    3.885   70.7425
    3.900   64.3075
    3.915   53.1122
    3.930   41.1901
    3.945   30.9953
    3.960   23.3491
    3.975   19.1890
    3.990   16.6087
    4.005   14.6814
    4.020   13.5650
    4.035   12.6066
    4.050   12.1432
    4.065   11.3007
    4.080   11.6798
    4.095   11.4376
    4.110   10.7214
    4.125   10.3212
    4.140   10.1106
    4.155   10.3844
    4.170    9.9421
    4.185    9.7525
    4.200    9.2680
    4.215    9.0995
    4.230    8.8889
    4.245    9.0890
    4.260    8.8678
    4.275    9.2996
    4.290    9.4997
    4.305    9.5840
    4.320    9.3523
    4.335    9.1311
    4.350    9.7841
    4.365    9.2364
    4.380    9.0047
    4.395    9.0890
    4.410    8.8468
    4.425    8.8573
    4.440    8.7309
    4.455    9.3312
    4.470    9.1627
    4.485    8.6888
    4.500    9.1101
    4.515    8.4676
    4.530    8.9100
    4.545    8.3834
    4.560    8.6256
    4.575    8.8257
    4.590    8.6888
    4.605    8.6572
    4.620    8.7625
    4.635    9.1417
    4.650    8.9205
    4.665    9.0469
    4.680    9.1732
    4.695    8.7625
    4.710    8.5413
    4.725    9.1206
    4.740    9.1311
    4.755    8.8573
    4.770    8.6677
    4.785    9.4260
    4.800    9.0785
    4.815    9.0153
    4.830    9.5103
    4.845    9.4576
    4.860    9.5313
    4.875    9.6788
    4.890    9.5419
    4.905    9.1627
    4.920    9.6893
    4.935    9.9210
    4.950    9.4681
    4.965    9.6051
    4.980    9.9526
    4.995    9.8789
    5.010    9.8262
    5.025    9.9210
    5.040    9.6472
    5.055   10.2791
    5.070   10.5319
    5.085   10.6372
    5.100   10.7530
    5.115   10.3528
    5.130   10.9847
    5.145   10.6266
    5.160   11.6904
    5.175   11.7009
    5.190   11.8378
    5.205   12.5750
    5.220   12.1959
    5.235   12.1854
    5.250   13.5229
    5.265   13.6388
    5.280   13.9126
    5.295   14.0811
    5.310   14.6603
    5.325   15.2607
    5.340   15.9242
    5.355   16.7246
    5.370   17.4302
    5.385   18.2622
    5.400   19.7367
    5.415   20.4739
    5.430   21.8009
    5.445   23.9600
    5.460   25.9084
    5.475   27.3302
    5.490   27.3723
    5.505   27.3618
    5.520   25.0974
    5.535   22.1801
    5.550   18.8415
    5.565   14.5129
    5.580   12.4803
    5.595   10.9531
    5.610   10.7741
    5.625    9.8789
    5.640    9.1838
    5.655    8.7309
    5.670    9.0469
    5.685    9.1311
    5.700    8.8362
    5.715    8.2359
    5.730    8.2991
    5.745    8.3623
    5.760    8.2254
    5.775    7.9305
    5.790    8.2991
    5.805    7.9937
    5.820    7.8673
    5.835    8.3518
    5.850    8.2043
    5.865    7.7514
    5.880    7.8884
    5.895    8.0990
    5.910    8.1095
    5.925    8.3834
    5.940    7.7936
    5.955    7.8778
    5.970    8.3518
    5.985    8.0147
    6.000    7.9305
    6.015    7.8041
    6.030    7.5619
    6.045    7.7936
    6.060    7.7725
    6.075    7.7514
    6.090    7.6672
    6.105    7.8357
    6.120    7.8989
    6.135    7.8884
    6.150    8.3834
    6.165    8.1306
    6.180    7.5829
    6.195    7.7620
    6.210    8.1517
    6.225    7.6988
    6.240    8.4781
    6.255    8.4676
    6.270    8.0990
    6.285    8.2464
    6.300    7.9831
    6.315    7.8462
    6.330    8.1411
    6.345    8.4044
    6.360    8.1938
    6.375    8.0779
    6.390    8.1833
    6.405    8.3202
    6.420    8.2570
    6.435    8.3412
    6.450    7.9516
    6.465    8.4466
    6.480    8.7414
    6.495    8.5203
    6.510    8.8468
    6.525    9.7525
    6.540    9.3312
    6.555    9.3418
    6.570    9.6156
    6.585    9.8052
    6.600    9.7420
    6.615   10.0685
    6.630   10.2475
    6.645   10.9005
    6.660   11.0795
    6.675   11.4271
    6.690   11.5850
    6.705   12.4697
    6.720   12.7436
    6.735   13.2280
    6.750   13.3228
    6.765   12.5540
    6.780   11.6798
    6.795   10.6161
    6.810    9.7736
    6.825    9.1943
    6.840    8.5729
    6.855    8.1727
    6.870    8.3096
    6.885    8.1622
    6.900    7.6672
    6.915    7.9305
    6.930    7.6672
    6.945    8.0779
    6.960    7.9305
    6.975    7.7830
    6.990    7.6777
    7.005    7.6461
    7.020    8.1201
    7.035    8.0990
    7.050    8.2359
    7.065    8.0358
    7.080    8.0674
    7.095    8.3096
    7.110    7.8462
    7.125    7.8673
    7.140    7.6777
    7.155    8.0253
    7.170    8.0358
    7.185    8.0674
    7.200    7.7514
    7.215    7.7304
    7.230    7.5724
    7.245    7.7620
    7.260    7.6988
    7.275    8.0358
    7.290    8.0253
    7.305    8.1517
    7.320    7.6672
    7.335    7.9094
    7.350    8.0569
    7.365    7.8989
    7.380    7.8462
    7.395    8.1306
    7.410    8.0885
    7.425    8.4044
    7.440    7.9726
    7.455    7.9621
    7.470    8.1833
    7.485    8.2359
    7.500    8.2254
    7.515    7.9621
    7.530    8.3412
    7.545    8.1201
    7.560    8.2991
    7.575    8.8046
    7.590    8.6256
    7.605    8.7309
    7.620    9.1522
    7.635    8.9310
    7.650    9.1417
    7.665    9.6472
    7.680   10.0685
    7.695   10.1422
    7.710   10.4160
    7.725   10.5108
    7.740   10.6477
    7.755   11.2270
    7.770   11.4060
    7.785   11.5956
    7.800   11.3428
    7.815   11.1848
    7.830   10.8268
    7.845   10.4581
    7.860    9.6367
    7.875    8.9100
    7.890    8.2254
    7.905    8.2570
    7.920    8.1727
    7.935    8.2359
    7.950    8.4360
    7.965    7.9726
    7.980    8.2359
    7.995    7.8884
    8.010    8.3834
    8.025    8.5308
    8.040    7.8146
    8.055    7.8568
    8.070    7.9937
    8.085    7.9305
    8.100    7.5513
    8.115    7.8462
    8.130    7.6567
    8.145    7.8146
    8.160    8.1938
    8.175    7.9621
    8.190    8.2149
    8.205    7.5935
    8.220    7.9937
    8.235    8.0674
    8.250    8.3307
    8.265    7.7514
    8.280    7.9621
    8.295    7.8041
    8.310    7.6883
    8.325    7.8357
    8.340    7.9305
    8.355    7.9831
    8.370    8.5413
    8.385    8.1938
    8.400    7.4355
    8.415    7.8146
    8.430    8.2149
    8.445    8.0253
    8.460    8.2675
    8.475    8.0674
    8.490    8.0253
    8.505    8.0674
    8.520    8.3412
    8.535    7.8357
    8.550    7.9516
    8.565    7.9516
    8.580    8.2675
    8.595    8.5729
    8.610    8.5940
    8.625    8.4360
    8.640    8.2464
    8.655    8.2149
    8.670    8.4150
    8.685    7.8568
    8.700    8.3834
    8.715    8.6151
    8.730    8.6677
    8.745    9.0574
    8.760    8.2991
    8.775    8.4466
    8.790    8.2570
    8.805    7.9621
    8.820    7.6356
    8.835    7.9516
    8.850    8.0990
    8.865    7.9937
    8.880    8.1833
    8.895    8.2991
    8.910    8.3518
    8.925    8.2886
    8.940    8.2149
    8.955    8.0463
    8.970    8.4044
    8.985    8.3307
    9.000    8.4150
    9.015    8.2886
    9.030    8.2254
    9.045    8.5097
    9.060    8.2043
    9.075    8.5308
    9.090    8.3096
    9.105    8.6361
    9.120    8.6361
    9.135    8.7098
    9.150    8.3202
    9.165    8.2043
    9.180    8.7204
    9.195    8.7836
    9.210    8.6151
    9.225    8.7836
    9.240    8.7098
    9.255    8.8362
    9.270    8.7520
    9.285    9.0047
    9.300    9.0679
    9.315    9.4260
    9.330    9.6156
    9.345   10.0263
    9.360   10.1316
    9.375   10.0895
    9.390    9.9210
    9.405    9.9526
    9.420   10.8478
    9.435   11.0690
    9.450   11.3217
    9.465   12.2591
    9.480   13.0174
    9.495   13.8389
    9.510   13.9652
    9.525   14.9026
    9.540   15.1132
    9.555   15.2607
    9.570   15.1027
    9.585   14.5129
    9.600   13.1964
    9.615   11.7220
    9.630   11.1111
    9.645   10.0053
    9.660    9.6893
    9.675    9.0890
    9.690    8.8046
    9.705    8.5519
    9.720    8.6993
    9.735    8.7625
    9.750    8.4360
    9.765    8.2043
    9.780    8.2675
    9.795    8.4466
    9.810    8.0042
    9.825    8.2464
    9.840    8.0885
    9.855    7.8252
    9.870    8.2043
    9.885    8.1833
    9.900    8.6045
    9.915    8.4255
    9.930    7.9726
    9.945    7.8568
    9.960    8.1517
    9.975    8.4571
    9.990    7.9831
   10.005    8.3518
   10.020    8.3728
   10.035    8.2570
   10.050    8.4571
   10.065    8.0358
   10.080    8.3307
   10.095    8.3307
   10.110    8.3412
   10.125    8.7625
   10.140    8.8046
   10.155    8.5203
   10.170    8.7309
   10.185    9.2680
   10.200    9.2680
   10.215    9.0995
   10.230    9.2048
   10.245    9.0153
   10.260    9.6788
   10.275   10.3423
   10.290   10.8373
   10.305   10.4687
   10.320   10.7425
   10.335   10.3949
   10.350    9.7736
   10.365    9.4997
   10.380    9.6577
   10.395    9.2680
   10.410    9.3312
   10.425    8.8046
   10.440    8.5519
   10.455    8.6993
   10.470    8.0463
   10.485    8.3518
   10.500    8.3518
   10.515    8.1201
   10.530    8.2570
   10.545    8.6467
   10.560    8.2359
   10.575    8.2464
   10.590    8.1938
   10.605    8.2149
   10.620    8.0885
   10.635    7.9094
   10.650    7.9726
   10.665    8.0042
   10.680    7.8252
   10.695    7.6777
   10.710    7.8884
   10.725    7.5619
   10.740    8.3623
   10.755    8.4992
   10.770    8.5097
   10.785    8.1938
   10.800    8.5203
   10.815    8.3412
   10.830    8.0674
   10.845    8.4781
   10.860    8.5097
   10.875    8.5729
   10.890    8.6572
   10.905    8.7414
   10.920    9.2048
   10.935    9.0047
   10.950    8.9942
   10.965    9.5419
   10.980    9.5840
   10.995    9.5945
   11.010    9.7841
   11.025   10.1948
   11.040   10.6056
   11.055   10.5845
   11.070   10.2475
   11.085    9.5208
   11.100    9.3102
   11.115    8.3623
   11.130    8.2570
   11.145    8.2359
   11.160    8.4360
   11.175    8.2570
   11.190    8.1622
   11.205    7.7514
   11.220    7.7199
   11.235    8.0147
   11.250    7.6988
   11.265    7.5513
   11.280    7.4882
   11.295    7.9305
   11.310    7.9516
   11.325    8.3939
   11.340    7.5619
   11.355    8.1727
   11.370    8.0147
   11.385    7.5935
   11.400    7.1827
   11.415    7.8462
   11.430    7.7830
   11.445    8.4360
   11.460    7.5408
   11.475    8.2991
   11.490    7.8673
   11.505    7.8673
   11.520    7.8252
   11.535    7.8462
   11.550    8.2043
   11.565    8.5413
   11.580    8.4571
   11.595    8.9521
   11.610    9.2680
   11.625    9.0153
   11.640    8.9310
   11.655    9.0574
   11.670    8.9521
   11.685    9.6788
   11.700   10.6266
   11.715   10.6266
   11.730    9.3839
   11.745    9.3102
   11.760    9.1627
   11.775    8.6045
   11.790    8.1095
   11.805    8.2991
   11.820    7.9726
   11.835    7.5935
   11.850    7.9726
   11.865    7.3512
   11.880    7.5935
   11.895    7.5092
   11.910    7.6040
   11.925    7.3934
   11.940    7.0353
   11.955    7.2249
   11.970    7.4882
   11.985    7.3196
   12.000    7.4987
   12.015    7.3934
   12.030    7.1090
   12.045    7.0458
   12.060    7.5408
   12.075    7.3196
   12.090    6.9826
   12.105    6.9194
   12.120    7.2459
   12.135    7.5092
   12.150    7.7936
   12.165    7.6461
   12.180    7.2775
   12.195    7.6040
   12.210    7.0774
   12.225    7.1827
   12.240    7.1933
   12.255    7.5829
   12.270    7.1406
   12.285    7.0353
   12.300    7.3302
   12.315    7.3512
   12.330    7.6356
   12.345    7.6883
   12.360    7.5935
   12.375    7.7304
   12.390    7.3512
   12.405    7.2986
   12.420    7.3828
   12.435    7.0248
   12.450    6.7088
   12.465    7.0879
   12.480    7.3091
   12.495    7.2670
   12.510    7.3091
   12.525    7.4671
   12.540    6.8562
   12.555    7.2459
   12.570    7.2986
   12.585    7.1617
   12.600    7.2670
   12.615    7.3407
   12.630    7.5724
   12.645    7.4776
   12.660    7.0458
   12.675    7.2565
   12.690    7.2880
   12.705    7.0248
   12.720    7.2143
   12.735    7.2880
   12.750    7.5092
   12.765    7.3512
   12.780    7.2354
   12.795    7.3196
   12.810    7.4882
   12.825    7.7725
   12.840    7.4776
   12.855    7.5724
   12.870    7.9200
   12.885    8.0358
   12.900    8.6256
   12.915    8.8152
   12.930    8.6045
   12.945    8.8889
   12.960    8.9100
   12.975    8.5308
   12.990    8.1201
   13.005    8.2149
   13.020    7.9831
   13.035    7.5935
   13.050    7.5197
   13.065    7.5619
   13.080    7.2038
   13.095    7.0985
   13.110    7.2670
   13.125    7.1933
   13.140    7.1301
   13.155    7.2143
   13.170    7.1933
   13.185    7.4355
   13.200    7.1195
   13.215    6.9405
   13.230    6.7193
   13.245    7.2565
   13.260    7.1617
   13.275    7.1090
   13.290    7.1511
   13.305    6.7509
   13.320    6.6877
   13.335    7.2038
   13.350    7.0563
   13.365    7.2143
   13.380    7.2143
   13.395    7.1406
   13.410    6.8141
   13.425    6.8141
   13.440    7.6461
   13.455    7.4355
   13.470    7.6251
   13.485    7.6145
   13.500    7.2143
   13.515    7.1827
   13.530    7.5303
   13.545    7.6672
   13.560    7.6251
   13.575    7.3407
   13.590    7.6567
   13.605    7.9516
   13.620    7.4039
   13.635    7.3723
   13.650    7.0774
   13.665    6.9300
   13.680    7.2249
   13.695    7.3407
   13.710    7.1617
   13.725    7.3302
   13.740    6.9826
   13.755    7.3091
   13.770    6.9089
   13.785    7.2565
   13.800    6.6983
   13.815    6.6561
   13.830    7.2565
   13.845    7.2038
   13.860    7.0774
   13.875    7.2880
   13.890    7.0774
   13.905    7.0248
   13.920    7.2038
   13.935    7.1090
   13.950    7.4460
   13.965    7.1195
   13.980    7.5619
   13.995    8.0042
   14.010    7.9726
   14.025    8.0674
   14.040    7.5513
   14.055    7.8357
   14.070    8.0569
   14.085    7.8673
   14.100    7.8146
   14.115    8.3728
   14.130    8.3307
   14.145    8.2675
   14.160    7.6145
   14.175    7.6145
   14.190    7.5829
   14.205    7.5092
   14.220    7.3196
   14.235    7.2880
   14.250    7.4355
   14.265    7.3302
   14.280    7.0458
   14.295    7.1301
   14.310    6.8352
   14.325    6.8036
   14.340    6.7404
   14.355    6.7299
   14.370    6.8141
   14.385    6.7509
   14.400    6.6140
   14.415    6.5403
   14.430    6.8984
   14.445    7.4250
   14.460    7.2670
   14.475    7.0669
   14.490    6.9721
   14.505    7.1301
   14.520    6.8773
   14.535    6.6140
   14.550    7.1722
   14.565    7.3934
   14.580    6.8352
   14.595    6.9089
   14.610    6.8562
   14.625    6.4666
   14.640    6.7404
   14.655    7.0037
   14.670    7.0353
   14.685    7.0248
   14.700    7.1617
   14.715    6.8984
   14.730    7.0458
   14.745    7.1090
   14.760    7.0037
   14.775    7.1617
   14.790    6.6983
   14.805    7.1722
   14.820    6.6983
   14.835    6.5192
   14.850    6.7720
   14.865    6.9826
   14.880    7.1511
   14.895    6.9405
   14.910    6.6772
   14.925    7.0037
   14.940    6.9510
   14.955    7.0037
   14.970    6.8457
   14.985    6.9405
   15.000    6.6561
   15.015    6.5719
   15.030    6.8878
   15.045    6.9089
   15.060    6.9194
   15.075    6.9616
   15.090    7.2354
   15.105    6.9300
   15.120    7.2038
   15.135    7.5092
   15.150    7.2670
   15.165    7.6040
   15.180    7.1090
   15.195    7.1301
   15.210    7.1617
   15.225    7.0985
   15.240    7.3302
   15.255    6.6351
   15.270    6.8246
   15.285    6.6877
   15.300    6.5508
   15.315    6.5613
   15.330    6.7299
   15.345    6.7930
   15.360    7.3828
   15.375    7.1195
   15.390    6.9194
   15.405    7.1722
   15.420    6.8878
   15.435    6.9932
   15.450    6.9721
   15.465    7.0142
   15.480    6.9932
   15.495    6.6561
   15.510    6.9616
   15.525    7.1195
   15.540    6.4244
   15.555    7.1617
   15.570    7.1617
   15.585    6.4455
   15.600    6.7404
   15.615    7.1301
   15.630    7.2354
   15.645    7.0563
   15.660    7.1301
   15.675    7.2143
   15.690    6.8246
   15.705    7.2249
   15.720    7.4144
   15.735    7.2143
   15.750    6.9089
   15.765    6.6456
   15.780    6.8141
   15.795    6.5824
   15.810    7.2143
   15.825    7.0563
   15.840    6.9616
   15.855    6.6456
   15.870    6.9300
   15.885    6.4350
   15.900    6.9405
   15.915    7.0879
   15.930    6.5824
   15.945    7.0142
   15.960    7.1301
   15.975    6.8984
   15.990    6.8246
   16.005    7.2143
   16.020    6.8562
   16.035    7.1511
   16.050    7.1195
   16.065    7.1933
   16.080    6.9089
   16.095    6.7930
   16.110    6.9932
   16.125    7.7725
   16.140    7.5724
   16.155    7.4671
   16.170    7.5513
   16.185    7.4566
   16.200    7.5619
   16.215    6.9510
   16.230    7.0353
   16.245    7.1090
   16.260    7.2880
   16.275    7.5408
   16.290    7.3302
   16.305    7.1195
   16.320    6.8141
   16.335    7.0142
   16.350    6.9510
   16.365    6.8036
   16.380    6.7404
   16.395    6.9721
   16.410    7.2986
   16.425    7.3618
   16.440    6.9721
   16.455    6.8246
   16.470    6.9194
   16.485    7.4039
   16.500    6.9826
   16.515    7.1090
   16.530    7.4355
   16.545    7.6145
   16.560    7.1722
   16.575    6.8878
   16.590    7.2670
   16.605    7.1722
   16.620    7.0142
   16.635    7.2880
   16.650    7.6883
   16.665    7.0985
   16.680    6.8878
   16.695    7.2670
   16.710    7.2565
   16.725    6.9616
   16.740    6.8773
   16.755    6.9194
   16.770    7.1617
   16.785    7.3618
   16.800    7.6251
   16.815    7.1933
   16.830    6.8984
   16.845    7.1722
   16.860    7.2249
   16.875    7.2249
   16.890    7.4144
   16.905    7.2986
   16.920    7.3196
   16.935    7.3723
   16.950    7.5619
   16.965    7.4460
   16.980    7.3934
   16.995    7.2038
   17.010    7.5619
   17.025    8.2991
   17.040    7.8778
   17.055    8.1833
   17.070    7.7830
   17.085    7.6777
   17.100    7.9094
   17.115    7.7093
   17.130    7.6251
   17.145    7.5724
   17.160    7.4671
   17.175    7.1301
   17.190    7.3302
   17.205    7.1090
   17.220    7.3934
   17.235    7.3091
   17.250    7.0142
   17.265    7.2880
   17.280    7.0774
   17.295    6.9932
   17.310    6.7299
   17.325    7.0774
   17.340    7.0774
   17.355    7.0669
   17.370    6.8246
   17.385    6.9826
   17.400    7.2775
   17.415    7.0879
   17.430    7.1301
   17.445    7.2143
   17.460    6.8668
   17.475    7.0774
   17.490    7.3618
   17.505    7.2249
   17.520    7.0563
   17.535    7.0669
   17.550    7.3091
   17.565    7.2565
   17.580    7.1827
   17.595    7.0353
   17.610    6.9300
   17.625    7.4882
   17.640    6.9826
   17.655    7.4039
   17.670    7.3091
   17.685    7.1827
   17.700    6.9721
   17.715    7.0879
   17.730    7.1933
   17.745    7.1827
   17.760    7.3091
   17.775    7.0458
   17.790    7.0142
   17.805    7.1933
   17.820    7.0879
   17.835    6.8352
   17.850    7.2249
   17.865    7.1301
   17.880    6.8668
   17.895    6.9089
   17.910    7.1933
   17.925    7.1722
   17.940    6.9616
   17.955    7.4566
   17.970    7.3302
   17.985    6.9300
   18.000    7.0774
   18.015    7.2670
   18.030    7.1511
   18.045    7.2880
   18.060    6.8878
   18.075    6.7615
   18.090    7.3934
   18.105    7.1301
   18.120    7.0458
   18.135    6.8352
   18.150    6.9721
   18.165    6.9826
   18.180    6.9089
   18.195    6.7720
   18.210    6.7720
   18.225    6.8984
   18.240    7.1511
   18.255    7.2670
   18.270    6.9932
   18.285    6.8352
   18.300    7.0774
   18.315    6.7615
   18.330    6.5719
   18.345    7.6251
   18.360    7.5303
   18.375    6.8984
   18.390    7.1827
   18.405    7.4566
   18.420    7.7830
   18.435    7.4250
   18.450    7.4039
   18.465    7.3196
   18.480    7.2038
   18.495    6.9721
   18.510    7.0142
   18.525    6.8141
   18.540    7.0142
   18.555    7.0774
   18.570    6.9616
   18.585    7.2459
   18.600    6.8562
   18.615    7.0879
   18.630    7.1301
   18.645    6.9300
   18.660    6.9932
   18.675    6.9089
   18.690    7.0142
   18.705    7.1090
   18.720    7.4776
   18.735    7.2038
   18.750    6.9510
   18.765    7.0037
   18.780    6.9932
   18.795    7.2249
   18.810    6.9826
   18.825    7.1617
   18.840    7.2038
   18.855    7.5303
   18.870    7.4039
   18.885    6.9826
   18.900    6.7509
   18.915    7.4566
   18.930    7.4039
   18.945    7.5197
   18.960    7.4776
   18.975    7.4460
   18.990    7.3618
   19.005    7.7304
   19.020    7.5408
   19.035    7.4566
   19.050    7.2775
   19.065    7.4250
   19.080    6.9721
   19.095    6.8773
   19.110    6.7404
   19.125    7.0458
   19.140    7.0248
   19.155    6.9405
   19.170    7.0248
   19.185    6.8036
   19.200    6.8562
   19.215    7.2459
   19.230    7.0774
   19.245    6.9826
   19.260    7.0985
   19.275    7.0142
   19.290    6.9616
   19.305    7.0142
   19.320    6.8141
   19.335    7.0353
   19.350    7.1722
   19.365    7.0248
   19.380    6.8668
   19.395    7.2249
   19.410    7.2986
   19.425    7.0774
   19.440    7.2038
   19.455    6.9405
   19.470    7.0774
   19.485    7.2038
   19.500    7.4460
   19.515    7.0248
   19.530    7.2459
   19.545    6.8036
   19.560    7.3091
   19.575    7.4566
   19.590    7.1722
   19.605    7.6567
   19.620    7.4250
   19.635    7.2880
   19.650    7.2565
   19.665    7.4566
   19.680    7.6040
   19.695    7.3828
   19.710    6.9932
   19.725    6.9300
   19.740    7.0353
   19.755    6.7930
   19.770    7.0458
   19.785    7.1406
   19.800    7.0458
   19.815    7.3091
   19.830    7.0563
   19.845    7.0669
   19.860    7.3828
   19.875    7.2354
   19.890    7.2143
   19.905    6.7930
   19.920    6.9300
   19.935    7.0669
   19.950    7.2354
   19.965    7.0563
   19.980    7.1301
   19.995    7.2986
   20.010    7.1195
   20.025    7.0458
   20.040    7.2670
   20.055    7.1617
   20.070    6.8668
   20.085    6.7299
   20.100    6.9721
   20.115    6.7193
   20.130    7.0458
   20.145    6.9089
   20.160    6.9826
   20.175    7.2670
   20.190    7.3302
   20.205    7.2986
   20.220    7.4671
   20.235    7.2670
   20.250    7.2354
   20.265    7.4144
   20.280    7.2459
   20.295    7.3618
   20.310    7.4460
   20.325    7.7093
   20.340    7.9621
   20.355    7.7830
   20.370    7.6145
   20.385    8.2149
   20.400    8.0147
   20.415    7.5829
   20.430    7.5197
   20.445    7.6356
   20.460    7.4882
   20.475    7.4039
   20.490    7.5513
   20.505    7.4566
   20.520    7.4776
   20.535    7.0458
   20.550    7.2249
   20.565    7.2670
   20.580    7.3407
   20.595    7.3723
   20.610    7.2880
   20.625    7.1933
   20.640    6.9932
   20.655    6.5298
   20.670    6.8246
   20.685    7.2143
   20.700    6.6983
   20.715    6.9405
   20.730    7.1827
   20.745    6.8984
   20.760    7.2880
   20.775    7.3302
   20.790    7.1406
   20.805    6.8457
   20.820    7.1511
   20.835    7.4250
   20.850    7.1933
   20.865    7.0353
   20.880    7.0458
   20.895    6.5719
   20.910    7.2459
   20.925    7.0563
   20.940    6.9616
   20.955    7.0563
   20.970    6.7299
   20.985    7.2038
   21.000    6.8878
   21.015    6.6140
   21.030    6.6456
   21.045    6.7825
   21.060    7.2249
   21.075    7.1406
   21.090    6.9932
   21.105    7.1722
   21.120    6.9616
   21.135    7.0248
   21.150    6.9089
   21.165    6.9721
   21.180    6.8878
   21.195    7.0248
   21.210    6.9089
   21.225    6.8036
   21.240    6.9826
   21.255    6.9616
   21.270    7.1301
   21.285    7.0248
   21.300    7.0669
   21.315    7.2249
   21.330    7.1090
   21.345    7.2459
   21.360    7.6356
   21.375    7.3302
   21.390    7.2038
   21.405    7.6040
   21.420    7.9410
   21.435    7.0037
   21.450    6.8984
   21.465    6.9616
   21.480    7.2459
   21.495    7.0248
   21.510    6.9510
   21.525    7.3723
   21.540    7.3512
   21.555    7.2775
   21.570    7.1301
   21.585    7.4460
   21.600    7.2143
   21.615    7.3618
   21.630    6.9721
   21.645    6.8878
   21.660    7.0142
   21.675    7.3934
   21.690    7.2459
   21.705    7.1933
   21.720    7.0985
   21.735    7.0985
   21.750    7.2459
   21.765    6.9826
   21.780    6.9405
   21.795    7.0669
   21.810    7.3407
   21.825    7.2986
   21.840    7.4566
   21.855    7.3828
   21.870    7.5408
   21.885    7.3828
   21.900    7.7936
   21.915    7.2986
   21.930    7.1617
   21.945    6.8773
   21.960    7.1301
   21.975    7.2143
   21.990    7.3934
   22.005    7.6567
   22.020    7.3407
   22.035    7.1617
   22.050    7.1933
   22.065    7.0879
   22.080    7.1511
   22.095    7.3828
   22.110    7.7514
   22.125    7.3091
   22.140    7.1722
   22.155    8.0779
   22.170    7.4460
   22.185    7.3091
   22.200    7.3091
   22.215    7.5724
   22.230    7.4671
   22.245    7.8146
   22.260    7.1195
   22.275    7.3302
   22.290    7.2670
   22.305    7.4882
   22.320    7.3723
   22.335    7.3934
   22.350    7.4987
   22.365    7.5408
   22.380    7.7199
   22.395    7.8884
   22.410    7.2038
   22.425    6.9510
   22.440    7.0142
   22.455    7.8568
   22.470    7.5935
   22.485    7.6988
   22.500    7.6567
   22.515    8.2675
   22.530    8.1517
   22.545    8.1622
   22.560    8.0990
   22.575    8.6572
   22.590    8.3518
   22.605    8.6888
   22.620    7.9410
   22.635    7.9305
   22.650    7.8462
   22.665    7.9516
   22.680    8.1517
   22.695    7.8884
   22.710    7.5829
   22.725    7.3196
   22.740    7.5197
   22.755    7.9937
   22.770    7.8146
   22.785    7.8252
   22.800    7.5303
   22.815    7.8673
   22.830    7.6883
   22.845    7.9305
   22.860    7.8252
   22.875    8.2254
   22.890    7.4355
   22.905    7.8462
   22.920    8.0674
   22.935    7.8357
   22.950    7.9094
   22.965    7.6567
   22.980    7.9726
   22.995    7.9094
   23.010    8.0779
   23.025    7.8462
   23.040    7.7304
   23.055    7.3512
   23.070    7.2670
   23.085    7.1511
   23.100    7.5092
   23.115    7.4671
   23.130    7.5303
   23.145    7.2143
   23.160    7.4144
   23.175    7.5408
   23.190    7.8252
   23.205    7.1827
   23.220    7.0879
   23.235    7.4355
   23.250    7.4355
   23.265    7.5408
   23.280    7.3828
   23.295    7.7830
   23.310    7.3407
   23.325    7.3302
   23.340    7.0563
   23.355    7.4144
   23.370    7.7620
   23.385    7.5724
   23.400    7.2354
   23.415    7.1827
   23.430    7.4671
   23.445    7.5619
   23.460    7.5619
   23.475    7.1406
   23.490    7.0458
   23.505    7.2249
   23.520    7.3196
   23.535    7.3407
   23.550    7.0669
   23.565    7.0985
   23.580    7.2249
   23.595    7.3723
   23.610    7.5619
   23.625    7.0985
   23.640    6.8668
   23.655    7.4039
   23.670    7.1406
   23.685    7.4144
   23.700    7.2565
   23.715    7.5408
   23.730    7.3196
   23.745    7.0458
   23.760    7.1195
   23.775    7.1722
   23.790    6.9194
   23.805    7.0142
   23.820    6.8352
   23.835    7.0985
   23.850    7.2038
   23.865    7.4039
   23.880    7.3091
   23.895    6.9932
   23.910    7.7936
   23.925    7.5619
   23.940    7.3618
   23.955    7.4460
   23.970    7.7725
   23.985    7.2565
   24.000    6.8141
   24.015    6.9510
   24.030    7.3302
   24.045    7.6251
   24.060    7.6040
   24.075    7.2565
   24.090    7.4671
   24.105    7.6567
   24.120    7.6988
   24.135    6.9932
   24.150    7.0669
   24.165    7.1617
   24.180    7.1722
   24.195    7.0774
   24.210    7.4987
   24.225    7.2880
   24.240    6.8036
   24.255    6.7509
   24.270    6.9405
   24.285    7.0037
   24.300    7.3512
   24.315    6.9826
   24.330    7.1827
   24.345    7.1406
   24.360    7.2775
   24.375    7.2038
   24.390    6.8457
   24.405    6.9194
   24.420    7.1722
   24.435    6.8984
   24.450    6.8773
   24.465    6.7404
   24.480    6.4666
   24.495    7.0879
   24.510    7.1301
   24.525    7.1301
   24.540    7.0879
   24.555    6.9826
   24.570    6.9721
   24.585    7.1090
   24.600    7.1195
   24.615    7.0774
   24.630    6.8246
   24.645    6.7088
   24.660    7.0458
   24.675    7.0037
   24.690    7.0879
   24.705    6.6667
   24.720    7.0037
   24.735    7.3407
   24.750    6.8036
   24.765    7.2038
   24.780    7.0669
   24.795    6.7930
   24.810    7.3407
   24.825    7.0669
   24.840    6.9089
   24.855    6.4666
   24.870    6.9089
   24.885    7.1090
   24.900    7.0563
   24.915    7.1511
   24.930    7.0669
   24.945    7.1511
   24.960    7.1617
   24.975    7.1827
   24.990    7.0353
   25.005    6.6140
   25.020    6.8141
   25.035    7.0142
   25.050    7.1090
   25.065    7.1090
   25.080    6.5298
   25.095    6.6877
   25.110    7.0669
   25.125    7.1195
   25.140    7.0458
   25.155    7.1406
   25.170    7.4355
   25.185    7.1090
   25.200    7.1195
   25.215    7.2565
   25.230    6.9510
   25.245    7.1090
   25.260    6.9405
   25.275    6.9932
   25.290    7.2354
   25.305    7.4776
   25.320    7.2986
   25.335    6.8141
   25.350    6.6877
   25.365    7.5619
   25.380    7.1722
   25.395    6.9405
   25.410    6.7825
   25.425    6.9510
   25.440    7.3723
   25.455    7.1722
   25.470    6.6667
   25.485    7.2670
   25.500    6.9616
   25.515    7.0353
   25.530    6.8878
   25.545    6.9616
   25.560    7.3091
   25.575    7.4355
   25.590    7.2354
   25.605    7.4039
   25.620    7.1090
   25.635    6.9194
   25.650    7.1933
   25.665    6.8984
   25.680    7.1301
   25.695    7.5619
   25.710    6.9721
   25.725    7.2354
   25.740    6.9510
   25.755    7.1511
   25.770    6.8141
   25.785    7.1617
   25.800    7.3828
   25.815    7.4776
   25.830    7.1827
   25.845    7.4039
   25.860    7.3828
   25.875    7.2143
   25.890    7.0248
   25.905    7.4987
   25.920    7.8568
   25.935    7.1617
   25.950    7.2986
   25.965    6.9826
   25.980    6.6351
   25.995    6.8878
   26.010    6.6456
   26.025    6.8036
   26.040    7.0669
   26.055    6.6561
   26.070    6.7088
   26.085    7.1511
   26.100    7.0669
   26.115    7.0142
   26.130    6.7088
   26.145    7.0458
   26.160    7.1827
   26.175    6.7930
   26.190    6.5824
   26.205    6.5929
   26.220    6.6456
   26.235    6.8141
   26.250    6.7825
   26.265    6.8352
   26.280    6.7088
   26.295    6.8457
   26.310    7.0563
   26.325    6.9300
   26.340    6.5824
   26.355    6.9616
   26.370    6.9194
   26.385    7.1511
   26.400    7.2038
   26.415    6.7404
   26.430    6.5403
   26.445    6.8036
   26.460    6.5824
   26.475    6.8036
   26.490    6.8984
   26.505    6.8668
   26.520    6.7509
   26.535    6.6245
   26.550    6.5929
   26.565    6.7825
   26.580    6.9405
   26.595    7.1406
   26.610    7.0879
   26.625    7.1195
   26.640    7.0563
   26.655    6.9616
   26.670    6.5929
   26.685    6.6561
   26.700    6.7615
   26.715    6.9089
   26.730    6.5824
   26.745    6.7193
   26.760    6.8984
   26.775    6.6456
   26.790    7.0248
   26.805    6.9826
   26.820    6.3402
   26.835    6.8457
   26.850    6.6245
   26.865    6.6351
   26.880    6.6561
   26.895    7.1301
   26.910    6.9826
   26.925    6.8562
   26.940    6.7193
   26.955    7.2775
   26.970    7.0353
   26.985    6.9405
   27.000    7.0353
   27.015    6.9405
   27.030    6.8141
   27.045    7.0142
   27.060    6.8562
   27.075    6.6140
   27.090    6.6983
   27.105    6.9721
   27.120    7.1933
   27.135    7.1301
   27.150    7.0774
   27.165    6.8352
   27.180    6.7825
   27.195    6.7193
   27.210    6.6983
   27.225    6.4666
   27.240    6.7720
   27.255    6.8036
   27.270    6.2559
   27.285    6.7825
   27.300    6.6035
   27.315    6.6140
   27.330    6.3612
   27.345    6.5824
   27.360    6.6351
   27.375    6.7088
   27.390    6.6667
   27.405    6.4034
   27.420    6.1295
   27.435    6.2033
   27.450    6.3612
   27.465    6.3612
   27.480    6.6035
   27.495    6.5508
   27.510    6.4771
   27.525    6.4034
   27.540    6.4666
   27.555    6.5508
   27.570    6.7615
   27.585    6.7615
   27.600    6.9616
   27.615    6.7930
   27.630    6.6245
   27.645    6.5403
   27.660    6.1927
   27.675    6.5613
   27.690    6.8773
   27.705    6.6351
   27.720    6.6245
   27.735    6.9194
   27.750    6.7404
   27.765    6.7404
   27.780    6.7404
   27.795    6.7404
   27.810    6.6983
   27.825    6.8036
   27.840    6.6351
   27.855    6.8141
   27.870    6.4139
   27.885    6.6035
   27.900    6.5613
   27.915    6.4350
   27.930    6.5719
   27.945    7.1090
   27.960    6.9616
   27.975    6.9721
   27.990    6.9405
   28.005    7.2143
   28.020    7.2038
   28.035    6.8984
   28.050    7.1195
   28.065    7.0248
   28.080    6.6456
   28.095    6.8878
   28.110    6.7509
   28.125    6.9932
   28.140    6.7088
   28.155    6.8457
   28.170    7.0669
   28.185    6.7509
   28.200    6.7615
   28.215    6.6456
   28.230    6.7193
   28.245    6.8668
   28.260    6.5087
   28.275    6.5719
   28.290    6.9826
   28.305    6.7825
   28.320    6.7088
   28.335    6.4244
   28.350    6.6561
   28.365    6.9300
   28.380    6.3718
   28.395    6.5719
   28.410    6.8141
   28.425    6.5403
   28.440    6.4560
   28.455    6.4666
   28.470    6.6456
   28.485    6.8141
   28.500    6.9721
   28.515    6.7615
   28.530    6.7088
   28.545    6.6877
   28.560    6.5087
   28.575    6.4139
   28.590    6.4666
   28.605    6.7825
   28.620    6.5719
   28.635    6.4666
   28.650    6.0769
   28.665    6.5613
   28.680    6.2454
   28.695    6.5087
   28.710    6.1295
   28.725    6.3086
   28.740    6.8457
   28.755    6.8141
   28.770    6.1611
   28.785    6.3507
   28.800    6.1611
   28.815    6.3612
   28.830    6.0979
   28.845    6.3718
   28.860    6.5508
   28.875    6.4771
   28.890    6.5508
   28.905    6.6351
   28.920    6.5087
   28.935    6.4876
   28.950    6.2770
   28.965    6.4666
   28.980    6.3507
   28.995    6.4560
   29.010    6.4666
   29.025    6.5403
   29.040    6.2454
   29.055    6.2770
   29.070    6.7193
   29.085    6.0664
   29.100    6.5403
   29.115    6.3402
   29.130    6.2665
   29.145    6.2033
   29.160    6.6035
   29.175    6.2875
   29.190    6.3402
   29.205    6.4560
   29.220    6.9510
   29.235    6.4139
   29.250    6.2454
   29.265    6.1927
   29.280    6.6983
   29.295    6.5192
   29.310    6.9194
   29.325    6.5403
   29.340    6.3191
   29.355    6.1506
   29.370    6.1190
   29.385    6.3823
   29.400    6.2770
   29.415    6.6140
   29.430    6.4771
   29.445    6.3823
   29.460    6.1927
   29.475    6.3823
   29.490    6.2349
   29.505    6.0769
   29.520    6.1190
   29.535    5.9505
   29.550    6.1717
   29.565    6.3402
   29.580    6.5403
   29.595    6.5824
   29.610    6.4876
   29.625    6.4560
   29.640    6.4771
   29.655    6.5192
   29.670    6.6035
   29.685    6.5719
   29.700    6.4876
   29.715    6.6667
   29.730    6.1190
   29.745    6.4244
   29.760    6.2559
   29.775    6.4244
   29.790    6.2349
   29.805    6.2243
   29.820    6.3823
   29.835    6.5508
   29.850    6.2243
   29.865    6.2559
   29.880    6.2770
   29.895    6.2033
   29.910    6.1611
   29.925    6.1927
   29.940    6.4350
   29.955    6.1085
   29.970    6.2138
   29.985    6.2349
   30.000    6.3612
   30.015    6.0453
   30.030    5.8452
   30.045    6.4244
   30.060    5.9821
   30.075    5.9505
   30.090    6.1611
   30.105    6.3191
   30.120    5.8873
   30.135    6.0032
   30.150    5.9400
   30.165    5.7188
   30.180    6.1611
   30.195    5.9505
   30.210    5.7925
   30.225    6.6667
   30.240    6.3191
   30.255    6.1295
   30.270    5.8136
   30.285    5.7609
   30.300    6.4244
   30.315    6.0769
   30.330    6.0874
   30.345    6.0242
   30.360    6.1822
   30.375    6.0032
   30.390    6.2981
   30.405    6.2770
   30.420    6.1190
   30.435    5.8978
   30.450    5.9610
   30.465    6.2665
   30.480    6.4982
   30.495    6.1611
   30.510    6.0664
   30.525    6.0242
   30.540    6.4455
   30.555    6.4244
   30.570    6.2665
   30.585    6.1927
   30.600    5.7083
   30.615    6.0453
   30.630    6.1927
   30.645    6.1822
   30.660    6.5087
   30.675    6.2875
   30.690    6.2875
   30.705    6.2349
   30.720    6.3718
   30.735    6.0769
   30.750    6.3086
   30.765    5.9610
   30.780    6.1611
   30.795    6.0242
   30.810    5.9926
   30.825    6.0874
   30.840    5.8031
   30.855    6.0137
   30.870    6.1927
   30.885    6.1401
   30.900    5.7504
   30.915    6.5824
   30.930    6.1506
   30.945    6.1611
   30.960    6.1506
   30.975    6.2559
   30.990    5.9926
   31.005    6.3612
   31.020    5.8136
   31.035    5.9610
   31.050    6.3086
   31.065    6.0453
   31.080    6.3086
   31.095    6.3296
   31.110    6.0453
   31.125    6.2349
   31.140    6.0137
   31.155    6.0979
   31.170    6.0348
   31.185    6.0032
   31.200    5.9926
   31.215    6.1822
   31.230    6.0453
   31.245    5.8031
   31.260    6.1295
   31.275    5.8557
   31.290    5.9716
   31.305    6.4244
   31.320    6.2243
   31.335    5.9400
   31.350    5.9926
   31.365    6.4350
   31.380    6.3507
   31.395    6.1401
   31.410    6.0769
   31.425    6.0558
   31.440    5.9716
   31.455    6.3507
   31.470    5.8347
   31.485    6.2665
   31.500    5.9084
   31.515    5.8031
   31.530    5.8136
   31.545    6.4034
   31.560    6.0558
   31.575    6.2243
   31.590    6.2033
   31.605    6.0979
   31.620    6.0242
   31.635    5.8662
   31.650    6.0242
   31.665    5.9189
   31.680    6.4560
   31.695    6.2665
   31.710    6.1717
   31.725    6.2981
   31.740    5.9926
   31.755    5.9189
   31.770    5.7504
   31.785    6.4876
   31.800    6.1506
   31.815    6.3718
   31.830    6.5403
   31.845    6.6772
   31.860    6.4244
   31.875    6.3296
   31.890    6.4771
   31.905    6.2243
   31.920    5.9821
   31.935    6.2454
   31.950    6.4034
   31.965    6.2454
   31.980    5.9189
   31.995    6.1717
   32.010    6.4982
   32.025    6.2559
   32.040    6.2981
   32.055    6.4455
   32.070    6.6245
   32.085    6.4666
   32.100    6.4139
   32.115    6.8984
   32.130    7.0669
   32.145    6.8246
   32.160    6.3507
   32.175    6.0664
   32.190    6.5298
   32.205    6.3296
   32.220    6.2033
   32.235    6.1611
   32.250    6.2665
   32.265    5.8241
   32.280    5.8241
   32.295    5.9400
   32.310    6.2981
   32.325    5.9400
   32.340    5.8136
   32.355    5.6872
   32.370    5.6661
   32.385    5.8662
   32.400    5.9505
   32.415    5.7504
   32.430    5.9189
   32.445    5.6661
   32.460    5.5187
   32.475    5.7504
   32.490    5.9926
   32.505    5.7188
   32.520    5.7188
   32.535    5.9294
   32.550    6.1611
   32.565    6.3928
   32.580    6.1506
   32.595    5.9926
   32.610    5.8873
   32.625    5.9084
   32.640    5.4766
   32.655    5.7925
   32.670    5.9400
   32.685    5.8978
   32.700    5.8136
   32.715    5.5819
   32.730    5.7925
   32.745    5.7820
   32.760    6.1190
   32.775    6.1190
   32.790    6.0032
   32.805    5.3818
   32.820    5.6977
   32.835    5.6977
   32.850    5.8136
   32.865    5.6345
   32.880    5.7925
   32.895    5.6661
   32.910    6.2033
   32.925    5.5503
   32.940    6.0032
   32.955    6.0242
   32.970    5.9294
   32.985    5.5503
   33.000    5.6872
   33.015    5.9294
   33.030    6.0242
   33.045    5.7188
   33.060    5.8662
   33.075    5.8031
   33.090    5.8557
   33.105    5.8557
   33.120    6.1611
   33.135    5.8347
   33.150    5.5924
   33.165    5.4766
   33.180    5.6345
   33.195    5.1711
   33.210    5.8136
   33.225    5.8768
   33.240    5.7609
   33.255    5.7188
   33.270    5.8557
   33.285    5.6240
   33.300    5.8241
   33.315    5.9294
   33.330    6.0137
   33.345    5.8452
   33.360    5.7504
   33.375    5.6345
   33.390    6.0242
   33.405    6.0979
   33.420    5.9716
   33.435    5.6556
   33.450    5.4871
   33.465    5.8136
   33.480    5.9189
   33.495    5.4555
   33.510    5.7188
   33.525    5.9084
   33.540    6.0664
   33.555    5.7399
   33.570    5.9294
   33.585    5.7188
   33.600    5.9400
   33.615    5.9505
   33.630    5.6240
   33.645    5.5714
   33.660    5.6872
   33.675    5.8347
   33.690    5.9505
   33.705    5.8557
   33.720    5.9294
   33.735    5.7188
   33.750    5.8347
   33.765    5.9821
   33.780    6.3402
   33.795    6.6877
   33.810    6.2665
   33.825    6.3296
   33.840    5.8347
   33.855    5.9294
   33.870    6.0348
   33.885    5.9400
   33.900    5.9821
   33.915    6.0769
   33.930    5.8557
   33.945    5.8452
   33.960    5.7083
   33.975    5.8768
   33.990    5.5082
   34.005    5.7925
   34.020    5.4344
   34.035    5.8241
   34.050    5.9821
   34.065    5.7083
   34.080    5.6872
   34.095    5.7293
   34.110    5.3502
   34.125    5.4239
   34.140    5.6029
   34.155    5.6240
   34.170    5.6556
   34.185    5.1711
   34.200    5.5714
   34.215    5.9294
   34.230    5.5924
   34.245    5.8347
   34.260    5.8452
   34.275    5.5819
   34.290    5.5608
   34.305    5.5924
   34.320    5.6029
   34.335    5.3291
   34.350    5.5714
   34.365    5.6029
   34.380    5.5819
   34.395    5.3502
   34.410    5.6451
   34.425    5.5398
   34.440    5.1395
   34.455    5.2659
   34.470    5.5187
   34.485    5.7188
   34.500    5.5819
   34.515    5.4028
   34.530    5.6345
   34.545    5.7820
   34.560    5.5819
   34.575    5.5292
   34.590    5.1501
   34.605    5.1290
   34.620    5.3397
   34.635    5.4239
   34.650    5.6767
   34.665    5.6451
   34.680    5.4344
   34.695    5.7188
   34.710    5.5187
   34.725    5.5292
   34.740    5.1817
   34.755    5.1290
   34.770    5.5292
   34.785    5.3081
   34.800    5.6661
   34.815    5.5924
   34.830    5.3502
   34.845    5.6451
   34.860    5.6767
   34.875    5.4028
   34.890    5.2343
   34.905    5.0658
   34.920    5.1395
   34.935    5.6135
   34.950    5.3923
   34.965    5.4239
   34.980    5.5292
   34.995    5.6661
   35.010    5.6556
   35.025    5.4976
   35.040    5.6451
   35.055    5.6135
   35.070    5.5187
   35.085    5.4660
   35.100    5.5398
   35.115    5.5082
   35.130    5.8452
   35.145    5.2870
   35.160    5.2449
   35.175    5.5187
   35.190    5.6029
   35.205    5.3923
   35.220    5.2975
   35.235    5.6872
   35.250    5.7609
   35.265    5.4976
   35.280    5.4028
   35.295    5.4660
   35.310    5.1922
   35.325    5.2238
   35.340    5.4555
   35.355    5.2870
   35.370    5.1185
   35.385    5.0869
   35.400    5.7293
   35.415    5.5292
   35.430    5.5819
   35.445    5.4766
   35.460    5.5187
   35.475    5.1395
   35.490    5.5924
   35.505    5.3397
   35.520    5.3186
   35.535    5.3397
   35.550    5.4660
   35.565    5.7188
   35.580    5.4450
   35.595    5.2975
   35.610    5.8031
   35.625    5.7083
   35.640    5.4976
   35.655    5.5187
   35.670    5.4766
   35.685    5.5503
   35.700    5.1185
   35.715    5.2765
   35.730    5.7715
   35.745    5.6240
   35.760    5.7609
   35.775    5.3923
   35.790    5.7715
   35.805    5.2659
   35.820    5.1922
   35.835    5.6767
   35.850    5.4871
   35.865    5.4871
   35.880    5.2343
   35.895    5.6872
   35.910    5.6661
   35.925    5.7399
   35.940    5.5608
   35.955    5.5292
   35.970    5.4134
   35.985    5.0658
   36.000    5.3607
   36.015    5.8031
   36.030    5.5608
   36.045    4.8552
   36.060    5.1395
   36.075    5.4028
   36.090    5.6345
   36.105    5.5292
   36.120    5.3607
   36.135    5.3397
   36.150    5.2870
   36.165    5.1922
   36.180    5.2343
   36.195    5.6029
   36.210    5.4766
   36.225    5.7293
   36.240    5.8452
   36.255    5.5398
   36.270    5.4134
   36.285    5.2449
   36.300    5.3607
   36.315    5.1711
   36.330    5.1711
   36.345    5.3291
   36.360    5.4239
   36.375    5.5819
   36.390    5.4134
   36.405    5.4555
   36.420    5.3397
   36.435    5.1922
   36.450    5.3502
   36.465    5.7188
   36.480    5.3818
   36.495    5.3923
   36.510    5.2975
   36.525    5.1711
   36.540    5.4028
   36.555    5.3923
   36.570    5.2027
   36.585    5.4028
   36.600    5.3397
   36.615    5.4344
   36.630    5.6556
   36.645    5.4450
   36.660    5.2870
   36.675    5.2765
   36.690    5.1922
   36.705    5.3818
   36.720    5.5608
   36.735    5.2870
   36.750    5.5714
   36.765    5.6451
   36.780    5.4134
   36.795    5.4134
   36.810    5.0764
   36.825    5.5608
   36.840    5.5292
   36.855    5.5608
   36.870    5.4976
   36.885    5.1395
   36.900    5.3186
   36.915    5.2027
   36.930    5.3397
   36.945    5.4976
   36.960    5.3818
   36.975    5.4660
   36.990    5.3186
   37.005    5.2554
   37.020    5.0974
   37.035    5.4660
   37.050    5.6345
   37.065    5.4660
   37.080    5.3081
   37.095    4.9605
   37.110    5.1080
   37.125    5.3923
   37.140    5.5714
   37.155    5.5292
   37.170    5.4344
   37.185    5.2765
   37.200    5.6345
   37.215    5.2659
   37.230    5.1185
   37.245    5.7083
   37.260    5.5714
   37.275    5.4239
   37.290    5.7293
   37.305    5.2449
   37.320    5.4660
   37.335    5.6345
   37.350    5.2870
   37.365    5.3818
   37.380    5.4239
   37.395    5.4134
   37.410    5.5398
   37.425    5.4134
   37.440    5.4028
   37.455    5.4134
   37.470    5.1501
   37.485    4.8552
   37.500    5.3712
   37.515    5.4344
   37.530    5.3186
   37.545    5.3818
   37.560    5.3397
   37.575    5.1606
   37.590    5.0658
   37.605    5.3818
   37.620    5.7609
   37.635    5.4450
   37.650    5.2343
   37.665    5.6345
   37.680    5.2870
   37.695    5.4344
   37.710    5.4871
   37.725    5.6661
   37.740    5.4766
   37.755    5.3081
   37.770    5.3291
   37.785    5.1290
   37.800    5.1290
   37.815    5.1817
   37.830    5.2238
   37.845    5.2659
   37.860    5.1711
   37.875    5.4239
   37.890    5.6661
   37.905    5.4450
   37.920    5.1501
   37.935    5.2449
   37.950    5.1395
   37.965    5.4344
   37.980    5.4555
   37.995    5.4450
   38.010    5.2343
   38.025    5.0658
   38.040    5.2870
   38.055    5.1501
   38.070    5.1817
   38.085    5.0237
   38.100    5.0553
   38.115    5.2343
   38.130    5.3607
   38.145    5.2449
   38.160    5.2133
   38.175    4.9605
   38.190    5.1185
   38.205    5.0132
   38.220    5.1922
   38.235    5.0658
   38.250    5.1922
   38.265    5.3502
   38.280    5.2870
   38.295    5.3607
   38.310    5.4134
   38.325    5.2870
   38.340    4.9710
   38.355    5.2449
   38.370    4.9500
   38.385    5.3712
   38.400    5.5608
   38.415    5.1395
   38.430    5.0553
   38.445    5.4555
   38.460    5.3923
   38.475    5.4450
   38.490    5.0764
   38.505    5.6661
   38.520    5.4344
   38.535    5.3818
   38.550    5.3712
   38.565    5.5924
   38.580    5.6451
   38.595    5.4766
   38.610    5.4660
   38.625    5.2449
   38.640    5.0448
   38.655    5.1922
   38.670    5.1290
   38.685    5.2027
   38.700    5.4766
   38.715    5.3081
   38.730    5.3502
   38.745    5.3607
   38.760    5.0553
   38.775    5.4871
   38.790    5.3712
   38.805    5.2765
   38.820    5.0658
   38.835    4.9710
   38.850    5.2554
   38.865    5.2449
   38.880    5.0974
   38.895    5.2659
   38.910    5.2238
   38.925    5.2238
   38.940    5.1606
   38.955    5.2343
   38.970    5.0237
   38.985    5.3923
   39.000    5.4028
   39.015    5.2765
   39.030    5.0132
   39.045    4.8973
   39.060    5.2027
   39.075    5.1501
   39.090    5.5292
   39.105    5.5292
   39.120    5.2975
   39.135    5.2659
   39.150    5.8241
   39.165    5.3818
   39.180    5.2238
   39.195    5.0448
   39.210    5.4660
   39.225    5.3081
   39.240    5.3081
   39.255    5.1395
   39.270    4.9921
   39.285    5.2133
   39.300    5.3081
   39.315    5.4134
   39.330    5.2343
   39.345    5.4239
   39.360    5.6872
   39.375    5.7293
   39.390    5.5082
   39.405    5.6872
   39.420    5.1395
   39.435    5.1606
   39.450    5.1922
   39.465    5.0342
   39.480    5.2343
   39.495    5.1606
   39.510    5.2133
   39.525    5.2133
   39.540    5.2343
   39.555    5.0658
   39.570    5.1606
   39.585    5.5608
   39.600    5.4028
   39.615    5.4028
   39.630    5.2975
   39.645    5.0869
   39.660    5.1501
   39.675    5.0448
   39.690    5.4134
   39.705    5.1501
   39.720    5.5819
   39.735    5.0026
   39.750    5.2449
   39.765    5.5082
   39.780    5.4239
   39.795    5.1395
   39.810    5.4660
   39.825    5.2659
   39.840    5.3186
   39.855    4.9289
   39.870    5.3712
   39.885    5.1185
   39.900    5.1080
   39.915    5.3081
   39.930    5.1080
   39.945    4.9816
   39.960    4.9394
   39.975    5.4766
   39.990    5.0869
