    1.500   56.6719
    1.515   57.2512
    1.530   56.0822
    1.545   54.8394
    1.560   53.0068
    1.575   50.3739
    1.590   50.1317
    1.605   49.4892
    1.620   49.3944
    1.635   47.5513
    1.650   46.3612
    1.665   44.6867
    1.680   42.9068
    1.695   43.3597
    1.710   44.2759
    1.725   42.1274
    1.740   41.9273
    1.755   39.9473
    1.770   38.8204
    1.785   38.7151
    1.800   37.5355
    1.815   37.1775
    1.830   36.3665
    1.845   36.6930
    1.860   35.5345
    1.875   34.7551
    1.890   33.4702
    1.905   33.4071
    1.920   32.8173
    1.935   32.1432
    1.950   32.6804
    1.965   31.6166
    1.980   31.6798
    1.995   30.7109
    2.010   30.0790
    2.025   29.2364
    2.040   29.5103
    2.055   29.2891
    2.070   28.5413
    2.085   29.3418
    2.100   28.3518
    2.115   27.2880
    2.130   26.8668
    2.145   26.8246
    2.160   27.4144
    2.175   25.6556
    2.190   25.8241
    2.205   26.0348
    2.220   25.5292
    2.235   25.0553
    2.250   24.3602
    2.265   23.6651
    2.280   24.0548
    2.295   24.2759
    2.310   23.7283
    2.325   23.5176
    2.340   23.2122
    2.355   23.4966
    2.370   23.2859
    2.385   23.1174
    2.400   23.4650
    2.415   22.8857
    2.430   22.3802
    2.445   22.4855
    2.460   22.7172
    2.475   22.5908
    2.490   22.1906
    2.505   22.7172
    2.520   21.9379
    2.535   21.9168
    2.550   22.0432
    2.565   21.5061
    2.580   21.5482
    2.595   21.4639
    2.610   20.8952
    2.625   21.5692
    2.640   21.3060
    2.655   21.3481
    2.670   21.8641
    2.685   21.3797
    2.700   21.5903
    2.715   21.7062
    2.730   21.5377
    2.745   22.1380
    2.760   21.5061
    2.775   21.8852
    2.790   22.3170
    2.805   21.5061
    2.820   22.6751
    2.835   22.0326
    2.850   22.1064
    2.865   22.7383
    2.880   21.9379
    2.895   22.3591
    2.910   22.4539
    2.925   22.7699
    2.940   23.5387
    2.955   22.9805
    2.970   23.2649
    2.985   23.9916
    3.000   24.7393
    3.015   25.0764
    3.030   25.5398
    3.045   25.6135
    3.060   24.4128
    3.075   25.3502
    3.090   25.9400
    3.105   26.6140
    3.120   26.7193
    3.135   27.6672
    3.150   28.0463
    3.165   28.4255
    3.180   28.9837
    3.195   29.7841
    3.210   29.8473
    3.225   30.5635
    3.240   31.2480
    3.255   33.0700
    3.270   34.1232
    3.285   33.3860
    3.300   34.7025
    3.315   36.2085
    3.330   37.4513
    3.345   38.9047
    3.360   39.4734
    3.375   40.2844
    3.390   42.7278
    3.405   44.1601
    3.420   45.1185
    3.435   46.4350
    3.450   47.9516
    3.465   48.5519
    3.480   49.0469
    3.495   48.6993
    3.510   48.0569
    3.525   46.6351
    3.540   43.9284
    3.555   42.3486
    3.570   40.1474
    3.585   38.9784
    3.600   36.9563
    3.615   36.1032
    3.630   36.5245
    3.645   36.6825
    3.660   36.9879
    3.675   37.5882
    3.690   37.9147
    3.705   39.1996
    3.720   40.4423
    3.735   41.2217
    3.750   42.0011
    3.765   43.2754
    3.780   46.0664
    3.795   48.0779
    3.810   48.8046
    3.825   50.9321
    3.840   53.9863
    3.855   56.3665
    3.870   61.6956
    3.885   64.8868
    3.900   68.3623
    3.915   67.6251
    3.930   64.0864
    3.945   57.1037
    3.960   46.3402
    3.975   35.0184
    3.990   26.5298
    4.005   21.1690
    4.020   18.3360
    4.035   16.6087
    4.050   14.7130
    4.065   14.3339
    4.080   13.6388
    4.095   12.6488
    4.110   12.5540
    4.125   12.3223
    4.140   11.5640
    4.155   10.9742
    4.170   10.8373
    4.185   10.1843
    4.200    9.9737
    4.215    9.3523
    4.230    9.5840
    4.245    9.9947
    4.260    9.6261
    4.275    9.1522
    4.290    8.9310
    4.305    8.6888
    4.320    8.8784
    4.335    8.4466
    4.350    8.8362
    4.365    8.5519
    4.380    8.7309
    4.395    8.7204
    4.410    8.2149
    4.425    7.9305
    4.440    7.9516
    4.455    8.0885
    4.470    7.9937
    4.485    7.7725
    4.500    8.0463
    4.515    7.8989
    4.530    7.8778
    4.545    7.7725
    4.560    7.6040
    4.575    7.6356
    4.590    7.9621
    4.605    7.9621
    4.620    7.6040
    4.635    7.6777
    4.650    7.7725
    4.665    7.6461
    4.680    7.4671
    4.695    7.6356
    4.710    7.1301
    4.725    7.8041
    4.740    7.8357
    4.755    7.9621
    4.770    8.0569
    4.785    7.5829
    4.800    7.6672
    4.815    8.1727
    4.830    7.5408
    4.845    7.7304
    4.860    7.9621
    4.875    7.6988
    4.890    8.0253
    4.905    7.8568
    4.920    7.8778
    4.935    7.8146
    4.950    8.2359
    4.965    8.5940
    4.980    8.7309
    4.995    8.6467
    5.010    8.3307
    5.025    8.6467
    5.040    8.9100
    5.055    8.8573
    5.070    8.6888
    5.085    9.0469
    5.100    9.0995
    5.115    9.0469
    5.130    9.3523
    5.145    9.4365
    5.160    9.9105
    5.175    9.4155
    5.190   10.3212
    5.205   10.0158
    5.220   10.2686
    5.235   10.3844
    5.250   10.5635
    5.265   11.1638
    5.280   11.3955
    5.295   11.5640
    5.310   11.3217
    5.325   11.6904
    5.340   12.3960
    5.355   12.8910
    5.370   13.4281
    5.385   13.3755
    5.400   14.5340
    5.415   14.5656
    5.430   15.5977
    5.445   16.3770
    5.460   17.1037
    5.475   18.0727
    5.490   20.0105
    5.505   22.7593
    5.520   24.5392
    5.535   25.0658
    5.550   23.9179
    5.565   21.4639
    5.580   18.4202
    5.595   14.4497
    5.610   10.8162
    5.625    8.6572
    5.640    7.7514
    5.655    6.8457
    5.670    6.6667
    5.685    6.4350
    5.700    6.7615
    5.715    6.8246
    5.730    6.2559
    5.745    6.2243
    5.760    6.2454
    5.775    6.3296
    5.790    6.2665
    5.805    6.3191
    5.820    6.6561
    5.835    6.2665
    5.850    6.1611
    5.865    5.9926
    5.880    6.0874
    5.895    6.2981
    5.910    5.9084
    5.925    6.0453
    5.940    6.1190
    5.955    6.3296
    5.970    5.9716
    5.985    5.7399
    6.000    5.8557
    6.015    5.9716
    6.030    6.1190
    6.045    5.9400
    6.060    6.1611
    6.075    6.3612
    6.090    6.3612
    6.105    6.2033
    6.120    6.4982
    6.135    6.2138
    6.150    6.2559
    6.165    6.1190
    6.180    5.8873
    6.195    6.2770
    6.210    5.9926
    6.225    6.1611
    6.240    6.1822
    6.255    6.0453
    6.270    6.2138
    6.285    6.0242
    6.300    6.4455
    6.315    6.6877
    6.330    6.5929
    6.345    6.8036
    6.360    6.6561
    6.375    6.4350
    6.390    6.7088
    6.405    6.6245
    6.420    6.7930
    6.435    6.8141
    6.450    7.0669
    6.465    6.9089
    6.480    6.6667
    6.495    7.0353
    6.510    7.4987
    6.525    7.3302
    6.540    7.6356
    6.555    7.4987
    6.570    7.2670
    6.585    7.5408
    6.600    8.1727
    6.615    7.8568
    6.630    8.1095
    6.645    8.5519
    6.660    8.0358
    6.675    8.0674
    6.690    8.8468
    6.705    9.4050
    6.720    9.3734
    6.735    9.7630
    6.750   10.4055
    6.765   10.9742
    6.780   11.4060
    6.795   11.0479
    6.810   10.5740
    6.825   10.7636
    6.840    9.7525
    6.855    9.3207
    6.870    9.4471
    6.885    8.8889
    6.900    9.4892
    6.915    9.7841
    6.930    9.9631
    6.945    9.5945
    6.960   10.2370
    6.975   10.2791
    6.990   10.0790
    7.005    9.6367
    7.020    9.0890
    7.035    9.0153
    7.050    8.5835
    7.065    8.0990
    7.080    7.6356
    7.095    7.3828
    7.110    6.9405
    7.125    7.1511
    7.140    6.9932
    7.155    6.8352
    7.170    6.9616
    7.185    6.4455
    7.200    6.2349
    7.215    6.0979
    7.230    6.5613
    7.245    7.0248
    7.260    6.6983
    7.275    6.8141
    7.290    6.5087
    7.305    6.1927
    7.320    6.6561
    7.335    6.8878
    7.350    7.1301
    7.365    6.9616
    7.380    6.4560
    7.395    6.7509
    7.410    7.1301
    7.425    7.0563
    7.440    7.1827
    7.455    7.1933
    7.470    7.0669
    7.485    7.1301
    7.500    7.3934
    7.515    7.7514
    7.530    7.7409
    7.545    7.8357
    7.560    8.2149
    7.575    8.6993
    7.590    8.5519
    7.605    8.2570
    7.620    8.7204
    7.635    8.9942
    7.650    9.3523
    7.665    9.4260
    7.680    9.9210
    7.695    9.9526
    7.710   10.4055
    7.725   10.4792
    7.740   10.6056
    7.755   11.0374
    7.770   11.9431
    7.785   11.7114
    7.800   11.9115
    7.815   12.0906
    7.830   12.4276
    7.845   12.1643
    7.860   11.7009
    7.875   10.6266
    7.890    9.7314
    7.905    8.9837
    7.920    8.3518
    7.935    7.6883
    7.950    7.2143
    7.965    7.0879
    7.980    6.7615
    7.995    6.9616
    8.010    6.5192
    8.025    6.6561
    8.040    5.9821
    8.055    5.9400
    8.070    6.0874
    8.085    6.1401
    8.100    6.2454
    8.115    6.2033
    8.130    6.0137
    8.145    5.9610
    8.160    5.7399
    8.175    5.4344
    8.190    5.9610
    8.205    5.9400
    8.220    5.7820
    8.235    5.9084
    8.250    5.6872
    8.265    5.7715
    8.280    5.8662
    8.295    5.7083
    8.310    5.7925
    8.325    5.4344
    8.340    5.6135
    8.355    6.1401
    8.370    5.9189
    8.385    6.0453
    8.400    5.8241
    8.415    5.6872
    8.430    5.6556
    8.445    5.7504
    8.460    5.6029
    8.475    5.4766
    8.490    5.8768
    8.505    5.7715
    8.520    5.8873
    8.535    5.8031
    8.550    5.5714
    8.565    5.3607
    8.580    5.4450
    8.595    5.6135
    8.610    5.6767
    8.625    6.0348
    8.640    5.9189
    8.655    5.3291
    8.670    5.6135
    8.685    5.7504
    8.700    5.8662
    8.715    5.9716
    8.730    6.0137
    8.745    6.0242
    8.760    6.2981
    8.775    6.0558
    8.790    5.7820
    8.805    5.6029
    8.820    5.8768
    8.835    5.9716
    8.850    5.3712
    8.865    5.7083
    8.880    5.4028
    8.895    5.3291
    8.910    4.9605
    8.925    5.4239
    8.940    5.5819
    8.955    5.5924
    8.970    5.5292
    8.985    5.5398
    9.000    5.4976
    9.015    5.6451
    9.030    5.3502
    9.045    5.3291
    9.060    5.3081
    9.075    5.6345
    9.090    5.8136
    9.105    5.5924
    9.120    5.6240
    9.135    5.3502
    9.150    5.4660
    9.165    5.6661
    9.180    5.7083
    9.195    5.3923
    9.210    5.7820
    9.225    6.1506
    9.240    5.8768
    9.255    5.8347
    9.270    5.7083
    9.285    5.9084
    9.300    6.4350
    9.315    6.2559
    9.330    6.0348
    9.345    6.5508
    9.360    6.5613
    9.375    7.1617
    9.390    6.7720
    9.405    7.0248
    9.420    7.1617
    9.435    7.4776
    9.450    7.8146
    9.465    8.3939
    9.480    8.2570
    9.495    8.3623
    9.510    9.1206
    9.525    9.6051
    9.540   10.2580
    9.555   11.0585
    9.570   12.2064
    9.585   12.1432
    9.600   12.8594
    9.615   12.8699
    9.630   12.6382
    9.645   11.4481
    9.660    9.3418
    9.675    7.6777
    9.690    6.5298
    9.705    5.8347
    9.720    5.8768
    9.735    6.0032
    9.750    5.5503
    9.765    5.7083
    9.780    5.5292
    9.795    5.0237
    9.810    5.3397
    9.825    5.6556
    9.840    5.5082
    9.855    5.7715
    9.870    5.3712
    9.885    5.7083
    9.900    5.7925
    9.915    5.6240
    9.930    5.4239
    9.945    5.4871
    9.960    5.5503
    9.975    5.2554
    9.990    5.5292
   10.005    5.3818
   10.020    5.2870
   10.035    5.2870
   10.050    5.3818
   10.065    5.6135
   10.080    5.7609
   10.095    5.8031
   10.110    5.7715
   10.125    5.5082
   10.140    5.6661
   10.155    5.3712
   10.170    5.8768
   10.185    6.1506
   10.200    6.0348
   10.215    6.1927
   10.230    6.1085
   10.245    6.1085
   10.260    5.9294
   10.275    6.2770
   10.290    6.3612
   10.305    6.6140
   10.320    6.7404
   10.335    7.5197
   10.350    7.5092
   10.365    7.7830
   10.380    7.5935
   10.395    7.3512
   10.410    7.2143
   10.425    6.9826
   10.440    6.4139
   10.455    6.3612
   10.470    5.8768
   10.485    5.8241
   10.500    5.6767
   10.515    5.6345
   10.530    5.2343
   10.545    5.4660
   10.560    5.4134
   10.575    5.6240
   10.590    5.2765
   10.605    5.3397
   10.620    5.1395
   10.635    5.3712
   10.650    5.3397
   10.665    5.5082
   10.680    6.0558
   10.695    5.6029
   10.710    5.4766
   10.725    5.1290
   10.740    5.2238
   10.755    5.4766
   10.770    5.5714
   10.785    5.1395
   10.800    5.4134
   10.815    5.6872
   10.830    5.8768
   10.845    5.8241
   10.860    5.6872
   10.875    5.8662
   10.890    5.8978
   10.905    5.7293
   10.920    5.9505
   10.935    5.8347
   10.950    6.0558
   10.965    6.2243
   10.980    6.5719
   10.995    6.4455
   11.010    6.5929
   11.025    6.7299
   11.040    6.9721
   11.055    7.3723
   11.070    7.5303
   11.085    7.8252
   11.100    8.0779
   11.115    7.7409
   11.130    7.2038
   11.145    7.0879
   11.160    6.3296
   11.175    5.7399
   11.190    5.5187
   11.205    5.3502
   11.220    5.5819
   11.235    5.2975
   11.250    5.3397
   11.265    5.2554
   11.280    5.3291
   11.295    5.4976
   11.310    5.1395
   11.325    5.0237
   11.340    5.3186
   11.355    5.2449
   11.370    5.2133
   11.385    5.3291
   11.400    5.3186
   11.415    5.4660
   11.430    5.6767
   11.445    5.6135
   11.460    5.4028
   11.475    5.3712
   11.490    5.6029
   11.505    5.7715
   11.520    5.7399
   11.535    5.8136
   11.550    5.6135
   11.565    6.2138
   11.580    5.8978
   11.595    5.8978
   11.610    5.8136
   11.625    6.2559
   11.640    6.1611
   11.655    6.3296
   11.670    6.6772
   11.685    6.6561
   11.700    7.0985
   11.715    7.2565
   11.730    7.1827
   11.745    7.8568
   11.760    7.9516
   11.775    7.6251
   11.790    7.4039
   11.805    6.6667
   11.820    6.8562
   11.835    6.1295
   11.850    5.8557
   11.865    5.2975
   11.880    5.2343
   11.895    5.7399
   11.910    5.4239
   11.925    5.2870
   11.940    5.6345
   11.955    5.2449
   11.970    4.9394
   11.985    4.9394
   12.000    4.9500
   12.015    5.2027
   12.030    5.2133
   12.045    5.3502
   12.060    5.1817
   12.075    5.4134
   12.090    5.0869
   12.105    4.9921
   12.120    5.2133
   12.135    5.1922
   12.150    5.2554
   12.165    5.3397
   12.180    5.0974
   12.195    5.2027
   12.210    5.1606
   12.225    5.4976
   12.240    5.3186
   12.255    5.1395
   12.270    5.1395
   12.285    4.9710
   12.300    5.3607
   12.315    5.2870
   12.330    5.1185
   12.345    5.2027
   12.360    5.3081
   12.375    5.1606
   12.390    5.7293
   12.405    5.2870
   12.420    5.4450
   12.435    5.1080
   12.450    4.8763
   12.465    4.9710
   12.480    4.6972
   12.495    5.1606
   12.510    4.9289
   12.525    5.2238
   12.540    4.8025
   12.555    4.8447
   12.570    4.9289
   12.585    5.4344
   12.600    5.0974
   12.615    4.9394
   12.630    5.1606
   12.645    5.2027
   12.660    4.9184
   12.675    5.0974
   12.690    4.8131
   12.705    4.7393
   12.720    5.0132
   12.735    5.1290
   12.750    5.2027
   12.765    5.1080
   12.780    5.1395
   12.795    5.2343
   12.810    5.1817
   12.825    4.8025
   12.840    5.2554
   12.855    5.4344
   12.870    5.5714
   12.885    5.4134
   12.900    5.7609
   12.915    5.5292
   12.930    5.9189
   12.945    5.9716
   12.960    5.9505
   12.975    6.0348
   12.990    5.8452
   13.005    5.9610
   13.020    5.9294
   13.035    6.2875
   13.050    6.1295
   13.065    5.6240
   13.080    5.7188
   13.095    5.2343
   13.110    5.2449
   13.125    5.0974
   13.140    5.1711
   13.155    5.0237
   13.170    5.0342
   13.185    4.8236
   13.200    5.4134
   13.215    5.3923
   13.230    4.8657
   13.245    4.8341
   13.260    4.8763
   13.275    4.6235
   13.290    5.0237
   13.305    4.9289
   13.320    5.1817
   13.335    5.0764
   13.350    5.2027
   13.365    5.1080
   13.380    4.9710
   13.395    4.9921
   13.410    5.1922
   13.425    5.1501
   13.440    5.1185
   13.455    5.1606
   13.470    5.4028
   13.485    4.9184
   13.500    5.2133
   13.515    5.2765
   13.530    5.1080
   13.545    5.1817
   13.560    5.4766
   13.575    5.6135
   13.590    5.3291
   13.605    5.5292
   13.620    4.9394
   13.635    4.9816
   13.650    5.1922
   13.665    5.2133
   13.680    5.1606
   13.695    5.2975
   13.710    4.8763
   13.725    4.9394
   13.740    4.9078
   13.755    4.7920
   13.770    4.9078
   13.785    4.8447
   13.800    4.7288
   13.815    4.8763
   13.830    4.9605
   13.845    5.0764
   13.860    5.1290
   13.875    5.0658
   13.890    4.9078
   13.905    5.0026
   13.920    4.8447
   13.935    5.1080
   13.950    5.1711
   13.965    5.1290
   13.980    5.0342
   13.995    5.2659
   14.010    5.1290
   14.025    5.1185
   14.040    5.4239
   14.055    5.4028
   14.070    5.4766
   14.085    5.4239
   14.100    5.9084
   14.115    6.0137
   14.130    5.9084
   14.145    6.2559
   14.160    5.8662
   14.175    5.8136
   14.190    5.4766
   14.205    5.6767
   14.220    5.4134
   14.235    5.3081
   14.250    5.2870
   14.265    5.0132
   14.280    4.7393
   14.295    4.8447
   14.310    4.7709
   14.325    4.7183
   14.340    4.9184
   14.355    5.3502
   14.370    5.0553
   14.385    4.5814
   14.400    4.7183
   14.415    4.6972
   14.430    4.6235
   14.445    4.4550
   14.460    4.3813
   14.475    4.7709
   14.490    4.8552
   14.505    5.1080
   14.520    4.8447
   14.535    4.8973
   14.550    4.6761
   14.565    5.0764
   14.580    4.5814
   14.595    4.9078
   14.610    4.8868
   14.625    5.0974
   14.640    5.1290
   14.655    5.1501
   14.670    5.1711
   14.685    5.2238
   14.700    4.8341
   14.715    4.7709
   14.730    4.5498
   14.745    4.7920
   14.760    4.5287
   14.775    4.7499
   14.790    4.5498
   14.805    4.4023
   14.820    4.6656
   14.835    4.4550
   14.850    4.7709
   14.865    4.4128
   14.880    4.6445
   14.895    4.6340
   14.910    4.7288
   14.925    4.7288
   14.940    4.7709
   14.955    4.6761
   14.970    4.9184
   14.985    4.9500
   15.000    4.7183
   15.015    4.7604
   15.030    4.8763
   15.045    5.0448
   15.060    5.0869
   15.075    4.9921
   15.090    5.1290
   15.105    4.9500
   15.120    4.9289
   15.135    5.3818
   15.150    4.7077
   15.165    4.8236
   15.180    5.3712
   15.195    5.3502
   15.210    5.3818
   15.225    5.2449
   15.240    5.3923
   15.255    4.9710
   15.270    4.9710
   15.285    4.8341
   15.300    5.0553
   15.315    4.7604
   15.330    4.6445
   15.345    4.7604
   15.360    4.5919
   15.375    4.8552
   15.390    4.6761
   15.405    4.7709
   15.420    4.5287
   15.435    4.7709
   15.450    4.8341
   15.465    5.0342
   15.480    4.8657
   15.495    5.0342
   15.510    4.7393
   15.525    5.0026
   15.540    4.9921
   15.555    4.9500
   15.570    5.0974
   15.585    4.6972
   15.600    4.9078
   15.615    4.7604
   15.630    4.8341
   15.645    4.9289
   15.660    4.9078
   15.675    4.8868
   15.690    5.2133
   15.705    5.0869
   15.720    5.1185
   15.735    5.0869
   15.750    4.7288
   15.765    4.8868
   15.780    5.0764
   15.795    5.0869
   15.810    5.1395
   15.825    4.7920
   15.840    4.8868
   15.855    4.8447
   15.870    5.1817
   15.885    5.0553
   15.900    5.0132
   15.915    4.9394
   15.930    4.8763
   15.945    5.0448
   15.960    4.8025
   15.975    5.0448
   15.990    5.3397
   16.005    4.9184
   16.020    4.6656
   16.035    4.7393
   16.050    5.0448
   16.065    5.1080
   16.080    5.1711
   16.095    5.1185
   16.110    4.7709
   16.125    5.0342
   16.140    5.0448
   16.155    5.0869
   16.170    5.3502
   16.185    5.5082
   16.200    5.4450
   16.215    5.2449
   16.230    5.0237
   16.245    4.8763
   16.260    4.9605
   16.275    5.0237
   16.290    4.8763
   16.305    4.4550
   16.320    4.6130
   16.335    4.3813
   16.350    4.7393
   16.365    4.8236
   16.380    4.9078
   16.395    5.1290
   16.410    5.0448
   16.425    4.9500
   16.440    5.0658
   16.455    4.7604
   16.470    4.5919
   16.485    5.0869
   16.500    4.9394
   16.515    4.6656
   16.530    4.9078
   16.545    4.6235
   16.560    4.8763
   16.575    5.0237
   16.590    4.9078
   16.605    4.7393
   16.620    4.8236
   16.635    5.2449
   16.650    4.8973
   16.665    4.8973
   16.680    4.9289
   16.695    4.8657
   16.710    4.9921
   16.725    4.8552
   16.740    4.8131
   16.755    5.1922
   16.770    4.8447
   16.785    4.7183
   16.800    4.7077
   16.815    4.8552
   16.830    4.7183
   16.845    4.9078
   16.860    5.0237
   16.875    4.7077
   16.890    4.8447
   16.905    4.8447
   16.920    4.5814
   16.935    5.1606
   16.950    4.9289
   16.965    4.7499
   16.980    5.0237
   16.995    5.2659
   17.010    5.2975
   17.025    4.9921
   17.040    5.2659
   17.055    5.6240
   17.070    5.4450
   17.085    5.5082
   17.100    5.9716
   17.115    6.1190
   17.130    6.2349
   17.145    6.0137
   17.160    5.8978
   17.175    6.1611
   17.190    5.8768
   17.205    5.7399
   17.220    5.4976
   17.235    5.1606
   17.250    4.7499
   17.265    4.8025
   17.280    4.8868
   17.295    4.5287
   17.310    4.8025
   17.325    4.7920
   17.340    4.8131
   17.355    4.6761
   17.370    4.9921
   17.385    4.9184
   17.400    5.0974
   17.415    5.0658
   17.430    4.7815
   17.445    5.0026
   17.460    5.0658
   17.475    5.1185
   17.490    5.0132
   17.505    5.1395
   17.520    4.9921
   17.535    4.8973
   17.550    5.1395
   17.565    4.9394
   17.580    5.2238
   17.595    5.1185
   17.610    5.3397
   17.625    5.1922
   17.640    5.3081
   17.655    5.2343
   17.670    5.0237
   17.685    4.8131
   17.700    5.1080
   17.715    4.7815
   17.730    5.0342
   17.745    5.0237
   17.760    4.7288
   17.775    4.7709
   17.790    5.1185
   17.805    5.2765
   17.820    5.4450
   17.835    4.8341
   17.850    5.0132
   17.865    4.6761
   17.880    4.9710
   17.895    4.8973
   17.910    5.0132
   17.925    5.0237
   17.940    4.9921
   17.955    4.8973
   17.970    4.7815
   17.985    4.9394
   18.000    5.2765
   18.015    5.2449
   18.030    5.2870
   18.045    5.0658
   18.060    4.8025
   18.075    4.6340
   18.090    4.7920
   18.105    4.9394
   18.120    4.7920
   18.135    4.9816
   18.150    5.0026
   18.165    4.8973
   18.180    4.6130
   18.195    4.5498
   18.210    4.8552
   18.225    5.0553
   18.240    4.6130
   18.255    4.9500
   18.270    4.9289
   18.285    5.1080
   18.300    4.9078
   18.315    4.9500
   18.330    4.6130
   18.345    4.5708
   18.360    4.8973
   18.375    4.9921
   18.390    5.1606
   18.405    5.1606
   18.420    5.2659
   18.435    4.9710
   18.450    5.0448
   18.465    5.1922
   18.480    4.9078
   18.495    4.8447
   18.510    4.9816
   18.525    4.8025
   18.540    4.8552
   18.555    4.7393
   18.570    4.8868
   18.585    4.8868
   18.600    4.9816
   18.615    4.8236
   18.630    4.5919
   18.645    4.7499
   18.660    4.9184
   18.675    4.9816
   18.690    4.8973
   18.705    4.5182
   18.720    4.4234
   18.735    4.7604
   18.750    4.8657
   18.765    4.8025
   18.780    4.8341
   18.795    4.9184
   18.810    5.0974
   18.825    5.0448
   18.840    5.0026
   18.855    4.7499
   18.870    4.7709
   18.885    4.7288
   18.900    4.8025
   18.915    4.9816
   18.930    4.9394
   18.945    4.7288
   18.960    4.9184
   18.975    5.2343
   18.990    4.9605
   19.005    5.1711
   19.020    4.5182
   19.035    4.8657
   19.050    4.9710
   19.065    5.2343
   19.080    5.0342
   19.095    5.0026
   19.110    5.0764
   19.125    5.0237
   19.140    5.1922
   19.155    4.9289
   19.170    4.7709
   19.185    4.5182
   19.200    4.9394
   19.215    5.0237
   19.230    4.8657
   19.245    4.8236
   19.260    4.9289
   19.275    5.1817
   19.290    5.2765
   19.305    4.7709
   19.320    5.0237
   19.335    5.0342
   19.350    5.0764
   19.365    5.0553
   19.380    4.9500
   19.395    4.7604
   19.410    4.8447
   19.425    4.8763
   19.440    4.8657
   19.455    4.9184
   19.470    4.9605
   19.485    4.6340
   19.500    5.0237
   19.515    5.0237
   19.530    4.7288
   19.545    5.0132
   19.560    5.0974
   19.575    4.9816
   19.590    5.2975
   19.605    5.1185
   19.620    4.8657
   19.635    5.0658
   19.650    5.4239
   19.665    5.2765
   19.680    5.5292
   19.695    5.0658
   19.710    5.2027
   19.725    5.0658
   19.740    5.1290
   19.755    5.0764
   19.770    5.2870
   19.785    5.0132
   19.800    4.8763
   19.815    4.9921
   19.830    4.8236
   19.845    4.8657
   19.860    5.0026
   19.875    4.9605
   19.890    4.9394
   19.905    5.0553
   19.920    5.3186
   19.935    5.2449
   19.950    5.0132
   19.965    5.1711
   19.980    5.4871
   19.995    5.0448
   20.010    5.1817
   20.025    4.9816
   20.040    4.9710
   20.055    5.0658
   20.070    5.3081
   20.085    5.2659
   20.100    5.0869
   20.115    4.9605
   20.130    5.2449
   20.145    5.2975
   20.160    5.1606
   20.175    5.1290
   20.190    5.2870
   20.205    5.1711
   20.220    5.3291
   20.235    4.8973
   20.250    5.0342
   20.265    5.0026
   20.280    5.2449
   20.295    5.4239
   20.310    5.2343
   20.325    5.0974
   20.340    5.4134
   20.355    5.5292
   20.370    5.3923
   20.385    5.2659
   20.400    5.4871
   20.415    6.1927
   20.430    5.9821
   20.445    5.8241
   20.460    5.7609
   20.475    5.7820
   20.490    6.0032
   20.505    5.6135
   20.520    5.4976
   20.535    5.4450
   20.550    5.4871
   20.565    5.3186
   20.580    5.0132
   20.595    5.2133
   20.610    5.3712
   20.625    5.0237
   20.640    5.3502
   20.655    5.4134
   20.670    5.5292
   20.685    5.2975
   20.700    5.3502
   20.715    5.2343
   20.730    5.0658
   20.745    5.2870
   20.760    5.3502
   20.775    5.0132
   20.790    4.9921
   20.805    5.1185
   20.820    5.3607
   20.835    5.4344
   20.850    5.1606
   20.865    4.9816
   20.880    5.2659
   20.895    5.4134
   20.910    5.1185
   20.925    4.8341
   20.940    4.8657
   20.955    5.3081
   20.970    5.3291
   20.985    4.9710
   21.000    5.2449
   21.015    4.9816
   21.030    5.1395
   21.045    5.0132
   21.060    5.3502
   21.075    5.4976
   21.090    4.8868
   21.105    4.9710
   21.120    5.6135
   21.135    5.5503
   21.150    5.0448
   21.165    5.2133
   21.180    5.3291
   21.195    5.0448
   21.210    4.8131
   21.225    5.1817
   21.240    5.2659
   21.255    5.0448
   21.270    5.0026
   21.285    5.2449
   21.300    5.1501
   21.315    5.2449
   21.330    5.3291
   21.345    5.3607
   21.360    5.3712
   21.375    5.0764
   21.390    5.1817
   21.405    5.2554
   21.420    5.0132
   21.435    5.2659
   21.450    5.1501
   21.465    5.1501
   21.480    5.3081
   21.495    5.4028
   21.510    5.4766
   21.525    5.1185
   21.540    5.2449
   21.555    5.5714
   21.570    5.1395
   21.585    5.1185
   21.600    5.1817
   21.615    5.6029
   21.630    4.9816
   21.645    5.1817
   21.660    5.3607
   21.675    5.2343
   21.690    5.2238
   21.705    5.0553
   21.720    5.0132
   21.735    5.1606
   21.750    5.2975
   21.765    5.1922
   21.780    5.0658
   21.795    5.2659
   21.810    5.2343
   21.825    5.4134
   21.840    5.4344
   21.855    5.5503
   21.870    5.3923
   21.885    5.4871
   21.900    5.3186
   21.915    5.2975
   21.930    5.2554
   21.945    5.7188
   21.960    5.7293
   21.975    5.4450
   21.990    5.1290
   22.005    5.5292
   22.020    5.3081
   22.035    5.2870
   22.050    5.2343
   22.065    5.0237
   22.080    5.1606
   22.095    5.2027
   22.110    5.1395
   22.125    5.3397
   22.140    5.2870
   22.155    5.4976
   22.170    5.2659
   22.185    5.0764
   22.200    5.2133
   22.215    5.5608
   22.230    5.4450
   22.245    5.3607
   22.260    5.3502
   22.275    5.5082
   22.290    5.4134
   22.305    5.3923
   22.320    5.4555
   22.335    5.4134
   22.350    5.4344
   22.365    5.4766
   22.380    5.8768
   22.395    5.6240
   22.410    5.6661
   22.425    5.5503
   22.440    5.5292
   22.455    5.4134
   22.470    5.3712
   22.485    5.0658
   22.500    5.3818
   22.515    5.6872
   22.530    5.7083
   22.545    5.7293
   22.560    5.9505
   22.575    6.2138
   22.590    6.0242
   22.605    5.9189
   22.620    6.0979
   22.635    6.3402
   22.650    6.4139
   22.665    6.5613
   22.680    6.2559
   22.695    6.1717
   22.710    5.9505
   22.725    5.7609
   22.740    5.8662
   22.755    5.7188
   22.770    5.6977
   22.785    5.7293
   22.800    5.6451
   22.815    5.1395
   22.830    5.3818
   22.845    5.1290
   22.860    5.3712
   22.875    5.4976
   22.890    5.7083
   22.905    5.8978
   22.920    6.0137
   22.935    6.0664
   22.950    6.3191
   22.965    6.2665
   22.980    6.0453
   22.995    6.1401
   23.010    5.8031
   23.025    6.0032
   23.040    5.7925
   23.055    6.0242
   23.070    5.9189
   23.085    5.6135
   23.100    5.2343
   23.115    5.5082
   23.130    5.3712
   23.145    5.3081
   23.160    4.9921
   23.175    5.1606
   23.190    5.4766
   23.205    5.3712
   23.220    5.4028
   23.235    5.0869
   23.250    5.4555
   23.265    5.3712
   23.280    5.3081
   23.295    5.1185
   23.310    5.2449
   23.325    5.2238
   23.340    5.4134
   23.355    5.3291
   23.370    5.3607
   23.385    5.2975
   23.400    5.0974
   23.415    4.8973
   23.430    4.9605
   23.445    5.0869
   23.460    5.2975
   23.475    5.1395
   23.490    5.3712
   23.505    5.2659
   23.520    4.9184
   23.535    5.2975
   23.550    5.3397
   23.565    5.0132
   23.580    5.0448
   23.595    5.1711
   23.610    5.0553
   23.625    4.9921
   23.640    5.0448
   23.655    5.3397
   23.670    5.2659
   23.685    5.3186
   23.700    5.1185
   23.715    5.2870
   23.730    4.9710
   23.745    5.0869
   23.760    4.8552
   23.775    5.0974
   23.790    5.0764
   23.805    4.9500
   23.820    5.0132
   23.835    5.1817
   23.850    5.4450
   23.865    5.0974
   23.880    5.1080
   23.895    5.0658
   23.910    4.6551
   23.925    4.8552
   23.940    4.9078
   23.955    5.0869
   23.970    5.3818
   23.985    5.1922
   24.000    5.1395
   24.015    4.8763
   24.030    5.0448
   24.045    5.0237
   24.060    5.3291
   24.075    4.7499
   24.090    4.8868
   24.105    4.6867
   24.120    4.8131
   24.135    4.7815
   24.150    5.0974
   24.165    5.0448
   24.180    5.1501
   24.195    4.8868
   24.210    4.8447
   24.225    5.2343
   24.240    4.7604
   24.255    5.0658
   24.270    4.9921
   24.285    5.1080
   24.300    5.0974
   24.315    4.9184
   24.330    5.1395
   24.345    5.3607
   24.360    4.8657
   24.375    5.2343
   24.390    5.0448
   24.405    4.9605
   24.420    4.9816
   24.435    5.4871
   24.450    5.0974
   24.465    4.8131
   24.480    4.7183
   24.495    5.4344
   24.510    5.2870
   24.525    4.9394
   24.540    5.0658
   24.555    4.9816
   24.570    4.7604
   24.585    5.2133
   24.600    5.1080
   24.615    5.2027
   24.630    4.9710
   24.645    4.9605
   24.660    5.1290
   24.675    5.0764
   24.690    4.8657
   24.705    5.2765
   24.720    5.0026
   24.735    5.3291
   24.750    5.2343
   24.765    5.1817
   24.780    4.9394
   24.795    4.8447
   24.810    5.0342
   24.825    5.4028
   24.840    4.9500
   24.855    5.1395
   24.870    5.1922
   24.885    4.9500
   24.900    5.4134
   24.915    5.1817
   24.930    5.0869
   24.945    5.1080
   24.960    5.1290
   24.975    5.0342
   24.990    5.1817
   25.005    4.9605
   25.020    4.7920
   25.035    4.7393
   25.050    5.0553
   25.065    5.1395
   25.080    5.2449
   25.095    4.9921
   25.110    5.1395
   25.125    5.0026
   25.140    5.0237
   25.155    5.0342
   25.170    4.8236
   25.185    4.6340
   25.200    4.8236
   25.215    4.7183
   25.230    4.6551
   25.245    4.6761
   25.260    4.8973
   25.275    4.9500
   25.290    4.9078
   25.305    4.9078
   25.320    4.9394
   25.335    4.8236
   25.350    5.1817
   25.365    5.0869
   25.380    4.8131
   25.395    4.8868
   25.410    5.3397
   25.425    4.9289
   25.440    4.8763
   25.455    4.8236
   25.470    4.5392
   25.485    4.6761
   25.500    4.5182
   25.515    4.8025
   25.530    4.6551
   25.545    4.5182
   25.560    5.0026
   25.575    5.1395
   25.590    4.8868
   25.605    5.1395
   25.620    5.0026
   25.635    5.0448
   25.650    4.8763
   25.665    4.9078
   25.680    4.5392
   25.695    4.7499
   25.710    4.7499
   25.725    4.6024
   25.740    4.9921
   25.755    5.0026
   25.770    4.8763
   25.785    4.6445
   25.800    4.8552
   25.815    4.8341
   25.830    4.9289
   25.845    4.9184
   25.860    5.3502
   25.875    5.5292
   25.890    5.2343
   25.905    5.6029
   25.920    5.3712
   25.935    4.9184
   25.950    5.2449
   25.965    5.3607
   25.980    5.3081
   25.995    4.5919
   26.010    4.7393
   26.025    5.0237
   26.040    4.9184
   26.055    4.8973
   26.070    4.7604
   26.085    4.4971
   26.100    4.8131
   26.115    4.6130
   26.130    4.9500
   26.145    4.4760
   26.160    4.8341
   26.175    4.7183
   26.190    4.5603
   26.205    4.7815
   26.220    4.4128
   26.235    4.4023
   26.250    4.6867
   26.265    4.9500
   26.280    4.6551
   26.295    4.6551
   26.310    4.5498
   26.325    4.5814
   26.340    4.8447
   26.355    4.6551
   26.370    4.6551
   26.385    4.6024
   26.400    5.0026
   26.415    4.7499
   26.430    4.5814
   26.445    4.6445
   26.460    4.8973
   26.475    4.9710
   26.490    4.8447
   26.505    4.4128
   26.520    4.7393
   26.535    4.6867
   26.550    4.6130
   26.565    4.8973
   26.580    4.9816
   26.595    4.8657
   26.610    4.6656
   26.625    4.8552
   26.640    5.0764
   26.655    4.8025
   26.670    4.7709
   26.685    4.4760
   26.700    4.7393
   26.715    4.6867
   26.730    4.6024
   26.745    4.3918
   26.760    4.5287
   26.775    4.5287
   26.790    4.5182
   26.805    4.6235
   26.820    4.9605
   26.835    4.4760
   26.850    4.6867
   26.865    5.0132
   26.880    4.8657
   26.895    4.4339
   26.910    4.4760
   26.925    4.6656
   26.940    4.7709
   26.955    4.5076
   26.970    4.5708
   26.985    4.8131
   27.000    4.5708
   27.015    4.7920
   27.030    4.6130
   27.045    4.8341
   27.060    5.1711
   27.075    4.8131
   27.090    4.7604
   27.105    4.6761
   27.120    4.8131
   27.135    5.1290
   27.150    4.4866
   27.165    4.7077
   27.180    4.9921
   27.195    4.6867
   27.210    4.5498
   27.225    4.4655
   27.240    4.6867
   27.255    4.9816
   27.270    4.3391
   27.285    4.5919
   27.300    4.8341
   27.315    4.4550
   27.330    4.1706
   27.345    4.4234
   27.360    4.6761
   27.375    4.5076
   27.390    4.5392
   27.405    4.5603
   27.420    4.5814
   27.435    4.5814
   27.450    4.6024
   27.465    4.5603
   27.480    4.6972
   27.495    4.3918
   27.510    4.4023
   27.525    4.4234
   27.540    4.5498
   27.555    4.4760
   27.570    4.5392
   27.585    4.7183
   27.600    4.6656
   27.615    4.5076
   27.630    4.4234
   27.645    4.7499
   27.660    4.6024
   27.675    4.2970
   27.690    4.2338
   27.705    4.7920
   27.720    4.6130
   27.735    4.8025
   27.750    4.6761
   27.765    4.6130
   27.780    4.4128
   27.795    4.7920
   27.810    4.4866
   27.825    4.8025
   27.840    4.5708
   27.855    4.6235
   27.870    4.6656
   27.885    4.4760
   27.900    4.1074
   27.915    4.4655
   27.930    4.6445
   27.945    4.6340
   27.960    4.4234
   27.975    4.7815
   27.990    4.5287
   28.005    4.4550
   28.020    4.4866
   28.035    4.5392
   28.050    4.5814
   28.065    4.6972
   28.080    4.4971
   28.095    4.5498
   28.110    4.5919
   28.125    4.3707
   28.140    4.6867
   28.155    4.4971
   28.170    4.6340
   28.185    4.8868
   28.200    4.6972
   28.215    4.7393
   28.230    4.5182
   28.245    4.7709
   28.260    4.7604
   28.275    4.7077
   28.290    4.7604
   28.305    4.6761
   28.320    4.7920
   28.335    4.6235
   28.350    4.5498
   28.365    4.9394
   28.380    4.8025
   28.395    4.5498
   28.410    4.4128
   28.425    4.2970
   28.440    4.2654
   28.455    4.6656
   28.470    4.5076
   28.485    4.6340
   28.500    4.4444
   28.515    4.7393
   28.530    4.7077
   28.545    4.5287
   28.560    4.5603
   28.575    4.4128
   28.590    4.5814
   28.605    4.5919
   28.620    4.7709
   28.635    4.5708
   28.650    4.4444
   28.665    4.4866
   28.680    4.6761
   28.695    4.7183
   28.710    4.6024
   28.725    4.3813
   28.740    4.1917
   28.755    4.1180
   28.770    4.2549
   28.785    4.4760
   28.800    4.2865
   28.815    4.3813
   28.830    4.2233
   28.845    4.3813
   28.860    4.0864
   28.875    4.2654
   28.890    4.2443
   28.905    4.1917
   28.920    4.2233
   28.935    4.4550
   28.950    4.3813
   28.965    4.3918
   28.980    4.1496
   28.995    4.2865
   29.010    4.3707
   29.025    4.3813
   29.040    4.4760
   29.055    4.5287
   29.070    4.2759
   29.085    4.1390
   29.100    4.2970
   29.115    4.4550
   29.130    4.0864
   29.145    4.3181
   29.160    4.2970
   29.175    4.5076
   29.190    4.5919
   29.205    4.4128
   29.220    4.5182
   29.235    4.0864
   29.250    4.1811
   29.265    4.5814
   29.280    4.4971
   29.295    4.3286
   29.310    4.1601
   29.325    4.2654
   29.340    4.2443
   29.355    4.5287
   29.370    4.3391
   29.385    4.4760
   29.400    4.4655
   29.415    4.3391
   29.430    4.4866
   29.445    4.5814
   29.460    4.5814
   29.475    4.5708
   29.490    4.2759
   29.505    4.4234
   29.520    4.2654
   29.535    4.3813
   29.550    4.3813
   29.565    3.9705
   29.580    4.4128
   29.595    4.2970
   29.610    4.1811
   29.625    4.1601
   29.640    4.3707
   29.655    4.4128
   29.670    4.4023
   29.685    4.1074
   29.700    4.4760
   29.715    3.8968
   29.730    4.1285
   29.745    4.6024
   29.760    4.5392
   29.775    4.3497
   29.790    4.1496
   29.805    4.2549
   29.820    4.2338
   29.835    3.9916
   29.850    4.2865
   29.865    4.4550
   29.880    4.3497
   29.895    4.4339
   29.910    4.4339
   29.925    4.5392
   29.940    4.0442
   29.955    4.1180
   29.970    4.2759
   29.985    4.6656
   30.000    4.4023
   30.015    3.8547
   30.030    4.2443
   30.045    4.4444
   30.060    4.4339
   30.075    3.9810
   30.090    4.0021
   30.105    4.1390
   30.120    4.0442
   30.135    4.1390
   30.150    4.2443
   30.165    4.2549
   30.180    4.0758
   30.195    4.2233
   30.210    4.3181
   30.225    4.1811
   30.240    4.4550
   30.255    4.2654
   30.270    4.5392
   30.285    4.5603
   30.300    4.1390
   30.315    3.9600
   30.330    3.9073
   30.345    3.9494
   30.360    4.0758
   30.375    4.1496
   30.390    4.2865
   30.405    4.0758
   30.420    4.3602
   30.435    4.2443
   30.450    4.1601
   30.465    4.1811
   30.480    4.2022
   30.495    4.1496
   30.510    4.0758
   30.525    4.3497
   30.540    3.9494
   30.555    4.2233
   30.570    4.4023
   30.585    4.3286
   30.600    4.2233
   30.615    4.2970
   30.630    4.1285
   30.645    4.1074
   30.660    3.7704
   30.675    4.0653
   30.690    4.3918
   30.705    4.0969
   30.720    4.4760
   30.735    4.3181
   30.750    4.1074
   30.765    4.2022
   30.780    4.0232
   30.795    3.8125
   30.810    4.1706
   30.825    4.2970
   30.840    4.0232
   30.855    4.2549
   30.870    4.2443
   30.885    4.2443
   30.900    4.2865
   30.915    4.2022
   30.930    4.2127
   30.945    4.0969
   30.960    4.2443
   30.975    4.0758
   30.990    4.3181
   31.005    3.7599
   31.020    3.6651
   31.035    4.0021
   31.050    4.2654
   31.065    3.7704
   31.080    4.1917
   31.095    4.0653
   31.110    3.9284
   31.125    3.9073
   31.140    4.0864
   31.155    4.0442
   31.170    3.9916
   31.185    4.0232
   31.200    4.1074
   31.215    3.9179
   31.230    4.0442
   31.245    3.9916
   31.260    3.9600
   31.275    3.8125
   31.290    3.7388
   31.305    3.8547
   31.320    4.0442
   31.335    4.3602
   31.350    4.1917
   31.365    4.0969
   31.380    4.5182
   31.395    4.1285
   31.410    3.6651
   31.425    4.1180
   31.440    4.1285
   31.455    4.1601
   31.470    4.2970
   31.485    3.8968
   31.500    3.8863
   31.515    4.3813
   31.530    4.5498
   31.545    4.1285
   31.560    3.9389
   31.575    4.0653
   31.590    4.1074
   31.605    3.8757
   31.620    3.9179
   31.635    4.1285
   31.650    3.9073
   31.665    3.9600
   31.680    4.0548
   31.695    4.2233
   31.710    4.0758
   31.725    3.8863
   31.740    3.9600
   31.755    3.9494
   31.770    3.8020
   31.785    3.6124
   31.800    3.7915
   31.815    3.8441
   31.830    3.8231
   31.845    3.9073
   31.860    3.9284
   31.875    4.0021
   31.890    3.8757
   31.905    3.8336
   31.920    4.1601
   31.935    4.0548
   31.950    3.9810
   31.965    4.1285
   31.980    3.9494
   31.995    3.9916
   32.010    4.0758
   32.025    3.8652
   32.040    3.9810
   32.055    4.0548
   32.070    4.0864
   32.085    4.1390
   32.100    3.8231
   32.115    3.5914
   32.130    3.4439
   32.145    3.7915
   32.160    4.0758
   32.175    4.0337
   32.190    3.7915
   32.205    3.8441
   32.220    3.8968
   32.235    4.0337
   32.250    3.9600
   32.265    3.8757
   32.280    4.0232
   32.295    4.1074
   32.310    3.6967
   32.325    3.6019
   32.340    3.9179
   32.355    3.8441
   32.370    3.9810
   32.385    3.9705
   32.400    3.8652
   32.415    3.7072
   32.430    3.6967
   32.445    3.9705
   32.460    4.0653
   32.475    3.8652
   32.490    3.6440
   32.505    3.6230
   32.520    3.7493
   32.535    3.9073
   32.550    3.9810
   32.565    3.8652
   32.580    3.5914
   32.595    3.7599
   32.610    3.7072
   32.625    3.7809
   32.640    3.7283
   32.655    3.5387
   32.670    3.7388
   32.685    4.1496
   32.700    4.1601
   32.715    3.8547
   32.730    3.8125
   32.745    3.8547
   32.760    3.8020
   32.775    3.8757
   32.790    4.1390
   32.805    3.8757
   32.820    3.6019
   32.835    3.8336
   32.850    4.0126
   32.865    3.7283
   32.880    3.5808
   32.895    3.6335
   32.910    3.5598
   32.925    3.5914
   32.940    3.6967
   32.955    3.3807
   32.970    3.8441
   32.985    3.9284
   33.000    3.8968
   33.015    3.7704
   33.030    3.7809
   33.045    3.9179
   33.060    3.8020
   33.075    3.5598
   33.090    3.2859
   33.105    3.6230
   33.120    3.8231
   33.135    3.9494
   33.150    3.8441
   33.165    3.7599
   33.180    3.8125
   33.195    3.9389
   33.210    3.8125
   33.225    3.6335
   33.240    3.3281
   33.255    3.8125
   33.270    3.7388
   33.285    3.3491
   33.300    3.7283
   33.315    3.7388
   33.330    3.5282
   33.345    3.3386
   33.360    3.6546
   33.375    3.7283
   33.390    3.9284
   33.405    3.8968
   33.420    3.8020
   33.435    3.8547
   33.450    3.4755
   33.465    3.7809
   33.480    3.8020
   33.495    3.6230
   33.510    3.4439
   33.525    3.5387
   33.540    3.5071
   33.555    4.0337
   33.570    3.5071
   33.585    3.6019
   33.600    3.7704
   33.615    3.6546
   33.630    3.7283
   33.645    3.5176
   33.660    3.4229
   33.675    3.6756
   33.690    3.4229
   33.705    3.5071
   33.720    3.5808
   33.735    3.7072
   33.750    3.6230
   33.765    3.4860
   33.780    3.8441
   33.795    3.8336
   33.810    3.4966
   33.825    3.6440
   33.840    3.5914
   33.855    3.6124
   33.870    3.9389
   33.885    3.7388
   33.900    3.3913
   33.915    3.7072
   33.930    3.7072
   33.945    3.5387
   33.960    3.8125
   33.975    3.7809
   33.990    3.8863
   34.005    3.8125
   34.020    3.5914
   34.035    3.7809
   34.050    3.7915
   34.065    3.7809
   34.080    3.6124
   34.095    3.3386
   34.110    3.6124
   34.125    3.5703
   34.140    3.6019
   34.155    3.4650
   34.170    3.5808
   34.185    3.6546
   34.200    3.6230
   34.215    3.5492
   34.230    3.6651
   34.245    3.6335
   34.260    3.5387
   34.275    3.6440
   34.290    3.6230
   34.305    3.3913
   34.320    3.5914
   34.335    3.5598
   34.350    3.4439
   34.365    3.8441
   34.380    3.7704
   34.395    3.8336
   34.410    3.6546
   34.425    3.6124
   34.440    3.4544
   34.455    3.4229
   34.470    3.1280
   34.485    3.3913
   34.500    3.4123
   34.515    3.4229
   34.530    3.7915
   34.545    3.6335
   34.560    3.4966
   34.575    3.4755
   34.590    3.5387
   34.605    3.7599
   34.620    3.6967
   34.635    3.2965
   34.650    3.3386
   34.665    3.7177
   34.680    3.4439
   34.695    3.5492
   34.710    3.3702
   34.725    3.5071
   34.740    3.3807
   34.755    3.4018
   34.770    3.6756
   34.785    3.7493
   34.800    3.4966
   34.815    3.4544
   34.830    3.3913
   34.845    3.5808
   34.860    3.4755
   34.875    3.4544
   34.890    3.3597
   34.905    3.4018
   34.920    3.6019
   34.935    3.7072
   34.950    3.2227
   34.965    3.3281
   34.980    3.5387
   34.995    3.5703
   35.010    3.4334
   35.025    3.4018
   35.040    3.4544
   35.055    3.5598
   35.070    3.4650
   35.085    3.3386
   35.100    3.5598
   35.115    3.5071
   35.130    3.5703
   35.145    3.4439
   35.160    3.5176
   35.175    3.5387
   35.190    3.4018
   35.205    3.3070
   35.220    3.5176
   35.235    3.4544
   35.250    3.1806
   35.265    3.2859
   35.280    3.2754
   35.295    3.3597
   35.310    3.3386
   35.325    3.4018
   35.340    3.2754
   35.355    3.3597
   35.370    3.1596
   35.385    3.2227
   35.400    3.3070
   35.415    3.3491
   35.430    3.3597
   35.445    3.1701
   35.460    3.5282
   35.475    3.5282
   35.490    3.2333
   35.505    3.3386
   35.520    3.3491
   35.535    3.3597
   35.550    3.4650
   35.565    3.5703
   35.580    3.7072
   35.595    3.6440
   35.610    3.2754
   35.625    3.4439
   35.640    3.5914
   35.655    3.1912
   35.670    3.2227
   35.685    3.3070
   35.700    3.4229
   35.715    3.4123
   35.730    3.3070
   35.745    3.2965
   35.760    3.1806
   35.775    3.1596
   35.790    3.1385
   35.805    3.3070
   35.820    3.3175
   35.835    3.1385
   35.850    3.1069
   35.865    3.1069
   35.880    3.1912
   35.895    3.0648
   35.910    2.9279
   35.925    3.1701
   35.940    3.3913
   35.955    3.3597
   35.970    3.3070
   35.985    3.4755
   36.000    3.2122
   36.015    3.3702
   36.030    3.5703
   36.045    3.4018
   36.060    3.3491
   36.075    3.5282
   36.090    3.3913
   36.105    3.3702
   36.120    3.0648
   36.135    3.2017
   36.150    2.9279
   36.165    2.9910
   36.180    3.5282
   36.195    3.2965
   36.210    3.1174
   36.225    3.3702
   36.240    3.2649
   36.255    3.1174
   36.270    3.2543
   36.285    3.4334
   36.300    3.3175
   36.315    3.2017
   36.330    3.2859
   36.345    3.3597
   36.360    3.4439
   36.375    3.5703
   36.390    3.3913
   36.405    3.3070
   36.420    3.2543
   36.435    3.2649
   36.450    3.4229
   36.465    3.3913
   36.480    3.0542
   36.495    3.1596
   36.510    3.0753
   36.525    2.9595
   36.540    2.8963
   36.555    3.1596
   36.570    3.2438
   36.585    3.1912
   36.600    3.0753
   36.615    3.2333
   36.630    3.5808
   36.645    3.4229
   36.660    3.2754
   36.675    3.2438
   36.690    2.8857
   36.705    3.2227
   36.720    3.4018
   36.735    3.5914
   36.750    3.2227
   36.765    2.9805
   36.780    3.2965
   36.795    3.5071
   36.810    3.2122
   36.825    3.3386
   36.840    3.1596
   36.855    3.1069
   36.870    3.2859
   36.885    2.9384
   36.900    3.2438
   36.915    3.0332
   36.930    3.1490
   36.945    3.5387
   36.960    3.0858
   36.975    3.1174
   36.990    3.1806
   37.005    3.2017
   37.020    3.2227
   37.035    2.9700
   37.050    3.0542
   37.065    3.1806
   37.080    3.1280
   37.095    3.0964
   37.110    3.3281
   37.125    3.2438
   37.140    3.2017
   37.155    3.4860
   37.170    3.1806
   37.185    3.3807
   37.200    3.2333
   37.215    3.1280
   37.230    3.0226
   37.245    3.4334
   37.260    3.1806
   37.275    3.0332
   37.290    3.1174
   37.305    2.9489
   37.320    3.1912
   37.335    3.2122
   37.350    3.2965
   37.365    3.2333
   37.380    3.0964
   37.395    3.1490
   37.410    3.0753
   37.425    3.1174
   37.440    3.0858
   37.455    3.1490
   37.470    3.2438
   37.485    3.0753
   37.500    2.9910
   37.515    3.0332
   37.530    3.0648
   37.545    3.1490
   37.560    3.1596
   37.575    2.9910
   37.590    3.1596
   37.605    3.4755
   37.620    3.3491
   37.635    3.3070
   37.650    3.3597
   37.665    2.9384
   37.680    3.0964
   37.695    3.2122
   37.710    3.3070
   37.725    3.3070
   37.740    3.0648
   37.755    3.0121
   37.770    3.0753
   37.785    3.3175
   37.800    2.8752
   37.815    3.2122
   37.830    3.1385
   37.845    2.9595
   37.860    3.2017
   37.875    3.1912
   37.890    3.1174
   37.905    3.3913
   37.920    3.2859
   37.935    3.2649
   37.950    3.0858
   37.965    3.1174
   37.980    3.1701
   37.995    3.2017
   38.010    2.7067
   38.025    2.9489
   38.040    2.7804
   38.055    3.2649
   38.070    3.1912
   38.085    3.0753
   38.100    3.0226
   38.115    3.2859
   38.130    3.2227
   38.145    3.1069
   38.160    2.9595
   38.175    3.0332
   38.190    2.9173
   38.205    2.8752
   38.220    3.0016
   38.235    3.0437
   38.250    2.9279
   38.265    2.9910
   38.280    3.0332
   38.295    3.3070
   38.310    3.2649
   38.325    3.1069
   38.340    2.6962
   38.355    2.8120
   38.370    3.0542
   38.385    3.0542
   38.400    3.1069
   38.415    2.8120
   38.430    3.0542
   38.445    3.0648
   38.460    3.3386
   38.475    3.4229
   38.490    2.7699
   38.505    2.7278
   38.520    2.7909
   38.535    2.8857
   38.550    2.9279
   38.565    3.2017
   38.580    3.1806
   38.595    2.9279
   38.610    3.2859
   38.625    3.1174
   38.640    3.0648
   38.655    2.9384
   38.670    2.8225
   38.685    3.0542
   38.700    3.2227
   38.715    3.1912
   38.730    2.9279
   38.745    2.7593
   38.760    3.1385
   38.775    3.0648
   38.790    3.0648
   38.805    3.0226
   38.820    3.0542
   38.835    3.2333
   38.850    3.2017
   38.865    2.9279
   38.880    3.1385
   38.895    3.2122
   38.910    2.8436
   38.925    3.0332
   38.940    3.0332
   38.955    3.0226
   38.970    3.3281
   38.985    3.2543
   39.000    3.0121
   39.015    3.0437
   39.030    3.0753
   39.045    3.3175
   39.060    3.0121
   39.075    3.2122
   39.090    2.9805
   39.105    2.9173
   39.120    3.1596
   39.135    2.9805
   39.150    3.0226
   39.165    3.0753
   39.180    3.1385
   39.195    2.8541
   39.210    2.8963
   39.225    2.9910
   39.240    2.9595
   39.255    2.9595
   39.270    2.9805
   39.285    3.1385
   39.300    3.2543
   39.315    3.1174
   39.330    3.0437
   39.345    2.9910
   39.360    2.8436
   39.375    2.9173
   39.390    3.3175
   39.405    2.9805
   39.420    3.1174
   39.435    2.9910
   39.450    3.1069
   39.465    3.0542
   39.480    3.1806
   39.495    2.7383
   39.510    2.9068
   39.525    3.3175
   39.540    3.4650
   39.555    3.2543
   39.570    2.9279
   39.585    2.8225
   39.600    2.9489
   39.615    2.9910
   39.630    2.9595
   39.645    3.2333
   39.660    3.1385
   39.675    3.0016
   39.690    3.1806
   39.705    3.0858
   39.720    2.9700
   39.735    2.8331
   39.750    2.8963
   39.765    3.0016
   39.780    3.0437
   39.795    3.3386
   39.810    3.2649
   39.825    3.0332
   39.840    2.9279
   39.855    2.9279
   39.870    2.9700
   39.885    3.0437
   39.900    2.9595
   39.915    2.8647
   39.930    2.9068
   39.945    2.7067
   39.960    3.3070
   39.975    3.3281
   39.990    2.9068
