    1.500   12.0590
    1.515   12.0379
    1.530   12.0800
    1.545   12.5961
    1.560   12.0800
    1.575   11.6588
    1.590   11.2375
    1.605   11.5324
    1.620   11.6588
    1.635   11.7430
    1.650   11.6482
    1.665   11.6693
    1.680   11.3849
    1.695   10.6161
    1.710   10.7952
    1.725   10.9321
    1.740   11.0900
    1.755   10.8689
    1.770   10.9426
    1.785   10.8689
    1.800   10.4792
    1.815   10.3423
    1.830   11.2059
    1.845   10.8268
    1.860   10.0158
    1.875   10.7741
    1.890   10.9321
    1.905   10.6793
    1.920   10.1316
    1.935   10.3212
    1.950    9.6893
    1.965    9.8684
    1.980    9.6472
    1.995   10.0685
    2.010    9.2470
    2.025    9.3312
    2.040    9.6367
    2.055    9.8262
    2.070    9.7209
    2.085    9.3102
    2.100    9.5208
    2.115    9.7841
    2.130    9.3418
    2.145    9.0679
    2.160    9.1732
    2.175    9.2154
    2.190    9.2996
    2.205    9.1943
    2.220    8.8257
    2.235    8.9205
    2.250    9.0047
    2.265    8.8257
    2.280    9.1943
    2.295    8.9100
    2.310    8.9942
    2.325    9.0469
    2.340    8.5624
    2.355    9.3207
    2.370    8.7098
    2.385    8.8046
    2.400    8.9415
    2.415    8.8678
    2.430    8.4044
    2.445    8.5940
    2.460    9.0679
    2.475    8.5097
    2.490    8.6151
    2.505    8.8152
    2.520    8.4571
    2.535    8.6677
    2.550    8.8468
    2.565    8.2359
    2.580    8.6677
    2.595    8.7098
    2.610    8.1095
    2.625    8.3623
    2.640    8.4992
    2.655    8.3096
    2.670    8.0463
    2.685    8.6677
    2.700    8.5097
    2.715    8.1411
    2.730    8.7730
    2.745    8.6993
    2.760    8.3412
    2.775    8.0042
    2.790    7.7725
    2.805    8.5940
    2.820    8.7098
    2.835    8.4466
    2.850    8.4044
    2.865    8.0569
    2.880    8.5097
    2.895    9.0995
    2.910    9.1838
    2.925    8.8784
    2.940    9.0047
    2.955    9.3734
    2.970    9.2786
    2.985   10.0158
    3.000    9.9842
    3.015    9.8052
    3.030   10.2264
    3.045    9.6893
    3.060   10.3107
    3.075   10.8373
    3.090   11.4271
    3.105   11.2059
    3.120   11.3639
    3.135   11.7746
    3.150   12.1643
    3.165   12.2591
    3.180   12.9963
    3.195   12.9437
    3.210   14.3128
    3.225   14.2180
    3.240   14.2075
    3.255   15.2817
    3.270   16.6509
    3.285   16.7562
    3.300   17.7357
    3.315   18.9047
    3.330   19.8842
    3.345   21.1901
    3.360   21.6430
    3.375   23.1490
    3.390   24.9289
    3.405   26.5719
    3.420   27.7093
    3.435   30.2054
    3.450   31.5219
    3.465   33.8389
    3.480   34.1864
    3.495   35.5134
    3.510   34.7446
    3.525   32.3644
    3.540   30.6477
    3.555   27.8568
    3.570   24.8868
    3.585   21.3060
    3.600   18.9363
    3.615   16.6614
    3.630   16.0400
    3.645   14.3549
    3.660   13.7757
    3.675   13.3860
    3.690   12.6488
    3.705   12.0800
    3.720   12.0906
    3.735   12.4276
    3.750   12.1748
    3.765   12.1222
    3.780   12.3012
    3.795   12.0590
    3.810   12.3012
    3.825   12.4803
    3.840   12.4803
    3.855   12.9331
    3.870   13.4281
    3.885   13.4176
    3.900   13.7125
    3.915   13.8389
    3.930   14.3444
    3.945   14.6603
    3.960   15.0816
    3.975   15.8083
    3.990   16.1243
    4.005   15.5556
    4.020   15.8820
    4.035   16.9352
    4.050   16.9036
    4.065   17.4513
    4.080   17.5040
    4.095   17.3354
    4.110   16.9563
    4.125   16.7246
    4.140   17.4408
    4.155   17.1248
    4.170   16.5456
    4.185   16.8826
    4.200   15.9874
    4.215   15.7767
    4.230   15.4081
    4.245   15.6187
    4.260   15.4924
    4.275   14.9868
    4.290   14.5340
    4.305   14.3865
    4.320   13.7230
    4.335   12.8067
    4.350   11.8589
    4.365   11.9537
    4.380   11.3849
    4.395   10.5424
    4.410   10.5951
    4.425   10.1948
    4.440    9.9105
    4.455    9.6577
    4.470    9.4155
    4.485    8.4887
    4.500    9.1101
    4.515    9.0995
    4.530    8.5413
    4.545    8.2149
    4.560    7.8462
    4.575    8.2149
    4.590    7.7620
    4.605    7.9937
    4.620    7.8462
    4.635    7.7304
    4.650    7.3934
    4.665    7.2880
    4.680    7.3828
    4.695    8.0463
    4.710    7.2986
    4.725    7.3828
    4.740    7.0879
    4.755    7.7620
    4.770    7.2459
    4.785    7.0879
    4.800    7.1406
    4.815    7.2354
    4.830    7.5724
    4.845    7.5829
    4.860    7.2880
    4.875    7.0879
    4.890    7.2354
    4.905    7.1511
    4.920    7.3512
    4.935    7.3934
    4.950    7.2670
    4.965    7.2775
    4.980    7.3091
    4.995    7.1511
    5.010    7.3407
    5.025    7.2670
    5.040    7.3618
    5.055    7.7199
    5.070    7.9200
    5.085    7.6777
    5.100    7.9200
    5.115    7.3618
    5.130    7.4250
    5.145    7.4460
    5.160    7.6672
    5.175    7.5408
    5.190    7.3934
    5.205    7.5935
    5.220    7.2565
    5.235    7.9516
    5.250    7.4460
    5.265    7.4250
    5.280    8.0674
    5.295    8.3412
    5.310    8.4781
    5.325    8.4150
    5.340    8.0358
    5.355    7.9094
    5.370    7.7936
    5.385    8.1306
    5.400    7.9516
    5.415    7.9831
    5.430    8.2991
    5.445    8.3834
    5.460    8.2043
    5.475    8.6045
    5.490    8.7836
    5.505    8.4255
    5.520    8.4992
    5.535    9.0047
    5.550    8.3834
    5.565    8.4571
    5.580    8.1306
    5.595    8.5203
    5.610    8.1201
    5.625    8.6677
    5.640    8.9626
    5.655    8.4150
    5.670    8.6045
    5.685    8.1727
    5.700    8.3307
    5.715    8.7520
    5.730    8.0885
    5.745    8.1622
    5.760    7.8462
    5.775    8.0885
    5.790    8.2991
    5.805    7.9937
    5.820    8.1833
    5.835    8.0358
    5.850    8.0779
    5.865    7.8462
    5.880    7.5935
    5.895    7.7304
    5.910    7.7199
    5.925    7.4987
    5.940    7.0985
    5.955    7.0142
    5.970    6.6351
    5.985    6.8562
    6.000    7.1617
    6.015    6.6877
    6.030    6.5508
    6.045    6.7720
    6.060    6.8562
    6.075    6.8878
    6.090    6.6772
    6.105    6.6456
    6.120    6.6667
    6.135    7.0037
    6.150    7.1511
    6.165    6.6456
    6.180    6.7404
    6.195    6.5508
    6.210    6.5929
    6.225    6.1295
    6.240    6.2243
    6.255    6.1611
    6.270    6.4771
    6.285    6.5824
    6.300    6.3086
    6.315    6.4139
    6.330    6.5192
    6.345    6.6667
    6.360    6.3823
    6.375    6.1506
    6.390    6.3823
    6.405    6.4666
    6.420    6.1611
    6.435    6.2454
    6.450    6.4666
    6.465    5.8978
    6.480    6.0453
    6.495    6.0242
    6.510    6.2349
    6.525    6.1190
    6.540    6.1295
    6.555    5.8241
    6.570    6.1611
    6.585    6.2033
    6.600    6.1085
    6.615    6.2349
    6.630    6.0769
    6.645    6.2665
    6.660    5.9294
    6.675    6.0032
    6.690    6.2033
    6.705    6.1822
    6.720    6.3296
    6.735    6.2981
    6.750    6.3296
    6.765    6.1611
    6.780    6.7088
    6.795    6.7193
    6.810    6.3402
    6.825    5.8347
    6.840    6.4982
    6.855    6.6351
    6.870    6.4666
    6.885    6.9616
    6.900    7.5408
    6.915    6.6561
    6.930    7.2249
    6.945    7.7830
    6.960    7.9621
    6.975    8.3412
    6.990    7.9937
    7.005    7.8462
    7.020    8.0463
    7.035    8.1095
    7.050    7.8146
    7.065    7.3302
    7.080    6.8352
    7.095    6.6877
    7.110    6.8668
    7.125    6.6140
    7.140    6.2665
    7.155    6.1401
    7.170    6.3507
    7.185    6.0769
    7.200    5.9294
    7.215    5.7083
    7.230    5.3502
    7.245    5.8662
    7.260    5.7609
    7.275    5.6872
    7.290    5.4028
    7.305    5.3081
    7.320    5.2238
    7.335    5.3186
    7.350    5.8452
    7.365    5.5503
    7.380    5.3397
    7.395    5.5187
    7.410    5.4555
    7.425    5.2238
    7.440    5.4871
    7.455    5.3397
    7.470    5.2659
    7.485    5.2027
    7.500    5.1606
    7.515    5.1395
    7.530    5.2870
    7.545    5.6556
    7.560    5.4134
    7.575    5.6767
    7.590    5.3291
    7.605    5.0658
    7.620    4.8657
    7.635    5.0237
    7.650    5.0026
    7.665    4.9078
    7.680    4.7920
    7.695    4.9921
    7.710    5.3712
    7.725    5.4028
    7.740    5.0974
    7.755    5.2554
    7.770    5.2449
    7.785    5.1711
    7.800    5.3291
    7.815    5.4239
    7.830    4.9710
    7.845    4.9710
    7.860    5.2870
    7.875    4.9394
    7.890    4.9500
    7.905    5.2765
    7.920    5.5608
    7.935    5.5819
    7.950    5.2554
    7.965    5.0448
    7.980    5.3923
    7.995    5.6345
    8.010    5.3502
    8.025    4.9500
    8.040    4.7709
    8.055    5.1501
    8.070    5.2870
    8.085    5.4871
    8.100    5.2238
    8.115    5.2133
    8.130    5.0974
    8.145    4.9710
    8.160    5.0342
    8.175    5.4450
    8.190    5.2343
    8.205    5.3291
    8.220    5.4766
    8.235    5.3923
    8.250    5.3923
    8.265    5.2554
    8.280    5.0764
    8.295    5.0764
    8.310    5.1711
    8.325    5.0869
    8.340    5.4028
    8.355    5.3291
    8.370    5.2765
    8.385    5.5292
    8.400    5.5187
    8.415    5.4239
    8.430    5.4450
    8.445    4.9078
    8.460    4.7393
    8.475    5.0869
    8.490    5.1606
    8.505    5.3081
    8.520    5.0974
    8.535    5.0237
    8.550    4.8341
    8.565    5.0237
    8.580    4.8025
    8.595    4.7815
    8.610    4.8552
    8.625    4.9921
    8.640    4.7920
    8.655    4.9500
    8.670    4.6551
    8.685    4.7077
    8.700    4.7393
    8.715    4.7393
    8.730    4.4971
    8.745    4.8763
    8.760    4.7920
    8.775    4.8025
    8.790    4.6130
    8.805    4.4866
    8.820    4.8657
    8.835    4.6340
    8.850    4.6340
    8.865    4.7288
    8.880    4.8973
    8.895    4.9710
    8.910    4.3707
    8.925    4.9184
    8.940    4.6235
    8.955    4.5708
    8.970    4.6972
    8.985    4.6130
    9.000    4.6130
    9.015    4.6867
    9.030    4.2022
    9.045    4.5603
    9.060    4.5076
    9.075    4.3286
    9.090    4.4866
    9.105    3.9494
    9.120    4.3391
    9.135    4.6972
    9.150    4.4866
    9.165    4.4866
    9.180    4.4444
    9.195    4.4128
    9.210    4.4550
    9.225    4.4655
    9.240    4.4023
    9.255    4.1390
    9.270    4.0864
    9.285    4.2443
    9.300    4.2865
    9.315    4.1285
    9.330    4.3286
    9.345    4.2759
    9.360    4.4339
    9.375    4.0442
    9.390    4.5603
    9.405    4.2338
    9.420    4.0758
    9.435    4.2127
    9.450    4.5076
    9.465    4.2970
    9.480    4.3813
    9.495    4.2970
    9.510    3.9916
    9.525    4.1601
    9.540    4.4339
    9.555    4.2970
    9.570    4.0864
    9.585    3.9284
    9.600    4.0548
    9.615    4.3813
    9.630    4.6867
    9.645    4.1074
    9.660    3.9916
    9.675    4.7288
    9.690    4.3075
    9.705    4.3707
    9.720    4.1285
    9.735    4.4866
    9.750    4.3707
    9.765    4.4760
    9.780    4.1496
    9.795    4.4234
    9.810    4.1180
    9.825    4.4760
    9.840    4.2443
    9.855    4.1917
    9.870    4.1917
    9.885    4.2654
    9.900    4.4128
    9.915    4.3813
    9.930    4.5287
    9.945    4.2233
    9.960    4.3918
    9.975    4.2549
    9.990    3.7915
   10.005    4.2022
   10.020    4.0653
   10.035    4.1601
   10.050    4.1917
   10.065    4.5076
   10.080    4.0548
   10.095    4.3391
   10.110    4.4128
   10.125    4.4655
   10.140    4.1074
   10.155    4.2443
   10.170    4.2654
   10.185    4.3813
   10.200    4.4760
   10.215    4.1811
   10.230    4.5919
   10.245    4.4971
   10.260    4.2233
   10.275    4.3286
   10.290    4.4339
   10.305    4.6235
   10.320    4.2970
   10.335    4.1285
   10.350    4.1074
   10.365    3.9916
   10.380    4.3602
   10.395    4.2338
   10.410    4.6867
   10.425    4.3602
   10.440    4.5708
   10.455    4.6551
   10.470    4.6235
   10.485    4.5603
   10.500    4.3813
   10.515    4.4128
   10.530    4.6551
   10.545    4.5814
   10.560    4.4339
   10.575    4.2865
   10.590    4.8341
   10.605    4.3918
   10.620    4.2654
   10.635    4.3181
   10.650    4.2865
   10.665    4.3286
   10.680    4.3391
   10.695    4.3813
   10.710    4.4655
   10.725    4.4128
   10.740    4.4760
   10.755    4.4128
   10.770    4.4339
   10.785    4.4760
   10.800    4.2338
   10.815    4.6340
   10.830    4.4655
   10.845    4.2759
   10.860    4.3286
   10.875    4.4550
   10.890    4.4339
   10.905    4.5498
   10.920    4.3181
   10.935    4.3813
   10.950    4.8025
   10.965    4.9500
   10.980    4.8341
   10.995    4.4444
   11.010    4.1811
   11.025    4.8973
   11.040    4.6972
   11.055    4.4023
   11.070    4.5919
   11.085    4.1706
   11.100    4.2022
   11.115    4.4971
   11.130    4.4866
   11.145    4.5392
   11.160    4.5498
   11.175    4.8868
   11.190    4.3918
   11.205    4.2233
   11.220    4.2549
   11.235    4.3181
   11.250    4.4128
   11.265    4.1917
   11.280    4.3497
   11.295    4.1811
   11.310    4.2549
   11.325    4.4444
   11.340    4.2970
   11.355    4.3918
   11.370    4.3707
   11.385    4.2233
   11.400    4.5603
   11.415    4.2759
   11.430    4.5076
   11.445    4.4023
   11.460    4.5076
   11.475    4.3181
   11.490    4.4339
   11.505    4.5076
   11.520    4.5498
   11.535    4.7393
   11.550    4.6340
   11.565    4.3918
   11.580    4.6656
   11.595    4.6340
   11.610    4.1706
   11.625    4.2759
   11.640    4.4444
   11.655    4.5182
   11.670    4.5076
   11.685    4.2654
   11.700    4.1917
   11.715    4.2865
   11.730    4.1917
   11.745    4.4128
   11.760    4.3602
   11.775    4.1285
   11.790    4.4866
   11.805    4.3391
   11.820    4.3813
   11.835    3.7704
   11.850    4.2654
   11.865    4.5498
   11.880    4.4550
   11.895    4.0442
   11.910    4.2654
   11.925    4.5182
   11.940    4.2654
   11.955    4.1390
   11.970    4.2549
   11.985    4.3497
   12.000    4.6340
   12.015    4.5498
   12.030    4.1601
   12.045    4.2654
   12.060    4.4866
   12.075    4.5182
   12.090    4.1496
   12.105    4.0232
   12.120    4.2443
   12.135    4.2759
   12.150    4.5076
   12.165    4.5603
   12.180    4.4655
   12.195    4.4444
   12.210    4.3813
   12.225    4.3602
   12.240    4.3813
   12.255    4.2233
   12.270    4.3181
   12.285    4.4444
   12.300    4.2443
   12.315    4.2970
   12.330    4.3391
   12.345    4.4655
   12.360    4.6761
   12.375    4.2970
   12.390    4.1917
   12.405    4.2970
   12.420    4.1496
   12.435    4.3497
   12.450    4.2233
   12.465    4.0969
   12.480    4.0232
   12.495    4.3391
   12.510    4.0864
   12.525    4.1601
   12.540    4.2233
   12.555    3.9284
   12.570    3.9600
   12.585    4.2022
   12.600    4.1917
   12.615    4.3075
   12.630    4.2865
   12.645    4.0864
   12.660    4.3497
   12.675    4.4760
   12.690    4.4866
   12.705    4.4128
   12.720    4.2759
   12.735    4.2970
   12.750    4.0548
   12.765    4.0653
   12.780    4.2549
   12.795    4.3497
   12.810    3.8547
   12.825    4.2022
   12.840    4.3391
   12.855    4.1496
   12.870    4.4444
   12.885    4.5287
   12.900    4.3286
   12.915    4.4971
   12.930    4.2654
   12.945    4.1285
   12.960    4.0758
   12.975    4.1601
   12.990    4.1074
   13.005    4.2233
   13.020    4.1706
   13.035    4.2549
   13.050    4.2338
   13.065    3.8757
   13.080    4.2127
   13.095    4.1285
   13.110    4.0864
   13.125    4.1917
   13.140    3.9284
   13.155    4.1285
   13.170    4.3286
   13.185    4.5182
   13.200    4.3602
   13.215    4.2022
   13.230    3.9916
   13.245    4.2338
   13.260    4.2022
   13.275    4.1601
   13.290    4.0337
   13.305    3.9494
   13.320    3.9284
   13.335    4.4655
   13.350    4.3918
   13.365    4.1706
   13.380    3.9810
   13.395    4.0969
   13.410    4.0232
   13.425    4.3075
   13.440    4.2549
   13.455    4.3391
   13.470    4.2654
   13.485    4.0126
   13.500    4.3602
   13.515    4.0337
   13.530    4.1706
   13.545    4.0548
   13.560    4.1496
   13.575    4.1074
   13.590    4.2022
   13.605    4.1285
   13.620    3.9179
   13.635    4.1390
   13.650    4.2865
   13.665    4.2127
   13.680    4.0337
   13.695    4.0337
   13.710    4.2970
   13.725    4.2654
   13.740    4.1496
   13.755    4.0758
   13.770    4.1180
   13.785    4.1706
   13.800    4.0021
   13.815    4.4444
   13.830    4.7077
   13.845    4.5498
   13.860    4.1706
   13.875    4.2443
   13.890    4.2443
   13.905    4.3602
   13.920    4.5498
   13.935    4.2549
   13.950    4.4023
   13.965    4.4128
   13.980    3.9916
   13.995    3.8863
   14.010    4.0337
   14.025    3.9179
   14.040    4.0021
   14.055    4.0758
   14.070    4.4866
   14.085    4.2233
   14.100    4.2759
   14.115    4.1074
   14.130    4.2549
   14.145    4.4023
   14.160    4.4760
   14.175    4.1917
   14.190    4.3286
   14.205    4.6656
   14.220    4.1390
   14.235    4.4128
   14.250    4.3075
   14.265    4.1706
   14.280    4.1706
   14.295    3.8652
   14.310    4.1180
   14.325    4.4866
   14.340    4.4444
   14.355    4.4128
   14.370    4.2127
   14.385    4.4550
   14.400    4.4655
   14.415    4.2127
   14.430    4.4866
   14.445    4.4128
   14.460    4.3813
   14.475    4.6761
   14.490    4.4866
   14.505    4.3707
   14.520    4.3707
   14.535    4.3286
   14.550    4.4234
   14.565    4.4760
   14.580    4.4655
   14.595    4.4339
   14.610    4.4023
   14.625    4.2022
   14.640    4.2338
   14.655    4.3286
   14.670    4.3391
   14.685    4.3497
   14.700    4.2022
   14.715    4.0653
   14.730    4.4971
   14.745    4.4339
   14.760    4.4339
   14.775    4.2654
   14.790    4.0126
   14.805    4.4866
   14.820    4.3813
   14.835    4.1601
   14.850    4.1811
   14.865    4.0021
   14.880    4.2865
   14.895    4.2338
   14.910    4.5708
   14.925    4.2022
   14.940    3.9284
   14.955    4.2970
   14.970    3.9705
   14.985    4.1601
   15.000    4.1390
   15.015    4.1496
   15.030    4.1811
   15.045    4.1390
   15.060    4.1390
   15.075    4.1811
   15.090    3.8968
   15.105    4.1390
   15.120    4.1706
   15.135    4.3918
   15.150    4.1706
   15.165    4.2022
   15.180    4.2338
   15.195    3.7493
   15.210    3.7915
   15.225    4.0442
   15.240    4.2338
   15.255    4.2338
   15.270    4.3075
   15.285    4.2970
   15.300    4.1496
   15.315    4.2233
   15.330    4.1285
   15.345    3.8968
   15.360    4.1074
   15.375    4.0548
   15.390    3.9179
   15.405    3.6862
   15.420    3.8968
   15.435    4.3391
   15.450    3.9179
   15.465    4.0232
   15.480    4.2127
   15.495    4.3181
   15.510    3.8863
   15.525    3.9810
   15.540    3.9494
   15.555    4.1390
   15.570    4.3707
   15.585    4.0864
   15.600    4.4023
   15.615    3.8336
   15.630    4.0758
   15.645    4.4023
   15.660    4.3391
   15.675    4.1917
   15.690    3.9810
   15.705    3.8441
   15.720    4.1285
   15.735    3.9389
   15.750    3.8652
   15.765    3.7283
   15.780    3.5808
   15.795    4.0653
   15.810    3.8863
   15.825    3.9600
   15.840    4.1917
   15.855    4.5076
   15.870    4.0653
   15.885    3.8441
   15.900    3.8652
   15.915    4.2443
   15.930    4.2233
   15.945    3.8968
   15.960    3.9810
   15.975    3.9179
   15.990    4.0442
   16.005    4.0232
   16.020    4.0969
   16.035    4.0969
   16.050    3.9600
   16.065    3.7704
   16.080    3.9284
   16.095    3.9810
   16.110    4.3286
   16.125    4.0337
   16.140    4.1390
   16.155    3.9389
   16.170    3.9179
   16.185    4.0337
   16.200    4.3075
   16.215    4.3707
   16.230    4.3918
   16.245    4.2127
   16.260    4.0442
   16.275    4.0653
   16.290    4.4866
   16.305    3.9916
   16.320    4.0126
   16.335    4.2338
   16.350    4.1496
   16.365    3.9073
   16.380    3.9073
   16.395    4.0232
   16.410    4.0864
   16.425    3.8020
   16.440    4.1180
   16.455    4.2865
   16.470    4.2233
   16.485    3.7915
   16.500    3.8757
   16.515    4.2865
   16.530    3.9705
   16.545    3.8336
   16.560    3.6440
   16.575    3.7493
   16.590    3.7493
   16.605    4.0864
   16.620    4.0758
   16.635    4.1074
   16.650    3.9494
   16.665    3.8652
   16.680    3.5914
   16.695    3.8547
   16.710    3.9389
   16.725    3.8652
   16.740    3.8336
   16.755    4.0126
   16.770    3.7704
   16.785    3.7704
   16.800    3.8757
   16.815    4.1811
   16.830    4.0442
   16.845    4.0548
   16.860    4.0337
   16.875    3.8231
   16.890    3.9916
   16.905    4.0969
   16.920    3.9810
   16.935    3.9389
   16.950    3.9916
   16.965    4.0126
   16.980    4.0969
   16.995    4.1390
   17.010    3.8652
   17.025    3.8547
   17.040    3.7599
   17.055    3.9916
   17.070    3.9073
   17.085    3.9916
   17.100    4.0232
   17.115    3.9600
   17.130    4.1180
   17.145    4.0232
   17.160    4.0442
   17.175    3.7493
   17.190    4.0232
   17.205    3.7599
   17.220    3.7915
   17.235    3.7809
   17.250    3.7283
   17.265    3.7283
   17.280    3.7704
   17.295    4.0548
   17.310    4.0653
   17.325    3.9494
   17.340    3.8125
   17.355    4.0548
   17.370    3.8547
   17.385    4.0548
   17.400    3.8336
   17.415    3.9810
   17.430    4.1285
   17.445    4.0548
   17.460    3.8968
   17.475    3.9600
   17.490    4.0442
   17.505    3.9073
   17.520    4.0337
   17.535    4.0126
   17.550    3.8547
   17.565    3.9705
   17.580    3.6335
   17.595    3.8968
   17.610    3.8125
   17.625    4.1496
   17.640    4.1496
   17.655    4.1496
   17.670    4.2022
   17.685    3.9600
   17.700    3.9073
   17.715    3.9179
   17.730    3.9389
   17.745    4.2127
   17.760    4.1811
   17.775    3.9705
   17.790    4.1496
   17.805    4.2443
   17.820    4.0653
   17.835    4.1180
   17.850    3.8863
   17.865    4.0442
   17.880    3.9389
   17.895    3.8125
   17.910    3.9494
   17.925    3.9494
   17.940    4.1180
   17.955    4.2549
   17.970    3.9073
   17.985    4.2233
   18.000    4.4339
   18.015    4.2970
   18.030    4.0864
   18.045    3.8968
   18.060    4.0337
   18.075    3.9916
   18.090    3.9916
   18.105    4.0337
   18.120    4.1285
   18.135    4.2654
   18.150    4.3918
   18.165    4.1285
   18.180    3.8231
   18.195    3.8652
   18.210    3.8020
   18.225    3.9179
   18.240    3.9810
   18.255    3.6651
   18.270    3.6651
   18.285    3.8231
   18.300    3.8863
   18.315    3.7493
   18.330    3.8757
   18.345    4.0758
   18.360    3.8547
   18.375    3.8336
   18.390    4.0548
   18.405    3.9073
   18.420    3.9916
   18.435    4.0232
   18.450    3.8336
   18.465    3.9705
   18.480    3.8757
   18.495    3.8547
   18.510    4.0653
   18.525    4.2549
   18.540    3.8652
   18.555    3.8968
   18.570    3.9600
   18.585    3.8547
   18.600    3.8863
   18.615    4.0653
   18.630    4.0548
   18.645    4.0969
   18.660    4.2549
   18.675    3.9705
   18.690    3.9073
   18.705    3.8125
   18.720    3.9284
   18.735    4.0442
   18.750    4.2970
   18.765    3.8757
   18.780    4.0969
   18.795    3.9073
   18.810    4.1180
   18.825    4.0442
   18.840    4.2022
   18.855    3.8863
   18.870    3.7072
   18.885    3.7072
   18.900    3.8652
   18.915    3.8757
   18.930    4.0337
   18.945    3.7915
   18.960    3.7809
   18.975    3.8020
   18.990    4.1180
   19.005    4.3286
   19.020    4.1496
   19.035    4.0337
   19.050    3.7915
   19.065    3.9284
   19.080    4.1285
   19.095    3.8652
   19.110    3.7072
   19.125    3.8968
   19.140    4.0442
   19.155    3.8968
   19.170    3.8652
   19.185    3.7388
   19.200    4.0126
   19.215    3.8863
   19.230    4.0337
   19.245    3.7704
   19.260    4.0758
   19.275    4.3602
   19.290    4.1811
   19.305    3.9494
   19.320    3.9705
   19.335    3.9916
   19.350    4.1706
   19.365    3.6862
   19.380    3.7809
   19.395    3.8652
   19.410    4.0232
   19.425    3.7283
   19.440    3.8757
   19.455    3.6546
   19.470    3.6651
   19.485    3.9810
   19.500    4.1180
   19.515    3.9073
   19.530    3.5914
   19.545    3.7283
   19.560    3.9705
   19.575    3.9705
   19.590    3.7809
   19.605    3.8336
   19.620    3.8336
   19.635    3.9284
   19.650    3.7388
   19.665    3.6651
   19.680    4.1390
   19.695    3.5808
   19.710    3.8652
   19.725    4.0442
   19.740    3.5914
   19.755    3.9389
   19.770    3.7072
   19.785    3.9389
   19.800    4.0021
   19.815    4.0021
   19.830    4.0442
   19.845    4.1180
   19.860    4.0126
   19.875    3.7599
   19.890    3.8968
   19.905    4.0548
   19.920    3.8336
   19.935    3.5282
   19.950    3.8968
   19.965    4.0969
   19.980    3.9810
   19.995    3.7493
   20.010    3.5914
   20.025    4.0126
   20.040    4.2549
   20.055    3.9600
   20.070    3.5914
   20.085    3.6967
   20.100    3.8125
   20.115    4.0021
   20.130    3.8652
   20.145    3.9179
   20.160    3.6967
   20.175    4.0021
   20.190    3.8547
   20.205    3.4966
   20.220    3.8441
   20.235    3.3913
   20.250    3.6967
   20.265    3.6546
   20.280    3.6756
   20.295    3.7809
   20.310    3.7177
   20.325    3.7493
   20.340    3.9810
   20.355    3.6967
   20.370    3.8336
   20.385    3.7915
   20.400    4.1496
   20.415    3.8757
   20.430    3.7493
   20.445    3.6756
   20.460    3.4018
   20.475    3.5176
   20.490    4.0548
   20.505    3.9705
   20.520    3.9600
   20.535    3.9494
   20.550    4.0653
   20.565    3.7388
   20.580    3.8020
   20.595    3.6230
   20.610    3.7915
   20.625    3.5492
   20.640    4.0548
   20.655    3.9073
   20.670    3.7283
   20.685    3.8652
   20.700    3.4650
   20.715    3.4544
   20.730    3.8336
   20.745    3.8968
   20.760    3.8020
   20.775    3.6967
   20.790    3.5282
   20.805    3.8020
   20.820    3.7599
   20.835    3.3386
   20.850    3.3807
   20.865    3.4439
   20.880    3.4650
   20.895    3.4650
   20.910    3.9073
   20.925    3.8336
   20.940    3.7072
   20.955    3.8441
   20.970    3.6967
   20.985    3.7283
   21.000    3.5808
   21.015    3.7388
   21.030    3.6230
   21.045    3.6335
   21.060    3.8125
   21.075    3.6967
   21.090    3.7388
   21.105    3.6651
   21.120    3.6440
   21.135    3.7388
   21.150    3.8652
   21.165    3.8231
   21.180    3.8757
   21.195    3.8547
   21.210    4.0232
   21.225    3.6335
   21.240    3.6546
   21.255    3.6967
   21.270    3.9073
   21.285    3.5282
   21.300    3.7704
   21.315    3.9916
   21.330    3.7809
   21.345    3.5598
   21.360    4.0653
   21.375    3.8231
   21.390    3.9494
   21.405    3.8968
   21.420    3.9705
   21.435    4.0548
   21.450    3.8125
   21.465    3.8547
   21.480    3.6335
   21.495    3.5176
   21.510    3.5176
   21.525    3.5071
   21.540    3.6862
   21.555    3.6651
   21.570    3.8231
   21.585    3.8441
   21.600    3.7493
   21.615    3.5071
   21.630    3.6124
   21.645    3.9916
   21.660    3.7388
   21.675    3.8125
   21.690    3.9916
   21.705    3.8547
   21.720    3.6335
   21.735    3.7599
   21.750    3.8863
   21.765    3.7283
   21.780    3.6019
   21.795    3.7177
   21.810    3.7177
   21.825    3.4229
   21.840    3.6124
   21.855    3.5492
   21.870    3.6019
   21.885    3.9494
   21.900    3.8020
   21.915    3.6862
   21.930    3.7072
   21.945    3.4544
   21.960    3.6967
   21.975    3.8652
   21.990    3.9073
   22.005    3.8968
   22.020    3.7599
   22.035    3.8863
   22.050    3.7388
   22.065    3.4334
   22.080    3.6440
   22.095    3.3491
   22.110    3.3702
   22.125    3.7072
   22.140    3.5492
   22.155    3.6019
   22.170    3.7177
   22.185    3.5598
   22.200    3.7388
   22.215    3.7072
   22.230    3.5176
   22.245    3.4860
   22.260    3.8020
   22.275    3.4860
   22.290    3.5598
   22.305    3.6335
   22.320    3.5703
   22.335    3.5598
   22.350    3.4860
   22.365    3.6546
   22.380    3.6862
   22.395    3.7177
   22.410    3.5492
   22.425    3.4123
   22.440    3.6124
   22.455    3.4439
   22.470    3.6546
   22.485    3.6546
   22.500    3.5492
   22.515    3.3175
   22.530    3.5808
   22.545    3.5598
   22.560    3.5071
   22.575    3.5914
   22.590    3.9600
   22.605    3.5176
   22.620    3.4544
   22.635    3.7493
   22.650    3.3597
   22.665    3.5387
   22.680    3.8757
   22.695    3.4755
   22.710    3.4123
   22.725    3.5598
   22.740    3.4650
   22.755    3.6335
   22.770    3.6335
   22.785    3.4650
   22.800    3.6651
   22.815    3.6967
   22.830    3.2754
   22.845    3.2859
   22.860    3.4229
   22.875    3.6546
   22.890    3.7072
   22.905    3.6124
   22.920    3.3175
   22.935    3.4439
   22.950    3.4650
   22.965    3.3281
   22.980    3.3597
   22.995    3.4439
   23.010    3.5282
   23.025    3.6124
   23.040    3.5387
   23.055    3.3807
   23.070    3.2227
   23.085    3.1385
   23.100    3.3702
   23.115    3.5492
   23.130    3.6967
   23.145    3.4123
   23.160    3.4229
   23.175    3.3913
   23.190    3.3386
   23.205    3.4544
   23.220    3.6967
   23.235    3.4229
   23.250    3.4860
   23.265    3.5492
   23.280    3.8125
   23.295    3.2754
   23.310    3.3913
   23.325    3.3491
   23.340    3.3702
   23.355    3.3491
   23.370    3.3491
   23.385    3.1280
   23.400    3.3702
   23.415    3.3175
   23.430    3.2649
   23.445    3.3281
   23.460    3.3597
   23.475    3.3175
   23.490    3.3913
   23.505    3.2859
   23.520    3.3070
   23.535    3.2017
   23.550    3.4229
   23.565    3.4860
   23.580    3.3386
   23.595    3.2438
   23.610    3.4650
   23.625    3.6124
   23.640    3.2754
   23.655    3.2438
   23.670    3.3913
   23.685    3.4650
   23.700    3.5387
   23.715    3.4018
   23.730    2.9068
   23.745    3.1490
   23.760    3.4229
   23.775    3.2017
   23.790    3.1912
   23.805    3.0332
   23.820    3.3597
   23.835    3.5176
   23.850    3.1174
   23.865    3.2543
   23.880    3.2859
   23.895    3.4123
   23.910    3.5703
   23.925    3.4123
   23.940    3.2227
   23.955    3.6230
   23.970    3.4860
   23.985    3.1912
   24.000    3.1596
   24.015    3.2122
   24.030    3.2649
   24.045    3.2438
   24.060    3.5071
   24.075    2.8436
   24.090    3.1912
   24.105    3.2754
   24.120    3.2438
   24.135    3.1912
   24.150    3.1069
   24.165    3.1912
   24.180    3.1385
   24.195    3.2122
   24.210    3.3070
   24.225    3.2965
   24.240    3.2754
   24.255    3.1596
   24.270    3.0964
   24.285    3.4018
   24.300    3.2543
   24.315    3.2543
   24.330    3.1596
   24.345    3.1596
   24.360    3.2438
   24.375    3.2122
   24.390    3.0648
   24.405    3.1490
   24.420    3.4755
   24.435    3.2859
   24.450    3.1701
   24.465    3.3070
   24.480    3.1701
   24.495    3.3913
   24.510    3.4650
   24.525    3.3281
   24.540    3.3070
   24.555    3.4229
   24.570    3.3386
   24.585    3.3281
   24.600    3.0226
   24.615    3.2227
   24.630    3.2122
   24.645    3.3597
   24.660    3.3702
   24.675    3.2017
   24.690    3.3702
   24.705    3.1490
   24.720    3.3913
   24.735    3.1912
   24.750    3.2438
   24.765    3.1806
   24.780    3.3597
   24.795    3.3386
   24.810    3.3807
   24.825    3.3386
   24.840    3.2965
   24.855    3.2754
   24.870    3.4966
   24.885    2.9595
   24.900    3.2017
   24.915    3.1385
   24.930    3.0542
   24.945    3.0964
   24.960    3.1069
   24.975    3.2965
   24.990    3.1912
   25.005    3.2017
   25.020    3.2754
   25.035    3.0964
   25.050    3.3597
   25.065    2.9910
   25.080    2.9489
   25.095    3.0964
   25.110    3.2333
   25.125    2.8857
   25.140    3.0332
   25.155    3.0858
   25.170    3.0121
   25.185    3.1069
   25.200    2.9279
   25.215    3.0332
   25.230    3.2017
   25.245    3.2122
   25.260    3.2649
   25.275    3.1069
   25.290    3.4439
   25.305    3.5071
   25.320    3.6019
   25.335    3.2227
   25.350    3.0226
   25.365    3.0648
   25.380    3.1385
   25.395    3.0964
   25.410    3.0753
   25.425    2.8541
   25.440    3.0858
   25.455    3.0332
   25.470    3.1174
   25.485    3.0226
   25.500    2.8541
   25.515    2.9700
   25.530    3.0753
   25.545    3.0858
   25.560    3.1280
   25.575    3.2227
   25.590    3.1069
   25.605    3.1912
   25.620    3.1174
   25.635    3.2543
   25.650    3.1596
   25.665    2.9489
   25.680    2.8963
   25.695    3.1280
   25.710    3.1912
   25.725    3.0648
   25.740    2.8647
   25.755    3.0858
   25.770    3.1596
   25.785    3.1280
   25.800    3.1069
   25.815    3.2017
   25.830    2.9173
   25.845    3.1806
   25.860    2.9279
   25.875    3.0542
   25.890    3.3070
   25.905    2.9384
   25.920    2.9279
   25.935    3.3491
   25.950    3.0753
   25.965    2.9068
   25.980    2.8963
   25.995    2.9700
   26.010    3.0858
   26.025    3.0437
   26.040    2.8963
   26.055    2.9595
   26.070    2.9384
   26.085    2.9173
   26.100    2.9595
   26.115    2.8963
   26.130    3.0858
   26.145    3.0753
   26.160    3.0753
   26.175    2.8225
   26.190    2.8331
   26.205    2.8963
   26.220    3.0648
   26.235    2.9700
   26.250    3.0016
   26.265    3.0542
   26.280    3.0226
   26.295    2.8857
   26.310    2.9384
   26.325    2.8647
   26.340    2.8752
   26.355    2.8436
   26.370    3.0332
   26.385    2.9489
   26.400    2.9068
   26.415    2.7593
   26.430    2.6751
   26.445    2.7383
   26.460    2.8436
   26.475    2.7593
   26.490    2.8963
   26.505    2.9595
   26.520    2.8120
   26.535    2.9595
   26.550    2.9384
   26.565    2.7593
   26.580    3.0858
   26.595    2.8857
   26.610    2.6435
   26.625    3.0121
   26.640    3.0753
   26.655    3.1385
   26.670    2.9173
   26.685    2.8331
   26.700    2.9068
   26.715    2.6962
   26.730    2.8225
   26.745    2.8331
   26.760    2.8541
   26.775    3.1490
   26.790    2.8015
   26.805    2.8015
   26.820    2.9489
   26.835    2.8647
   26.850    3.1280
   26.865    2.8752
   26.880    3.0332
   26.895    3.0542
   26.910    2.8436
   26.925    2.7488
   26.940    2.5171
   26.955    2.8541
   26.970    2.9805
   26.985    2.9595
   27.000    3.0542
   27.015    2.8857
   27.030    2.9173
   27.045    2.8857
   27.060    2.6330
   27.075    2.9805
   27.090    3.0437
   27.105    2.7067
   27.120    2.6224
   27.135    2.7804
   27.150    2.5908
   27.165    2.7593
   27.180    2.9279
   27.195    2.7172
   27.210    2.8752
   27.225    2.8752
   27.240    2.9173
   27.255    2.9384
   27.270    2.9489
   27.285    3.0753
   27.300    2.8436
   27.315    2.5803
   27.330    2.6224
   27.345    2.7909
   27.360    3.0964
   27.375    3.0016
   27.390    2.8541
   27.405    2.8120
   27.420    2.6119
   27.435    2.9279
   27.450    2.7804
   27.465    2.5382
   27.480    2.7699
   27.495    2.6751
   27.510    3.0016
   27.525    2.8963
   27.540    3.0226
   27.555    3.0332
   27.570    2.8752
   27.585    3.0016
   27.600    2.8541
   27.615    2.9384
   27.630    2.9173
   27.645    2.6751
   27.660    2.6435
   27.675    2.7909
   27.690    2.6330
   27.705    2.6014
   27.720    2.5382
   27.735    2.6435
   27.750    2.7278
   27.765    2.8647
   27.780    2.8225
   27.795    2.7699
   27.810    2.7909
   27.825    2.5908
   27.840    2.4434
   27.855    2.6435
   27.870    2.4855
   27.885    2.6224
   27.900    2.6962
   27.915    2.6119
   27.930    2.6224
   27.945    2.8015
   27.960    2.7488
   27.975    2.8857
   27.990    3.2333
   28.005    2.8647
   28.020    2.6540
   28.035    2.8857
   28.050    3.0437
   28.065    2.7699
   28.080    2.9279
   28.095    2.8752
   28.110    2.5171
   28.125    2.4750
   28.140    2.3591
   28.155    2.6540
   28.170    2.5066
   28.185    2.6751
   28.200    2.8752
   28.215    2.9910
   28.230    2.8963
   28.245    2.7699
   28.260    2.7278
   28.275    2.6224
   28.290    2.9910
   28.305    2.7909
   28.320    2.6224
   28.335    2.5698
   28.350    2.7488
   28.365    3.0542
   28.380    2.8857
   28.395    2.7804
   28.410    2.7804
   28.425    2.7593
   28.440    2.6962
   28.455    2.6646
   28.470    2.9910
   28.485    2.7699
   28.500    2.6224
   28.515    2.8963
   28.530    2.5592
   28.545    2.7172
   28.560    2.6224
   28.575    2.7172
   28.590    2.5066
   28.605    2.6119
   28.620    2.7172
   28.635    2.5171
   28.650    2.5276
   28.665    2.7383
   28.680    2.6751
   28.695    2.7488
   28.710    2.6540
   28.725    2.6119
   28.740    2.4223
   28.755    2.4434
   28.770    2.7488
   28.785    2.7067
   28.800    2.4855
   28.815    2.8225
   28.830    2.9489
   28.845    2.6962
   28.860    2.5276
   28.875    2.5592
   28.890    2.5066
   28.905    2.3907
   28.920    2.5171
   28.935    2.7804
   28.950    2.7383
   28.965    2.9279
   28.980    2.6014
   28.995    2.8541
   29.010    2.8436
   29.025    2.8541
   29.040    2.6224
   29.055    2.3486
   29.070    2.6962
   29.085    2.5908
   29.100    2.4855
   29.115    2.6224
   29.130    2.7172
   29.145    2.4645
   29.160    2.7067
   29.175    3.0121
   29.190    2.7804
   29.205    2.5171
   29.220    2.6224
   29.235    2.6435
   29.250    2.7488
   29.265    2.5908
   29.280    2.4961
   29.295    2.4434
   29.310    2.4539
   29.325    2.4434
   29.340    2.5803
   29.355    2.6435
   29.370    2.4329
   29.385    2.4855
   29.400    2.5698
   29.415    2.6646
   29.430    2.4750
   29.445    2.5908
   29.460    2.4855
   29.475    2.6646
   29.490    2.7804
   29.505    2.6962
   29.520    2.6540
   29.535    2.5698
   29.550    2.5382
   29.565    2.6330
   29.580    2.4223
   29.595    2.3802
   29.610    2.4223
   29.625    2.4855
   29.640    2.6119
   29.655    2.6646
   29.670    2.4118
   29.685    2.3591
   29.700    2.5487
   29.715    2.2328
   29.730    2.3591
   29.745    2.3486
   29.760    2.5171
   29.775    2.3275
   29.790    2.4750
   29.805    2.5066
   29.820    2.4118
   29.835    2.4750
   29.850    2.3697
   29.865    2.5803
   29.880    2.3170
   29.895    2.4434
   29.910    2.3802
   29.925    2.3591
   29.940    2.4118
   29.955    2.3381
   29.970    2.4118
   29.985    2.6119
   30.000    2.7067
   30.015    2.4329
   30.030    2.3275
   30.045    2.5276
   30.060    2.3591
   30.075    2.5487
   30.090    2.3697
   30.105    2.3802
   30.120    2.3381
   30.135    2.2643
   30.150    2.4961
   30.165    2.4855
   30.180    2.1906
   30.195    2.2643
   30.210    2.0221
   30.225    2.1380
   30.240    2.1801
   30.255    2.3065
   30.270    2.1590
   30.285    2.2749
   30.300    2.2854
   30.315    2.2222
   30.330    2.4855
   30.345    2.5066
   30.360    2.3381
   30.375    2.3275
   30.390    2.4118
   30.405    2.4013
   30.420    2.4013
   30.435    2.2538
   30.450    2.6119
   30.465    2.3486
   30.480    2.3486
   30.495    2.3697
   30.510    2.1590
   30.525    2.5066
   30.540    2.5803
   30.555    2.0958
   30.570    2.3591
   30.585    2.2854
   30.600    2.2538
   30.615    2.3486
   30.630    2.4118
   30.645    2.4961
   30.660    2.4118
   30.675    2.4855
   30.690    2.3065
   30.705    2.4750
   30.720    2.4645
   30.735    2.1380
   30.750    2.2222
   30.765    2.3170
   30.780    2.4961
   30.795    2.4645
   30.810    2.2433
   30.825    2.2012
   30.840    2.4013
   30.855    2.5276
   30.870    2.3802
   30.885    2.1274
   30.900    2.0958
   30.915    2.3170
   30.930    2.2012
   30.945    2.3486
   30.960    2.2433
   30.975    2.3381
   30.990    2.3170
   31.005    2.3275
   31.020    2.1590
   31.035    2.1801
   31.050    2.2538
   31.065    2.1169
   31.080    2.3065
   31.095    2.1485
   31.110    2.3381
   31.125    2.1590
   31.140    2.1696
   31.155    2.3065
   31.170    2.2433
   31.185    2.4329
   31.200    2.3591
   31.215    2.2959
   31.230    2.2328
   31.245    2.2117
   31.260    2.5382
   31.275    2.4329
   31.290    2.4539
   31.305    2.2117
   31.320    2.1485
   31.335    2.2538
   31.350    2.2012
   31.365    2.4434
   31.380    2.2538
   31.395    2.1906
   31.410    2.1380
   31.425    1.9695
   31.440    2.2328
   31.455    2.0432
   31.470    2.1801
   31.485    2.3170
   31.500    2.2643
   31.515    2.2854
   31.530    2.0642
   31.545    2.4223
   31.560    2.1906
   31.575    2.2433
   31.590    2.3486
   31.605    2.2117
   31.620    2.1380
   31.635    2.2012
   31.650    2.4645
   31.665    2.3697
   31.680    2.2328
   31.695    2.2538
   31.710    2.2012
   31.725    2.2222
   31.740    2.3065
   31.755    2.1696
   31.770    2.0748
   31.785    2.1274
   31.800    2.2328
   31.815    2.3275
   31.830    2.0853
   31.845    2.1801
   31.860    2.2433
   31.875    2.4013
   31.890    2.2328
   31.905    2.3275
   31.920    2.0432
   31.935    2.0853
   31.950    2.1274
   31.965    2.1064
   31.980    2.0221
   31.995    2.0748
   32.010    2.2117
   32.025    2.3275
   32.040    2.2959
   32.055    2.2328
   32.070    2.6330
   32.085    2.5171
   32.100    2.6330
   32.115    2.3170
   32.130    2.3907
   32.145    2.4223
   32.160    2.3170
   32.175    2.3907
   32.190    2.1380
   32.205    2.0432
   32.220    2.2012
   32.235    2.0537
   32.250    2.0853
   32.265    2.0432
   32.280    2.1801
   32.295    2.2959
   32.310    2.2749
   32.325    2.3697
   32.340    2.3591
   32.355    2.0116
   32.370    1.7904
   32.385    2.0011
   32.400    2.3381
   32.415    2.3065
   32.430    2.2749
   32.445    2.2433
   32.460    2.1380
   32.475    2.1169
   32.490    2.0853
   32.505    2.2117
   32.520    2.1906
   32.535    2.0642
   32.550    2.1696
   32.565    2.1906
   32.580    1.9379
   32.595    1.8747
   32.610    1.9484
   32.625    1.9273
   32.640    1.9905
   32.655    2.0853
   32.670    2.0748
   32.685    1.9484
   32.700    2.2328
   32.715    2.2643
   32.730    1.9695
   32.745    2.0116
   32.760    2.0958
   32.775    2.3065
   32.790    2.0958
   32.805    2.2433
   32.820    2.2538
   32.835    2.1801
   32.850    2.0958
   32.865    2.0642
   32.880    2.0116
   32.895    2.1485
   32.910    2.2222
   32.925    2.1906
   32.940    1.8852
   32.955    1.9589
   32.970    2.2222
   32.985    2.1590
   33.000    1.9379
   33.015    2.0748
   33.030    1.9379
   33.045    1.8957
   33.060    2.0853
   33.075    2.0642
   33.090    2.0748
   33.105    1.9484
   33.120    2.2854
   33.135    2.1801
   33.150    2.1169
   33.165    2.0642
   33.180    1.9063
   33.195    2.0221
   33.210    2.0432
   33.225    2.0537
   33.240    2.3486
   33.255    2.1590
   33.270    2.1590
   33.285    2.0853
   33.300    2.2117
   33.315    2.1169
   33.330    1.9695
   33.345    2.1169
   33.360    2.2328
   33.375    2.0432
   33.390    2.2959
   33.405    2.1274
   33.420    2.0221
   33.435    2.0011
   33.450    2.0853
   33.465    2.1696
   33.480    1.9589
   33.495    1.8641
   33.510    1.9800
   33.525    1.9063
   33.540    2.0958
   33.555    2.0432
   33.570    2.1169
   33.585    2.0537
   33.600    1.8747
   33.615    1.9800
   33.630    2.0116
   33.645    1.8536
   33.660    2.0958
   33.675    1.9695
   33.690    1.7904
   33.705    1.9379
   33.720    2.0642
   33.735    2.3065
   33.750    2.1274
   33.765    2.0011
   33.780    2.0116
   33.795    2.1169
   33.810    2.2854
   33.825    2.1169
   33.840    2.1801
   33.855    2.0748
   33.870    2.3170
   33.885    1.9800
   33.900    1.8641
   33.915    1.9063
   33.930    2.0748
   33.945    2.0537
   33.960    2.0958
   33.975    2.0326
   33.990    1.8325
   34.005    2.0221
   34.020    2.0958
   34.035    2.0958
   34.050    2.0642
   34.065    1.9800
   34.080    1.9484
   34.095    2.1590
   34.110    2.0853
   34.125    1.9379
   34.140    2.2222
   34.155    2.1590
   34.170    2.3802
   34.185    1.9800
   34.200    1.7799
   34.215    2.0432
   34.230    2.1169
   34.245    2.1064
   34.260    1.9695
   34.275    2.0221
   34.290    2.1064
   34.305    2.1064
   34.320    2.2222
   34.335    2.0642
   34.350    1.9379
   34.365    1.9800
   34.380    2.0642
   34.395    1.9379
   34.410    1.9168
   34.425    2.2959
   34.440    2.1274
   34.455    2.1380
   34.470    2.0432
   34.485    2.1380
   34.500    1.9800
   34.515    1.8957
   34.530    1.8957
   34.545    1.9063
   34.560    1.8325
   34.575    2.0853
   34.590    1.9379
   34.605    1.8115
   34.620    2.0116
   34.635    2.0432
   34.650    2.2538
   34.665    1.9484
   34.680    1.8957
   34.695    2.1380
   34.710    1.9589
   34.725    1.9695
   34.740    1.8536
   34.755    2.1169
   34.770    2.0537
   34.785    1.9800
   34.800    1.8325
   34.815    2.0432
   34.830    2.1801
   34.845    2.0432
   34.860    2.0011
   34.875    2.0432
   34.890    1.9905
   34.905    2.1906
   34.920    2.0853
   34.935    1.9273
   34.950    2.0748
   34.965    2.1801
   34.980    2.0326
   34.995    2.0432
   35.010    1.9695
   35.025    2.0432
   35.040    1.9273
   35.055    1.9273
   35.070    1.7799
   35.085    1.9063
   35.100    2.1169
   35.115    2.1485
   35.130    1.9484
   35.145    2.0537
   35.160    1.8852
   35.175    2.1696
   35.190    1.9695
   35.205    1.8852
   35.220    1.9589
   35.235    2.0011
   35.250    1.9063
   35.265    1.9589
   35.280    1.9168
   35.295    1.9484
   35.310    2.0853
   35.325    2.0853
   35.340    2.1380
   35.355    1.9379
   35.370    2.1696
   35.385    1.9379
   35.400    1.9589
   35.415    1.9800
   35.430    2.0642
   35.445    1.9800
   35.460    2.1380
   35.475    2.0326
   35.490    1.9168
   35.505    1.8536
   35.520    1.7694
   35.535    2.1485
   35.550    2.0642
   35.565    2.0853
   35.580    1.8115
   35.595    1.9695
   35.610    1.9695
   35.625    1.9484
   35.640    1.9379
   35.655    2.0116
   35.670    2.0432
   35.685    1.8536
   35.700    2.0326
   35.715    1.9484
   35.730    1.9484
   35.745    1.9905
   35.760    2.1274
   35.775    1.9800
   35.790    2.0326
   35.805    2.0748
   35.820    2.0642
   35.835    2.0221
   35.850    1.9168
   35.865    1.9695
   35.880    2.1064
   35.895    2.0642
   35.910    2.0432
   35.925    2.0958
   35.940    2.0011
   35.955    1.7694
   35.970    1.9063
   35.985    1.7483
   36.000    1.8957
   36.015    1.9168
   36.030    1.8957
   36.045    2.0958
   36.060    1.8115
   36.075    1.8852
   36.090    1.9800
   36.105    1.9379
   36.120    1.9589
   36.135    2.0221
   36.150    2.0432
   36.165    2.0853
   36.180    1.8957
   36.195    1.8957
   36.210    1.8115
   36.225    1.8115
   36.240    1.9379
   36.255    2.0958
   36.270    1.9063
   36.285    1.7799
   36.300    1.9695
   36.315    1.8220
   36.330    1.9379
   36.345    1.7799
   36.360    1.8747
   36.375    1.8957
   36.390    2.0537
   36.405    2.1485
   36.420    1.9063
   36.435    2.0432
   36.450    1.9379
   36.465    2.0011
   36.480    1.8852
   36.495    2.1380
   36.510    2.0537
   36.525    1.8009
   36.540    1.6956
   36.555    1.9905
   36.570    1.9484
   36.585    1.8641
   36.600    1.8220
   36.615    1.8220
   36.630    2.0326
   36.645    1.8957
   36.660    2.0958
   36.675    1.8852
   36.690    1.8641
   36.705    1.9905
   36.720    1.8325
   36.735    1.9379
   36.750    1.9063
   36.765    1.9484
   36.780    1.8852
   36.795    1.9063
   36.810    1.7694
   36.825    1.7904
   36.840    1.9168
   36.855    2.0853
   36.870    1.8641
   36.885    1.9484
   36.900    2.0537
   36.915    1.9063
   36.930    1.8009
   36.945    2.1380
   36.960    1.8852
   36.975    2.0537
   36.990    1.8536
   37.005    1.8115
   37.020    1.8009
   37.035    1.8115
   37.050    1.8957
   37.065    1.7272
   37.080    1.8009
   37.095    1.9168
   37.110    1.8115
   37.125    1.8852
   37.140    1.9273
   37.155    1.7904
   37.170    1.9800
   37.185    1.9589
   37.200    1.9063
   37.215    1.8325
   37.230    1.7904
   37.245    1.9168
   37.260    2.0748
   37.275    1.8009
   37.290    2.0642
   37.305    1.9273
   37.320    1.8220
   37.335    1.8115
   37.350    2.0326
   37.365    1.9168
   37.380    1.8852
   37.395    1.8325
   37.410    1.8957
   37.425    2.0116
   37.440    1.6851
   37.455    1.9063
   37.470    1.9905
   37.485    1.9800
   37.500    2.0326
   37.515    2.0221
   37.530    1.9905
   37.545    1.8115
   37.560    1.8957
   37.575    1.8852
   37.590    1.9379
   37.605    2.0853
   37.620    2.0853
   37.635    2.0011
   37.650    2.0748
   37.665    1.6851
   37.680    1.8325
   37.695    1.7694
   37.710    1.7272
   37.725    1.9379
   37.740    1.7694
   37.755    2.0853
   37.770    2.2538
   37.785    2.1906
   37.800    1.9800
   37.815    1.9063
   37.830    2.0011
   37.845    1.9589
   37.860    2.0221
   37.875    1.8431
   37.890    1.9905
   37.905    1.9800
   37.920    2.0432
   37.935    1.8957
   37.950    2.0432
   37.965    2.0537
   37.980    1.9379
   37.995    1.9800
   38.010    1.8009
   38.025    1.9379
   38.040    1.9063
   38.055    1.9484
   38.070    1.8115
   38.085    1.7167
   38.100    1.8220
   38.115    1.7588
   38.130    1.7799
   38.145    1.8957
   38.160    1.7378
   38.175    1.8431
   38.190    1.9168
   38.205    2.0642
   38.220    1.9063
   38.235    1.8852
   38.250    1.9484
   38.265    1.7167
   38.280    1.9273
   38.295    2.1169
   38.310    2.0011
   38.325    2.1169
   38.340    1.9905
   38.355    1.9168
   38.370    1.8747
   38.385    1.7588
   38.400    1.7483
   38.415    1.9800
   38.430    1.8957
   38.445    1.8747
   38.460    2.0958
   38.475    1.7799
   38.490    1.8009
   38.505    2.0748
   38.520    1.9695
   38.535    1.8641
   38.550    1.9063
   38.565    1.8852
   38.580    1.7799
   38.595    1.9905
   38.610    1.9273
   38.625    1.9905
   38.640    2.0642
   38.655    1.7694
   38.670    1.8536
   38.685    2.0326
   38.700    2.1169
   38.715    1.9800
   38.730    1.8852
   38.745    1.6324
   38.760    2.0011
   38.775    1.8957
   38.790    1.9063
   38.805    1.7062
   38.820    1.8431
   38.835    1.7483
   38.850    2.1169
   38.865    1.9379
   38.880    1.8009
   38.895    1.7272
   38.910    1.6114
   38.925    1.7588
   38.940    1.9273
   38.955    1.8641
   38.970    1.8325
   38.985    2.0221
   39.000    1.9589
   39.015    1.9589
   39.030    2.0958
   39.045    1.9589
   39.060    1.8852
   39.075    1.9589
   39.090    1.7904
   39.105    1.9063
   39.120    2.0011
   39.135    1.8641
   39.150    1.7904
   39.165    1.8747
   39.180    1.9589
   39.195    1.8220
   39.210    1.7799
   39.225    1.9484
   39.240    2.0011
   39.255    1.9063
   39.270    1.8431
   39.285    1.7694
   39.300    1.5482
   39.315    1.8325
   39.330    1.8536
   39.345    2.0642
   39.360    1.8957
   39.375    2.0537
   39.390    1.8536
   39.405    1.9063
   39.420    1.8957
   39.435    1.8957
   39.450    1.9063
   39.465    1.6746
   39.480    1.6219
   39.495    1.8220
   39.510    1.9905
   39.525    1.8852
   39.540    1.5798
   39.555    1.6640
   39.570    1.8536
   39.585    1.7904
   39.600    1.7904
   39.615    1.7694
   39.630    1.8431
   39.645    1.8957
   39.660    1.7694
   39.675    1.7167
   39.690    1.8325
   39.705    1.7588
   39.720    1.8009
   39.735    1.8325
   39.750    1.8747
   39.765    1.8536
   39.780    1.7588
   39.795    1.8009
   39.810    1.7799
   39.825    1.6114
   39.840    1.8641
   39.855    1.8325
   39.870    1.8325
   39.885    1.8009
   39.900    1.9589
   39.915    1.6640
   39.930    1.6956
   39.945    1.8115
   39.960    1.7588
   39.975    1.7588
   39.990    1.7062
