    1.500   20.4213
    1.515   20.1580
    1.530   20.6740
    1.545   20.4845
    1.560   19.8736
    1.575   20.2106
    1.590   19.3786
    1.605   18.9679
    1.620   18.5677
    1.635   19.7683
    1.650   19.2417
    1.665   18.5782
    1.680   18.5571
    1.695   18.1359
    1.710   18.2306
    1.725   18.0516
    1.740   17.8094
    1.755   17.4829
    1.770   17.5145
    1.785   17.5040
    1.800   17.2722
    1.815   17.2512
    1.830   16.9563
    1.845   16.7983
    1.860   17.0932
    1.875   17.1248
    1.890   16.8088
    1.905   17.0195
    1.920   17.4513
    1.935   17.2512
    1.950   16.5140
    1.965   16.4192
    1.980   16.6087
    1.995   16.4929
    2.010   16.3454
    2.025   16.6298
    2.040   16.0506
    2.055   16.1137
    2.070   16.4086
    2.085   16.9668
    2.100   16.9247
    2.115   16.4508
    2.130   16.5034
    2.145   16.4508
    2.160   16.9458
    2.175   16.7773
    2.190   16.6193
    2.205   17.1459
    2.220   17.0300
    2.235   17.6198
    2.250   17.0827
    2.265   17.9463
    2.280   17.2196
    2.295   16.9879
    2.310   17.7672
    2.325   17.9463
    2.340   17.8304
    2.355   17.6303
    2.370   18.6940
    2.385   18.6309
    2.400   18.9047
    2.415   18.3886
    2.430   18.8415
    2.445   18.8099
    2.460   19.1996
    2.475   18.9679
    2.490   19.1680
    2.505   19.7683
    2.520   20.2844
    2.535   20.5161
    2.550   20.3265
    2.565   19.9684
    2.580   20.9900
    2.595   22.2012
    2.610   21.6219
    2.625   22.1590
    2.640   22.7172
    2.655   23.2754
    2.670   23.7072
    2.685   24.5919
    2.700   24.2970
    2.715   24.4760
    2.730   24.5498
    2.745   24.9394
    2.760   25.7715
    2.775   26.4560
    2.790   27.2880
    2.805   27.9832
    2.820   27.6988
    2.835   28.1306
    2.850   29.2154
    2.865   30.2580
    2.880   31.1743
    2.895   30.9321
    2.910   32.4487
    2.925   33.7441
    2.940   34.6709
    2.955   35.0395
    2.970   35.7241
    2.985   36.1769
    3.000   37.1143
    3.015   38.7467
    3.030   40.1264
    3.045   41.3481
    3.060   41.7062
    3.075   43.1385
    3.090   43.9705
    3.105   46.8141
    3.120   47.7620
    3.135   49.6998
    3.150   52.3539
    3.165   53.2070
    3.180   55.7346
    3.195   57.3776
    3.210   59.2944
    3.225   62.2012
    3.240   65.6030
    3.255   67.7304
    3.270   70.5213
    3.285   75.9031
    3.300   77.7778
    3.315   81.3060
    3.330   87.1090
    3.345   92.4065
    3.360   96.3139
    3.375  100.7162
    3.390  105.6030
    3.405  109.8789
    3.420  115.1343
    3.435  118.1991
    3.450  119.9052
    3.465  116.0716
    3.480  112.7962
    3.495  107.4460
    3.510   99.3681
    3.525   90.4581
    3.540   81.1164
    3.555   73.2385
    3.570   64.5919
    3.585   58.3254
    3.600   54.8605
    3.615   51.5113
    3.630   48.1833
    3.645   45.6767
    3.660   44.4444
    3.675   43.3070
    3.690   42.6435
    3.705   41.9695
    3.720   41.9273
    3.735   42.9700
    3.750   42.1485
    3.765   42.4961
    3.780   42.9595
    3.795   42.1696
    3.810   42.8120
    3.825   44.2022
    3.840   44.6024
    3.855   43.3386
    3.870   43.8757
    3.885   44.3707
    3.900   45.5503
    3.915   46.6456
    3.930   46.8668
    3.945   47.0458
    3.960   46.7193
    3.975   46.9510
    3.990   47.2670
    4.005   46.2559
    4.020   46.2875
    4.035   46.2981
    4.050   46.4560
    4.065   46.1085
    4.080   44.5814
    4.095   42.9489
    4.110   42.4013
    4.125   42.1590
    4.140   40.2738
    4.155   39.3365
    4.170   38.1359
    4.185   37.3249
    4.200   36.0716
    4.215   34.2812
    4.230   32.1748
    4.245   30.6582
    4.260   29.4576
    4.275   28.2780
    4.290   25.8873
    4.305   24.7499
    4.320   24.2443
    4.335   22.4013
    4.350   21.7904
    4.365   20.6108
    4.380   18.8731
    4.395   18.5150
    4.410   17.8199
    4.425   16.5666
    4.440   15.3449
    4.455   15.0816
    4.470   14.2917
    4.485   14.1338
    4.500   13.1122
    4.515   12.8278
    4.530   12.0695
    4.545   11.2059
    4.560   11.1743
    4.575   10.9742
    4.590   11.0163
    4.605   10.3949
    4.620   10.0790
    4.635   10.3107
    4.650    9.4260
    4.665    9.3312
    4.680    8.8994
    4.695    9.0047
    4.710    9.0995
    4.725    8.6677
    4.740    8.4255
    4.755    8.2675
    4.770    8.3202
    4.785    8.4571
    4.800    7.7620
    4.815    8.0674
    4.830    7.7304
    4.845    7.8146
    4.860    7.4250
    4.875    7.4671
    4.890    7.7093
    4.905    7.3302
    4.920    7.1195
    4.935    7.2459
    4.950    7.3828
    4.965    6.9932
    4.980    6.8878
    4.995    6.7615
    5.010    6.5929
    5.025    6.7404
    5.040    6.9089
    5.055    6.5298
    5.070    6.7509
    5.085    7.1406
    5.100    6.8246
    5.115    6.6351
    5.130    6.0874
    5.145    6.0558
    5.160    6.4139
    5.175    6.3928
    5.190    6.3086
    5.205    6.3823
    5.220    6.2665
    5.235    6.2770
    5.250    6.1927
    5.265    6.0874
    5.280    6.2875
    5.295    5.9926
    5.310    6.1927
    5.325    6.5087
    5.340    5.9400
    5.355    5.6240
    5.370    5.5187
    5.385    5.8873
    5.400    6.0453
    5.415    5.9400
    5.430    6.0242
    5.445    5.6767
    5.460    5.7504
    5.475    5.7925
    5.490    5.4660
    5.505    5.5608
    5.520    5.3186
    5.535    5.6451
    5.550    5.6556
    5.565    5.7399
    5.580    5.4450
    5.595    5.5187
    5.610    5.8347
    5.625    5.6345
    5.640    5.5714
    5.655    5.5503
    5.670    5.3607
    5.685    5.3818
    5.700    5.2870
    5.715    5.7293
    5.730    5.5503
    5.745    5.6872
    5.760    5.5503
    5.775    5.5292
    5.790    5.3397
    5.805    5.5398
    5.820    5.3712
    5.835    5.3818
    5.850    5.2343
    5.865    5.1395
    5.880    5.4976
    5.895    5.4555
    5.910    5.3291
    5.925    5.2975
    5.940    5.4028
    5.955    5.3818
    5.970    5.2870
    5.985    5.3818
    6.000    5.3186
    6.015    5.1185
    6.030    5.3712
    6.045    5.2133
    6.060    5.1501
    6.075    5.1185
    6.090    5.4450
    6.105    5.4239
    6.120    5.7293
    6.135    5.4239
    6.150    5.6240
    6.165    5.7083
    6.180    5.5398
    6.195    5.3607
    6.210    5.5292
    6.225    5.6451
    6.240    5.6556
    6.255    5.8241
    6.270    5.7399
    6.285    5.6872
    6.300    5.6872
    6.315    5.5608
    6.330    5.9294
    6.345    5.7083
    6.360    6.0979
    6.375    6.2665
    6.390    5.8031
    6.405    6.1611
    6.420    6.2033
    6.435    5.8873
    6.450    6.0242
    6.465    6.2454
    6.480    6.1717
    6.495    6.4139
    6.510    7.0142
    6.525    6.9510
    6.540    6.5087
    6.555    6.7404
    6.570    7.1406
    6.585    7.1933
    6.600    7.0774
    6.615    7.5829
    6.630    7.3618
    6.645    7.5408
    6.660    8.4150
    6.675    8.5203
    6.690    8.4044
    6.705    8.7836
    6.720    8.7941
    6.735    8.9731
    6.750    9.5524
    6.765    9.9210
    6.780   10.1632
    6.795   11.2586
    6.810   11.1532
    6.825   11.6377
    6.840   12.2380
    6.855   12.4487
    6.870   13.2280
    6.885   14.1864
    6.900   14.1022
    6.915   14.9447
    6.930   15.3660
    6.945   15.0606
    6.960   14.5761
    6.975   14.9131
    6.990   15.1869
    7.005   13.6809
    7.020   11.9747
    7.035   11.8589
    7.050   11.3639
    7.065   10.2475
    7.080    9.6998
    7.095    9.0047
    7.110    8.6467
    7.125    8.2359
    7.140    7.9831
    7.155    7.3828
    7.170    7.2038
    7.185    7.0248
    7.200    6.9616
    7.215    6.8984
    7.230    6.6035
    7.245    6.6877
    7.260    6.5508
    7.275    6.2454
    7.290    6.5508
    7.305    5.8662
    7.320    6.4982
    7.335    6.4034
    7.350    6.5613
    7.365    6.1190
    7.380    6.3086
    7.395    6.3191
    7.410    5.8768
    7.425    6.0032
    7.440    6.2875
    7.455    6.0769
    7.470    6.2138
    7.485    6.3191
    7.500    6.0137
    7.515    6.2770
    7.530    6.6772
    7.545    6.8141
    7.560    6.5403
    7.575    6.4139
    7.590    6.6772
    7.605    6.3296
    7.620    6.6035
    7.635    6.6245
    7.650    6.2981
    7.665    6.2770
    7.680    6.3086
    7.695    6.8457
    7.710    6.8246
    7.725    6.8562
    7.740    6.7299
    7.755    6.8036
    7.770    6.9826
    7.785    7.2249
    7.800    7.0142
    7.815    7.3302
    7.830    7.2565
    7.845    7.1722
    7.860    7.5197
    7.875    7.5092
    7.890    7.5197
    7.905    7.7830
    7.920    7.6461
    7.935    7.6777
    7.950    7.6251
    7.965    7.5935
    7.980    7.9094
    7.995    8.1201
    8.010    7.4250
    8.025    7.8252
    8.040    7.9305
    8.055    7.7093
    8.070    8.0569
    8.085    7.8884
    8.100    8.2570
    8.115    8.1517
    8.130    8.3412
    8.145    8.2886
    8.160    8.4466
    8.175    8.4150
    8.190    8.3728
    8.205    8.6572
    8.220    8.1306
    8.235    8.1201
    8.250    8.3202
    8.265    8.2464
    8.280    8.4044
    8.295    8.3096
    8.310    8.1727
    8.325    8.0779
    8.340    8.1095
    8.355    8.0779
    8.370    7.8568
    8.385    7.9094
    8.400    7.7830
    8.415    7.8357
    8.430    8.3518
    8.445    8.4571
    8.460    8.3518
    8.475    8.1095
    8.490    7.8357
    8.505    7.7409
    8.520    7.4460
    8.535    7.4566
    8.550    7.2880
    8.565    7.1722
    8.580    7.3723
    8.595    7.7514
    8.610    7.2038
    8.625    7.3723
    8.640    7.0563
    8.655    6.6667
    8.670    6.6351
    8.685    6.6140
    8.700    6.7299
    8.715    6.8562
    8.730    6.4139
    8.745    6.3086
    8.760    6.4771
    8.775    6.3296
    8.790    6.4350
    8.805    6.1611
    8.820    6.0453
    8.835    5.9400
    8.850    5.7925
    8.865    5.9716
    8.880    5.8031
    8.895    5.6661
    8.910    5.4766
    8.925    5.5292
    8.940    5.8241
    8.955    5.9189
    8.970    5.3923
    8.985    5.5398
    9.000    5.4976
    9.015    5.5292
    9.030    5.3397
    9.045    5.0658
    9.060    5.1290
    9.075    5.2765
    9.090    5.0869
    9.105    5.0764
    9.120    5.2027
    9.135    4.8236
    9.150    5.2449
    9.165    4.9710
    9.180    5.1185
    9.195    5.2554
    9.210    5.1395
    9.225    5.1817
    9.240    4.9394
    9.255    5.1606
    9.270    5.4028
    9.285    5.0869
    9.300    5.2133
    9.315    5.0869
    9.330    5.4871
    9.345    4.9710
    9.360    4.7604
    9.375    4.9184
    9.390    4.9289
    9.405    4.7709
    9.420    4.6445
    9.435    4.8341
    9.450    4.9184
    9.465    5.0026
    9.480    4.7604
    9.495    4.9394
    9.510    4.7183
    9.525    4.8552
    9.540    4.6024
    9.555    4.7288
    9.570    4.7709
    9.585    4.7077
    9.600    4.8552
    9.615    4.8552
    9.630    4.9184
    9.645    4.6972
    9.660    4.5814
    9.675    4.9816
    9.690    4.9921
    9.705    4.8763
    9.720    5.0026
    9.735    5.1290
    9.750    4.7815
    9.765    4.9500
    9.780    4.9816
    9.795    4.7499
    9.810    4.6445
    9.825    4.7077
    9.840    4.9816
    9.855    4.9394
    9.870    5.3712
    9.885    5.1395
    9.900    4.9921
    9.915    4.8447
    9.930    4.6867
    9.945    4.4866
    9.960    4.7604
    9.975    5.1501
    9.990    4.8447
   10.005    4.6445
   10.020    4.6972
   10.035    5.0764
   10.050    4.6445
   10.065    5.0764
   10.080    4.8552
   10.095    4.7499
   10.110    5.2870
   10.125    5.0237
   10.140    5.0553
   10.155    4.7499
   10.170    4.8868
   10.185    4.7499
   10.200    4.8131
   10.215    4.9921
   10.230    4.9816
   10.245    4.9710
   10.260    4.8131
   10.275    5.2133
   10.290    5.4028
   10.305    4.9289
   10.320    5.1817
   10.335    5.4239
   10.350    5.3291
   10.365    5.5503
   10.380    5.2975
   10.395    5.2238
   10.410    5.1711
   10.425    5.6977
   10.440    5.6872
   10.455    5.5503
   10.470    5.6767
   10.485    5.6029
   10.500    5.3818
   10.515    5.7399
   10.530    5.7609
   10.545    5.2554
   10.560    5.3607
   10.575    5.0132
   10.590    5.4450
   10.605    5.0448
   10.620    5.0869
   10.635    5.4555
   10.650    5.0448
   10.665    5.0658
   10.680    4.9500
   10.695    4.9921
   10.710    5.2554
   10.725    4.8868
   10.740    4.8763
   10.755    5.1080
   10.770    4.7709
   10.785    4.3813
   10.800    4.5708
   10.815    4.6551
   10.830    4.5708
   10.845    4.8341
   10.860    4.7183
   10.875    4.9816
   10.890    4.8025
   10.905    4.6656
   10.920    4.9605
   10.935    4.8868
   10.950    4.6551
   10.965    4.4866
   10.980    4.7604
   10.995    4.8025
   11.010    4.8868
   11.025    4.5919
   11.040    4.7920
   11.055    4.9289
   11.070    4.6656
   11.085    4.5603
   11.100    4.6024
   11.115    4.8763
   11.130    4.7709
   11.145    4.6867
   11.160    4.9605
   11.175    4.8025
   11.190    4.7709
   11.205    4.4655
   11.220    4.7920
   11.235    4.9289
   11.250    4.6761
   11.265    4.8868
   11.280    4.7920
   11.295    4.4234
   11.310    5.2238
   11.325    5.0342
   11.340    5.1606
   11.355    4.9710
   11.370    4.9078
   11.385    5.2554
   11.400    4.9394
   11.415    4.5603
   11.430    4.6972
   11.445    4.9605
   11.460    5.0553
   11.475    4.8763
   11.490    4.8763
   11.505    5.0342
   11.520    5.2554
   11.535    4.7183
   11.550    4.4866
   11.565    4.9816
   11.580    5.5608
   11.595    5.2554
   11.610    4.8236
   11.625    4.7393
   11.640    5.1711
   11.655    4.5603
   11.670    4.7393
   11.685    4.8236
   11.700    5.0658
   11.715    4.8763
   11.730    4.9289
   11.745    4.6235
   11.760    4.9816
   11.775    5.2133
   11.790    4.9921
   11.805    5.2554
   11.820    4.7288
   11.835    4.8447
   11.850    5.0237
   11.865    5.0132
   11.880    4.9500
   11.895    5.0342
   11.910    5.0764
   11.925    5.0974
   11.940    5.1290
   11.955    5.2343
   11.970    5.2765
   11.985    5.0237
   12.000    5.1185
   12.015    5.2765
   12.030    5.1817
   12.045    5.2027
   12.060    5.0342
   12.075    4.8868
   12.090    4.8868
   12.105    5.2238
   12.120    4.8552
   12.135    5.2027
   12.150    5.2554
   12.165    5.1606
   12.180    5.2343
   12.195    5.2449
   12.210    5.2659
   12.225    5.1606
   12.240    5.0553
   12.255    5.1606
   12.270    5.1922
   12.285    5.3397
   12.300    5.5608
   12.315    5.0026
   12.330    5.1817
   12.345    5.1501
   12.360    5.0553
   12.375    5.0448
   12.390    5.1185
   12.405    5.7504
   12.420    5.7188
   12.435    5.2027
   12.450    5.1185
   12.465    5.6661
   12.480    5.7293
   12.495    5.6977
   12.510    5.5924
   12.525    5.4134
   12.540    5.3712
   12.555    5.2027
   12.570    5.3397
   12.585    5.2238
   12.600    5.0974
   12.615    5.1290
   12.630    5.1817
   12.645    5.1290
   12.660    4.9816
   12.675    5.5398
   12.690    5.3081
   12.705    5.1290
   12.720    5.2975
   12.735    5.3818
   12.750    5.0342
   12.765    5.1606
   12.780    5.3081
   12.795    5.4660
   12.810    5.1080
   12.825    5.2027
   12.840    5.2659
   12.855    5.6556
   12.870    5.5292
   12.885    5.4134
   12.900    5.1080
   12.915    4.7815
   12.930    5.0553
   12.945    5.1290
   12.960    5.1501
   12.975    5.0974
   12.990    5.0026
   13.005    5.1185
   13.020    5.3818
   13.035    5.1817
   13.050    5.3607
   13.065    4.9816
   13.080    5.0342
   13.095    5.1395
   13.110    4.8447
   13.125    5.1501
   13.140    5.0448
   13.155    5.2133
   13.170    5.2238
   13.185    5.4028
   13.200    5.2870
   13.215    5.4239
   13.230    5.2133
   13.245    5.0237
   13.260    5.1711
   13.275    5.0132
   13.290    4.8447
   13.305    5.0553
   13.320    5.1817
   13.335    4.9500
   13.350    4.9078
   13.365    4.5814
   13.380    5.2238
   13.395    4.8552
   13.410    4.8341
   13.425    4.7499
   13.440    5.1922
   13.455    5.0448
   13.470    4.8447
   13.485    5.2554
   13.500    5.3923
   13.515    4.9710
   13.530    4.9289
   13.545    4.9078
   13.560    4.9921
   13.575    4.9500
   13.590    4.7604
   13.605    4.9500
   13.620    4.9921
   13.635    4.9078
   13.650    5.0026
   13.665    4.9500
   13.680    5.0132
   13.695    5.0448
   13.710    4.8236
   13.725    5.0658
   13.740    5.1080
   13.755    4.9289
   13.770    5.0342
   13.785    4.4550
   13.800    4.8447
   13.815    5.1711
   13.830    4.7920
   13.845    5.2659
   13.860    5.0974
   13.875    4.7183
   13.890    4.6024
   13.905    4.7288
   13.920    5.1080
   13.935    4.6445
   13.950    4.6340
   13.965    4.7288
   13.980    4.9289
   13.995    5.2554
   14.010    4.8973
   14.025    4.8236
   14.040    4.6445
   14.055    5.0448
   14.070    5.0974
   14.085    5.2133
   14.100    5.3291
   14.115    5.0553
   14.130    4.8657
   14.145    4.9078
   14.160    4.8552
   14.175    5.2343
   14.190    5.0448
   14.205    4.9184
   14.220    5.1395
   14.235    4.9710
   14.250    4.8763
   14.265    4.8025
   14.280    5.0026
   14.295    4.9289
   14.310    4.8236
   14.325    4.8763
   14.340    4.8657
   14.355    4.7288
   14.370    4.7815
   14.385    4.5287
   14.400    4.9184
   14.415    4.8868
   14.430    4.9184
   14.445    4.6656
   14.460    4.6656
   14.475    4.6130
   14.490    4.9710
   14.505    4.9078
   14.520    4.6340
   14.535    4.5814
   14.550    4.6130
   14.565    4.5498
   14.580    4.6656
   14.595    4.7920
   14.610    4.6551
   14.625    4.7393
   14.640    4.5708
   14.655    4.5498
   14.670    4.8341
   14.685    4.6972
   14.700    4.5919
   14.715    4.4971
   14.730    4.6340
   14.745    4.4444
   14.760    4.6551
   14.775    4.7183
   14.790    4.9605
   14.805    4.6445
   14.820    4.6867
   14.835    4.5076
   14.850    4.7393
   14.865    4.6867
   14.880    4.4550
   14.895    4.5708
   14.910    4.7815
   14.925    4.9184
   14.940    4.6761
   14.955    4.6024
   14.970    4.3602
   14.985    4.7499
   15.000    4.8236
   15.015    4.9078
   15.030    4.4655
   15.045    4.7709
   15.060    5.0026
   15.075    4.8763
   15.090    4.8131
   15.105    4.6445
   15.120    4.8447
   15.135    4.6235
   15.150    4.8447
   15.165    4.7393
   15.180    4.8025
   15.195    4.6972
   15.210    4.4023
   15.225    4.6551
   15.240    4.6867
   15.255    4.5603
   15.270    4.3707
   15.285    4.5392
   15.300    4.8552
   15.315    4.7393
   15.330    4.7077
   15.345    4.7499
   15.360    4.4866
   15.375    4.6551
   15.390    4.8341
   15.405    4.6656
   15.420    4.6445
   15.435    5.0237
   15.450    4.9184
   15.465    4.7920
   15.480    4.6551
   15.495    5.2554
   15.510    4.9921
   15.525    4.9500
   15.540    4.7604
   15.555    4.9816
   15.570    5.2027
   15.585    4.8131
   15.600    4.5919
   15.615    4.5814
   15.630    4.5814
   15.645    4.6656
   15.660    4.8025
   15.675    4.8341
   15.690    4.9816
   15.705    5.0342
   15.720    5.0658
   15.735    5.2238
   15.750    4.8025
   15.765    4.5287
   15.780    4.9184
   15.795    4.8131
   15.810    4.5392
   15.825    4.6761
   15.840    4.9500
   15.855    4.5814
   15.870    4.5182
   15.885    4.6761
   15.900    4.7815
   15.915    4.8341
   15.930    4.9184
   15.945    4.8236
   15.960    4.7499
   15.975    4.7393
   15.990    4.7183
   16.005    4.6130
   16.020    4.4023
   16.035    4.6445
   16.050    4.5814
   16.065    4.5708
   16.080    4.9394
   16.095    4.9921
   16.110    4.8341
   16.125    4.5392
   16.140    4.6551
   16.155    4.8447
   16.170    5.1711
   16.185    4.7815
   16.200    4.6130
   16.215    4.8763
   16.230    4.6235
   16.245    4.8447
   16.260    5.2238
   16.275    4.6761
   16.290    4.8763
   16.305    4.6024
   16.320    4.7183
   16.335    4.8236
   16.350    4.6235
   16.365    4.3075
   16.380    4.4866
   16.395    4.6656
   16.410    4.7709
   16.425    4.7288
   16.440    4.6445
   16.455    4.6972
   16.470    4.4128
   16.485    4.8131
   16.500    4.9394
   16.515    5.0764
   16.530    4.9078
   16.545    4.6024
   16.560    4.8236
   16.575    4.5919
   16.590    4.4339
   16.605    4.5919
   16.620    4.6972
   16.635    4.4444
   16.650    4.6235
   16.665    4.5919
   16.680    4.4971
   16.695    4.2970
   16.710    4.6761
   16.725    4.5287
   16.740    4.6235
   16.755    4.6445
   16.770    4.3602
   16.785    4.4760
   16.800    5.2554
   16.815    4.7815
   16.830    4.6024
   16.845    4.5814
   16.860    4.9394
   16.875    4.5919
   16.890    4.8131
   16.905    4.8657
   16.920    4.8447
   16.935    4.6130
   16.950    4.7393
   16.965    4.6656
   16.980    4.5076
   16.995    4.3707
   17.010    4.7288
   17.025    4.8131
   17.040    4.7920
   17.055    4.8025
   17.070    4.6024
   17.085    4.6761
   17.100    4.7709
   17.115    4.6761
   17.130    4.7183
   17.145    4.5076
   17.160    4.5919
   17.175    4.7709
   17.190    4.4866
   17.205    4.6551
   17.220    4.7709
   17.235    4.6340
   17.250    5.0026
   17.265    4.5708
   17.280    4.5814
   17.295    4.5814
   17.310    4.6235
   17.325    4.5076
   17.340    4.5076
   17.355    4.6972
   17.370    4.5814
   17.385    4.8657
   17.400    4.5919
   17.415    5.2449
   17.430    4.8236
   17.445    4.4971
   17.460    4.5603
   17.475    4.8763
   17.490    4.7183
   17.505    4.5287
   17.520    4.8973
   17.535    4.9710
   17.550    5.1922
   17.565    4.8025
   17.580    4.8552
   17.595    4.6340
   17.610    4.7077
   17.625    5.0237
   17.640    4.6761
   17.655    4.6656
   17.670    4.7499
   17.685    4.6761
   17.700    4.7920
   17.715    4.9921
   17.730    4.6761
   17.745    5.0764
   17.760    4.8973
   17.775    4.6656
   17.790    5.0764
   17.805    5.0764
   17.820    4.7499
   17.835    4.9710
   17.850    4.9710
   17.865    4.6551
   17.880    4.4128
   17.895    4.5603
   17.910    4.6867
   17.925    5.3923
   17.940    4.9500
   17.955    4.9710
   17.970    5.0132
   17.985    5.0237
   18.000    4.6024
   18.015    4.7815
   18.030    4.9816
   18.045    4.8236
   18.060    4.5287
   18.075    4.7288
   18.090    4.7393
   18.105    4.8447
   18.120    4.8763
   18.135    4.7709
   18.150    4.7815
   18.165    4.6761
   18.180    4.9921
   18.195    4.9816
   18.210    4.9078
   18.225    4.9289
   18.240    4.7077
   18.255    4.7815
   18.270    5.0974
   18.285    4.6761
   18.300    4.5814
   18.315    4.7815
   18.330    4.9184
   18.345    4.9816
   18.360    4.7815
   18.375    4.2654
   18.390    4.5708
   18.405    4.6656
   18.420    4.8552
   18.435    4.6656
   18.450    4.5076
   18.465    4.4023
   18.480    5.0869
   18.495    4.8131
   18.510    4.7499
   18.525    4.7604
   18.540    4.6761
   18.555    4.8025
   18.570    4.8131
   18.585    5.0869
   18.600    5.0448
   18.615    5.0974
   18.630    4.7815
   18.645    4.8131
   18.660    4.8868
   18.675    5.0448
   18.690    4.7920
   18.705    4.9078
   18.720    4.6972
   18.735    4.8341
   18.750    4.7393
   18.765    4.6656
   18.780    4.6130
   18.795    5.0869
   18.810    4.9500
   18.825    4.5603
   18.840    4.6340
   18.855    4.7183
   18.870    4.7499
   18.885    4.7604
   18.900    4.6867
   18.915    4.7499
   18.930    4.6340
   18.945    4.5603
   18.960    4.3075
   18.975    4.6972
   18.990    4.6867
   19.005    4.4550
   19.020    4.6445
   19.035    4.6024
   19.050    4.6340
   19.065    5.2659
   19.080    5.0448
   19.095    4.5287
   19.110    4.5603
   19.125    4.8025
   19.140    5.0342
   19.155    4.9078
   19.170    4.8657
   19.185    4.6024
   19.200    4.8657
   19.215    4.9289
   19.230    5.2975
   19.245    5.0869
   19.260    5.1606
   19.275    5.0553
   19.290    4.7077
   19.305    5.0342
   19.320    5.3291
   19.335    5.0132
   19.350    4.8657
   19.365    4.8552
   19.380    5.0553
   19.395    5.0553
   19.410    4.9184
   19.425    4.6551
   19.440    5.0974
   19.455    5.0026
   19.470    5.2975
   19.485    4.9394
   19.500    5.0974
   19.515    5.3607
   19.530    5.1080
   19.545    4.8025
   19.560    4.7077
   19.575    5.2554
   19.590    5.4871
   19.605    5.2449
   19.620    4.8341
   19.635    4.9289
   19.650    5.2343
   19.665    5.2659
   19.680    5.1395
   19.695    5.3397
   19.710    5.5398
   19.725    5.1395
   19.740    5.1922
   19.755    5.0342
   19.770    5.2343
   19.785    5.4555
   19.800    5.3712
   19.815    5.2449
   19.830    5.5398
   19.845    5.3291
   19.860    5.4555
   19.875    5.4344
   19.890    5.4344
   19.905    5.5398
   19.920    5.4450
   19.935    5.4344
   19.950    5.3502
   19.965    5.3923
   19.980    5.2133
   19.995    5.3712
   20.010    5.3291
   20.025    5.0342
   20.040    5.4134
   20.055    5.3818
   20.070    5.2027
   20.085    5.0869
   20.100    5.2765
   20.115    5.4766
   20.130    5.4555
   20.145    5.4239
   20.160    5.2027
   20.175    5.3712
   20.190    5.3081
   20.205    5.5292
   20.220    5.5292
   20.235    5.3502
   20.250    5.0132
   20.265    5.2554
   20.280    5.3818
   20.295    4.9710
   20.310    5.0658
   20.325    5.4344
   20.340    5.4660
   20.355    5.1606
   20.370    4.9289
   20.385    5.1185
   20.400    5.1922
   20.415    5.0026
   20.430    5.3081
   20.445    5.6029
   20.460    5.4239
   20.475    4.9289
   20.490    5.4555
   20.505    5.4239
   20.520    5.2765
   20.535    5.2449
   20.550    5.3397
   20.565    5.2238
   20.580    5.2975
   20.595    5.1290
   20.610    5.1922
   20.625    5.5503
   20.640    5.4976
   20.655    5.1290
   20.670    5.2975
   20.685    5.1290
   20.700    5.1922
   20.715    5.0974
   20.730    5.3607
   20.745    5.3397
   20.760    5.4239
   20.775    5.6240
   20.790    5.4871
   20.805    5.3923
   20.820    5.2870
   20.835    5.2343
   20.850    5.3291
   20.865    5.2765
   20.880    5.2975
   20.895    5.2133
   20.910    5.2659
   20.925    5.2027
   20.940    4.9710
   20.955    5.2343
   20.970    5.3712
   20.985    5.2659
   21.000    5.1711
   21.015    5.4028
   21.030    5.4344
   21.045    5.4871
   21.060    4.8447
   21.075    5.4871
   21.090    5.2238
   21.105    5.2975
   21.120    5.4344
   21.135    5.4344
   21.150    5.3712
   21.165    5.3081
   21.180    5.6029
   21.195    5.4344
   21.210    5.3712
   21.225    5.4344
   21.240    5.2238
   21.255    4.9816
   21.270    5.1606
   21.285    5.1606
   21.300    5.0869
   21.315    5.1185
   21.330    4.7604
   21.345    5.3923
   21.360    5.4976
   21.375    5.1922
   21.390    5.1501
   21.405    5.3607
   21.420    5.5608
   21.435    5.2765
   21.450    5.4871
   21.465    5.5608
   21.480    5.0132
   21.495    5.3818
   21.510    5.4134
   21.525    5.4134
   21.540    4.9289
   21.555    5.0132
   21.570    5.2765
   21.585    5.1817
   21.600    5.5924
   21.615    5.4344
   21.630    5.0869
   21.645    5.0237
   21.660    5.3502
   21.675    5.0658
   21.690    5.1395
   21.705    5.4028
   21.720    5.3502
   21.735    5.2238
   21.750    5.1080
   21.765    5.2343
   21.780    5.0342
   21.795    4.7604
   21.810    4.9500
   21.825    5.4450
   21.840    5.5608
   21.855    5.6872
   21.870    5.1711
   21.885    5.2870
   21.900    5.3607
   21.915    4.9816
   21.930    5.3712
   21.945    5.4344
   21.960    5.3923
   21.975    5.0764
   21.990    5.4134
   22.005    5.3818
   22.020    5.4976
   22.035    5.2870
   22.050    5.5082
   22.065    5.6240
   22.080    5.6029
   22.095    5.5714
   22.110    5.3712
   22.125    5.5503
   22.140    5.4555
   22.155    6.0558
   22.170    5.4555
   22.185    5.2554
   22.200    5.2765
   22.215    5.2449
   22.230    5.6556
   22.245    5.5503
   22.260    5.1817
   22.275    5.1395
   22.290    5.2765
   22.305    5.3607
   22.320    5.2343
   22.335    5.3818
   22.350    5.5503
   22.365    5.6872
   22.380    5.3081
   22.395    4.8657
   22.410    5.3397
   22.425    5.3502
   22.440    4.9921
   22.455    5.1711
   22.470    5.5398
   22.485    5.2765
   22.500    5.2659
   22.515    4.8341
   22.530    5.0869
   22.545    5.1395
   22.560    5.4134
   22.575    4.9184
   22.590    5.3712
   22.605    5.5714
   22.620    5.6135
   22.635    5.6240
   22.650    5.4766
   22.665    5.1606
   22.680    5.2027
   22.695    5.0974
   22.710    5.3186
   22.725    5.2659
   22.740    4.9394
   22.755    5.2765
   22.770    5.4028
   22.785    5.5082
   22.800    5.6767
   22.815    5.1711
   22.830    5.5503
   22.845    5.1185
   22.860    4.9289
   22.875    5.1501
   22.890    5.3291
   22.905    5.1711
   22.920    5.4344
   22.935    5.0658
   22.950    5.3923
   22.965    5.2659
   22.980    5.3081
   22.995    5.0974
   23.010    5.4028
   23.025    5.0448
   23.040    4.6024
   23.055    4.9710
   23.070    5.0448
   23.085    4.9605
   23.100    5.4134
   23.115    5.2133
   23.130    5.0764
   23.145    5.1290
   23.160    5.0658
   23.175    5.0764
   23.190    5.2554
   23.205    4.7815
   23.220    4.8447
   23.235    4.9816
   23.250    5.0237
   23.265    5.0237
   23.280    5.0658
   23.295    5.0342
   23.310    4.9500
   23.325    4.6867
   23.340    5.1395
   23.355    5.1922
   23.370    5.6135
   23.385    4.9184
   23.400    5.0448
   23.415    5.2870
   23.430    4.8868
   23.445    4.9605
   23.460    4.7077
   23.475    5.0342
   23.490    5.0026
   23.505    5.3397
   23.520    5.3923
   23.535    5.2343
   23.550    4.8763
   23.565    4.9289
   23.580    4.8763
   23.595    4.9921
   23.610    5.1185
   23.625    5.2554
   23.640    4.8868
   23.655    5.0764
   23.670    5.2343
   23.685    4.9078
   23.700    5.0974
   23.715    5.2870
   23.730    4.8131
   23.745    4.8763
   23.760    4.7183
   23.775    5.0553
   23.790    4.7288
   23.805    4.6130
   23.820    4.8763
   23.835    4.9500
   23.850    5.3186
   23.865    5.3502
   23.880    4.9816
   23.895    5.0026
   23.910    5.1606
   23.925    4.9184
   23.940    4.7183
   23.955    4.8341
   23.970    5.0132
   23.985    5.3081
   24.000    5.1711
   24.015    4.8868
   24.030    4.6130
   24.045    4.8552
   24.060    4.7709
   24.075    4.6972
   24.090    5.1606
   24.105    4.9921
   24.120    4.9710
   24.135    5.0448
   24.150    5.2659
   24.165    5.4450
   24.180    4.8868
   24.195    5.1395
   24.210    5.1290
   24.225    5.1080
   24.240    4.9816
   24.255    5.1080
   24.270    5.0342
   24.285    4.7288
   24.300    4.9710
   24.315    4.7077
   24.330    5.0553
   24.345    4.8025
   24.360    5.0764
   24.375    5.1817
   24.390    4.9394
   24.405    4.9184
   24.420    4.7920
   24.435    4.9289
   24.450    5.2449
   24.465    4.8657
   24.480    4.7709
   24.495    4.7499
   24.510    4.8341
   24.525    4.9500
   24.540    4.9394
   24.555    5.2765
   24.570    5.2238
   24.585    4.9289
   24.600    4.7604
   24.615    4.9394
   24.630    4.8131
   24.645    4.8236
   24.660    5.0553
   24.675    5.2765
   24.690    5.4239
   24.705    5.3291
   24.720    4.9500
   24.735    4.6972
   24.750    4.9184
   24.765    5.2343
   24.780    4.8131
   24.795    5.1080
   24.810    5.0764
   24.825    5.2027
   24.840    4.8236
   24.855    4.8763
   24.870    4.8763
   24.885    4.7709
   24.900    4.7815
   24.915    4.8341
   24.930    4.9289
   24.945    5.0658
   24.960    5.0237
   24.975    4.9500
   24.990    5.3397
   25.005    4.7709
   25.020    4.6340
   25.035    4.6551
   25.050    4.7077
   25.065    4.6340
   25.080    4.8447
   25.095    4.7499
   25.110    4.7604
   25.125    4.7604
   25.140    4.6551
   25.155    4.8236
   25.170    4.8131
   25.185    4.7288
   25.200    4.5814
   25.215    4.9605
   25.230    4.8868
   25.245    4.5919
   25.260    4.4128
   25.275    4.5708
   25.290    4.6761
   25.305    4.7288
   25.320    4.8025
   25.335    4.6761
   25.350    4.6656
   25.365    4.7288
   25.380    5.0869
   25.395    4.6972
   25.410    4.8025
   25.425    4.2865
   25.440    4.1601
   25.455    5.1185
   25.470    4.8236
   25.485    4.8657
   25.500    4.7604
   25.515    4.8552
   25.530    4.9921
   25.545    4.8131
   25.560    4.8552
   25.575    4.6551
   25.590    4.5919
   25.605    4.7183
   25.620    4.7393
   25.635    4.4234
   25.650    4.8341
   25.665    4.6761
   25.680    4.6656
   25.695    4.6340
   25.710    4.4971
   25.725    4.4866
   25.740    4.3602
   25.755    4.4866
   25.770    4.5498
   25.785    4.6972
   25.800    4.5392
   25.815    4.5603
   25.830    4.7604
   25.845    4.3286
   25.860    4.6761
   25.875    5.0237
   25.890    4.3918
   25.905    4.5076
   25.920    4.4655
   25.935    4.5603
   25.950    4.3075
   25.965    4.4023
   25.980    4.5708
   25.995    4.3497
   26.010    4.5814
   26.025    4.4866
   26.040    4.6130
   26.055    4.5287
   26.070    4.4339
   26.085    4.6340
   26.100    4.5603
   26.115    4.4760
   26.130    4.5392
   26.145    4.2549
   26.160    4.4234
   26.175    4.4234
   26.190    4.5392
   26.205    4.5603
   26.220    4.0864
   26.235    4.2233
   26.250    4.3602
   26.265    4.6551
   26.280    4.6761
   26.295    4.8131
   26.310    4.7499
   26.325    4.9184
   26.340    4.7709
   26.355    4.6130
   26.370    4.4339
   26.385    4.3813
   26.400    4.3497
   26.415    4.4655
   26.430    4.3181
   26.445    4.5392
   26.460    4.6024
   26.475    4.5076
   26.490    4.5919
   26.505    4.6024
   26.520    4.5182
   26.535    4.2865
   26.550    4.5708
   26.565    4.5498
   26.580    4.4339
   26.595    4.2233
   26.610    4.4023
   26.625    4.6340
   26.640    4.2759
   26.655    4.1390
   26.670    4.3181
   26.685    4.5708
   26.700    4.3497
   26.715    4.4550
   26.730    4.6235
   26.745    4.6656
   26.760    4.4023
   26.775    4.3918
   26.790    4.4655
   26.805    4.2865
   26.820    4.1390
   26.835    4.2654
   26.850    4.1601
   26.865    4.3497
   26.880    4.3918
   26.895    4.4655
   26.910    4.5182
   26.925    4.4866
   26.940    4.5708
   26.955    4.4550
   26.970    4.5182
   26.985    4.1180
   27.000    4.5182
   27.015    4.4234
   27.030    4.2233
   27.045    4.5182
   27.060    4.5814
   27.075    4.4550
   27.090    4.2338
   27.105    4.3075
   27.120    4.3075
   27.135    4.3813
   27.150    4.3602
   27.165    4.5603
   27.180    4.5708
   27.195    4.4444
   27.210    4.6867
   27.225    4.6656
   27.240    4.4128
   27.255    4.2654
   27.270    4.1811
   27.285    4.3391
   27.300    4.3391
   27.315    4.2549
   27.330    4.4339
   27.345    4.3075
   27.360    4.3813
   27.375    4.4023
   27.390    4.3918
   27.405    4.3286
   27.420    4.5814
   27.435    4.5182
   27.450    4.5392
   27.465    4.5287
   27.480    4.4655
   27.495    4.4339
   27.510    4.5182
   27.525    4.4971
   27.540    4.4234
   27.555    4.5603
   27.570    4.4971
   27.585    4.4128
   27.600    4.1180
   27.615    4.5076
   27.630    4.5603
   27.645    4.2654
   27.660    4.4866
   27.675    4.5076
   27.690    4.6024
   27.705    4.8552
   27.720    4.4760
   27.735    4.5287
   27.750    4.3391
   27.765    4.4550
   27.780    4.6340
   27.795    4.6761
   27.810    4.3391
   27.825    4.3602
   27.840    4.2338
   27.855    4.2654
   27.870    4.3286
   27.885    4.4971
   27.900    4.5708
   27.915    4.3707
   27.930    4.4655
   27.945    4.6024
   27.960    4.3075
   27.975    4.6445
   27.990    3.8652
   28.005    3.9916
   28.020    4.5076
   28.035    4.4866
   28.050    4.2865
   28.065    4.4550
   28.080    4.3286
   28.095    4.2549
   28.110    4.4023
   28.125    4.7288
   28.140    4.5392
   28.155    4.6656
   28.170    4.3602
   28.185    4.2759
   28.200    4.6761
   28.215    4.5708
   28.230    4.2865
   28.245    4.3286
   28.260    4.3497
   28.275    4.3497
   28.290    4.5498
   28.305    4.4550
   28.320    4.7288
   28.335    4.4234
   28.350    4.3813
   28.365    4.3497
   28.380    4.2654
   28.395    4.3181
   28.410    4.6656
   28.425    4.3813
   28.440    4.3181
   28.455    4.5182
   28.470    4.1180
   28.485    3.9916
   28.500    4.5076
   28.515    4.5392
   28.530    4.2759
   28.545    4.4023
   28.560    4.4655
   28.575    4.2022
   28.590    4.1496
   28.605    4.3391
   28.620    4.2233
   28.635    4.1601
   28.650    4.2970
   28.665    3.9705
   28.680    4.1074
   28.695    4.0126
   28.710    3.8652
   28.725    3.9389
   28.740    4.0653
   28.755    4.2759
   28.770    4.6340
   28.785    4.3602
   28.800    4.0442
   28.815    4.3707
   28.830    4.4550
   28.845    4.4234
   28.860    4.2654
   28.875    4.1601
   28.890    4.3497
   28.905    4.2865
   28.920    4.5287
   28.935    4.4023
   28.950    4.3075
   28.965    4.2127
   28.980    4.1706
   28.995    4.2022
   29.010    3.9494
   29.025    4.2022
   29.040    4.1496
   29.055    4.2654
   29.070    4.3181
   29.085    4.7183
   29.100    4.3075
   29.115    4.0758
   29.130    4.2865
   29.145    4.2127
   29.160    4.2654
   29.175    4.4971
   29.190    4.1917
   29.205    3.7388
   29.220    4.2549
   29.235    4.1706
   29.250    4.1601
   29.265    4.1601
   29.280    3.9284
   29.295    4.0021
   29.310    4.3602
   29.325    4.3918
   29.340    4.4128
   29.355    4.3181
   29.370    4.0548
   29.385    4.1496
   29.400    4.1180
   29.415    4.4128
   29.430    3.9494
   29.445    3.9284
   29.460    4.1180
   29.475    4.3286
   29.490    4.2549
   29.505    3.9705
   29.520    4.2022
   29.535    4.3497
   29.550    4.4234
   29.565    4.1180
   29.580    4.0864
   29.595    4.3286
   29.610    4.2654
   29.625    3.9705
   29.640    4.0548
   29.655    4.1811
   29.670    4.0442
   29.685    4.1390
   29.700    4.2233
   29.715    3.8336
   29.730    4.0442
   29.745    4.0548
   29.760    3.9916
   29.775    4.0021
   29.790    4.3813
   29.805    4.1180
   29.820    4.3181
   29.835    4.4128
   29.850    4.1496
   29.865    4.1180
   29.880    4.0864
   29.895    4.1496
   29.910    4.0548
   29.925    4.0337
   29.940    3.9705
   29.955    4.2022
   29.970    4.4655
   29.985    4.0969
   30.000    3.8863
   30.015    3.9389
   30.030    4.0337
   30.045    4.0126
   30.060    4.2233
   30.075    4.1285
   30.090    4.1811
   30.105    4.2654
   30.120    4.0548
   30.135    3.8231
   30.150    4.2233
   30.165    4.2338
   30.180    4.2022
   30.195    4.0337
   30.210    3.9600
   30.225    4.0758
   30.240    4.1074
   30.255    4.1811
   30.270    4.3075
   30.285    4.0337
   30.300    4.3075
   30.315    4.1496
   30.330    4.0126
   30.345    3.9600
   30.360    4.1706
   30.375    3.9916
   30.390    3.9600
   30.405    3.9284
   30.420    4.1390
   30.435    4.0969
   30.450    4.0337
   30.465    4.3286
   30.480    3.9916
   30.495    3.8968
   30.510    3.8968
   30.525    4.0758
   30.540    4.0442
   30.555    3.9389
   30.570    4.1285
   30.585    4.2654
   30.600    4.1917
   30.615    4.0548
   30.630    4.0864
   30.645    4.1390
   30.660    4.1601
   30.675    4.1811
   30.690    4.0864
   30.705    3.7493
   30.720    3.9810
   30.735    4.0969
   30.750    3.9810
   30.765    4.1706
   30.780    4.2865
   30.795    3.9600
   30.810    3.7915
   30.825    3.8441
   30.840    4.1180
   30.855    4.1074
   30.870    4.0442
   30.885    4.1390
   30.900    4.2233
   30.915    3.9179
   30.930    3.9494
   30.945    3.7809
   30.960    4.2549
   30.975    4.0337
   30.990    3.9600
   31.005    3.8125
   31.020    4.1917
   31.035    4.1601
   31.050    3.9810
   31.065    4.1601
   31.080    3.8968
   31.095    3.8125
   31.110    3.9494
   31.125    4.0021
   31.140    4.0864
   31.155    4.2338
   31.170    4.2022
   31.185    4.0337
   31.200    4.0021
   31.215    4.0442
   31.230    3.7493
   31.245    3.9916
   31.260    4.2338
   31.275    4.3602
   31.290    4.5498
   31.305    4.0548
   31.320    3.7915
   31.335    4.0126
   31.350    3.9810
   31.365    4.1706
   31.380    4.0442
   31.395    3.8863
   31.410    3.9810
   31.425    4.2233
   31.440    3.8757
   31.455    3.7809
   31.470    3.9179
   31.485    4.0126
   31.500    4.2022
   31.515    4.1811
   31.530    3.8863
   31.545    4.0126
   31.560    4.1390
   31.575    4.3286
   31.590    4.0126
   31.605    4.1074
   31.620    3.9810
   31.635    3.7809
   31.650    4.0864
   31.665    4.2233
   31.680    3.9916
   31.695    3.9179
   31.710    3.8757
   31.725    4.1496
   31.740    4.1601
   31.755    3.9073
   31.770    3.6967
   31.785    3.8968
   31.800    4.1390
   31.815    4.0548
   31.830    3.7599
   31.845    3.6230
   31.860    4.1074
   31.875    4.0864
   31.890    4.0969
   31.905    4.1917
   31.920    3.8652
   31.935    4.0969
   31.950    4.0021
   31.965    4.0337
   31.980    4.0021
   31.995    3.9916
   32.010    4.1074
   32.025    3.9916
   32.040    3.9389
   32.055    3.7283
   32.070    3.4334
   32.085    3.7072
   32.100    3.6230
   32.115    4.0337
   32.130    3.8125
   32.145    3.7809
   32.160    4.1706
   32.175    3.9284
   32.190    3.8547
   32.205    4.1917
   32.220    3.8968
   32.235    4.0442
   32.250    3.9705
   32.265    3.8336
   32.280    3.6651
   32.295    4.0021
   32.310    4.0232
   32.325    3.8968
   32.340    4.1390
   32.355    3.8125
   32.370    3.8020
   32.385    3.9705
   32.400    3.8968
   32.415    3.9494
   32.430    3.7599
   32.445    4.0969
   32.460    3.8757
   32.475    3.5071
   32.490    3.6967
   32.505    3.9705
   32.520    3.7493
   32.535    3.8863
   32.550    4.0969
   32.565    3.8125
   32.580    3.8757
   32.595    4.0126
   32.610    3.7072
   32.625    3.9284
   32.640    3.6862
   32.655    3.9284
   32.670    3.8441
   32.685    3.7915
   32.700    4.0021
   32.715    3.6440
   32.730    3.7283
   32.745    4.0653
   32.760    3.8336
   32.775    3.8020
   32.790    3.8125
   32.805    3.8757
   32.820    3.9389
   32.835    4.1285
   32.850    3.8020
   32.865    3.6124
   32.880    3.6124
   32.895    3.6124
   32.910    3.7809
   32.925    3.5598
   32.940    3.6756
   32.955    3.8020
   32.970    4.0758
   32.985    3.8441
   33.000    4.2654
   33.015    3.8968
   33.030    3.6862
   33.045    3.9073
   33.060    3.5703
   33.075    3.5808
   33.090    3.7177
   33.105    4.0337
   33.120    3.5703
   33.135    3.6335
   33.150    3.9389
   33.165    3.8652
   33.180    3.7599
   33.195    3.8863
   33.210    3.5808
   33.225    3.5282
   33.240    3.9494
   33.255    3.6019
   33.270    3.7283
   33.285    3.9705
   33.300    3.7915
   33.315    3.5703
   33.330    3.6019
   33.345    3.5703
   33.360    3.6967
   33.375    3.6862
   33.390    3.4439
   33.405    3.4650
   33.420    3.5703
   33.435    3.7704
   33.450    3.7915
   33.465    3.4966
   33.480    3.5808
   33.495    3.8336
   33.510    3.8547
   33.525    3.6440
   33.540    3.5808
   33.555    3.6019
   33.570    3.7177
   33.585    3.7704
   33.600    3.8441
   33.615    3.9916
   33.630    3.6335
   33.645    3.6546
   33.660    3.6862
   33.675    3.3491
   33.690    3.3913
   33.705    3.6124
   33.720    3.5071
   33.735    3.7915
   33.750    3.7704
   33.765    3.5282
   33.780    3.4439
   33.795    3.7177
   33.810    3.6440
   33.825    3.6440
   33.840    3.7388
   33.855    3.5914
   33.870    3.4860
   33.885    3.8547
   33.900    3.7599
   33.915    3.5387
   33.930    3.3702
   33.945    3.6335
   33.960    3.4860
   33.975    3.6019
   33.990    3.5703
   34.005    3.5387
   34.020    3.8968
   34.035    3.5387
   34.050    3.7283
   34.065    3.7283
   34.080    3.4755
   34.095    3.7704
   34.110    3.4018
   34.125    3.9705
   34.140    3.4755
   34.155    3.4229
   34.170    3.5071
   34.185    3.7283
   34.200    3.3807
   34.215    3.4334
   34.230    3.6862
   34.245    3.7177
   34.260    3.5808
   34.275    3.5914
   34.290    3.3386
   34.305    3.2859
   34.320    3.5176
   34.335    3.3807
   34.350    3.8652
   34.365    3.5282
   34.380    3.3597
   34.395    3.2122
   34.410    3.6651
   34.425    3.6651
   34.440    3.4229
   34.455    3.3597
   34.470    3.5071
   34.485    3.8231
   34.500    3.3913
   34.515    3.3913
   34.530    3.5071
   34.545    3.4755
   34.560    3.5598
   34.575    3.5703
   34.590    3.4123
   34.605    3.2859
   34.620    3.3070
   34.635    3.2227
   34.650    3.5071
   34.665    3.4966
   34.680    3.6124
   34.695    3.5914
   34.710    3.7283
   34.725    3.6335
   34.740    3.6967
   34.755    3.8757
   34.770    3.3175
   34.785    3.6967
   34.800    3.4966
   34.815    3.3070
   34.830    3.1596
   34.845    3.5387
   34.860    3.3807
   34.875    3.4439
   34.890    3.3913
   34.905    3.6546
   34.920    3.5914
   34.935    3.4860
   34.950    3.5071
   34.965    3.3913
   34.980    3.2859
   34.995    3.4755
   35.010    3.2543
   35.025    3.5808
   35.040    3.6124
   35.055    3.4544
   35.070    3.6440
   35.085    3.4966
   35.100    3.5492
   35.115    3.2965
   35.130    3.2649
   35.145    3.3913
   35.160    3.5598
   35.175    3.2859
   35.190    3.4755
   35.205    3.5703
   35.220    3.0964
   35.235    3.2017
   35.250    2.8752
   35.265    3.2754
   35.280    3.5808
   35.295    3.6546
   35.310    3.5598
   35.325    3.7704
   35.340    3.7809
   35.355    3.6651
   35.370    3.4018
   35.385    3.5387
   35.400    3.2859
   35.415    3.3281
   35.430    3.6124
   35.445    3.5176
   35.460    3.3281
   35.475    3.3807
   35.490    3.4860
   35.505    3.4755
   35.520    3.6546
   35.535    3.6230
   35.550    3.7388
   35.565    3.6019
   35.580    3.4439
   35.595    3.4755
   35.610    3.4755
   35.625    3.5176
   35.640    3.2965
   35.655    3.4755
   35.670    3.1701
   35.685    3.1069
   35.700    3.2649
   35.715    3.3491
   35.730    3.3175
   35.745    3.3070
   35.760    3.5387
   35.775    3.3807
   35.790    3.3491
   35.805    3.3281
   35.820    3.4966
   35.835    3.4334
   35.850    3.0542
   35.865    3.2333
   35.880    3.2438
   35.895    3.4544
   35.910    3.1806
   35.925    3.2333
   35.940    3.3491
   35.955    3.5282
   35.970    3.4860
   35.985    3.3281
   36.000    3.3702
   36.015    3.3491
   36.030    3.6019
   36.045    3.1490
   36.060    3.2965
   36.075    3.4966
   36.090    3.5387
   36.105    3.3491
   36.120    3.2122
   36.135    3.1701
   36.150    3.6124
   36.165    3.7072
   36.180    3.2438
   36.195    3.3702
   36.210    3.3913
   36.225    3.6019
   36.240    3.2754
   36.255    3.1490
   36.270    3.2122
   36.285    3.2859
   36.300    3.4650
   36.315    3.1701
   36.330    3.3491
   36.345    3.0964
   36.360    3.3281
   36.375    3.1490
   36.390    3.5492
   36.405    3.4860
   36.420    3.1806
   36.435    3.4018
   36.450    3.2649
   36.465    3.0858
   36.480    3.5808
   36.495    3.4229
   36.510    3.4018
   36.525    2.9173
   36.540    2.9279
   36.555    3.0332
   36.570    3.2122
   36.585    3.2438
   36.600    3.0542
   36.615    3.1174
   36.630    3.2543
   36.645    3.2754
   36.660    3.3913
   36.675    3.2017
   36.690    3.0648
   36.705    3.2227
   36.720    3.5176
   36.735    3.3386
   36.750    2.9279
   36.765    2.9595
   36.780    3.2438
   36.795    3.2649
   36.810    3.0437
   36.825    3.0332
   36.840    3.2227
   36.855    2.8963
   36.870    3.0648
   36.885    3.2965
   36.900    3.0964
   36.915    3.2122
   36.930    2.9595
   36.945    3.3281
   36.960    3.3386
   36.975    3.2227
   36.990    3.2017
   37.005    3.0016
   37.020    3.3597
   37.035    3.1806
   37.050    3.2754
   37.065    3.2227
   37.080    3.0858
   37.095    3.3070
   37.110    2.8647
   37.125    2.8331
   37.140    3.1490
   37.155    3.1912
   37.170    3.2438
   37.185    3.4018
   37.200    3.2965
   37.215    3.2859
   37.230    3.3281
   37.245    3.2227
   37.260    2.8752
   37.275    3.0437
   37.290    3.2227
   37.305    3.1596
   37.320    2.9700
   37.335    3.1490
   37.350    3.2122
   37.365    3.2227
   37.380    2.9068
   37.395    3.0964
   37.410    3.2227
   37.425    3.1701
   37.440    3.3491
   37.455    3.0226
   37.470    3.2649
   37.485    3.1280
   37.500    2.9489
   37.515    2.8331
   37.530    3.1490
   37.545    3.2333
   37.560    3.3597
   37.575    3.4123
   37.590    3.2859
   37.605    3.3070
   37.620    3.3491
   37.635    3.3386
   37.650    3.3913
   37.665    3.3597
   37.680    2.9279
   37.695    3.2754
   37.710    3.1596
   37.725    3.0858
   37.740    3.0964
   37.755    3.2227
   37.770    3.4650
   37.785    2.9700
   37.800    3.3175
   37.815    3.4439
   37.830    3.0226
   37.845    2.9279
   37.860    3.2017
   37.875    3.1701
   37.890    3.3491
   37.905    3.2017
   37.920    3.3175
   37.935    3.2649
   37.950    2.8015
   37.965    3.1069
   37.980    3.1490
   37.995    3.0016
   38.010    3.2122
   38.025    3.1069
   38.040    3.0648
   38.055    3.2859
   38.070    3.0753
   38.085    2.9595
   38.100    3.1806
   38.115    3.4229
   38.130    3.1596
   38.145    3.0753
   38.160    3.2649
   38.175    3.3281
   38.190    3.1385
   38.205    3.1806
   38.220    3.0332
   38.235    2.9489
   38.250    2.9173
   38.265    3.1385
   38.280    3.2017
   38.295    3.3386
   38.310    3.2438
   38.325    2.9279
   38.340    3.1069
   38.355    3.4229
   38.370    3.0858
   38.385    2.9700
   38.400    3.3281
   38.415    3.3597
   38.430    3.1069
   38.445    3.4123
   38.460    3.2965
   38.475    3.1280
   38.490    3.1912
   38.505    3.1806
   38.520    3.3175
   38.535    3.2333
   38.550    3.3070
   38.565    3.2859
   38.580    3.1174
   38.595    3.1912
   38.610    3.0753
   38.625    3.1806
   38.640    3.0437
   38.655    3.2227
   38.670    2.9384
   38.685    3.1701
   38.700    3.0121
   38.715    2.8857
   38.730    3.0858
   38.745    3.0648
   38.760    3.0858
   38.775    3.3386
   38.790    2.7909
   38.805    3.0226
   38.820    3.0542
   38.835    3.3597
   38.850    3.3913
   38.865    3.1174
   38.880    3.0964
   38.895    3.0226
   38.910    3.4334
   38.925    3.1806
   38.940    3.1280
   38.955    3.1596
   38.970    3.0858
   38.985    3.1174
   39.000    3.2122
   39.015    3.3702
   39.030    3.2438
   39.045    3.2543
   39.060    3.0437
   39.075    2.9805
   39.090    3.2227
   39.105    3.2333
   39.120    2.8963
   39.135    2.9910
   39.150    3.2438
   39.165    3.2333
   39.180    3.3281
   39.195    3.1174
   39.210    2.8752
   39.225    3.2965
   39.240    3.1701
   39.255    2.8857
   39.270    3.2122
   39.285    3.4123
   39.300    3.2438
   39.315    2.9805
   39.330    3.1385
   39.345    3.0753
   39.360    2.8963
   39.375    3.1280
   39.390    3.1806
   39.405    3.1174
   39.420    3.2543
   39.435    3.2017
   39.450    3.0437
   39.465    3.2859
   39.480    3.1806
   39.495    3.2543
   39.510    3.1490
   39.525    3.1490
   39.540    3.2754
   39.555    3.3070
   39.570    3.2122
   39.585    3.0648
   39.600    2.9805
   39.615    3.1069
   39.630    3.1912
   39.645    2.9068
   39.660    3.0121
   39.675    2.9700
   39.690    2.8436
   39.705    3.0648
   39.720    3.1701
   39.735    3.2017
   39.750    3.1596
   39.765    3.3491
   39.780    3.1701
   39.795    3.2649
   39.810    3.2859
   39.825    3.2122
   39.840    2.9700
   39.855    3.0753
   39.870    3.2438
   39.885    2.9910
   39.900    2.8541
   39.915    3.0858
   39.930    2.9489
   39.945    2.9700
   39.960    3.0858
   39.975    3.2859
   39.990    3.1806
