    1.500   15.3449
    1.515   15.0816
    1.530   15.6082
    1.545   14.9552
    1.560   14.6919
    1.575   14.3655
    1.590   14.4602
    1.605   13.9758
    1.620   14.5656
    1.635   14.2917
    1.650   14.0811
    1.665   14.2075
    1.680   13.3333
    1.695   14.4602
    1.710   14.6077
    1.725   14.4181
    1.740   14.1548
    1.755   13.6704
    1.770   13.6809
    1.785   13.7125
    1.800   13.1332
    1.815   12.9226
    1.830   13.5440
    1.845   13.9231
    1.860   13.1543
    1.875   13.1438
    1.890   13.4387
    1.905   13.0806
    1.920   12.7857
    1.935   13.3333
    1.950   13.2175
    1.965   12.5434
    1.980   12.4908
    1.995   12.5750
    2.010   12.1748
    2.025   12.0484
    2.040   12.4065
    2.055   12.1222
    2.070   12.0169
    2.085   11.5324
    2.100   11.6588
    2.115   12.1327
    2.130   11.7641
    2.145   11.7430
    2.160   11.5956
    2.175   11.9115
    2.190   11.6693
    2.205   11.5534
    2.220   12.0274
    2.235   11.3744
    2.250   11.7114
    2.265   11.3849
    2.280   11.5008
    2.295   11.5429
    2.310   11.0690
    2.325   10.9742
    2.340   10.7741
    2.355   11.2586
    2.370   10.8478
    2.385   10.7636
    2.400   11.5113
    2.415   11.2164
    2.430   11.0585
    2.445   10.9321
    2.460   10.6688
    2.475   10.8268
    2.490   10.6898
    2.505   10.8583
    2.520   10.8478
    2.535   10.5108
    2.550   10.5108
    2.565   10.6582
    2.580   10.4792
    2.595   10.9215
    2.610   11.0269
    2.625    9.9421
    2.640    9.9842
    2.655   10.7109
    2.670   10.5740
    2.685   10.4581
    2.700   10.3949
    2.715   10.1948
    2.730   10.1527
    2.745   10.1106
    2.760   10.1001
    2.775   10.6372
    2.790    9.7841
    2.805    9.9842
    2.820   10.1211
    2.835   10.3212
    2.850    9.7525
    2.865   10.0263
    2.880    9.9315
    2.895    9.9421
    2.910    9.7946
    2.925    9.4576
    2.940    9.4892
    2.955    9.3839
    2.970    9.8684
    2.985    9.5840
    3.000    9.8262
    3.015    9.8157
    3.030    9.6367
    3.045    9.1627
    3.060    9.8473
    3.075    9.7209
    3.090    9.2154
    3.105    9.5629
    3.120    9.2470
    3.135    9.2891
    3.150    8.9942
    3.165    8.7730
    3.180    8.9100
    3.195    9.1627
    3.210    9.4471
    3.225    9.2575
    3.240    9.1522
    3.255    9.1206
    3.270    9.0679
    3.285    9.4471
    3.300    9.2996
    3.315    8.8573
    3.330    8.7730
    3.345    8.9731
    3.360    9.1206
    3.375    8.8257
    3.390    8.8573
    3.405    8.6783
    3.420    8.8257
    3.435    8.2991
    3.450    8.9626
    3.465    8.5519
    3.480    8.3518
    3.495    8.3412
    3.510    8.4992
    3.525    8.5308
    3.540    8.4360
    3.555    8.5940
    3.570    8.7309
    3.585    8.5097
    3.600    7.9410
    3.615    8.5624
    3.630    8.6467
    3.645    8.5624
    3.660    8.5940
    3.675    8.4255
    3.690    8.3728
    3.705    8.6783
    3.720    8.3518
    3.735    8.1938
    3.750    8.4466
    3.765    8.0990
    3.780    7.9516
    3.795    7.9200
    3.810    8.1306
    3.825    7.7409
    3.840    8.2570
    3.855    8.3412
    3.870    7.5935
    3.885    7.8778
    3.900    7.7620
    3.915    7.9200
    3.930    7.7199
    3.945    7.9937
    3.960    8.0674
    3.975    7.6356
    3.990    7.7725
    4.005    7.6356
    4.020    7.6883
    4.035    7.6461
    4.050    8.0253
    4.065    7.6567
    4.080    7.3512
    4.095    7.3828
    4.110    7.8462
    4.125    7.8041
    4.140    7.5303
    4.155    7.7725
    4.170    7.6040
    4.185    7.4671
    4.200    7.3091
    4.215    7.1406
    4.230    7.0248
    4.245    7.0669
    4.260    7.2775
    4.275    7.3196
    4.290    6.9932
    4.305    7.2459
    4.320    7.3828
    4.335    6.9510
    4.350    6.7930
    4.365    7.0353
    4.380    7.0037
    4.395    6.7720
    4.410    7.0037
    4.425    7.0458
    4.440    7.3934
    4.455    7.5724
    4.470    7.3934
    4.485    7.4355
    4.500    7.4250
    4.515    7.2459
    4.530    6.9510
    4.545    7.0142
    4.560    7.3196
    4.575    7.1617
    4.590    6.8562
    4.605    7.0669
    4.620    7.2249
    4.635    7.3618
    4.650    7.0879
    4.665    6.5824
    4.680    6.8141
    4.695    7.0985
    4.710    6.9510
    4.725    6.8878
    4.740    6.8352
    4.755    6.6245
    4.770    6.8668
    4.785    6.6983
    4.800    6.7404
    4.815    6.8773
    4.830    7.0248
    4.845    6.9826
    4.860    7.2249
    4.875    6.8141
    4.890    6.8036
    4.905    6.8246
    4.920    6.7404
    4.935    6.9194
    4.950    6.9405
    4.965    6.5403
    4.980    6.4034
    4.995    6.8562
    5.010    6.9510
    5.025    6.8668
    5.040    6.5613
    5.055    6.5403
    5.070    6.5192
    5.085    6.8457
    5.100    6.6245
    5.115    6.7404
    5.130    6.6035
    5.145    6.9089
    5.160    6.7088
    5.175    7.0142
    5.190    6.6351
    5.205    6.6667
    5.220    6.4771
    5.235    6.6561
    5.250    6.3086
    5.265    6.6561
    5.280    6.4666
    5.295    6.5508
    5.310    6.7088
    5.325    6.6877
    5.340    6.7193
    5.355    6.4560
    5.370    6.7299
    5.385    7.0563
    5.400    6.3928
    5.415    6.2243
    5.430    6.3402
    5.445    6.6561
    5.460    6.3402
    5.475    6.3402
    5.490    6.4350
    5.505    6.6667
    5.520    6.7404
    5.535    6.2349
    5.550    6.5403
    5.565    6.6245
    5.580    6.5824
    5.595    6.3928
    5.610    6.4139
    5.625    6.2138
    5.640    6.4350
    5.655    6.1927
    5.670    6.2349
    5.685    6.0032
    5.700    6.6877
    5.715    6.7299
    5.730    6.7720
    5.745    6.9721
    5.760    6.5929
    5.775    6.6456
    5.790    6.5719
    5.805    6.2559
    5.820    6.1717
    5.835    6.3612
    5.850    6.2875
    5.865    6.1295
    5.880    6.4666
    5.895    6.4876
    5.910    6.3928
    5.925    6.4139
    5.940    6.4771
    5.955    6.4666
    5.970    6.2033
    5.985    6.7509
    6.000    6.5824
    6.015    6.4244
    6.030    6.5403
    6.045    6.4771
    6.060    6.2454
    6.075    6.4560
    6.090    6.6245
    6.105    6.5087
    6.120    6.3718
    6.135    6.5824
    6.150    6.4244
    6.165    6.5087
    6.180    6.4560
    6.195    6.1611
    6.210    6.1506
    6.225    6.4244
    6.240    6.6035
    6.255    6.3612
    6.270    5.7925
    6.285    6.2981
    6.300    6.3086
    6.315    6.2349
    6.330    6.2033
    6.345    6.5719
    6.360    6.7509
    6.375    6.3823
    6.390    6.2243
    6.405    6.2454
    6.420    6.3718
    6.435    6.6245
    6.450    6.5508
    6.465    6.4244
    6.480    6.2559
    6.495    6.5824
    6.510    6.4034
    6.525    6.6035
    6.540    6.6351
    6.555    6.5719
    6.570    6.9932
    6.585    6.3086
    6.600    6.5192
    6.615    6.5824
    6.630    6.3718
    6.645    6.3928
    6.660    6.3507
    6.675    6.5613
    6.690    6.4350
    6.705    6.7720
    6.720    7.1406
    6.735    6.6561
    6.750    6.1295
    6.765    6.4876
    6.780    6.3718
    6.795    6.6772
    6.810    6.7193
    6.825    6.3718
    6.840    6.2349
    6.855    6.4034
    6.870    6.4771
    6.885    6.0348
    6.900    6.2454
    6.915    6.2875
    6.930    6.5613
    6.945    6.3612
    6.960    6.2454
    6.975    6.7299
    6.990    6.4982
    7.005    6.8141
    7.020    6.4771
    7.035    5.9505
    7.050    6.4876
    7.065    6.4771
    7.080    6.2138
    7.095    6.1611
    7.110    6.2665
    7.125    6.3191
    7.140    6.4560
    7.155    6.3507
    7.170    6.3296
    7.185    6.2454
    7.200    6.5192
    7.215    6.3928
    7.230    6.1506
    7.245    6.2138
    7.260    5.9610
    7.275    6.2875
    7.290    6.4455
    7.305    6.7193
    7.320    6.6456
    7.335    6.3718
    7.350    6.4034
    7.365    6.2454
    7.380    6.0558
    7.395    6.5403
    7.410    6.3823
    7.425    6.4666
    7.440    6.2559
    7.455    6.2243
    7.470    6.2770
    7.485    6.3928
    7.500    6.2349
    7.515    5.9505
    7.530    6.6140
    7.545    6.6456
    7.560    6.4455
    7.575    6.4350
    7.590    6.3296
    7.605    6.3402
    7.620    6.8246
    7.635    6.5403
    7.650    6.1822
    7.665    6.0874
    7.680    6.3296
    7.695    6.5508
    7.710    6.5508
    7.725    6.4034
    7.740    6.1506
    7.755    6.4034
    7.770    6.3718
    7.785    6.3507
    7.800    6.4034
    7.815    6.8457
    7.830    6.5403
    7.845    6.5824
    7.860    6.3402
    7.875    6.2559
    7.890    6.4455
    7.905    6.2770
    7.920    6.2349
    7.935    6.2770
    7.950    6.4034
    7.965    6.0769
    7.980    6.5613
    7.995    6.3507
    8.010    6.2981
    8.025    6.3507
    8.040    6.4982
    8.055    6.3402
    8.070    6.2875
    8.085    6.5929
    8.100    6.7299
    8.115    6.5403
    8.130    6.2138
    8.145    6.4560
    8.160    6.5403
    8.175    5.7504
    8.190    5.8768
    8.205    6.7509
    8.220    6.3402
    8.235    6.3191
    8.250    6.5508
    8.265    6.2770
    8.280    6.3296
    8.295    6.4666
    8.310    6.3823
    8.325    6.6561
    8.340    6.3612
    8.355    6.4350
    8.370    6.3928
    8.385    6.7299
    8.400    6.5087
    8.415    6.6351
    8.430    6.6351
    8.445    6.3296
    8.460    6.7404
    8.475    6.4982
    8.490    6.1927
    8.505    6.4455
    8.520    6.8878
    8.535    6.3823
    8.550    6.6035
    8.565    6.8036
    8.580    6.2981
    8.595    6.3191
    8.610    6.3718
    8.625    6.5192
    8.640    6.4034
    8.655    5.9400
    8.670    6.2454
    8.685    6.0664
    8.700    6.6351
    8.715    6.5508
    8.730    6.5087
    8.745    6.6351
    8.760    6.4350
    8.775    6.2138
    8.790    6.7825
    8.805    6.4244
    8.820    6.0874
    8.835    6.2770
    8.850    6.7193
    8.865    6.3402
    8.880    6.4666
    8.895    6.4982
    8.910    6.3612
    8.925    6.3612
    8.940    6.5508
    8.955    6.6351
    8.970    6.4560
    8.985    6.5613
    9.000    6.4771
    9.015    6.6667
    9.030    6.4666
    9.045    6.4034
    9.060    6.4666
    9.075    6.4350
    9.090    6.4244
    9.105    6.5824
    9.120    6.1506
    9.135    6.5719
    9.150    6.8352
    9.165    6.6035
    9.180    6.5403
    9.195    7.0248
    9.210    6.5087
    9.225    6.4034
    9.240    6.5719
    9.255    6.4455
    9.270    6.8457
    9.285    6.6035
    9.300    6.8668
    9.315    6.5192
    9.330    6.6245
    9.345    6.7825
    9.360    6.7509
    9.375    7.0248
    9.390    6.8668
    9.405    6.8246
    9.420    6.5719
    9.435    6.5824
    9.450    6.5824
    9.465    6.6351
    9.480    6.5613
    9.495    6.1822
    9.510    6.4455
    9.525    6.5087
    9.540    6.4244
    9.555    6.7615
    9.570    6.8352
    9.585    6.9089
    9.600    6.5824
    9.615    6.4034
    9.630    6.6877
    9.645    6.4982
    9.660    6.6456
    9.675    6.7615
    9.690    6.6561
    9.705    6.2349
    9.720    6.3402
    9.735    6.6245
    9.750    6.6035
    9.765    6.3296
    9.780    6.5613
    9.795    6.6035
    9.810    6.5403
    9.825    6.6983
    9.840    6.4876
    9.855    6.6035
    9.870    7.0458
    9.885    6.4876
    9.900    6.7509
    9.915    7.0669
    9.930    6.7193
    9.945    6.6245
    9.960    6.5298
    9.975    6.9616
    9.990    6.6877
   10.005    6.4771
   10.020    6.5087
   10.035    6.6351
   10.050    6.5929
   10.065    6.4666
   10.080    6.7720
   10.095    6.8246
   10.110    6.5613
   10.125    6.5192
   10.140    6.6140
   10.155    6.6983
   10.170    6.3718
   10.185    6.3086
   10.200    6.4666
   10.215    6.3086
   10.230    6.6983
   10.245    6.8984
   10.260    6.7088
   10.275    6.5508
   10.290    6.3086
   10.305    6.4244
   10.320    6.5298
   10.335    6.0558
   10.350    6.5192
   10.365    6.8036
   10.380    6.2033
   10.395    6.6245
   10.410    6.4666
   10.425    6.3928
   10.440    6.5719
   10.455    6.4244
   10.470    6.4350
   10.485    6.6667
   10.500    6.6561
   10.515    6.3612
   10.530    6.2559
   10.545    6.6983
   10.560    6.5087
   10.575    6.4560
   10.590    6.2033
   10.605    6.6035
   10.620    6.3718
   10.635    6.3086
   10.650    6.5087
   10.665    6.1717
   10.680    6.2138
   10.695    6.1401
   10.710    6.2770
   10.725    6.5087
   10.740    6.4982
   10.755    6.2770
   10.770    6.1295
   10.785    6.6035
   10.800    6.6035
   10.815    6.8141
   10.830    6.4560
   10.845    6.7088
   10.860    6.4244
   10.875    6.3296
   10.890    6.7509
   10.905    6.4034
   10.920    6.2033
   10.935    6.6245
   10.950    6.0348
   10.965    6.4666
   10.980    6.7404
   10.995    6.6245
   11.010    6.5508
   11.025    6.0979
   11.040    6.2138
   11.055    6.4350
   11.070    6.2665
   11.085    6.0664
   11.100    6.4455
   11.115    6.1717
   11.130    6.2875
   11.145    6.2770
   11.160    6.4455
   11.175    6.5719
   11.190    6.3296
   11.205    6.5087
   11.220    6.2981
   11.235    6.3296
   11.250    6.3718
   11.265    6.4139
   11.280    6.1611
   11.295    6.2770
   11.310    6.1822
   11.325    6.3402
   11.340    6.1085
   11.355    6.3823
   11.370    6.4771
   11.385    6.6983
   11.400    6.3402
   11.415    6.1295
   11.430    6.1927
   11.445    6.0874
   11.460    6.4034
   11.475    5.9926
   11.490    6.2138
   11.505    6.1295
   11.520    5.5924
   11.535    6.2559
   11.550    6.4139
   11.565    6.3612
   11.580    6.0874
   11.595    6.0558
   11.610    5.7925
   11.625    5.9294
   11.640    6.0874
   11.655    5.8873
   11.670    6.1611
   11.685    5.8241
   11.700    6.0137
   11.715    6.2243
   11.730    6.0032
   11.745    5.8978
   11.760    6.3296
   11.775    6.2138
   11.790    5.9716
   11.805    6.0137
   11.820    6.3191
   11.835    6.1822
   11.850    6.2349
   11.865    5.9926
   11.880    5.9610
   11.895    5.8978
   11.910    6.3191
   11.925    6.1085
   11.940    5.7399
   11.955    5.9084
   11.970    6.1295
   11.985    5.8031
   12.000    5.9610
   12.015    6.0137
   12.030    5.7188
   12.045    5.9505
   12.060    5.8136
   12.075    5.6029
   12.090    5.7609
   12.105    6.1927
   12.120    5.9716
   12.135    5.7504
   12.150    6.0558
   12.165    5.9926
   12.180    6.1822
   12.195    6.3507
   12.210    5.6872
   12.225    5.9505
   12.240    5.9505
   12.255    6.1401
   12.270    5.6345
   12.285    5.9400
   12.300    6.0874
   12.315    6.0769
   12.330    5.7715
   12.345    5.4766
   12.360    6.0979
   12.375    5.6451
   12.390    6.1085
   12.405    6.2033
   12.420    5.9610
   12.435    6.0032
   12.450    5.9189
   12.465    6.1611
   12.480    6.2559
   12.495    5.8873
   12.510    5.9610
   12.525    5.8768
   12.540    5.9505
   12.555    6.1506
   12.570    6.1611
   12.585    6.2875
   12.600    5.7083
   12.615    5.5082
   12.630    5.6556
   12.645    5.7715
   12.660    5.9294
   12.675    5.8768
   12.690    5.8978
   12.705    5.7293
   12.720    5.8452
   12.735    6.1822
   12.750    5.8768
   12.765    5.9400
   12.780    5.7293
   12.795    5.6661
   12.810    5.5924
   12.825    5.6451
   12.840    5.8452
   12.855    5.7820
   12.870    5.7399
   12.885    5.9294
   12.900    5.7399
   12.915    5.9821
   12.930    5.9505
   12.945    5.6240
   12.960    5.8557
   12.975    5.5714
   12.990    5.6135
   13.005    5.4028
   13.020    5.6872
   13.035    5.7609
   13.050    6.0979
   13.065    5.6556
   13.080    5.7925
   13.095    5.7399
   13.110    5.8452
   13.125    6.2138
   13.140    5.8347
   13.155    5.8978
   13.170    5.6767
   13.185    5.7820
   13.200    5.9505
   13.215    5.8452
   13.230    5.7504
   13.245    5.6135
   13.260    5.6661
   13.275    6.3928
   13.290    5.8452
   13.305    6.0137
   13.320    5.5187
   13.335    5.5292
   13.350    5.8768
   13.365    5.8136
   13.380    5.4344
   13.395    5.4555
   13.410    5.6872
   13.425    5.5608
   13.440    5.8873
   13.455    5.8136
   13.470    5.7609
   13.485    6.4139
   13.500    6.0874
   13.515    5.8873
   13.530    5.9189
   13.545    5.7820
   13.560    5.8662
   13.575    5.7399
   13.590    5.6661
   13.605    5.7293
   13.620    5.9400
   13.635    6.0874
   13.650    6.1611
   13.665    5.8452
   13.680    5.6872
   13.695    5.7504
   13.710    5.3081
   13.725    5.6345
   13.740    5.8136
   13.755    5.8031
   13.770    5.6240
   13.785    5.5082
   13.800    5.8031
   13.815    5.6661
   13.830    5.7820
   13.845    5.5398
   13.860    5.5503
   13.875    5.6872
   13.890    5.9821
   13.905    6.0242
   13.920    5.4134
   13.935    5.4871
   13.950    5.4976
   13.965    5.6240
   13.980    5.9400
   13.995    5.7715
   14.010    5.6556
   14.025    5.4976
   14.040    5.6977
   14.055    5.7715
   14.070    6.0348
   14.085    5.7293
   14.100    5.7293
   14.115    5.4976
   14.130    5.4344
   14.145    5.4555
   14.160    5.5082
   14.175    5.9294
   14.190    5.6767
   14.205    5.7715
   14.220    5.7188
   14.235    5.4344
   14.250    5.8347
   14.265    5.7188
   14.280    5.7188
   14.295    5.6872
   14.310    5.7399
   14.325    5.6556
   14.340    6.0137
   14.355    5.3502
   14.370    5.4660
   14.385    5.7083
   14.400    5.7504
   14.415    5.5292
   14.430    5.5714
   14.445    5.7399
   14.460    5.8452
   14.475    5.6661
   14.490    5.6240
   14.505    6.1822
   14.520    5.7293
   14.535    5.7820
   14.550    6.0348
   14.565    5.7188
   14.580    5.4871
   14.595    5.4871
   14.610    5.3923
   14.625    5.3607
   14.640    5.8031
   14.655    6.0348
   14.670    5.8136
   14.685    5.7609
   14.700    5.8241
   14.715    5.5398
   14.730    5.4976
   14.745    5.5292
   14.760    5.4134
   14.775    5.6661
   14.790    5.8031
   14.805    5.6661
   14.820    5.8557
   14.835    5.7715
   14.850    5.3712
   14.865    5.9084
   14.880    5.7399
   14.895    5.7609
   14.910    5.5819
   14.925    5.7504
   14.940    5.9926
   14.955    5.9294
   14.970    5.8557
   14.985    5.9610
   15.000    5.5503
   15.015    5.8557
   15.030    6.0242
   15.045    5.7925
   15.060    5.6135
   15.075    5.6240
   15.090    5.9716
   15.105    5.8978
   15.120    5.7504
   15.135    5.6451
   15.150    5.8241
   15.165    5.6661
   15.180    6.1295
   15.195    5.6767
   15.210    5.3291
   15.225    5.6977
   15.240    5.8873
   15.255    5.9294
   15.270    5.7609
   15.285    5.8136
   15.300    5.5503
   15.315    5.3923
   15.330    5.6029
   15.345    6.0453
   15.360    5.9189
   15.375    5.7925
   15.390    5.8662
   15.405    5.4555
   15.420    5.8662
   15.435    5.9821
   15.450    5.9821
   15.465    5.9610
   15.480    6.0769
   15.495    6.2770
   15.510    5.6345
   15.525    5.7399
   15.540    5.7293
   15.555    5.7399
   15.570    5.6345
   15.585    5.7188
   15.600    5.8031
   15.615    5.7609
   15.630    6.0979
   15.645    5.7188
   15.660    5.7925
   15.675    5.8136
   15.690    5.9084
   15.705    6.0664
   15.720    5.5924
   15.735    6.0032
   15.750    6.1611
   15.765    6.0979
   15.780    5.8873
   15.795    5.8978
   15.810    5.6240
   15.825    5.9400
   15.840    6.0664
   15.855    5.9610
   15.870    5.7925
   15.885    5.6977
   15.900    5.6872
   15.915    5.9610
   15.930    5.7609
   15.945    5.8873
   15.960    5.9610
   15.975    5.9084
   15.990    5.6661
   16.005    5.7083
   16.020    5.9505
   16.035    5.5398
   16.050    5.9505
   16.065    5.9821
   16.080    6.0979
   16.095    5.6977
   16.110    5.6556
   16.125    5.7925
   16.140    5.8136
   16.155    6.0769
   16.170    5.6977
   16.185    6.1190
   16.200    5.8031
   16.215    6.0242
   16.230    5.7399
   16.245    5.7083
   16.260    6.1401
   16.275    5.6767
   16.290    5.9926
   16.305    6.1822
   16.320    5.8452
   16.335    6.0664
   16.350    5.8347
   16.365    5.9610
   16.380    5.8347
   16.395    5.7399
   16.410    6.1295
   16.425    6.0453
   16.440    5.9505
   16.455    5.6661
   16.470    5.8347
   16.485    5.9610
   16.500    5.6135
   16.515    5.7504
   16.530    6.0979
   16.545    6.1295
   16.560    5.7504
   16.575    5.8557
   16.590    5.5924
   16.605    5.5608
   16.620    5.5292
   16.635    5.9610
   16.650    6.0032
   16.665    5.8557
   16.680    6.0558
   16.695    5.9294
   16.710    5.5082
   16.725    5.7083
   16.740    5.9189
   16.755    5.8347
   16.770    6.0137
   16.785    6.3296
   16.800    5.8768
   16.815    5.9400
   16.830    5.9926
   16.845    5.6767
   16.860    5.8452
   16.875    5.9189
   16.890    6.0348
   16.905    5.9400
   16.920    5.9294
   16.935    5.7504
   16.950    5.3397
   16.965    5.7504
   16.980    5.7609
   16.995    5.6240
   17.010    5.7504
   17.025    6.1401
   17.040    6.0769
   17.055    5.8873
   17.070    5.9926
   17.085    5.7083
   17.100    5.6661
   17.115    5.6767
   17.130    5.6767
   17.145    6.0032
   17.160    6.0874
   17.175    5.7925
   17.190    5.5503
   17.205    5.7399
   17.220    5.7399
   17.235    5.4239
   17.250    5.8768
   17.265    5.9821
   17.280    6.0137
   17.295    5.8978
   17.310    5.5608
   17.325    5.7399
   17.340    5.5608
   17.355    5.5714
   17.370    5.8241
   17.385    5.9189
   17.400    5.7925
   17.415    5.6661
   17.430    5.8662
   17.445    5.8768
   17.460    5.9294
   17.475    5.8978
   17.490    6.0032
   17.505    5.9610
   17.520    6.0874
   17.535    5.9505
   17.550    5.5608
   17.565    5.8873
   17.580    6.0453
   17.595    6.0348
   17.610    5.8452
   17.625    5.8557
   17.640    5.8873
   17.655    6.0242
   17.670    5.9821
   17.685    5.8557
   17.700    5.9400
   17.715    5.8347
   17.730    5.8031
   17.745    6.1085
   17.760    5.9716
   17.775    5.5924
   17.790    5.9610
   17.805    5.6872
   17.820    5.8347
   17.835    5.9400
   17.850    5.7609
   17.865    5.8452
   17.880    5.8347
   17.895    5.8873
   17.910    5.7504
   17.925    5.6977
   17.940    5.4766
   17.955    6.0453
   17.970    5.8347
   17.985    5.8557
   18.000    5.6767
   18.015    5.7399
   18.030    5.4660
   18.045    5.6556
   18.060    5.7609
   18.075    5.9294
   18.090    5.5503
   18.105    5.5292
   18.120    6.0137
   18.135    6.0979
   18.150    5.8241
   18.165    5.4871
   18.180    5.8873
   18.195    5.6977
   18.210    6.1295
   18.225    5.8557
   18.240    6.2243
   18.255    5.8873
   18.270    5.5608
   18.285    5.9610
   18.300    5.7715
   18.315    5.8452
   18.330    5.5819
   18.345    5.8557
   18.360    5.9400
   18.375    6.0769
   18.390    6.0137
   18.405    5.6661
   18.420    6.2559
   18.435    6.0242
   18.450    5.6345
   18.465    5.8347
   18.480    5.7293
   18.495    5.6451
   18.510    5.8452
   18.525    5.7925
   18.540    6.0664
   18.555    5.9400
   18.570    6.2454
   18.585    6.2033
   18.600    5.4555
   18.615    5.5398
   18.630    5.9610
   18.645    6.0032
   18.660    6.2033
   18.675    6.1927
   18.690    6.0558
   18.705    6.0032
   18.720    6.2033
   18.735    5.9610
   18.750    5.9294
   18.765    6.0664
   18.780    6.2349
   18.795    6.2981
   18.810    5.8452
   18.825    5.9505
   18.840    5.8978
   18.855    6.1295
   18.870    5.6977
   18.885    5.8452
   18.900    5.9294
   18.915    5.9294
   18.930    6.1506
   18.945    5.9400
   18.960    5.9926
   18.975    6.0032
   18.990    6.0032
   19.005    5.9505
   19.020    6.0769
   19.035    5.9505
   19.050    5.7504
   19.065    6.0348
   19.080    6.0874
   19.095    5.9294
   19.110    5.9821
   19.125    5.9400
   19.140    5.8662
   19.155    6.0453
   19.170    5.7188
   19.185    5.7820
   19.200    6.0137
   19.215    6.0242
   19.230    5.6977
   19.245    5.8347
   19.260    6.2349
   19.275    5.9610
   19.290    5.9189
   19.305    5.8347
   19.320    6.2138
   19.335    6.3296
   19.350    5.8978
   19.365    6.1190
   19.380    6.1295
   19.395    6.1401
   19.410    6.0979
   19.425    5.9294
   19.440    5.7609
   19.455    5.6451
   19.470    5.9400
   19.485    6.1190
   19.500    5.8452
   19.515    5.8347
   19.530    5.8873
   19.545    6.0558
   19.560    5.9505
   19.575    6.4350
   19.590    6.2138
   19.605    5.9189
   19.620    6.1295
   19.635    5.6661
   19.650    5.7188
   19.665    5.9189
   19.680    6.1295
   19.695    5.7925
   19.710    6.0348
   19.725    5.9821
   19.740    5.9821
   19.755    6.0348
   19.770    5.6767
   19.785    5.9505
   19.800    5.9505
   19.815    6.3718
   19.830    6.1611
   19.845    6.2559
   19.860    5.7399
   19.875    6.1190
   19.890    5.9084
   19.905    6.1927
   19.920    6.1401
   19.935    5.7188
   19.950    6.2665
   19.965    6.1611
   19.980    5.8662
   19.995    5.5714
   20.010    5.9084
   20.025    5.9716
   20.040    5.9294
   20.055    6.1611
   20.070    6.1506
   20.085    5.8873
   20.100    5.9926
   20.115    5.7399
   20.130    5.8978
   20.145    5.6345
   20.160    6.0348
   20.175    6.0032
   20.190    5.8662
   20.205    5.9821
   20.220    6.3823
   20.235    6.1295
   20.250    6.2981
   20.265    6.1822
   20.280    5.8136
   20.295    6.0242
   20.310    5.9716
   20.325    5.7820
   20.340    6.3823
   20.355    6.0664
   20.370    5.9189
   20.385    6.3086
   20.400    5.9926
   20.415    6.0137
   20.430    6.0769
   20.445    5.5714
   20.460    5.8347
   20.475    6.1611
   20.490    5.9505
   20.505    5.8978
   20.520    5.7083
   20.535    6.1190
   20.550    6.1717
   20.565    5.9821
   20.580    6.0769
   20.595    6.1611
   20.610    5.9505
   20.625    5.8347
   20.640    6.0348
   20.655    6.0558
   20.670    5.8557
   20.685    5.6135
   20.700    5.9821
   20.715    5.9610
   20.730    6.0769
   20.745    5.8452
   20.760    6.0664
   20.775    6.1822
   20.790    6.0453
   20.805    5.4555
   20.820    6.2033
   20.835    6.2981
   20.850    5.8136
   20.865    5.7504
   20.880    6.2033
   20.895    5.9505
   20.910    5.9821
   20.925    5.8031
   20.940    6.3191
   20.955    6.0664
   20.970    5.9610
   20.985    6.0137
   21.000    6.2454
   21.015    5.6977
   21.030    6.0453
   21.045    6.1611
   21.060    5.6135
   21.075    5.8452
   21.090    6.3296
   21.105    5.9821
   21.120    5.4976
   21.135    5.6240
   21.150    6.3928
   21.165    6.2033
   21.180    6.2770
   21.195    6.1085
   21.210    6.1295
   21.225    6.3086
   21.240    6.1295
   21.255    6.2138
   21.270    6.1085
   21.285    6.0137
   21.300    5.9400
   21.315    5.8031
   21.330    6.0032
   21.345    5.8136
   21.360    5.5608
   21.375    6.1927
   21.390    6.1295
   21.405    6.2665
   21.420    5.9610
   21.435    5.8557
   21.450    6.4034
   21.465    6.1506
   21.480    6.0874
   21.495    5.6661
   21.510    5.8978
   21.525    5.9821
   21.540    6.3718
   21.555    5.9926
   21.570    6.1295
   21.585    5.4871
   21.600    6.2665
   21.615    6.0874
   21.630    6.2138
   21.645    6.1822
   21.660    5.7925
   21.675    5.9294
   21.690    5.6767
   21.705    5.8031
   21.720    6.0769
   21.735    5.8873
   21.750    6.2349
   21.765    6.0453
   21.780    6.0979
   21.795    6.1506
   21.810    6.4455
   21.825    6.5192
   21.840    6.1190
   21.855    6.0032
   21.870    5.8136
   21.885    6.1085
   21.900    6.1085
   21.915    6.0137
   21.930    5.9505
   21.945    5.9821
   21.960    6.1927
   21.975    6.0348
   21.990    5.8557
   22.005    6.2559
   22.020    5.9294
   22.035    6.1295
   22.050    6.2243
   22.065    6.4034
   22.080    6.1717
   22.095    6.1927
   22.110    6.1506
   22.125    6.1506
   22.140    5.7504
   22.155    6.1506
   22.170    6.4771
   22.185    6.1085
   22.200    6.0032
   22.215    5.9505
   22.230    6.0769
   22.245    5.7820
   22.260    5.8873
   22.275    5.7504
   22.290    6.0664
   22.305    5.9189
   22.320    5.9610
   22.335    5.9610
   22.350    5.9821
   22.365    5.8452
   22.380    5.7399
   22.395    6.2243
   22.410    6.0032
   22.425    5.6872
   22.440    5.8662
   22.455    5.6977
   22.470    6.2981
   22.485    6.1611
   22.500    6.4771
   22.515    6.4876
   22.530    6.4034
   22.545    6.1717
   22.560    6.1190
   22.575    6.1717
   22.590    6.5192
   22.605    6.2770
   22.620    6.2033
   22.635    5.8978
   22.650    5.8347
   22.665    6.0558
   22.680    6.1190
   22.695    6.3928
   22.710    6.3296
   22.725    6.1190
   22.740    6.1085
   22.755    6.1190
   22.770    5.9821
   22.785    6.0348
   22.800    5.7820
   22.815    6.1611
   22.830    6.1611
   22.845    5.8031
   22.860    5.8768
   22.875    6.3086
   22.890    6.2349
   22.905    6.2349
   22.920    6.0032
   22.935    6.0348
   22.950    6.1401
   22.965    5.9505
   22.980    5.6029
   22.995    5.8136
   23.010    5.9189
   23.025    6.1717
   23.040    6.0664
   23.055    6.1295
   23.070    6.3612
   23.085    6.1717
   23.100    5.9294
   23.115    5.8662
   23.130    5.8557
   23.145    6.0874
   23.160    6.0137
   23.175    6.5298
   23.190    6.2559
   23.205    6.0348
   23.220    5.8873
   23.235    5.9821
   23.250    6.0137
   23.265    5.8557
   23.280    5.8031
   23.295    6.0664
   23.310    6.0453
   23.325    6.2665
   23.340    6.3928
   23.355    6.3191
   23.370    6.5192
   23.385    6.0874
   23.400    6.1506
   23.415    6.1085
   23.430    5.8662
   23.445    6.0664
   23.460    6.3191
   23.475    6.0664
   23.490    6.0453
   23.505    5.7504
   23.520    6.3086
   23.535    6.3191
   23.550    6.1295
   23.565    6.1822
   23.580    5.8873
   23.595    5.9610
   23.610    6.2559
   23.625    5.9926
   23.640    5.8557
   23.655    5.8452
   23.670    6.1822
   23.685    6.1295
   23.700    6.0453
   23.715    5.6977
   23.730    5.8978
   23.745    6.3296
   23.760    5.9926
   23.775    6.0137
   23.790    6.1295
   23.805    6.0137
   23.820    6.0032
   23.835    5.9084
   23.850    6.2033
   23.865    6.3823
   23.880    5.7715
   23.895    5.5714
   23.910    5.7399
   23.925    6.1927
   23.940    5.8662
   23.955    6.0558
   23.970    5.7820
   23.985    5.8241
   24.000    5.7715
   24.015    5.9610
   24.030    5.8452
   24.045    5.8136
   24.060    5.8347
   24.075    5.6872
   24.090    6.1611
   24.105    6.0769
   24.120    5.8768
   24.135    5.6345
   24.150    5.6451
   24.165    5.6767
   24.180    5.8978
   24.195    5.7399
   24.210    6.1085
   24.225    5.4871
   24.240    5.9084
   24.255    5.8347
   24.270    5.7188
   24.285    5.6872
   24.300    5.8241
   24.315    5.7293
   24.330    5.8241
   24.345    6.0242
   24.360    5.9610
   24.375    5.9400
   24.390    5.8557
   24.405    5.6661
   24.420    5.6767
   24.435    5.7188
   24.450    5.9400
   24.465    5.7504
   24.480    5.8768
   24.495    5.9084
   24.510    6.1085
   24.525    5.7504
   24.540    6.0558
   24.555    5.9189
   24.570    5.5714
   24.585    5.8662
   24.600    5.8136
   24.615    5.7609
   24.630    5.8557
   24.645    6.0032
   24.660    5.4660
   24.675    5.6661
   24.690    5.8136
   24.705    5.9505
   24.720    5.9084
   24.735    5.9189
   24.750    5.7925
   24.765    5.9716
   24.780    5.8347
   24.795    5.7820
   24.810    6.1190
   24.825    5.8662
   24.840    5.8978
   24.855    5.9716
   24.870    5.8241
   24.885    5.8768
   24.900    6.0137
   24.915    5.7188
   24.930    5.6556
   24.945    5.3607
   24.960    5.4555
   24.975    5.9716
   24.990    6.0769
   25.005    6.0348
   25.020    5.7188
   25.035    5.7083
   25.050    5.4766
   25.065    5.5714
   25.080    5.9084
   25.095    5.8136
   25.110    5.9084
   25.125    5.7609
   25.140    5.7715
   25.155    5.5503
   25.170    5.5082
   25.185    5.8662
   25.200    5.8136
   25.215    5.7609
   25.230    5.8768
   25.245    5.6345
   25.260    5.6977
   25.275    5.5082
   25.290    5.6767
   25.305    5.0132
   25.320    5.2027
   25.335    5.8557
   25.350    5.4766
   25.365    5.5819
   25.380    5.6556
   25.395    5.6345
   25.410    5.7609
   25.425    5.8347
   25.440    5.8873
   25.455    5.7083
   25.470    5.7715
   25.485    5.8978
   25.500    5.5187
   25.515    5.6556
   25.530    5.4344
   25.545    5.5924
   25.560    5.7504
   25.575    6.0874
   25.590    5.5608
   25.605    6.0137
   25.620    5.2659
   25.635    5.6556
   25.650    5.6767
   25.665    5.4976
   25.680    5.2870
   25.695    5.5714
   25.710    5.8452
   25.725    5.6767
   25.740    5.8347
   25.755    5.5503
   25.770    5.5608
   25.785    5.9400
   25.800    6.1927
   25.815    5.6345
   25.830    5.4555
   25.845    5.5608
   25.860    5.6029
   25.875    5.5398
   25.890    5.4450
   25.905    5.6345
   25.920    5.5819
   25.935    5.3607
   25.950    5.2554
   25.965    5.5187
   25.980    5.4976
   25.995    5.5608
   26.010    5.5714
   26.025    5.9505
   26.040    6.1085
   26.055    5.8452
   26.070    5.8452
   26.085    5.6872
   26.100    5.3923
   26.115    5.4976
   26.130    5.6345
   26.145    5.6029
   26.160    5.5503
   26.175    5.7083
   26.190    5.3607
   26.205    5.3712
   26.220    5.6872
   26.235    5.7083
   26.250    5.5292
   26.265    5.8347
   26.280    5.7083
   26.295    5.4450
   26.310    5.4766
   26.325    5.7293
   26.340    5.8768
   26.355    5.8662
   26.370    5.4871
   26.385    5.6345
   26.400    5.5398
   26.415    5.4555
   26.430    5.4134
   26.445    5.4239
   26.460    5.4134
   26.475    5.6240
   26.490    5.1606
   26.505    5.6345
   26.520    5.2765
   26.535    5.3186
   26.550    5.4239
   26.565    5.4344
   26.580    5.4871
   26.595    5.4976
   26.610    5.2659
   26.625    5.2975
   26.640    5.3502
   26.655    5.4028
   26.670    5.6029
   26.685    5.5292
   26.700    5.8347
   26.715    5.5292
   26.730    5.3712
   26.745    5.4239
   26.760    5.2554
   26.775    5.2765
   26.790    5.5187
   26.805    5.4450
   26.820    5.3712
   26.835    5.2765
   26.850    5.3923
   26.865    5.3712
   26.880    5.2449
   26.895    5.7293
   26.910    5.3291
   26.925    5.1080
   26.940    5.4134
   26.955    5.2870
   26.970    5.2027
   26.985    5.2238
   27.000    4.9394
   27.015    5.1922
   27.030    5.2449
   27.045    5.5924
   27.060    5.6661
   27.075    5.6345
   27.090    5.6029
   27.105    5.4028
   27.120    5.1606
   27.135    5.4766
   27.150    5.4871
   27.165    5.7188
   27.180    5.3712
   27.195    5.3081
   27.210    5.7188
   27.225    5.5292
   27.240    5.2765
   27.255    5.3502
   27.270    5.5608
   27.285    5.5398
   27.300    5.3923
   27.315    5.3397
   27.330    5.1290
   27.345    5.5503
   27.360    5.0132
   27.375    5.2449
   27.390    5.3607
   27.405    5.5292
   27.420    5.4450
   27.435    5.7293
   27.450    5.0764
   27.465    5.0974
   27.480    4.9394
   27.495    5.0553
   27.510    5.3081
   27.525    5.2975
   27.540    5.0869
   27.555    5.4871
   27.570    5.3397
   27.585    4.9605
   27.600    5.2343
   27.615    5.4134
   27.630    5.4028
   27.645    5.4871
   27.660    5.3712
   27.675    5.2027
   27.690    4.9816
   27.705    5.3081
   27.720    5.1185
   27.735    4.8552
   27.750    5.4028
   27.765    5.0132
   27.780    5.1501
   27.795    5.4134
   27.810    5.2343
   27.825    5.3712
   27.840    5.2343
   27.855    5.2027
   27.870    5.2975
   27.885    5.7083
   27.900    5.3502
   27.915    5.6977
   27.930    5.3712
   27.945    5.4134
   27.960    5.7293
   27.975    5.3712
   27.990    5.3291
   28.005    5.4450
   28.020    5.3502
   28.035    5.6240
   28.050    5.5292
   28.065    5.0764
   28.080    5.3502
   28.095    5.4660
   28.110    5.6029
   28.125    5.1290
   28.140    4.8868
   28.155    4.9921
   28.170    5.0764
   28.185    5.5819
   28.200    5.3186
   28.215    5.0026
   28.230    5.2027
   28.245    5.1395
   28.260    4.9816
   28.275    5.1922
   28.290    5.2238
   28.305    5.3818
   28.320    5.3397
   28.335    5.3081
   28.350    5.3081
   28.365    5.2765
   28.380    5.4028
   28.395    5.3502
   28.410    5.4450
   28.425    5.3081
   28.440    5.2870
   28.455    4.9921
   28.470    5.1606
   28.485    5.3712
   28.500    5.0132
   28.515    5.0658
   28.530    5.3818
   28.545    5.5398
   28.560    5.3081
   28.575    4.9710
   28.590    5.1817
   28.605    4.9921
   28.620    5.0448
   28.635    5.1711
   28.650    5.2659
   28.665    4.9921
   28.680    5.5082
   28.695    5.1290
   28.710    5.2343
   28.725    5.2554
   28.740    5.0974
   28.755    5.1185
   28.770    5.2133
   28.785    5.1290
   28.800    5.5608
   28.815    4.9289
   28.830    5.2765
   28.845    5.4766
   28.860    5.3397
   28.875    5.1711
   28.890    4.8973
   28.905    4.9605
   28.920    5.4028
   28.935    5.4871
   28.950    5.3291
   28.965    5.2238
   28.980    5.2554
   28.995    5.3607
   29.010    5.3186
   29.025    5.2870
   29.040    4.8763
   29.055    4.9605
   29.070    5.3502
   29.085    5.5082
   29.100    5.3186
   29.115    4.9289
   29.130    4.9394
   29.145    4.8868
   29.160    5.1395
   29.175    5.0869
   29.190    4.9078
   29.205    5.0974
   29.220    5.1606
   29.235    4.8447
   29.250    4.8236
   29.265    5.1606
   29.280    5.1711
   29.295    5.1290
   29.310    5.1711
   29.325    5.1395
   29.340    4.8868
   29.355    5.1711
   29.370    5.1922
   29.385    5.0342
   29.400    5.6451
   29.415    5.2343
   29.430    5.3291
   29.445    5.2449
   29.460    4.7815
   29.475    4.8236
   29.490    4.8341
   29.505    5.1395
   29.520    5.0764
   29.535    5.0658
   29.550    5.3291
   29.565    5.0764
   29.580    4.9289
   29.595    5.3502
   29.610    5.2238
   29.625    4.8763
   29.640    5.2343
   29.655    4.9078
   29.670    5.2554
   29.685    4.8552
   29.700    4.7604
   29.715    5.2449
   29.730    5.0342
   29.745    4.8447
   29.760    4.8657
   29.775    4.7499
   29.790    4.7393
   29.805    4.9816
   29.820    5.0448
   29.835    5.1290
   29.850    4.9921
   29.865    4.9184
   29.880    4.8131
   29.895    5.1080
   29.910    5.1817
   29.925    4.6972
   29.940    5.1185
   29.955    5.0237
   29.970    5.0658
   29.985    4.8025
   30.000    5.0869
   30.015    5.0342
   30.030    4.9078
   30.045    4.9605
   30.060    5.3607
   30.075    4.7709
   30.090    4.7288
   30.105    5.2027
   30.120    5.2343
   30.135    4.6445
   30.150    5.0869
   30.165    4.8973
   30.180    4.8025
   30.195    4.4128
   30.210    4.6235
   30.225    4.9816
   30.240    4.7288
   30.255    4.9500
   30.270    4.9184
   30.285    4.7815
   30.300    4.7920
   30.315    5.1290
   30.330    5.1080
   30.345    4.8973
   30.360    4.6972
   30.375    4.7920
   30.390    4.9500
   30.405    5.0553
   30.420    4.8868
   30.435    4.9078
   30.450    5.0132
   30.465    5.0974
   30.480    5.0869
   30.495    5.0553
   30.510    5.0132
   30.525    5.1501
   30.540    4.8973
   30.555    4.8025
   30.570    5.1606
   30.585    4.6867
   30.600    4.7709
   30.615    4.7183
   30.630    4.7499
   30.645    4.6972
   30.660    4.9605
   30.675    4.9394
   30.690    4.8657
   30.705    4.4866
   30.720    4.5076
   30.735    4.8657
   30.750    4.6656
   30.765    4.9184
   30.780    4.7920
   30.795    4.8025
   30.810    4.8973
   30.825    4.7709
   30.840    5.0026
   30.855    4.9500
   30.870    4.8657
   30.885    5.1501
   30.900    4.8131
   30.915    4.9078
   30.930    4.8025
   30.945    5.0132
   30.960    4.8657
   30.975    4.6972
   30.990    4.8236
   31.005    4.5814
   31.020    4.6656
   31.035    5.1711
   31.050    5.1711
   31.065    4.7815
   31.080    4.8236
   31.095    4.9289
   31.110    4.9394
   31.125    4.6867
   31.140    4.8447
   31.155    4.4760
   31.170    4.8025
   31.185    4.7499
   31.200    4.4866
   31.215    4.7288
   31.230    4.6340
   31.245    4.5814
   31.260    4.6972
   31.275    4.7183
   31.290    4.7604
   31.305    4.5708
   31.320    4.6972
   31.335    4.9078
   31.350    4.7288
   31.365    4.8552
   31.380    4.8657
   31.395    4.6130
   31.410    4.8341
   31.425    4.9184
   31.440    4.8131
   31.455    4.7604
   31.470    5.1185
   31.485    4.7604
   31.500    4.8868
   31.515    4.9078
   31.530    4.9816
   31.545    4.7920
   31.560    4.8763
   31.575    5.0132
   31.590    4.6867
   31.605    4.6972
   31.620    4.7604
   31.635    5.0448
   31.650    4.7288
   31.665    4.3918
   31.680    4.6972
   31.695    4.7288
   31.710    4.9500
   31.725    4.9289
   31.740    4.6130
   31.755    5.1290
   31.770    4.7393
   31.785    4.9710
   31.800    4.9605
   31.815    4.8763
   31.830    4.8552
   31.845    4.9500
   31.860    4.9078
   31.875    4.7604
   31.890    5.0869
   31.905    4.8973
   31.920    4.9184
   31.935    4.8868
   31.950    4.8236
   31.965    4.5919
   31.980    4.9816
   31.995    4.9921
   32.010    4.9184
   32.025    5.2554
   32.040    5.3397
   32.055    5.0869
   32.070    5.0869
   32.085    4.8763
   32.100    5.2238
   32.115    4.7077
   32.130    4.7288
   32.145    4.9078
   32.160    4.9500
   32.175    4.7499
   32.190    4.8236
   32.205    4.6972
   32.220    4.9605
   32.235    4.6761
   32.250    4.5076
   32.265    4.4655
   32.280    4.3813
   32.295    4.6656
   32.310    4.5498
   32.325    4.7499
   32.340    4.5182
   32.355    4.5603
   32.370    4.6445
   32.385    4.6340
   32.400    4.4339
   32.415    4.5182
   32.430    4.2233
   32.445    4.7393
   32.460    4.7183
   32.475    4.6130
   32.490    4.3602
   32.505    4.3707
   32.520    4.3707
   32.535    4.2654
   32.550    4.5182
   32.565    5.1395
   32.580    4.7709
   32.595    4.6024
   32.610    4.8025
   32.625    4.6024
   32.640    4.4971
   32.655    4.4655
   32.670    4.8236
   32.685    4.5498
   32.700    4.5814
   32.715    4.3813
   32.730    4.9184
   32.745    4.4339
   32.760    4.3813
   32.775    4.3707
   32.790    4.4128
   32.805    4.6130
   32.820    4.3707
   32.835    4.4866
   32.850    4.2759
   32.865    4.5708
   32.880    4.4760
   32.895    4.5392
   32.910    4.6235
   32.925    4.5498
   32.940    4.2970
   32.955    4.6445
   32.970    4.4128
   32.985    4.3497
   33.000    4.3075
   33.015    4.5603
   33.030    4.5603
   33.045    4.2127
   33.060    4.1496
   33.075    4.3707
   33.090    4.4760
   33.105    4.6235
   33.120    4.3391
   33.135    4.1706
   33.150    4.3181
   33.165    4.2759
   33.180    4.5919
   33.195    4.6024
   33.210    4.4971
   33.225    4.4550
   33.240    4.4550
   33.255    4.6130
   33.270    4.2970
   33.285    4.2970
   33.300    4.2970
   33.315    4.2443
   33.330    4.3181
   33.345    4.3075
   33.360    4.3497
   33.375    4.2970
   33.390    4.2759
   33.405    4.4760
   33.420    4.2970
   33.435    4.7077
   33.450    4.5287
   33.465    4.2022
   33.480    4.3813
   33.495    4.3813
   33.510    4.3497
   33.525    4.5287
   33.540    4.5603
   33.555    4.5919
   33.570    4.3286
   33.585    4.4444
   33.600    4.3707
   33.615    4.5392
   33.630    4.1601
   33.645    4.3181
   33.660    4.3075
   33.675    4.2338
   33.690    4.4760
   33.705    4.6130
   33.720    4.5287
   33.735    4.3918
   33.750    4.5919
   33.765    4.5076
   33.780    4.2233
   33.795    4.3813
   33.810    4.6656
   33.825    4.7077
   33.840    4.8341
   33.855    4.7393
   33.870    4.4760
   33.885    4.1496
   33.900    4.2338
   33.915    4.4339
   33.930    4.3286
   33.945    4.4760
   33.960    4.5076
   33.975    4.1706
   33.990    4.1811
   34.005    4.8341
   34.020    4.7499
   34.035    4.7288
   34.050    4.6130
   34.065    4.4866
   34.080    4.3391
   34.095    4.2865
   34.110    4.4234
   34.125    4.4023
   34.140    4.4866
   34.155    4.7077
   34.170    4.1601
   34.185    4.4760
   34.200    4.2759
   34.215    4.1917
   34.230    4.1496
   34.245    4.3391
   34.260    4.6972
   34.275    4.5498
   34.290    4.3707
   34.305    4.4760
   34.320    4.2865
   34.335    4.0548
   34.350    4.2127
   34.365    4.1390
   34.380    4.2654
   34.395    4.3497
   34.410    4.1496
   34.425    4.3602
   34.440    4.4023
   34.455    4.5392
   34.470    4.4760
   34.485    4.6024
   34.500    4.3813
   34.515    4.2338
   34.530    4.1390
   34.545    4.2233
   34.560    4.3497
   34.575    4.2443
   34.590    4.3602
   34.605    4.2127
   34.620    4.1496
   34.635    4.2865
   34.650    4.5076
   34.665    4.2338
   34.680    4.2654
   34.695    4.3181
   34.710    4.5392
   34.725    4.3391
   34.740    4.1285
   34.755    4.0864
   34.770    4.0864
   34.785    4.0232
   34.800    4.3497
   34.815    4.3602
   34.830    4.2443
   34.845    4.2443
   34.860    4.1390
   34.875    4.4444
   34.890    4.4444
   34.905    4.5076
   34.920    4.4339
   34.935    4.0442
   34.950    4.0653
   34.965    3.9284
   34.980    4.2127
   34.995    4.2233
   35.010    4.0337
   35.025    4.0442
   35.040    4.2970
   35.055    4.1811
   35.070    4.0442
   35.085    3.9284
   35.100    4.2654
   35.115    3.9179
   35.130    3.9810
   35.145    4.1496
   35.160    4.2759
   35.175    4.0864
   35.190    3.9810
   35.205    4.1706
   35.220    4.3181
   35.235    4.0653
   35.250    3.9705
   35.265    4.3286
   35.280    4.4128
   35.295    4.4234
   35.310    4.1917
   35.325    3.8757
   35.340    4.1074
   35.355    4.0653
   35.370    4.1706
   35.385    4.4550
   35.400    4.3391
   35.415    4.3497
   35.430    4.2338
   35.445    4.0548
   35.460    4.2759
   35.475    4.2022
   35.490    3.9284
   35.505    3.9916
   35.520    4.0864
   35.535    4.1074
   35.550    3.9179
   35.565    4.0969
   35.580    4.1496
   35.595    4.1917
   35.610    4.1496
   35.625    3.9179
   35.640    4.2970
   35.655    4.1706
   35.670    4.0126
   35.685    4.0021
   35.700    4.0337
   35.715    4.2443
   35.730    4.1180
   35.745    4.2443
   35.760    4.1811
   35.775    4.0969
   35.790    4.0548
   35.805    3.9705
   35.820    4.3391
   35.835    4.1180
   35.850    4.1180
   35.865    4.2443
   35.880    4.0442
   35.895    4.1496
   35.910    3.9179
   35.925    4.0548
   35.940    3.9494
   35.955    3.7493
   35.970    4.2443
   35.985    4.2970
   36.000    4.0653
   36.015    4.2233
   36.030    4.0232
   36.045    4.0969
   36.060    3.9284
   36.075    4.0337
   36.090    4.0232
   36.105    3.8020
   36.120    4.0442
   36.135    3.9179
   36.150    3.8863
   36.165    4.0442
   36.180    4.1496
   36.195    4.0758
   36.210    4.0653
   36.225    3.9284
   36.240    4.0021
   36.255    4.1811
   36.270    4.0969
   36.285    3.9284
   36.300    3.9600
   36.315    4.0653
   36.330    4.0653
   36.345    3.9284
   36.360    3.8336
   36.375    4.0758
   36.390    4.0337
   36.405    4.3602
   36.420    4.3181
   36.435    3.9389
   36.450    4.0337
   36.465    3.8441
   36.480    4.0232
   36.495    3.9705
   36.510    3.8441
   36.525    3.8757
   36.540    4.1601
   36.555    4.0969
   36.570    4.0864
   36.585    3.9494
   36.600    3.8441
   36.615    3.5703
   36.630    3.9705
   36.645    4.2549
   36.660    3.9916
   36.675    3.9389
   36.690    3.9600
   36.705    3.9389
   36.720    3.8863
   36.735    3.9810
   36.750    3.9494
   36.765    3.8020
   36.780    3.9284
   36.795    4.2865
   36.810    4.0548
   36.825    3.8652
   36.840    3.8547
   36.855    3.7915
   36.870    3.8231
   36.885    3.9810
   36.900    4.3918
   36.915    4.1180
   36.930    3.9179
   36.945    3.9389
   36.960    4.0758
   36.975    4.0758
   36.990    3.8652
   37.005    3.9073
   37.020    4.0653
   37.035    3.9284
   37.050    4.1390
   37.065    3.9600
   37.080    3.9179
   37.095    3.8231
   37.110    4.0021
   37.125    3.9916
   37.140    4.1811
   37.155    3.9600
   37.170    4.0337
   37.185    4.2865
   37.200    4.0864
   37.215    3.8757
   37.230    3.9494
   37.245    4.1811
   37.260    3.9705
   37.275    3.7915
   37.290    3.8547
   37.305    3.7283
   37.320    3.7283
   37.335    3.8336
   37.350    3.8231
   37.365    4.0653
   37.380    3.8547
   37.395    3.6967
   37.410    3.8441
   37.425    3.9705
   37.440    3.7809
   37.455    4.2654
   37.470    3.8863
   37.485    4.0021
   37.500    4.0337
   37.515    3.8336
   37.530    3.9284
   37.545    4.0021
   37.560    3.9494
   37.575    4.0548
   37.590    4.1074
   37.605    4.1811
   37.620    4.0864
   37.635    3.8757
   37.650    3.7283
   37.665    3.8336
   37.680    3.6651
   37.695    3.8652
   37.710    4.0232
   37.725    4.2654
   37.740    3.8020
   37.755    3.6019
   37.770    3.7704
   37.785    3.8547
   37.800    4.0337
   37.815    4.2549
   37.830    4.2865
   37.845    4.2127
   37.860    4.0653
   37.875    3.8441
   37.890    4.1706
   37.905    3.7809
   37.920    3.8336
   37.935    3.5387
   37.950    3.8441
   37.965    4.0758
   37.980    3.9916
   37.995    4.0021
   38.010    4.0758
   38.025    3.7493
   38.040    3.6862
   38.055    3.9705
   38.070    3.8231
   38.085    3.8968
   38.100    3.7072
   38.115    3.8968
   38.130    3.6651
   38.145    3.9705
   38.160    4.0864
   38.175    3.7599
   38.190    3.7072
   38.205    3.5808
   38.220    3.8757
   38.235    3.9389
   38.250    4.0548
   38.265    4.0548
   38.280    3.8336
   38.295    4.0969
   38.310    3.8020
   38.325    4.1074
   38.340    4.0864
   38.355    3.9600
   38.370    3.8231
   38.385    4.1601
   38.400    4.1811
   38.415    3.8441
   38.430    3.9916
   38.445    3.8652
   38.460    4.1601
   38.475    4.2233
   38.490    3.9600
   38.505    4.1390
   38.520    4.0969
   38.535    3.7283
   38.550    3.6019
   38.565    3.8968
   38.580    3.9810
   38.595    4.0758
   38.610    3.9600
   38.625    3.9810
   38.640    3.9916
   38.655    3.7704
   38.670    3.9916
   38.685    3.7704
   38.700    3.9284
   38.715    3.8336
   38.730    4.2127
   38.745    4.2970
   38.760    3.9284
   38.775    3.9284
   38.790    3.7915
   38.805    4.0653
   38.820    3.8652
   38.835    3.8231
   38.850    4.0864
   38.865    4.0337
   38.880    3.8020
   38.895    3.8863
   38.910    4.0021
   38.925    3.7599
   38.940    3.7283
   38.955    3.9284
   38.970    4.2233
   38.985    4.0758
   39.000    3.8863
   39.015    3.9389
   39.030    3.9810
   39.045    3.8336
   39.060    4.1917
   39.075    3.9494
   39.090    3.8968
   39.105    4.1074
   39.120    3.8757
   39.135    3.7072
   39.150    4.0126
   39.165    4.2443
   39.180    3.7915
   39.195    3.9179
   39.210    3.7177
   39.225    3.7704
   39.240    4.2865
   39.255    4.1180
   39.270    3.9810
   39.285    3.9810
   39.300    3.8231
   39.315    3.6756
   39.330    3.7704
   39.345    3.7388
   39.360    3.8336
   39.375    4.1074
   39.390    3.9810
   39.405    3.8441
   39.420    3.6651
   39.435    3.7388
   39.450    4.0337
   39.465    3.8968
   39.480    3.7072
   39.495    3.8547
   39.510    3.5703
   39.525    3.9284
   39.540    3.8757
   39.555    3.6335
   39.570    3.7599
   39.585    3.8547
   39.600    3.9073
   39.615    4.0126
   39.630    3.8863
   39.645    3.6756
   39.660    3.9179
   39.675    3.4334
   39.690    3.9600
   39.705    4.0232
   39.720    3.9179
   39.735    3.8441
   39.750    3.5703
   39.765    3.8547
   39.780    3.8336
   39.795    3.7599
   39.810    3.6862
   39.825    3.9600
   39.840    3.7704
   39.855    3.8125
   39.870    3.9179
   39.885    3.3175
   39.900    3.9179
   39.915    3.8968
   39.930    3.7177
   39.945    3.6967
   39.960    4.0442
   39.975    3.9916
   39.990    3.9810
