    1.500   10.4265
    1.515   10.4265
    1.530   10.4371
    1.545   10.6898
    1.560   10.3739
    1.575    9.9210
    1.590    9.6893
    1.605    9.2364
    1.620    9.6367
    1.635    9.5419
    1.650    9.8157
    1.665    9.4892
    1.680    9.5524
    1.695    9.4576
    1.710    9.4260
    1.725    9.0469
    1.740    9.0574
    1.755    9.2154
    1.770    9.2891
    1.785    8.7098
    1.800    9.0153
    1.815    8.5729
    1.830    8.3939
    1.845    8.0885
    1.860    8.2886
    1.875    8.6993
    1.890    8.3623
    1.905    8.6572
    1.920    8.1306
    1.935    8.2254
    1.950    8.2886
    1.965    7.6356
    1.980    8.0885
    1.995    8.0569
    2.010    7.7514
    2.025    8.0674
    2.040    7.5619
    2.055    7.7409
    2.070    7.4987
    2.085    7.9726
    2.100    7.8146
    2.115    7.9516
    2.130    7.8357
    2.145    7.9621
    2.160    7.5619
    2.175    7.7199
    2.190    7.0142
    2.205    7.3512
    2.220    7.5513
    2.235    7.9410
    2.250    7.5935
    2.265    7.7093
    2.280    7.0774
    2.295    6.8562
    2.310    7.1301
    2.325    7.2459
    2.340    7.1827
    2.355    6.8878
    2.370    7.0669
    2.385    7.3407
    2.400    7.6461
    2.415    7.3512
    2.430    7.6251
    2.445    6.9721
    2.460    7.5829
    2.475    7.1301
    2.490    7.0142
    2.505    7.4355
    2.520    7.0142
    2.535    6.9510
    2.550    6.6877
    2.565    7.3828
    2.580    7.1090
    2.595    6.9510
    2.610    7.0985
    2.625    7.0248
    2.640    6.8352
    2.655    6.9721
    2.670    6.7088
    2.685    6.8352
    2.700    6.9405
    2.715    7.2038
    2.730    7.3723
    2.745    7.4460
    2.760    7.4355
    2.775    7.5092
    2.790    7.3723
    2.805    7.4776
    2.820    7.3302
    2.835    7.4882
    2.850    7.6777
    2.865    7.8778
    2.880    7.5303
    2.895    7.8568
    2.910    7.8357
    2.925    7.8778
    2.940    7.6356
    2.955    7.6777
    2.970    7.9831
    2.985    8.3412
    3.000    8.2675
    3.015    8.4255
    3.030    8.8784
    3.045    8.9837
    3.060    9.3102
    3.075    9.5208
    3.090    9.4681
    3.105    9.5735
    3.120    9.9421
    3.135   10.5951
    3.150   11.3428
    3.165   11.4165
    3.180   11.0058
    3.195   11.1954
    3.210   11.7114
    3.225   12.3433
    3.240   12.3328
    3.255   12.4381
    3.270   13.1754
    3.285   13.9231
    3.300   15.1448
    3.315   16.0506
    3.330   16.5561
    3.345   17.1775
    3.360   18.1675
    3.375   18.9784
    3.390   19.2733
    3.405   20.9268
    3.420   21.4007
    3.435   22.0432
    3.450   22.2644
    3.465   22.2222
    3.480   22.1696
    3.495   21.3375
    3.510   20.4845
    3.525   19.3576
    3.540   17.6198
    3.555   16.0295
    3.570   15.3028
    3.585   14.4602
    3.600   13.5650
    3.615   12.7014
    3.630   12.3328
    3.645   11.4903
    3.660   11.2270
    3.675   10.8689
    3.690   10.5740
    3.705   10.4371
    3.720   10.0369
    3.735   10.5108
    3.750   10.8057
    3.765   10.9215
    3.780   10.5845
    3.795   11.2480
    3.810   10.7214
    3.825   11.3323
    3.840   11.0058
    3.855   11.0058
    3.870   11.3217
    3.885   11.3112
    3.900   12.1432
    3.915   12.0800
    3.930   11.7746
    3.945   11.6482
    3.960   11.6377
    3.975   11.6061
    3.990   11.7852
    4.005   12.3117
    4.020   11.6588
    4.035   11.5008
    4.050   12.3328
    4.065   11.9115
    4.080   11.9115
    4.095   12.1432
    4.110   12.1116
    4.125   12.1011
    4.140   11.6904
    4.155   11.5429
    4.170   11.7220
    4.185   11.3323
    4.200   11.1006
    4.215   10.9847
    4.230   10.7320
    4.245   10.6161
    4.260   10.0474
    4.275    9.9947
    4.290    9.0153
    4.305    9.0995
    4.320    9.2470
    4.335    8.7730
    4.350    9.0679
    4.365    8.4044
    4.380    8.5413
    4.395    8.1622
    4.410    7.9516
    4.425    7.8357
    4.440    8.0779
    4.455    7.4355
    4.470    7.2143
    4.485    7.1195
    4.500    7.1722
    4.515    6.9932
    4.530    7.0142
    4.545    7.2354
    4.560    7.0879
    4.575    6.6245
    4.590    6.6561
    4.605    6.4244
    4.620    6.0558
    4.635    6.5403
    4.650    6.5298
    4.665    6.5824
    4.680    6.8246
    4.695    6.6772
    4.710    6.1717
    4.725    6.4982
    4.740    6.5403
    4.755    6.6351
    4.770    6.7509
    4.785    6.1085
    4.800    6.3718
    4.815    6.6245
    4.830    6.8141
    4.845    6.5508
    4.860    6.5929
    4.875    6.9089
    4.890    6.6667
    4.905    6.3612
    4.920    6.4771
    4.935    6.4034
    4.950    6.4560
    4.965    6.4771
    4.980    6.5192
    4.995    6.4455
    5.010    6.5192
    5.025    7.2459
    5.040    6.6561
    5.055    7.0458
    5.070    6.6561
    5.085    6.5719
    5.100    6.6877
    5.115    6.8141
    5.130    6.7720
    5.145    6.5298
    5.160    7.1406
    5.175    7.2775
    5.190    7.0669
    5.205    7.2880
    5.220    7.4250
    5.235    7.0248
    5.250    6.9826
    5.265    6.7825
    5.280    7.2459
    5.295    6.9826
    5.310    6.9405
    5.325    7.2880
    5.340    7.8884
    5.355    7.5619
    5.370    7.8989
    5.385    7.3723
    5.400    7.4460
    5.415    7.2459
    5.430    7.7304
    5.445    8.1095
    5.460    7.9094
    5.475    7.7725
    5.490    8.0569
    5.505    7.3512
    5.520    7.6567
    5.535    7.9305
    5.550    7.7936
    5.565    7.7409
    5.580    7.9410
    5.595    7.8252
    5.610    7.0879
    5.625    7.7830
    5.640    7.7199
    5.655    7.1933
    5.670    7.2459
    5.685    7.3091
    5.700    7.4671
    5.715    7.5303
    5.730    7.6356
    5.745    6.9194
    5.760    7.0142
    5.775    7.0774
    5.790    6.6983
    5.805    7.0142
    5.820    7.1722
    5.835    6.4455
    5.850    6.5719
    5.865    6.6140
    5.880    6.6772
    5.895    6.6456
    5.910    6.5613
    5.925    6.1295
    5.940    6.2243
    5.955    5.8978
    5.970    6.1822
    5.985    6.6140
    6.000    6.6245
    6.015    6.3823
    6.030    6.3402
    6.045    5.9716
    6.060    5.8557
    6.075    6.3823
    6.090    6.0032
    6.105    5.9716
    6.120    6.0137
    6.135    5.9294
    6.150    6.0979
    6.165    6.1506
    6.180    6.1085
    6.195    6.1717
    6.210    6.0558
    6.225    5.9610
    6.240    5.8031
    6.255    6.1822
    6.270    5.7504
    6.285    6.2033
    6.300    5.9189
    6.315    5.8873
    6.330    5.8452
    6.345    5.9716
    6.360    5.9400
    6.375    5.7293
    6.390    5.7293
    6.405    5.8452
    6.420    5.5082
    6.435    5.6029
    6.450    5.6029
    6.465    5.7188
    6.480    5.7083
    6.495    5.8241
    6.510    5.6767
    6.525    5.7083
    6.540    5.8241
    6.555    5.6029
    6.570    5.4976
    6.585    5.2765
    6.600    5.7399
    6.615    5.7820
    6.630    5.4450
    6.645    5.5187
    6.660    5.7820
    6.675    5.7609
    6.690    5.5292
    6.705    5.6135
    6.720    5.6029
    6.735    5.7399
    6.750    5.8557
    6.765    5.9084
    6.780    5.5924
    6.795    6.0242
    6.810    6.2770
    6.825    5.6451
    6.840    5.9821
    6.855    6.0137
    6.870    5.9084
    6.885    6.0874
    6.900    6.2875
    6.915    6.5824
    6.930    6.5298
    6.945    6.4876
    6.960    6.5929
    6.975    6.9194
    6.990    6.8878
    7.005    6.7299
    7.020    6.4560
    7.035    6.4455
    7.050    5.9926
    7.065    6.1295
    7.080    5.6977
    7.095    5.7609
    7.110    5.9926
    7.125    5.8768
    7.140    5.6767
    7.155    5.5082
    7.170    5.4134
    7.185    5.5082
    7.200    5.1185
    7.215    5.5398
    7.230    5.2765
    7.245    5.2027
    7.260    5.2027
    7.275    4.7815
    7.290    4.6340
    7.305    4.6972
    7.320    5.1817
    7.335    5.3712
    7.350    5.0658
    7.365    5.2027
    7.380    5.4766
    7.395    5.2343
    7.410    4.8341
    7.425    4.9605
    7.440    4.9605
    7.455    4.9394
    7.470    4.6130
    7.485    5.0553
    7.500    5.1606
    7.515    4.8131
    7.530    4.7709
    7.545    4.6761
    7.560    4.9078
    7.575    4.9921
    7.590    5.0869
    7.605    4.8131
    7.620    4.8552
    7.635    4.7499
    7.650    5.1185
    7.665    4.7815
    7.680    4.9816
    7.695    5.0553
    7.710    4.7499
    7.725    5.0869
    7.740    4.8025
    7.755    4.5919
    7.770    4.4866
    7.785    4.6130
    7.800    4.9078
    7.815    5.0026
    7.830    4.6130
    7.845    4.6656
    7.860    4.9078
    7.875    4.8868
    7.890    4.7604
    7.905    4.7499
    7.920    4.2970
    7.935    4.9289
    7.950    5.0869
    7.965    4.5708
    7.980    4.6656
    7.995    4.7499
    8.010    4.7604
    8.025    4.8131
    8.040    4.6761
    8.055    4.8868
    8.070    5.1395
    8.085    4.6761
    8.100    4.7815
    8.115    4.8131
    8.130    4.9605
    8.145    4.8973
    8.160    4.7815
    8.175    4.6551
    8.190    4.8025
    8.205    4.9710
    8.220    4.8447
    8.235    4.8447
    8.250    4.6551
    8.265    4.9605
    8.280    5.1606
    8.295    4.9289
    8.310    4.5076
    8.325    4.5076
    8.340    4.4971
    8.355    4.7709
    8.370    4.4866
    8.385    4.6024
    8.400    5.0026
    8.415    4.7288
    8.430    4.5287
    8.445    4.4128
    8.460    4.6551
    8.475    4.8552
    8.490    4.8341
    8.505    4.4550
    8.520    4.6972
    8.535    4.6867
    8.550    4.6551
    8.565    4.6130
    8.580    4.4760
    8.595    4.6024
    8.610    4.5708
    8.625    4.5392
    8.640    4.7077
    8.655    4.2233
    8.670    4.3918
    8.685    4.5498
    8.700    4.1496
    8.715    4.4023
    8.730    4.3181
    8.745    4.4339
    8.760    4.5287
    8.775    4.5182
    8.790    3.9705
    8.805    4.2443
    8.820    4.5708
    8.835    4.8552
    8.850    4.3602
    8.865    4.5919
    8.880    4.2970
    8.895    4.1180
    8.910    3.8757
    8.925    4.0969
    8.940    3.9810
    8.955    4.0232
    8.970    4.2759
    8.985    4.3813
    9.000    4.1811
    9.015    4.4339
    9.030    4.0021
    9.045    3.9494
    9.060    4.1811
    9.075    4.1285
    9.090    4.1496
    9.105    4.0548
    9.120    4.1074
    9.135    4.0653
    9.150    4.1917
    9.165    4.1074
    9.180    4.0021
    9.195    3.9705
    9.210    4.0126
    9.225    4.2022
    9.240    3.9916
    9.255    4.0126
    9.270    4.0337
    9.285    4.1811
    9.300    4.0021
    9.315    4.2759
    9.330    4.2759
    9.345    4.0548
    9.360    4.0442
    9.375    3.9810
    9.390    4.1496
    9.405    3.8652
    9.420    3.9073
    9.435    4.0864
    9.450    4.0021
    9.465    4.0442
    9.480    4.1180
    9.495    3.9494
    9.510    4.2233
    9.525    4.0232
    9.540    3.9389
    9.555    3.9810
    9.570    4.0864
    9.585    4.1601
    9.600    3.7388
    9.615    3.9284
    9.630    4.1180
    9.645    4.0126
    9.660    4.2338
    9.675    4.0337
    9.690    4.0021
    9.705    3.8441
    9.720    3.7388
    9.735    4.2970
    9.750    4.0337
    9.765    4.1917
    9.780    4.5498
    9.795    4.0758
    9.810    3.9916
    9.825    3.9073
    9.840    4.0126
    9.855    4.0126
    9.870    3.8231
    9.885    3.7915
    9.900    3.9494
    9.915    4.0232
    9.930    4.0337
    9.945    4.0864
    9.960    3.9179
    9.975    4.0758
    9.990    4.0758
   10.005    3.9600
   10.020    3.9179
   10.035    4.0758
   10.050    4.1811
   10.065    3.7599
   10.080    3.9494
   10.095    4.0232
   10.110    3.8757
   10.125    4.0232
   10.140    3.8757
   10.155    3.9916
   10.170    3.8863
   10.185    4.1496
   10.200    3.8968
   10.215    4.1496
   10.230    4.1811
   10.245    3.8441
   10.260    3.7599
   10.275    3.6756
   10.290    4.0021
   10.305    4.2127
   10.320    4.0337
   10.335    4.4866
   10.350    4.2338
   10.365    3.7915
   10.380    4.0548
   10.395    3.9284
   10.410    4.0758
   10.425    4.2970
   10.440    3.9916
   10.455    4.4550
   10.470    4.3918
   10.485    4.4234
   10.500    4.2022
   10.515    4.4128
   10.530    4.4339
   10.545    4.4866
   10.560    4.0653
   10.575    4.2443
   10.590    4.2549
   10.605    4.2865
   10.620    4.0232
   10.635    4.1285
   10.650    4.1706
   10.665    4.0864
   10.680    4.2022
   10.695    3.9389
   10.710    4.1811
   10.725    4.1706
   10.740    4.3286
   10.755    4.1811
   10.770    4.3497
   10.785    4.5287
   10.800    4.2233
   10.815    4.1496
   10.830    4.1706
   10.845    4.2549
   10.860    4.2865
   10.875    4.3602
   10.890    4.0548
   10.905    3.9600
   10.920    4.1180
   10.935    4.3181
   10.950    4.1811
   10.965    4.1074
   10.980    4.3181
   10.995    4.3286
   11.010    4.5076
   11.025    4.3075
   11.040    4.2865
   11.055    4.5708
   11.070    3.9810
   11.085    4.3813
   11.100    4.1811
   11.115    4.1285
   11.130    4.4023
   11.145    4.4128
   11.160    4.3497
   11.175    4.1390
   11.190    4.3075
   11.205    4.0864
   11.220    3.9179
   11.235    4.4866
   11.250    4.5182
   11.265    4.5498
   11.280    4.0548
   11.295    4.2654
   11.310    4.1074
   11.325    4.1496
   11.340    4.0337
   11.355    4.1706
   11.370    3.9284
   11.385    4.3181
   11.400    4.2759
   11.415    3.9389
   11.430    4.2127
   11.445    4.4128
   11.460    4.4128
   11.475    4.3602
   11.490    3.9073
   11.505    3.8441
   11.520    4.0548
   11.535    4.1706
   11.550    4.0758
   11.565    4.2549
   11.580    4.2338
   11.595    4.1496
   11.610    4.4866
   11.625    4.1601
   11.640    3.8125
   11.655    4.0021
   11.670    3.9916
   11.685    4.1811
   11.700    4.0969
   11.715    4.3286
   11.730    4.4023
   11.745    4.3602
   11.760    4.1390
   11.775    4.1706
   11.790    4.4866
   11.805    4.2338
   11.820    4.3707
   11.835    4.3707
   11.850    4.2970
   11.865    3.6967
   11.880    3.8968
   11.895    4.1074
   11.910    4.1496
   11.925    4.1811
   11.940    4.2127
   11.955    4.0653
   11.970    3.9073
   11.985    4.0653
   12.000    4.1496
   12.015    4.3286
   12.030    4.2022
   12.045    3.9073
   12.060    4.1496
   12.075    4.2970
   12.090    4.2443
   12.105    4.1285
   12.120    4.2549
   12.135    4.2022
   12.150    4.0653
   12.165    4.0021
   12.180    3.9284
   12.195    4.2127
   12.210    3.8336
   12.225    4.2338
   12.240    4.4128
   12.255    4.1496
   12.270    3.9389
   12.285    3.8757
   12.300    3.9179
   12.315    4.1601
   12.330    4.4234
   12.345    4.2443
   12.360    3.7493
   12.375    3.9810
   12.390    3.7072
   12.405    3.8863
   12.420    4.0232
   12.435    4.0126
   12.450    4.0969
   12.465    3.9494
   12.480    4.2127
   12.495    3.8125
   12.510    4.1074
   12.525    4.1917
   12.540    3.8231
   12.555    3.9389
   12.570    4.2022
   12.585    4.1390
   12.600    4.0653
   12.615    3.8863
   12.630    3.8968
   12.645    3.8757
   12.660    3.8863
   12.675    4.0548
   12.690    3.9494
   12.705    3.6546
   12.720    3.6546
   12.735    4.1706
   12.750    3.9705
   12.765    3.8441
   12.780    3.6335
   12.795    3.7704
   12.810    3.7177
   12.825    3.9179
   12.840    3.9810
   12.855    3.9705
   12.870    4.0969
   12.885    4.0232
   12.900    4.1390
   12.915    3.7177
   12.930    3.9284
   12.945    4.0232
   12.960    3.8652
   12.975    4.2022
   12.990    4.0126
   13.005    3.9600
   13.020    4.0021
   13.035    4.0337
   13.050    3.8863
   13.065    4.2759
   13.080    4.1390
   13.095    3.8336
   13.110    4.0548
   13.125    4.0548
   13.140    3.7599
   13.155    3.6019
   13.170    4.0021
   13.185    4.1180
   13.200    4.0758
   13.215    4.2549
   13.230    3.8968
   13.245    3.7177
   13.260    4.0021
   13.275    3.9916
   13.290    3.8125
   13.305    3.9916
   13.320    3.8863
   13.335    3.9179
   13.350    4.0548
   13.365    3.8863
   13.380    4.1811
   13.395    4.1285
   13.410    3.9600
   13.425    3.8231
   13.440    3.9284
   13.455    4.0758
   13.470    3.6651
   13.485    3.6756
   13.500    4.0548
   13.515    4.1601
   13.530    3.9389
   13.545    3.9705
   13.560    4.2233
   13.575    3.8547
   13.590    3.7177
   13.605    3.6967
   13.620    3.9073
   13.635    4.0021
   13.650    3.8547
   13.665    3.7599
   13.680    3.9389
   13.695    4.1706
   13.710    4.3286
   13.725    4.4444
   13.740    3.8125
   13.755    3.7283
   13.770    3.7493
   13.785    3.9600
   13.800    4.3181
   13.815    4.0126
   13.830    4.1180
   13.845    4.0864
   13.860    4.0864
   13.875    4.2338
   13.890    3.9916
   13.905    4.4339
   13.920    4.1074
   13.935    4.1180
   13.950    3.9494
   13.965    4.2233
   13.980    4.0337
   13.995    4.2759
   14.010    4.2233
   14.025    3.9916
   14.040    4.0758
   14.055    3.9494
   14.070    4.1180
   14.085    3.9600
   14.100    4.4339
   14.115    4.1285
   14.130    4.1496
   14.145    4.6340
   14.160    4.5919
   14.175    4.4866
   14.190    4.2549
   14.205    4.1811
   14.220    4.2970
   14.235    4.4760
   14.250    4.2127
   14.265    4.1706
   14.280    4.3181
   14.295    4.1706
   14.310    4.2443
   14.325    4.4339
   14.340    4.7709
   14.355    4.3707
   14.370    4.4128
   14.385    4.1390
   14.400    4.0337
   14.415    4.0758
   14.430    4.2127
   14.445    4.5076
   14.460    4.6024
   14.475    4.5076
   14.490    4.2443
   14.505    4.3286
   14.520    4.2549
   14.535    4.0653
   14.550    4.1496
   14.565    4.1180
   14.580    4.3602
   14.595    3.7809
   14.610    4.4023
   14.625    4.1496
   14.640    4.1811
   14.655    4.1074
   14.670    4.0337
   14.685    4.3602
   14.700    4.1811
   14.715    3.9389
   14.730    4.2759
   14.745    4.4128
   14.760    4.3286
   14.775    4.0126
   14.790    4.0758
   14.805    4.2549
   14.820    4.4866
   14.835    4.3181
   14.850    4.5392
   14.865    4.3075
   14.880    3.6546
   14.895    4.0864
   14.910    4.2970
   14.925    4.1285
   14.940    4.1496
   14.955    3.8757
   14.970    3.8968
   14.985    4.0548
   15.000    4.0548
   15.015    4.0442
   15.030    4.0653
   15.045    4.0232
   15.060    3.8547
   15.075    3.9179
   15.090    4.0021
   15.105    4.0337
   15.120    4.0337
   15.135    3.9600
   15.150    3.9494
   15.165    3.8547
   15.180    3.8968
   15.195    4.0232
   15.210    3.7493
   15.225    3.8020
   15.240    3.8336
   15.255    3.8968
   15.270    3.8020
   15.285    3.8441
   15.300    3.9389
   15.315    4.2759
   15.330    4.0337
   15.345    4.0864
   15.360    4.0969
   15.375    3.8968
   15.390    3.8336
   15.405    3.8547
   15.420    3.7177
   15.435    4.0021
   15.450    3.7072
   15.465    3.9810
   15.480    3.9389
   15.495    3.8231
   15.510    3.5598
   15.525    3.6651
   15.540    3.9389
   15.555    4.0969
   15.570    3.6230
   15.585    3.6651
   15.600    3.9389
   15.615    3.9073
   15.630    4.0442
   15.645    3.7072
   15.660    3.6967
   15.675    3.7704
   15.690    3.7177
   15.705    3.8863
   15.720    3.8547
   15.735    3.8652
   15.750    3.9284
   15.765    3.7493
   15.780    3.8757
   15.795    3.9705
   15.810    4.0758
   15.825    4.1917
   15.840    4.0442
   15.855    3.9705
   15.870    3.9916
   15.885    3.6230
   15.900    3.9073
   15.915    3.8652
   15.930    3.9179
   15.945    3.5071
   15.960    3.6546
   15.975    3.9179
   15.990    3.8441
   16.005    3.8968
   16.020    3.7177
   16.035    3.8863
   16.050    4.0442
   16.065    4.0021
   16.080    4.0126
   16.095    3.9705
   16.110    4.0758
   16.125    3.9705
   16.140    4.3391
   16.155    4.0337
   16.170    4.0758
   16.185    4.0126
   16.200    4.0653
   16.215    4.0232
   16.230    4.3602
   16.245    3.9284
   16.260    3.9179
   16.275    3.9073
   16.290    4.0442
   16.305    4.0864
   16.320    3.9284
   16.335    4.0548
   16.350    3.9810
   16.365    3.8547
   16.380    3.9389
   16.395    3.8020
   16.410    3.8863
   16.425    3.7599
   16.440    4.1917
   16.455    3.7599
   16.470    3.8020
   16.485    4.2443
   16.500    3.9600
   16.515    3.8125
   16.530    3.8547
   16.545    3.8336
   16.560    3.7915
   16.575    3.8336
   16.590    4.0232
   16.605    4.0442
   16.620    3.8547
   16.635    4.0758
   16.650    4.0232
   16.665    4.0548
   16.680    4.0653
   16.695    3.8231
   16.710    3.9389
   16.725    3.9389
   16.740    4.0653
   16.755    4.0021
   16.770    4.0653
   16.785    4.0969
   16.800    4.0653
   16.815    4.0126
   16.830    3.8652
   16.845    3.8441
   16.860    3.7283
   16.875    3.8125
   16.890    3.8125
   16.905    3.6967
   16.920    3.8757
   16.935    4.1496
   16.950    3.8863
   16.965    3.8231
   16.980    4.2654
   16.995    4.0021
   17.010    3.9389
   17.025    3.9810
   17.040    3.8547
   17.055    3.8020
   17.070    3.8125
   17.085    4.2022
   17.100    4.1285
   17.115    3.7704
   17.130    3.7809
   17.145    4.0969
   17.160    3.8231
   17.175    3.8231
   17.190    3.8547
   17.205    3.8231
   17.220    3.5492
   17.235    3.7915
   17.250    3.7599
   17.265    3.7177
   17.280    3.8125
   17.295    3.6440
   17.310    3.9073
   17.325    3.7177
   17.340    3.6756
   17.355    3.6651
   17.370    3.9073
   17.385    3.9073
   17.400    3.8441
   17.415    3.9810
   17.430    4.0021
   17.445    3.9916
   17.460    4.0126
   17.475    3.7493
   17.490    3.7072
   17.505    4.0021
   17.520    3.9073
   17.535    3.7809
   17.550    4.0021
   17.565    3.8863
   17.580    3.7599
   17.595    3.7915
   17.610    4.0442
   17.625    4.0126
   17.640    3.9179
   17.655    4.0548
   17.670    3.8968
   17.685    4.0337
   17.700    4.0442
   17.715    3.8336
   17.730    3.8231
   17.745    3.9179
   17.760    3.8652
   17.775    4.1390
   17.790    3.6651
   17.805    3.9705
   17.820    3.9705
   17.835    3.9284
   17.850    3.7915
   17.865    3.7599
   17.880    3.8968
   17.895    4.0548
   17.910    4.1811
   17.925    4.1074
   17.940    3.8652
   17.955    4.1601
   17.970    4.0232
   17.985    3.9810
   18.000    4.0021
   18.015    3.9284
   18.030    3.8757
   18.045    4.1496
   18.060    4.0653
   18.075    3.6019
   18.090    3.7177
   18.105    3.9284
   18.120    3.8231
   18.135    3.8231
   18.150    3.7599
   18.165    3.7072
   18.180    3.7388
   18.195    4.1601
   18.210    4.0232
   18.225    3.8863
   18.240    3.6651
   18.255    3.7177
   18.270    3.7599
   18.285    3.7704
   18.300    3.9389
   18.315    3.8336
   18.330    3.6124
   18.345    3.8231
   18.360    3.6967
   18.375    3.8231
   18.390    4.0548
   18.405    3.8020
   18.420    3.9810
   18.435    3.8863
   18.450    3.8020
   18.465    3.8020
   18.480    3.8968
   18.495    3.8441
   18.510    3.7599
   18.525    3.7599
   18.540    3.9284
   18.555    3.8757
   18.570    3.8863
   18.585    3.9916
   18.600    3.6546
   18.615    3.5598
   18.630    3.6651
   18.645    3.8441
   18.660    3.8125
   18.675    3.6862
   18.690    3.6756
   18.705    3.7493
   18.720    3.9916
   18.735    3.9705
   18.750    4.2338
   18.765    3.8547
   18.780    3.6651
   18.795    3.8547
   18.810    3.6546
   18.825    3.7072
   18.840    3.9494
   18.855    3.7388
   18.870    3.7915
   18.885    3.6967
   18.900    3.9179
   18.915    3.7072
   18.930    3.6651
   18.945    3.9179
   18.960    3.8336
   18.975    3.6756
   18.990    3.5282
   19.005    3.5808
   19.020    3.6335
   19.035    3.7283
   19.050    3.8336
   19.065    3.8441
   19.080    3.7809
   19.095    3.4018
   19.110    3.6862
   19.125    3.6335
   19.140    3.7388
   19.155    3.9600
   19.170    3.9284
   19.185    3.8125
   19.200    3.8757
   19.215    3.9284
   19.230    3.5808
   19.245    3.6546
   19.260    3.8863
   19.275    3.7915
   19.290    3.5071
   19.305    3.8863
   19.320    3.9600
   19.335    3.6651
   19.350    3.6967
   19.365    3.6546
   19.380    3.5914
   19.395    3.9073
   19.410    3.8863
   19.425    3.8441
   19.440    3.9179
   19.455    3.7493
   19.470    3.7599
   19.485    3.5808
   19.500    3.7388
   19.515    3.8231
   19.530    3.5598
   19.545    3.7283
   19.560    3.4229
   19.575    3.6546
   19.590    4.0232
   19.605    4.0126
   19.620    3.9389
   19.635    3.9284
   19.650    4.0653
   19.665    3.8863
   19.680    3.6651
   19.695    3.7283
   19.710    3.9073
   19.725    3.8863
   19.740    3.7704
   19.755    3.6019
   19.770    3.8336
   19.785    3.8020
   19.800    3.7072
   19.815    3.4755
   19.830    3.6546
   19.845    3.8125
   19.860    3.8020
   19.875    3.3597
   19.890    3.6967
   19.905    3.5808
   19.920    3.4650
   19.935    3.5282
   19.950    3.7388
   19.965    3.7493
   19.980    3.8336
   19.995    3.7072
   20.010    3.7177
   20.025    3.6546
   20.040    3.6862
   20.055    3.4860
   20.070    3.9494
   20.085    3.8547
   20.100    3.6546
   20.115    3.7599
   20.130    3.6440
   20.145    3.8125
   20.160    3.8441
   20.175    3.7493
   20.190    3.6230
   20.205    3.6967
   20.220    3.6546
   20.235    3.6546
   20.250    3.8231
   20.265    3.5492
   20.280    3.7915
   20.295    3.6019
   20.310    3.7177
   20.325    3.8757
   20.340    3.6651
   20.355    3.5176
   20.370    3.5492
   20.385    3.8231
   20.400    3.9916
   20.415    3.8336
   20.430    3.7599
   20.445    3.5387
   20.460    3.4544
   20.475    3.8863
   20.490    3.6862
   20.505    3.8441
   20.520    3.5808
   20.535    3.6651
   20.550    3.6862
   20.565    3.6019
   20.580    3.6019
   20.595    3.5071
   20.610    3.2965
   20.625    3.5598
   20.640    3.5808
   20.655    3.8125
   20.670    3.8547
   20.685    3.5282
   20.700    3.7388
   20.715    3.5703
   20.730    3.4544
   20.745    3.5071
   20.760    3.4755
   20.775    3.4123
   20.790    3.7704
   20.805    3.4966
   20.820    3.6546
   20.835    3.7493
   20.850    3.6651
   20.865    3.4334
   20.880    3.8863
   20.895    3.9073
   20.910    3.7809
   20.925    3.4966
   20.940    3.7072
   20.955    3.7809
   20.970    3.6756
   20.985    3.7283
   21.000    3.5703
   21.015    3.6019
   21.030    3.3913
   21.045    3.8231
   21.060    3.7177
   21.075    3.6124
   21.090    3.9810
   21.105    3.6440
   21.120    3.5176
   21.135    3.2543
   21.150    3.7599
   21.165    3.5598
   21.180    3.2859
   21.195    3.6230
   21.210    3.9284
   21.225    3.7493
   21.240    3.4334
   21.255    3.6651
   21.270    3.7072
   21.285    3.6440
   21.300    3.5914
   21.315    3.5703
   21.330    3.4334
   21.345    3.6335
   21.360    3.3807
   21.375    3.5282
   21.390    3.5387
   21.405    3.6862
   21.420    3.8757
   21.435    3.9494
   21.450    3.7177
   21.465    3.5598
   21.480    3.7388
   21.495    3.4650
   21.510    3.4860
   21.525    3.5703
   21.540    3.8020
   21.555    3.5808
   21.570    3.3386
   21.585    3.5598
   21.600    3.5387
   21.615    3.5914
   21.630    3.7072
   21.645    3.8125
   21.660    3.6756
   21.675    3.6546
   21.690    3.3491
   21.705    3.4860
   21.720    3.4860
   21.735    3.4123
   21.750    3.6967
   21.765    3.5492
   21.780    3.7599
   21.795    3.8125
   21.810    3.5914
   21.825    3.3386
   21.840    3.5282
   21.855    3.8863
   21.870    3.6230
   21.885    3.4860
   21.900    3.3491
   21.915    3.4229
   21.930    3.8968
   21.945    3.5914
   21.960    3.3913
   21.975    3.3807
   21.990    3.6335
   22.005    3.4123
   22.020    3.6651
   22.035    3.3491
   22.050    3.3491
   22.065    3.1280
   22.080    3.6335
   22.095    3.3070
   22.110    3.2859
   22.125    3.4544
   22.140    3.3281
   22.155    3.2965
   22.170    3.1174
   22.185    3.3807
   22.200    3.3913
   22.215    3.5598
   22.230    3.2438
   22.245    3.6335
   22.260    3.7388
   22.275    3.4966
   22.290    3.3070
   22.305    3.4018
   22.320    3.6440
   22.335    3.4439
   22.350    3.5598
   22.365    3.5282
   22.380    3.3175
   22.395    3.6230
   22.410    3.5282
   22.425    3.3913
   22.440    3.7072
   22.455    3.4544
   22.470    3.0858
   22.485    3.3807
   22.500    3.6230
   22.515    3.3491
   22.530    3.2333
   22.545    3.5808
   22.560    3.3597
   22.575    3.2859
   22.590    3.5071
   22.605    3.5703
   22.620    3.1806
   22.635    3.4860
   22.650    3.5914
   22.665    3.5598
   22.680    3.4229
   22.695    3.6019
   22.710    3.6651
   22.725    3.6756
   22.740    3.6440
   22.755    3.6651
   22.770    3.4860
   22.785    3.2859
   22.800    3.4439
   22.815    3.6230
   22.830    3.3807
   22.845    3.2122
   22.860    3.6019
   22.875    3.2754
   22.890    3.4123
   22.905    3.6335
   22.920    3.3702
   22.935    3.2438
   22.950    3.4439
   22.965    3.5598
   22.980    3.3175
   22.995    3.1701
   23.010    3.2543
   23.025    3.2859
   23.040    3.3913
   23.055    3.7493
   23.070    3.4966
   23.085    3.4650
   23.100    3.0753
   23.115    3.0753
   23.130    3.2017
   23.145    3.2965
   23.160    3.2965
   23.175    3.3386
   23.190    3.3281
   23.205    3.2649
   23.220    3.2543
   23.235    3.2122
   23.250    3.2333
   23.265    3.3070
   23.280    3.3070
   23.295    3.4755
   23.310    3.6230
   23.325    3.2438
   23.340    3.2965
   23.355    3.2017
   23.370    3.2017
   23.385    3.1806
   23.400    3.2543
   23.415    3.4229
   23.430    3.5492
   23.445    3.4439
   23.460    3.3597
   23.475    3.4439
   23.490    3.6756
   23.505    3.5282
   23.520    3.2543
   23.535    3.4860
   23.550    3.1280
   23.565    3.4439
   23.580    3.4334
   23.595    3.4334
   23.610    3.2017
   23.625    3.2965
   23.640    3.2227
   23.655    3.3491
   23.670    3.3597
   23.685    3.0121
   23.700    3.1174
   23.715    3.2333
   23.730    3.2859
   23.745    3.0858
   23.760    3.2543
   23.775    3.4650
   23.790    3.1806
   23.805    3.2438
   23.820    3.1280
   23.835    3.3175
   23.850    3.2965
   23.865    3.2543
   23.880    3.1174
   23.895    3.2649
   23.910    3.0858
   23.925    3.2017
   23.940    3.3175
   23.955    3.0648
   23.970    3.0542
   23.985    3.1596
   24.000    3.4334
   24.015    3.1701
   24.030    3.1701
   24.045    3.0648
   24.060    2.9910
   24.075    3.1596
   24.090    3.1912
   24.105    3.2649
   24.120    3.4544
   24.135    3.2227
   24.150    3.1174
   24.165    2.9384
   24.180    2.9595
   24.195    3.1069
   24.210    2.9279
   24.225    3.1912
   24.240    3.2333
   24.255    3.0226
   24.270    3.0964
   24.285    3.0964
   24.300    2.9489
   24.315    3.1174
   24.330    3.0858
   24.345    3.0437
   24.360    3.1701
   24.375    3.1806
   24.390    3.1912
   24.405    3.4123
   24.420    3.1174
   24.435    2.8963
   24.450    2.9700
   24.465    3.0858
   24.480    3.2649
   24.495    3.0753
   24.510    3.1490
   24.525    3.3491
   24.540    3.1806
   24.555    3.0648
   24.570    3.1174
   24.585    3.1385
   24.600    3.1490
   24.615    2.8541
   24.630    3.2543
   24.645    3.0753
   24.660    3.0121
   24.675    3.3807
   24.690    3.0753
   24.705    3.1174
   24.720    3.3597
   24.735    3.1912
   24.750    3.1174
   24.765    2.8436
   24.780    3.0437
   24.795    3.0648
   24.810    3.0648
   24.825    3.2017
   24.840    3.3807
   24.855    3.3597
   24.870    3.1174
   24.885    3.2649
   24.900    3.0226
   24.915    3.2333
   24.930    3.0016
   24.945    2.8225
   24.960    3.2965
   24.975    3.1069
   24.990    3.3175
   25.005    2.8752
   25.020    2.8857
   25.035    3.0437
   25.050    3.0226
   25.065    3.0226
   25.080    3.2438
   25.095    3.2333
   25.110    3.2859
   25.125    3.0648
   25.140    2.9173
   25.155    3.0121
   25.170    3.1701
   25.185    3.0964
   25.200    2.8857
   25.215    2.8331
   25.230    2.7278
   25.245    3.0858
   25.260    3.0226
   25.275    3.2333
   25.290    3.2543
   25.305    3.0121
   25.320    3.1280
   25.335    3.3491
   25.350    2.8963
   25.365    2.8752
   25.380    3.0121
   25.395    2.9173
   25.410    2.8015
   25.425    3.0437
   25.440    3.0753
   25.455    3.1596
   25.470    3.0964
   25.485    3.1701
   25.500    3.2649
   25.515    3.1701
   25.530    2.9595
   25.545    3.1174
   25.560    3.2754
   25.575    2.8120
   25.590    2.8963
   25.605    2.9489
   25.620    2.9384
   25.635    2.8120
   25.650    3.0121
   25.665    2.9595
   25.680    2.8225
   25.695    2.8647
   25.710    3.0332
   25.725    2.8541
   25.740    3.0121
   25.755    3.0226
   25.770    3.0121
   25.785    3.1385
   25.800    2.8015
   25.815    2.8647
   25.830    2.7278
   25.845    3.0753
   25.860    3.3702
   25.875    3.0964
   25.890    3.3913
   25.905    3.3491
   25.920    2.9384
   25.935    3.0226
   25.950    3.2122
   25.965    3.1596
   25.980    2.9279
   25.995    2.8120
   26.010    3.0753
   26.025    3.1701
   26.040    2.8752
   26.055    2.6962
   26.070    2.8857
   26.085    2.8225
   26.100    3.0016
   26.115    2.9384
   26.130    3.0332
   26.145    3.1385
   26.160    2.8752
   26.175    2.9384
   26.190    3.1701
   26.205    2.8541
   26.220    2.9595
   26.235    3.0332
   26.250    3.0648
   26.265    2.9805
   26.280    2.8436
   26.295    2.8331
   26.310    3.0542
   26.325    3.1806
   26.340    3.1912
   26.355    2.9068
   26.370    2.8963
   26.385    2.8857
   26.400    2.8752
   26.415    3.0016
   26.430    2.9279
   26.445    2.5592
   26.460    2.7488
   26.475    2.9068
   26.490    3.0121
   26.505    3.0226
   26.520    2.8857
   26.535    2.8963
   26.550    3.0542
   26.565    2.7909
   26.580    2.8225
   26.595    2.9595
   26.610    3.0332
   26.625    3.1490
   26.640    3.0016
   26.655    3.0542
   26.670    3.1912
   26.685    3.0753
   26.700    3.0964
   26.715    2.8963
   26.730    2.7278
   26.745    2.8857
   26.760    3.2438
   26.775    2.8331
   26.790    2.9700
   26.805    2.5171
   26.820    2.8541
   26.835    2.9489
   26.850    2.7067
   26.865    2.8015
   26.880    2.7699
   26.895    2.7067
   26.910    2.5908
   26.925    2.6330
   26.940    2.6014
   26.955    2.8963
   26.970    2.8963
   26.985    2.8331
   27.000    2.7067
   27.015    2.7488
   27.030    2.6330
   27.045    2.7067
   27.060    2.7383
   27.075    2.7488
   27.090    2.6330
   27.105    2.8331
   27.120    2.8752
   27.135    2.9279
   27.150    3.1069
   27.165    2.8541
   27.180    3.0016
   27.195    3.3175
   27.210    3.1280
   27.225    2.9068
   27.240    3.0332
   27.255    2.7383
   27.270    2.6330
   27.285    2.6962
   27.300    2.8015
   27.315    2.6962
   27.330    2.7593
   27.345    2.8120
   27.360    2.6962
   27.375    2.8015
   27.390    2.9173
   27.405    2.9384
   27.420    2.9068
   27.435    2.7593
   27.450    2.7909
   27.465    2.7593
   27.480    2.6435
   27.495    2.6856
   27.510    2.8541
   27.525    3.0016
   27.540    2.9173
   27.555    2.7909
   27.570    2.7909
   27.585    2.9068
   27.600    2.6014
   27.615    2.6330
   27.630    2.6435
   27.645    2.6119
   27.660    2.8120
   27.675    2.9700
   27.690    2.8120
   27.705    2.6962
   27.720    2.7804
   27.735    2.8120
   27.750    2.5276
   27.765    2.5276
   27.780    2.6014
   27.795    2.8120
   27.810    2.7699
   27.825    2.4329
   27.840    2.6435
   27.855    2.6751
   27.870    2.3802
   27.885    2.5698
   27.900    2.7699
   27.915    2.7804
   27.930    2.6646
   27.945    2.8015
   27.960    2.8015
   27.975    2.8436
   27.990    2.8120
   28.005    2.5908
   28.020    2.8752
   28.035    2.8963
   28.050    2.7383
   28.065    2.7699
   28.080    2.8015
   28.095    2.5698
   28.110    2.5908
   28.125    2.7067
   28.140    2.6224
   28.155    2.5276
   28.170    2.6014
   28.185    2.6330
   28.200    2.7172
   28.215    2.6646
   28.230    2.7593
   28.245    2.6330
   28.260    2.5066
   28.275    2.7488
   28.290    2.4855
   28.305    2.6962
   28.320    2.8857
   28.335    2.4961
   28.350    2.6330
   28.365    2.7067
   28.380    2.6224
   28.395    2.8436
   28.410    2.7172
   28.425    2.6224
   28.440    2.4750
   28.455    2.4329
   28.470    2.5908
   28.485    2.6751
   28.500    2.7278
   28.515    2.4118
   28.530    2.6014
   28.545    2.9173
   28.560    2.6224
   28.575    2.6540
   28.590    2.6435
   28.605    2.3065
   28.620    2.8857
   28.635    2.6646
   28.650    2.6224
   28.665    2.7383
   28.680    2.6540
   28.695    2.4434
   28.710    2.4118
   28.725    2.5908
   28.740    2.6751
   28.755    2.7278
   28.770    2.7172
   28.785    2.8647
   28.800    2.9384
   28.815    2.7804
   28.830    2.8331
   28.845    2.5803
   28.860    2.7172
   28.875    2.5066
   28.890    2.7172
   28.905    2.3907
   28.920    2.4118
   28.935    2.8015
   28.950    2.9489
   28.965    2.6751
   28.980    2.7278
   28.995    2.6330
   29.010    2.5171
   29.025    2.6119
   29.040    2.9068
   29.055    2.8647
   29.070    2.5592
   29.085    2.7593
   29.100    2.5487
   29.115    2.6751
   29.130    2.4961
   29.145    2.4329
   29.160    2.6119
   29.175    2.5908
   29.190    2.4645
   29.205    2.2959
   29.220    2.6646
   29.235    2.4645
   29.250    2.7909
   29.265    2.7383
   29.280    2.6856
   29.295    2.5066
   29.310    2.3802
   29.325    2.7278
   29.340    2.7278
   29.355    2.6119
   29.370    2.4434
   29.385    2.7172
   29.400    2.7909
   29.415    2.5066
   29.430    2.5908
   29.445    2.4539
   29.460    2.3486
   29.475    2.3065
   29.490    2.3907
   29.505    2.6014
   29.520    2.4013
   29.535    2.3591
   29.550    2.5487
   29.565    2.6962
   29.580    2.6435
   29.595    2.4223
   29.610    2.6751
   29.625    2.4223
   29.640    2.3275
   29.655    2.5171
   29.670    2.5592
   29.685    2.3170
   29.700    2.3486
   29.715    2.5698
   29.730    2.4855
   29.745    2.3591
   29.760    2.4750
   29.775    2.3065
   29.790    2.4329
   29.805    2.4434
   29.820    2.3486
   29.835    2.4329
   29.850    2.2117
   29.865    2.4539
   29.880    2.5908
   29.895    2.5171
   29.910    2.4118
   29.925    2.4013
   29.940    2.4961
   29.955    2.4645
   29.970    2.5803
   29.985    2.6330
   30.000    2.4539
   30.015    2.2854
   30.030    2.3907
   30.045    2.4013
   30.060    2.5592
   30.075    2.5066
   30.090    2.4645
   30.105    2.0642
   30.120    2.3381
   30.135    2.2433
   30.150    2.3591
   30.165    2.4013
   30.180    2.4855
   30.195    2.5487
   30.210    2.5276
   30.225    2.4329
   30.240    2.4645
   30.255    2.1906
   30.270    2.1906
   30.285    2.4118
   30.300    2.4539
   30.315    2.5803
   30.330    2.5171
   30.345    2.2854
   30.360    2.3907
   30.375    2.4434
   30.390    2.3275
   30.405    2.5276
   30.420    2.3802
   30.435    2.5698
   30.450    2.5698
   30.465    2.4855
   30.480    2.4855
   30.495    2.2959
   30.510    2.5066
   30.525    2.3907
   30.540    2.2959
   30.555    2.2854
   30.570    2.3486
   30.585    2.3802
   30.600    2.2538
   30.615    2.1274
   30.630    2.2538
   30.645    2.3591
   30.660    2.3065
   30.675    2.3065
   30.690    2.2538
   30.705    2.3065
   30.720    2.5382
   30.735    2.3170
   30.750    2.5698
   30.765    2.4645
   30.780    2.2117
   30.795    2.3170
   30.810    2.3275
   30.825    2.2012
   30.840    2.2328
   30.855    2.3697
   30.870    2.3170
   30.885    2.5066
   30.900    2.5066
   30.915    2.6224
   30.930    2.3170
   30.945    2.1169
   30.960    2.3591
   30.975    2.4645
   30.990    2.3802
   31.005    2.2854
   31.020    2.4750
   31.035    2.4013
   31.050    2.5908
   31.065    2.3486
   31.080    2.2012
   31.095    2.1064
   31.110    2.3802
   31.125    2.3907
   31.140    2.1485
   31.155    2.5066
   31.170    2.4539
   31.185    2.1485
   31.200    2.2222
   31.215    2.0432
   31.230    2.0116
   31.245    2.4013
   31.260    2.3486
   31.275    2.2643
   31.290    2.2012
   31.305    2.2433
   31.320    2.4750
   31.335    2.4750
   31.350    2.2328
   31.365    2.2959
   31.380    2.1485
   31.395    2.2959
   31.410    2.2117
   31.425    2.4539
   31.440    2.3697
   31.455    2.3065
   31.470    2.1169
   31.485    2.2538
   31.500    2.4434
   31.515    2.3591
   31.530    2.1801
   31.545    2.2854
   31.560    2.1380
   31.575    2.1906
   31.590    2.1274
   31.605    2.3486
   31.620    2.3802
   31.635    2.3381
   31.650    2.3802
   31.665    2.1064
   31.680    2.1906
   31.695    2.0748
   31.710    2.2012
   31.725    2.2433
   31.740    2.4961
   31.755    2.3486
   31.770    2.0748
   31.785    2.1380
   31.800    2.3275
   31.815    2.3486
   31.830    2.3170
   31.845    2.1696
   31.860    2.1485
   31.875    2.3170
   31.890    2.2222
   31.905    2.4118
   31.920    2.2643
   31.935    2.2749
   31.950    2.3697
   31.965    2.2854
   31.980    2.3275
   31.995    2.3381
   32.010    2.3170
   32.025    2.4329
   32.040    2.2643
   32.055    2.2854
   32.070    2.4118
   32.085    2.3907
   32.100    2.5698
   32.115    2.3065
   32.130    2.1696
   32.145    2.3697
   32.160    2.3907
   32.175    2.3381
   32.190    2.1906
   32.205    1.9379
   32.220    2.2117
   32.235    2.1169
   32.250    2.0958
   32.265    1.9379
   32.280    2.2012
   32.295    2.0432
   32.310    2.2328
   32.325    2.1169
   32.340    1.9063
   32.355    2.0748
   32.370    2.1801
   32.385    2.2854
   32.400    2.2749
   32.415    2.1064
   32.430    2.0221
   32.445    2.1696
   32.460    2.2538
   32.475    2.2959
   32.490    2.2222
   32.505    2.1485
   32.520    2.0537
   32.535    2.0537
   32.550    1.9905
   32.565    2.2328
   32.580    2.0326
   32.595    2.0432
   32.610    2.0116
   32.625    2.2222
   32.640    2.2012
   32.655    2.1380
   32.670    2.0221
   32.685    2.0116
   32.700    2.1169
   32.715    2.0116
   32.730    1.9063
   32.745    2.1064
   32.760    2.1485
   32.775    2.1274
   32.790    2.2854
   32.805    1.9800
   32.820    2.1064
   32.835    2.2117
   32.850    1.8747
   32.865    2.3486
   32.880    2.2643
   32.895    2.2117
   32.910    1.9379
   32.925    2.1801
   32.940    2.2433
   32.955    2.1801
   32.970    2.1696
   32.985    2.1485
   33.000    1.9379
   33.015    2.0011
   33.030    1.9484
   33.045    2.1169
   33.060    2.2222
   33.075    2.1485
   33.090    2.1064
   33.105    2.0748
   33.120    1.9905
   33.135    2.0642
   33.150    2.0537
   33.165    2.1169
   33.180    1.9800
   33.195    2.0958
   33.210    2.2117
   33.225    1.8747
   33.240    2.0116
   33.255    2.0432
   33.270    2.0748
   33.285    1.7588
   33.300    1.9063
   33.315    1.9168
   33.330    2.1801
   33.345    1.9589
   33.360    1.9063
   33.375    2.0432
   33.390    2.2117
   33.405    2.2433
   33.420    2.0432
   33.435    2.1696
   33.450    1.9379
   33.465    2.0537
   33.480    2.1064
   33.495    1.9589
   33.510    1.8325
   33.525    2.2117
   33.540    2.0116
   33.555    2.1590
   33.570    2.1590
   33.585    2.2117
   33.600    1.9168
   33.615    1.9063
   33.630    2.0326
   33.645    2.0221
   33.660    1.9905
   33.675    1.9379
   33.690    2.0011
   33.705    2.0116
   33.720    1.9484
   33.735    2.1696
   33.750    2.0432
   33.765    1.9273
   33.780    2.2328
   33.795    2.2117
   33.810    2.1696
   33.825    1.9800
   33.840    1.9484
   33.855    1.9589
   33.870    2.1906
   33.885    2.2749
   33.900    2.0221
   33.915    2.0537
   33.930    2.0642
   33.945    1.9905
   33.960    2.2222
   33.975    2.1064
   33.990    1.9695
   34.005    2.1169
   34.020    1.9168
   34.035    1.9379
   34.050    2.0221
   34.065    2.2117
   34.080    2.0853
   34.095    2.0642
   34.110    1.9063
   34.125    2.2117
   34.140    2.1064
   34.155    1.8852
   34.170    2.0221
   34.185    2.1801
   34.200    1.9695
   34.215    1.8220
   34.230    2.0116
   34.245    2.0853
   34.260    1.8957
   34.275    1.9063
   34.290    2.1380
   34.305    2.0116
   34.320    1.9589
   34.335    1.9589
   34.350    2.0432
   34.365    2.0221
   34.380    2.0432
   34.395    2.1274
   34.410    1.8852
   34.425    2.0116
   34.440    1.9379
   34.455    1.9800
   34.470    2.0116
   34.485    1.9063
   34.500    1.9905
   34.515    2.1380
   34.530    2.0958
   34.545    2.1064
   34.560    1.9800
   34.575    2.1801
   34.590    2.0748
   34.605    1.9168
   34.620    1.9379
   34.635    1.8536
   34.650    1.8431
   34.665    2.0958
   34.680    1.8747
   34.695    1.9695
   34.710    1.9800
   34.725    1.9168
   34.740    1.9905
   34.755    2.0958
   34.770    1.9905
   34.785    2.1906
   34.800    1.9484
   34.815    2.1485
   34.830    2.1906
   34.845    1.9905
   34.860    2.0011
   34.875    2.0958
   34.890    2.0326
   34.905    1.8641
   34.920    1.9484
   34.935    2.0642
   34.950    2.0011
   34.965    1.9273
   34.980    2.1064
   34.995    1.9800
   35.010    1.7904
   35.025    1.8957
   35.040    1.9589
   35.055    2.0853
   35.070    2.0221
   35.085    1.9063
   35.100    2.0748
   35.115    2.0221
   35.130    1.8431
   35.145    1.9589
   35.160    2.0853
   35.175    2.1485
   35.190    2.0011
   35.205    1.9379
   35.220    1.9905
   35.235    2.0537
   35.250    1.8747
   35.265    2.0748
   35.280    2.1906
   35.295    1.9063
   35.310    2.0537
   35.325    1.8536
   35.340    1.9695
   35.355    2.0958
   35.370    1.8641
   35.385    2.0748
   35.400    1.8115
   35.415    2.0642
   35.430    2.0116
   35.445    2.1064
   35.460    1.9379
   35.475    2.2117
   35.490    2.0958
   35.505    1.9905
   35.520    1.9800
   35.535    1.8009
   35.550    2.1696
   35.565    2.0221
   35.580    1.9379
   35.595    1.9379
   35.610    1.9905
   35.625    2.0958
   35.640    2.1274
   35.655    2.0116
   35.670    1.9168
   35.685    1.9273
   35.700    2.2012
   35.715    1.9273
   35.730    2.1169
   35.745    1.9905
   35.760    2.1064
   35.775    2.0011
   35.790    1.7167
   35.805    1.8115
   35.820    1.9484
   35.835    2.2433
   35.850    2.0537
   35.865    1.9589
   35.880    1.9589
   35.895    1.9063
   35.910    2.2328
   35.925    2.1801
   35.940    1.8957
   35.955    2.0221
   35.970    2.2643
   35.985    1.9800
   36.000    1.9273
   36.015    1.9905
   36.030    1.9379
   36.045    1.8852
   36.060    2.1064
   36.075    2.1590
   36.090    2.0326
   36.105    1.8957
   36.120    1.9063
   36.135    2.1696
   36.150    2.1485
   36.165    2.1169
   36.180    1.9379
   36.195    2.0432
   36.210    2.1064
   36.225    1.9273
   36.240    1.9905
   36.255    2.0221
   36.270    1.9695
   36.285    2.0748
   36.300    2.0748
   36.315    2.2538
   36.330    1.9273
   36.345    2.0116
   36.360    2.2222
   36.375    2.0432
   36.390    2.0011
   36.405    1.9063
   36.420    1.8325
   36.435    1.7062
   36.450    1.8957
   36.465    1.9800
   36.480    1.9589
   36.495    1.9905
   36.510    1.9695
   36.525    1.9905
   36.540    1.9905
   36.555    2.0432
   36.570    1.9379
   36.585    2.1064
   36.600    2.0853
   36.615    2.0326
   36.630    2.1380
   36.645    2.1590
   36.660    1.9484
   36.675    1.9484
   36.690    1.9273
   36.705    2.0221
   36.720    1.9379
   36.735    2.0432
   36.750    1.7799
   36.765    1.8325
   36.780    1.7272
   36.795    1.8220
   36.810    2.0537
   36.825    1.8431
   36.840    2.0116
   36.855    2.1169
   36.870    1.9063
   36.885    1.9168
   36.900    1.9695
   36.915    1.8431
   36.930    2.0011
   36.945    1.9063
   36.960    2.1169
   36.975    1.9800
   36.990    1.8641
   37.005    2.0326
   37.020    1.8641
   37.035    1.8431
   37.050    2.0011
   37.065    1.8957
   37.080    1.9695
   37.095    1.9800
   37.110    2.0221
   37.125    2.0432
   37.140    2.1064
   37.155    2.2117
   37.170    2.0221
   37.185    1.8220
   37.200    1.8431
   37.215    2.1590
   37.230    1.9484
   37.245    2.1274
   37.260    1.9273
   37.275    1.9273
   37.290    2.1064
   37.305    1.9484
   37.320    2.0011
   37.335    1.9168
   37.350    1.9168
   37.365    1.9695
   37.380    2.0537
   37.395    1.9484
   37.410    1.9484
   37.425    1.8431
   37.440    1.9905
   37.455    1.8325
   37.470    1.9484
   37.485    2.0642
   37.500    1.7799
   37.515    1.8536
   37.530    1.8747
   37.545    1.9379
   37.560    2.1169
   37.575    1.9905
   37.590    1.8852
   37.605    1.9379
   37.620    1.9905
   37.635    1.8852
   37.650    1.8115
   37.665    2.0537
   37.680    1.9273
   37.695    1.8641
   37.710    1.8431
   37.725    2.0853
   37.740    2.1169
   37.755    1.7904
   37.770    2.0011
   37.785    1.8957
   37.800    1.8325
   37.815    2.1380
   37.830    2.0748
   37.845    1.7378
   37.860    1.8009
   37.875    1.8747
   37.890    2.0748
   37.905    2.0853
   37.920    1.8220
   37.935    1.7588
   37.950    2.0853
   37.965    1.8852
   37.980    2.0011
   37.995    1.9800
   38.010    1.8220
   38.025    1.9379
   38.040    1.8009
   38.055    1.8641
   38.070    1.8115
   38.085    1.8325
   38.100    1.8431
   38.115    1.7167
   38.130    2.0011
   38.145    1.9273
   38.160    1.7799
   38.175    1.9905
   38.190    2.0432
   38.205    2.0748
   38.220    1.9168
   38.235    2.0748
   38.250    2.0116
   38.265    1.8747
   38.280    2.0748
   38.295    2.1696
   38.310    2.1696
   38.325    2.0116
   38.340    1.7799
   38.355    1.8325
   38.370    2.1801
   38.385    1.8536
   38.400    1.9905
   38.415    2.0432
   38.430    2.0642
   38.445    2.0221
   38.460    2.0326
   38.475    1.9063
   38.490    1.8325
   38.505    1.8957
   38.520    2.1064
   38.535    1.8536
   38.550    1.9589
   38.565    1.8009
   38.580    1.8852
   38.595    1.7272
   38.610    1.9905
   38.625    1.7694
   38.640    1.6851
   38.655    1.8431
   38.670    1.9695
   38.685    1.8747
   38.700    1.9589
   38.715    2.0853
   38.730    1.8641
   38.745    1.8431
   38.760    2.0537
   38.775    1.6535
   38.790    1.8115
   38.805    1.9800
   38.820    2.0011
   38.835    1.9589
   38.850    1.9273
   38.865    2.0116
   38.880    1.9273
   38.895    2.1801
   38.910    2.1274
   38.925    2.0642
   38.940    1.8536
   38.955    1.8325
   38.970    1.9905
   38.985    1.6746
   39.000    1.9063
   39.015    2.0853
   39.030    1.8852
   39.045    1.8009
   39.060    1.8747
   39.075    1.8325
   39.090    2.0011
   39.105    1.9273
   39.120    2.0326
   39.135    1.9273
   39.150    2.0432
   39.165    1.8536
   39.180    1.8325
   39.195    1.8957
   39.210    2.1485
   39.225    2.0011
   39.240    1.8009
   39.255    1.8009
   39.270    1.9695
   39.285    1.9905
   39.300    1.8957
   39.315    2.0853
   39.330    1.8957
   39.345    2.0432
   39.360    1.9273
   39.375    2.1064
   39.390    2.1274
   39.405    2.0326
   39.420    1.8747
   39.435    1.8747
   39.450    2.1064
   39.465    2.1906
   39.480    1.8536
   39.495    1.9273
   39.510    1.8536
   39.525    2.0537
   39.540    1.7904
   39.555    1.8325
   39.570    1.8009
   39.585    1.9484
   39.600    1.8747
   39.615    1.8641
   39.630    1.9168
   39.645    1.9273
   39.660    1.8641
   39.675    1.9589
   39.690    1.9379
   39.705    2.1169
   39.720    1.8009
   39.735    1.8431
   39.750    2.0853
   39.765    2.0853
   39.780    1.8009
   39.795    1.7062
   39.810    1.8747
   39.825    1.8747
   39.840    1.8115
   39.855    1.8536
   39.870    1.8115
   39.885    1.9589
   39.900    1.9484
   39.915    2.0958
   39.930    1.8957
   39.945    1.9379
   39.960    1.8115
   39.975    1.8957
   39.990    1.8747
