    1.500   10.0053
    1.515   10.0895
    1.530    9.9105
    1.545    9.7525
    1.560    9.9842
    1.575    9.7314
    1.590    9.7946
    1.605    9.6472
    1.620    9.5419
    1.635    9.1627
    1.650    9.5945
    1.665    9.4260
    1.680    8.9837
    1.695    9.1311
    1.710    9.6367
    1.725    9.3944
    1.740    9.1101
    1.755    9.4260
    1.770    8.7520
    1.785    9.2996
    1.800    9.3312
    1.815    9.1838
    1.830    9.1838
    1.845    8.8046
    1.860    8.6151
    1.875    8.5097
    1.890    8.6888
    1.905    8.9521
    1.920    9.0258
    1.935    8.7414
    1.950    8.7836
    1.965    8.5308
    1.980    8.4676
    1.995    8.5203
    2.010    8.7730
    2.025    8.2991
    2.040    8.6151
    2.055    8.8784
    2.070    8.4150
    2.085    8.6045
    2.100    8.6361
    2.115    8.3939
    2.130    8.5097
    2.145    8.2991
    2.160    8.4360
    2.175    8.4044
    2.190    8.2991
    2.205    8.1622
    2.220    8.4887
    2.235    8.3412
    2.250    8.3623
    2.265    8.5097
    2.280    8.8046
    2.295    8.3412
    2.310    8.2359
    2.325    8.3834
    2.340    8.4150
    2.355    8.4466
    2.370    8.2675
    2.385    8.1622
    2.400    8.2780
    2.415    8.0358
    2.430    8.5308
    2.445    8.4676
    2.460    8.3412
    2.475    8.1517
    2.490    8.4887
    2.505    8.5519
    2.520    8.3096
    2.535    8.3096
    2.550    8.4044
    2.565    8.3412
    2.580    8.2886
    2.595    8.2254
    2.610    8.2043
    2.625    8.0569
    2.640    7.9094
    2.655    8.4781
    2.670    8.5835
    2.685    8.3623
    2.700    8.5308
    2.715    8.4676
    2.730    8.0569
    2.745    7.8989
    2.760    7.8146
    2.775    8.4044
    2.790    8.3096
    2.805    8.3834
    2.820    8.4992
    2.835    8.3939
    2.850    7.8146
    2.865    8.1833
    2.880    7.9305
    2.895    8.2886
    2.910    8.2570
    2.925    7.9200
    2.940    8.1833
    2.955    8.3623
    2.970    8.1306
    2.985    8.1622
    3.000    7.9937
    3.015    8.0253
    3.030    8.0990
    3.045    8.2359
    3.060    8.1622
    3.075    8.3728
    3.090    8.2886
    3.105    7.9831
    3.120    8.4150
    3.135    8.7098
    3.150    8.3202
    3.165    8.2570
    3.180    8.3412
    3.195    8.5729
    3.210    8.3518
    3.225    8.1411
    3.240    8.2464
    3.255    8.0569
    3.270    8.4781
    3.285    8.4044
    3.300    8.0885
    3.315    8.5519
    3.330    8.4360
    3.345    8.6151
    3.360    7.9305
    3.375    8.1833
    3.390    7.9621
    3.405    8.2991
    3.420    8.5835
    3.435    8.0147
    3.450    8.0253
    3.465    8.1622
    3.480    8.1411
    3.495    8.7309
    3.510    8.7098
    3.525    8.3202
    3.540    8.0779
    3.555    8.6993
    3.570    8.6783
    3.585    8.4150
    3.600    8.0147
    3.615    8.2675
    3.630    8.3834
    3.645    8.4992
    3.660    8.2886
    3.675    8.0253
    3.690    8.3939
    3.705    8.2464
    3.720    8.2991
    3.735    8.1306
    3.750    8.2359
    3.765    8.2464
    3.780    8.3412
    3.795    8.4044
    3.810    8.4360
    3.825    8.6993
    3.840    8.3307
    3.855    8.4255
    3.870    8.5097
    3.885    8.5308
    3.900    8.2570
    3.915    8.7836
    3.930    8.9942
    3.945    8.7098
    3.960    8.6361
    3.975    8.8152
    3.990    8.5097
    4.005    8.9837
    4.020    8.4887
    4.035    8.4887
    4.050    8.4887
    4.065    8.9837
    4.080    8.7625
    4.095    8.3939
    4.110    8.6361
    4.125    8.5308
    4.140    8.7309
    4.155    8.5308
    4.170    8.9205
    4.185    8.4360
    4.200    8.5519
    4.215    8.5097
    4.230    8.5308
    4.245    8.8994
    4.260    8.5519
    4.275    8.1938
    4.290    8.6256
    4.305    8.5203
    4.320    8.5940
    4.335    8.5413
    4.350    8.4887
    4.365    8.2570
    4.380    8.2149
    4.395    8.8678
    4.410    8.7941
    4.425    8.9626
    4.440    9.1838
    4.455    8.7414
    4.470    8.4150
    4.485    8.6888
    4.500    9.1311
    4.515    8.5624
    4.530    8.8678
    4.545    8.8257
    4.560    8.4887
    4.575    8.1306
    4.590    8.9731
    4.605    8.3307
    4.620    8.6361
    4.635    8.8468
    4.650    8.7625
    4.665    8.9100
    4.680    8.7520
    4.695    8.8994
    4.710    8.8362
    4.725    8.8152
    4.740    8.6467
    4.755    8.6572
    4.770    8.4887
    4.785    8.2359
    4.800    8.4781
    4.815    8.4466
    4.830    8.9205
    4.845    8.7414
    4.860    8.4044
    4.875    8.3939
    4.890    8.5203
    4.905    8.6572
    4.920    8.6467
    4.935    9.1311
    4.950    8.8784
    4.965    9.2680
    4.980    8.4360
    4.995    8.4887
    5.010    9.0890
    5.025    8.5940
    5.040    8.4466
    5.055    8.4466
    5.070    8.7204
    5.085    8.6783
    5.100    8.7625
    5.115    8.3412
    5.130    8.9521
    5.145    8.6151
    5.160    8.8994
    5.175    9.2680
    5.190    8.7730
    5.205    8.7730
    5.220    8.8046
    5.235    8.6888
    5.250    8.5940
    5.265    8.4676
    5.280    8.4571
    5.295    9.0890
    5.310    8.7730
    5.325    8.6572
    5.340    8.6151
    5.355    8.6467
    5.370    8.7625
    5.385    8.2570
    5.400    8.4150
    5.415    8.9415
    5.430    8.9837
    5.445    8.1306
    5.460    8.5940
    5.475    8.7836
    5.490    8.4360
    5.505    8.7941
    5.520    8.4676
    5.535    8.8468
    5.550    8.9626
    5.565    8.7625
    5.580    8.6256
    5.595    8.4887
    5.610    9.2048
    5.625    8.7204
    5.640    8.3412
    5.655    8.7204
    5.670    8.6677
    5.685    8.2570
    5.700    8.9100
    5.715    8.6045
    5.730    8.8573
    5.745    8.7941
    5.760    8.4466
    5.775    8.3202
    5.790    8.4781
    5.805    8.4571
    5.820    8.8257
    5.835    8.7204
    5.850    8.7204
    5.865    8.6993
    5.880    8.2780
    5.895    8.4571
    5.910    8.5097
    5.925    8.6467
    5.940    8.3518
    5.955    8.7941
    5.970    8.3939
    5.985    8.6361
    6.000    8.4887
    6.015    8.5308
    6.030    8.4992
    6.045    8.8784
    6.060    8.4992
    6.075    8.5413
    6.090    8.3518
    6.105    8.5519
    6.120    8.4676
    6.135    8.6993
    6.150    8.4255
    6.165    8.2254
    6.180    8.8046
    6.195    8.9205
    6.210    8.4887
    6.225    8.8362
    6.240    8.3834
    6.255    8.6572
    6.270    8.9521
    6.285    8.8784
    6.300    8.7836
    6.315    8.5940
    6.330    8.6888
    6.345    8.2991
    6.360    8.3939
    6.375    8.5835
    6.390    8.5940
    6.405    8.6677
    6.420    8.6361
    6.435    9.0785
    6.450    8.4992
    6.465    8.4992
    6.480    8.7414
    6.495    8.6572
    6.510    8.7730
    6.525    7.9516
    6.540    8.3939
    6.555    8.0990
    6.570    8.0569
    6.585    8.5097
    6.600    8.4150
    6.615    8.7836
    6.630    8.6045
    6.645    8.5308
    6.660    8.9100
    6.675    8.9100
    6.690    8.9731
    6.705    8.8889
    6.720    8.7941
    6.735    8.5308
    6.750    9.1732
    6.765    9.0890
    6.780    8.6045
    6.795    8.8257
    6.810    8.8257
    6.825    9.1522
    6.840    8.6361
    6.855    8.8889
    6.870    9.0047
    6.885    8.8784
    6.900    8.7520
    6.915    9.1417
    6.930    9.1417
    6.945    9.6367
    6.960    8.9626
    6.975    8.6361
    6.990    9.4260
    7.005    8.9521
    7.020    8.9100
    7.035    8.4887
    7.050    9.0574
    7.065    8.6572
    7.080    8.4466
    7.095    8.9310
    7.110    9.1206
    7.125    9.1522
    7.140    9.0785
    7.155    8.8046
    7.170    8.7204
    7.185    8.3834
    7.200    8.6151
    7.215    8.3096
    7.230    8.8573
    7.245    9.1838
    7.260    9.2786
    7.275    8.6888
    7.290    9.1627
    7.305    9.0890
    7.320    8.6151
    7.335    8.9837
    7.350    8.8784
    7.365    8.2780
    7.380    8.7204
    7.395    8.8046
    7.410    9.1311
    7.425    8.9310
    7.440    8.7625
    7.455    8.8257
    7.470    9.0469
    7.485    9.3523
    7.500    9.1206
    7.515    9.4471
    7.530    8.6361
    7.545    8.8994
    7.560    9.3312
    7.575    8.6572
    7.590    8.9521
    7.605    8.8994
    7.620    8.4044
    7.635    8.6888
    7.650    8.6572
    7.665    8.7625
    7.680    8.6783
    7.695    8.6467
    7.710    8.6993
    7.725    8.8573
    7.740    8.8889
    7.755    9.2259
    7.770    9.1101
    7.785    8.9205
    7.800    9.0047
    7.815    9.2470
    7.830    8.2570
    7.845    8.8046
    7.860    9.1732
    7.875    9.1943
    7.890    8.8152
    7.905    9.1627
    7.920    9.1943
    7.935    8.6151
    7.950    9.3312
    7.965    9.3839
    7.980    9.1311
    7.995    8.7730
    8.010    9.1838
    8.025    9.1417
    8.040    9.1627
    8.055    8.8889
    8.070    8.8784
    8.085    9.1311
    8.100    8.8784
    8.115    8.9942
    8.130    9.4050
    8.145    9.4787
    8.160    9.0363
    8.175    9.0258
    8.190    9.1522
    8.205    8.7625
    8.220    8.7309
    8.235    9.2154
    8.250    9.1522
    8.265    8.7625
    8.280    9.4787
    8.295    9.4365
    8.310    9.5419
    8.325    8.9205
    8.340    9.4155
    8.355    9.5524
    8.370    9.7420
    8.385    9.4260
    8.400    9.3944
    8.415    9.5945
    8.430    9.6261
    8.445    9.1522
    8.460    9.3523
    8.475    9.6998
    8.490    9.2154
    8.505    8.6993
    8.520    9.6051
    8.535    9.9315
    8.550    9.9631
    8.565    9.3944
    8.580    9.4787
    8.595    9.2575
    8.610    9.4787
    8.625    9.2575
    8.640    9.6998
    8.655    9.6788
    8.670   10.2475
    8.685    9.6261
    8.700    9.7841
    8.715    9.6998
    8.730    9.1838
    8.745    9.4787
    8.760    9.3734
    8.775    9.8999
    8.790    9.2364
    8.805    9.3944
    8.820    9.3839
    8.835    9.6893
    8.850    9.3839
    8.865    9.6788
    8.880    9.7104
    8.895    9.6367
    8.910    9.7841
    8.925    9.6367
    8.940    9.1206
    8.955    9.7420
    8.970    9.3418
    8.985    9.5208
    9.000    9.9947
    9.015    9.3418
    9.030    9.5419
    9.045    9.6261
    9.060    9.8999
    9.075    9.8368
    9.090    9.6261
    9.105   10.0053
    9.120    9.9421
    9.135   10.2370
    9.150   10.3844
    9.165   10.0158
    9.180    9.6893
    9.195   10.2686
    9.210   10.1211
    9.225    9.8789
    9.240    9.7841
    9.255   10.1316
    9.270   10.3739
    9.285    9.8473
    9.300    9.6788
    9.315    9.6367
    9.330    9.9947
    9.345   10.1316
    9.360   10.0685
    9.375    9.8789
    9.390    9.7946
    9.405    9.9421
    9.420   10.4792
    9.435   10.1316
    9.450   10.1948
    9.465   10.0474
    9.480   10.2791
    9.495   10.1843
    9.510   10.1106
    9.525   10.2896
    9.540   10.3002
    9.555   10.2791
    9.570   10.0790
    9.585   10.3212
    9.600    9.8789
    9.615   10.1316
    9.630   10.1527
    9.645   10.0158
    9.660   10.3633
    9.675   10.0158
    9.690   10.4792
    9.705   10.3107
    9.720    9.9421
    9.735   10.5529
    9.750   10.0263
    9.765   10.2054
    9.780   10.2686
    9.795   10.0895
    9.810   10.1001
    9.825    9.7736
    9.840   10.0579
    9.855   10.0895
    9.870   10.7425
    9.885   10.6582
    9.900   10.5319
    9.915   10.6477
    9.930   10.4265
    9.945   10.8057
    9.960   10.4055
    9.975   10.4371
    9.990   10.4581
   10.005   10.2791
   10.020   10.7741
   10.035   10.0474
   10.050   10.5529
   10.065   10.1738
   10.080   10.2896
   10.095   10.5319
   10.110   10.5003
   10.125   10.5529
   10.140   10.3107
   10.155   10.4160
   10.170   10.5003
   10.185    9.6893
   10.200   10.7952
   10.215   10.5213
   10.230   10.5845
   10.245   10.0053
   10.260   10.0053
   10.275   10.0790
   10.290   10.1422
   10.305    9.8473
   10.320   10.2370
   10.335   10.4581
   10.350    9.9421
   10.365   10.4476
   10.380   10.2791
   10.395   10.2264
   10.410    9.9947
   10.425    9.8684
   10.440   10.1843
   10.455    9.7736
   10.470    9.8789
   10.485    9.8368
   10.500   10.0053
   10.515   10.4687
   10.530   10.3739
   10.545   10.0474
   10.560    9.6998
   10.575    9.8578
   10.590   10.1211
   10.605    9.5629
   10.620    9.6051
   10.635    9.5208
   10.650    9.9631
   10.665   10.2791
   10.680   10.0579
   10.695    9.7209
   10.710   10.3002
   10.725   10.0685
   10.740   10.4265
   10.755   10.0053
   10.770   10.3423
   10.785    9.8157
   10.800    9.7630
   10.815    9.1943
   10.830    9.6577
   10.845    9.5208
   10.860    9.6788
   10.875    9.5840
   10.890    9.3418
   10.905    9.6788
   10.920    9.7630
   10.935    9.9947
   10.950    9.8157
   10.965    9.6472
   10.980   10.0263
   10.995    9.8052
   11.010    9.6156
   11.025    9.3102
   11.040    8.9310
   11.055    9.4365
   11.070    9.2470
   11.085    9.5629
   11.100    9.3523
   11.115    9.7630
   11.130    9.3944
   11.145    9.2259
   11.160    9.2891
   11.175    9.2996
   11.190    9.7420
   11.205    9.6472
   11.220    9.9105
   11.235    9.2154
   11.250    8.8889
   11.265    9.1311
   11.280    9.4681
   11.295    9.5419
   11.310    9.2891
   11.325    9.6893
   11.340    9.1627
   11.355    8.7520
   11.370    8.9100
   11.385    9.6051
   11.400    9.6577
   11.415    9.1732
   11.430    9.4260
   11.445    9.0785
   11.460    9.9105
   11.475    9.6156
   11.490    9.5103
   11.505    9.2996
   11.520    9.5208
   11.535    9.0258
   11.550    9.1101
   11.565    9.5103
   11.580    9.2154
   11.595    9.2154
   11.610    9.3734
   11.625    9.5103
   11.640    9.1206
   11.655    9.0995
   11.670    8.9942
   11.685    9.2996
   11.700    9.5103
   11.715    9.2048
   11.730    9.4787
   11.745    8.9942
   11.760    9.0574
   11.775    9.4681
   11.790    9.0785
   11.805    9.1417
   11.820    9.2364
   11.835    9.0679
   11.850    9.2786
   11.865    9.4787
   11.880    9.1627
   11.895    9.3418
   11.910    8.9310
   11.925    9.1838
   11.940    9.2680
   11.955    8.6993
   11.970    8.8889
   11.985    9.1732
   12.000    8.7941
   12.015    9.0574
   12.030    9.0995
   12.045    9.1101
   12.060    8.9310
   12.075    9.0258
   12.090    9.0785
   12.105    9.0574
   12.120    9.0785
   12.135    9.4576
   12.150    9.1417
   12.165    9.1943
   12.180    8.6677
   12.195    8.9310
   12.210    8.7414
   12.225    8.4466
   12.240    8.4150
   12.255    8.4676
   12.270    8.7098
   12.285    8.7414
   12.300    9.2154
   12.315    9.2048
   12.330    8.7098
   12.345    8.8152
   12.360    8.5519
   12.375    9.0890
   12.390    9.2680
   12.405    8.6888
   12.420    8.7730
   12.435    8.4781
   12.450    8.8046
   12.465    9.2575
   12.480    8.4044
   12.495    8.8152
   12.510    8.8152
   12.525    8.7098
   12.540    8.2991
   12.555    8.3412
   12.570    8.6151
   12.585    8.6888
   12.600    8.3412
   12.615    8.6677
   12.630    8.7625
   12.645    8.5097
   12.660    8.4150
   12.675    8.8573
   12.690    8.8152
   12.705    8.7520
   12.720    8.5729
   12.735    8.3096
   12.750    8.3202
   12.765    8.6045
   12.780    8.8573
   12.795    8.5203
   12.810    8.5308
   12.825    8.4676
   12.840    8.6361
   12.855    9.1732
   12.870    8.7309
   12.885    8.6467
   12.900    8.6888
   12.915    8.6256
   12.930    8.2780
   12.945    8.4571
   12.960    8.3096
   12.975    8.5203
   12.990    8.2991
   13.005    8.3307
   13.020    8.5413
   13.035    8.6045
   13.050    8.0674
   13.065    8.0463
   13.080    8.4044
   13.095    8.3518
   13.110    8.4466
   13.125    8.1938
   13.140    8.0990
   13.155    8.8362
   13.170    8.5729
   13.185    8.3728
   13.200    8.8994
   13.215    8.1306
   13.230    8.5308
   13.245    8.6572
   13.260    8.8152
   13.275    8.4992
   13.290    8.1727
   13.305    8.3202
   13.320    8.2464
   13.335    8.4360
   13.350    8.5729
   13.365    8.6467
   13.380    8.5519
   13.395    8.1833
   13.410    8.3834
   13.425    8.0990
   13.440    8.0885
   13.455    8.3202
   13.470    8.4044
   13.485    8.6677
   13.500    8.5308
   13.515    8.3096
   13.530    8.4360
   13.545    8.3096
   13.560    8.6993
   13.575    8.2780
   13.590    8.3412
   13.605    8.3728
   13.620    8.2464
   13.635    8.5097
   13.650    8.1201
   13.665    8.0463
   13.680    8.1517
   13.695    8.5097
   13.710    8.0569
   13.725    8.4887
   13.740    8.7730
   13.755    8.4360
   13.770    8.5097
   13.785    8.3728
   13.800    8.2149
   13.815    8.0674
   13.830    8.1622
   13.845    8.3307
   13.860    8.3412
   13.875    8.2359
   13.890    8.3518
   13.905    8.6888
   13.920    8.1201
   13.935    8.4255
   13.950    8.5940
   13.965    8.1306
   13.980    8.2359
   13.995    8.3834
   14.010    8.5835
   14.025    8.2886
   14.040    8.6677
   14.055    8.3307
   14.070    7.8989
   14.085    8.0990
   14.100    8.6361
   14.115    8.1727
   14.130    8.2780
   14.145    8.2780
   14.160    8.6045
   14.175    8.5097
   14.190    8.2149
   14.205    8.1833
   14.220    8.3728
   14.235    8.7520
   14.250    8.9521
   14.265    8.5413
   14.280    8.4150
   14.295    8.2780
   14.310    8.4044
   14.325    8.6993
   14.340    8.4466
   14.355    8.3202
   14.370    8.2359
   14.385    8.1517
   14.400    8.6045
   14.415    8.1201
   14.430    8.4676
   14.445    8.2254
   14.460    8.2149
   14.475    8.3412
   14.490    8.7730
   14.505    8.4992
   14.520    8.2149
   14.535    8.0358
   14.550    8.2149
   14.565    8.0885
   14.580    8.5203
   14.595    8.3518
   14.610    8.3834
   14.625    8.6677
   14.640    8.2570
   14.655    8.7098
   14.670    8.6783
   14.685    8.8152
   14.700    8.4781
   14.715    8.3412
   14.730    8.1938
   14.745    8.7204
   14.760    8.4044
   14.775    8.2570
   14.790    8.3202
   14.805    7.9726
   14.820    8.0147
   14.835    8.4676
   14.850    8.7309
   14.865    8.7836
   14.880    8.4781
   14.895    8.0569
   14.910    8.2254
   14.925    8.1622
   14.940    8.0779
   14.955    8.5308
   14.970    8.5940
   14.985    8.1727
   15.000    8.1517
   15.015    8.4887
   15.030    8.5729
   15.045    8.2149
   15.060    7.9937
   15.075    8.1517
   15.090    8.1201
   15.105    8.4150
   15.120    8.1622
   15.135    8.5203
   15.150    8.3307
   15.165    8.5203
   15.180    8.4466
   15.195    9.0363
   15.210    8.7414
   15.225    8.7309
   15.240    8.3307
   15.255    8.2570
   15.270    8.2254
   15.285    8.3728
   15.300    8.5308
   15.315    8.3939
   15.330    8.5203
   15.345    8.9731
   15.360    8.5940
   15.375    8.7520
   15.390    9.0047
   15.405    8.5097
   15.420    8.6888
   15.435    8.6993
   15.450    8.8257
   15.465    8.5308
   15.480    8.6361
   15.495    8.0253
   15.510    8.3412
   15.525    8.6783
   15.540    8.4992
   15.555    8.0463
   15.570    8.4887
   15.585    8.7414
   15.600    8.5413
   15.615    8.5624
   15.630    8.3834
   15.645    8.1201
   15.660    8.1306
   15.675    8.2886
   15.690    8.4360
   15.705    8.5413
   15.720    8.5203
   15.735    8.5308
   15.750    8.3834
   15.765    8.8152
   15.780    8.8678
   15.795    8.6888
   15.810    8.2149
   15.825    8.2886
   15.840    8.5519
   15.855    8.0253
   15.870    8.2570
   15.885    8.3623
   15.900    8.8784
   15.915    8.5203
   15.930    8.3096
   15.945    8.6993
   15.960    7.9305
   15.975    8.2570
   15.990    9.1101
   16.005    8.8889
   16.020    8.4044
   16.035    8.3412
   16.050    8.6888
   16.065    8.5308
   16.080    8.3518
   16.095    8.4044
   16.110    8.1517
   16.125    8.3623
   16.140    8.4992
   16.155    8.6151
   16.170    8.7520
   16.185    8.5940
   16.200    8.3307
   16.215    8.8889
   16.230    8.5729
   16.245    8.3096
   16.260    8.2570
   16.275    8.1622
   16.290    8.5624
   16.305    8.2886
   16.320    8.0253
   16.335    8.3623
   16.350    7.9726
   16.365    7.9410
   16.380    8.0779
   16.395    8.4255
   16.410    8.3728
   16.425    8.6572
   16.440    8.9626
   16.455    8.7836
   16.470    8.9942
   16.485    8.5203
   16.500    8.5308
   16.515    8.4992
   16.530    8.1201
   16.545    7.8673
   16.560    8.3728
   16.575    8.2570
   16.590    8.1833
   16.605    8.3939
   16.620    8.7941
   16.635    8.4571
   16.650    8.6677
   16.665    8.4676
   16.680    8.5097
   16.695    8.6572
   16.710    8.0885
   16.725    8.3202
   16.740    8.3412
   16.755    8.5624
   16.770    8.5729
   16.785    8.5624
   16.800    8.5413
   16.815    8.7414
   16.830    8.3834
   16.845    8.4044
   16.860    8.1306
   16.875    8.3623
   16.890    8.7098
   16.905    8.2570
   16.920    8.7520
   16.935    8.7414
   16.950    8.8362
   16.965    8.3412
   16.980    7.9937
   16.995    8.6151
   17.010    8.9415
   17.025    8.3623
   17.040    8.2886
   17.055    8.5308
   17.070    8.4044
   17.085    8.0042
   17.100    8.2780
   17.115    8.5097
   17.130    8.2043
   17.145    8.0885
   17.160    8.4255
   17.175    8.5519
   17.190    8.9626
   17.205    8.2780
   17.220    8.5097
   17.235    8.6256
   17.250    8.1201
   17.265    8.4150
   17.280    8.2359
   17.295    8.6151
   17.310    8.6888
   17.325    8.5835
   17.340    8.4360
   17.355    8.4255
   17.370    8.4255
   17.385    8.3307
   17.400    8.2464
   17.415    8.0779
   17.430    8.8678
   17.445    8.3518
   17.460    8.2464
   17.475    8.1201
   17.490    8.1201
   17.505    8.4150
   17.520    8.1938
   17.535    8.7204
   17.550    8.6993
   17.565    8.4781
   17.580    8.5835
   17.595    9.0469
   17.610    9.0785
   17.625    8.9731
   17.640    8.7204
   17.655    8.3096
   17.670    8.8573
   17.685    8.7309
   17.700    8.8784
   17.715    8.5413
   17.730    8.6467
   17.745    8.6151
   17.760    9.4050
   17.775    8.8257
   17.790    8.8152
   17.805    8.4466
   17.820    8.5203
   17.835    8.5729
   17.850    8.2991
   17.865    8.2254
   17.880    8.4360
   17.895    8.5413
   17.910    8.5097
   17.925    8.6993
   17.940    8.6045
   17.955    8.2886
   17.970    8.3518
   17.985    8.8257
   18.000    8.2886
   18.015    8.4150
   18.030    8.5413
   18.045    8.8468
   18.060    8.5835
   18.075    8.7730
   18.090    8.7730
   18.105    8.6572
   18.120    8.5519
   18.135    8.2359
   18.150    8.4887
   18.165    8.6467
   18.180    8.8362
   18.195    8.7414
   18.210    8.4992
   18.225    8.2359
   18.240    8.5097
   18.255    8.3412
   18.270    8.9521
   18.285    8.3307
   18.300    8.6256
   18.315    8.6256
   18.330    8.3412
   18.345    8.0358
   18.360    8.4255
   18.375    8.4150
   18.390    8.3728
   18.405    8.2886
   18.420    8.6993
   18.435    8.1938
   18.450    8.3939
   18.465    8.7836
   18.480    8.9837
   18.495    8.8573
   18.510    8.5308
   18.525    8.8889
   18.540    8.8678
   18.555    8.8046
   18.570    8.6151
   18.585    8.7625
   18.600    8.6256
   18.615    8.7098
   18.630    8.9521
   18.645    8.7098
   18.660    8.7414
   18.675    8.1833
   18.690    8.6151
   18.705    9.2575
   18.720    8.9310
   18.735    8.1727
   18.750    8.8468
   18.765    8.6256
   18.780    8.8784
   18.795    8.6361
   18.810    8.4150
   18.825    8.5308
   18.840    8.9415
   18.855    8.7204
   18.870    8.8994
   18.885    8.5729
   18.900    8.4992
   18.915    8.5835
   18.930    8.1411
   18.945    8.2464
   18.960    8.4887
   18.975    9.0679
   18.990    9.0679
   19.005    8.5940
   19.020    8.3834
   19.035    8.8046
   19.050    8.4676
   19.065    8.7098
   19.080    8.9100
   19.095    8.5835
   19.110    8.4360
   19.125    8.9837
   19.140    8.0885
   19.155    8.2149
   19.170    8.5203
   19.185    8.6256
   19.200    8.7098
   19.215    8.3834
   19.230    8.4360
   19.245    8.5413
   19.260    8.7309
   19.275    9.1627
   19.290    8.7414
   19.305    8.6256
   19.320    9.0363
   19.335    8.6045
   19.350    8.7414
   19.365    8.6467
   19.380    8.2991
   19.395    8.8046
   19.410    8.9100
   19.425    8.2991
   19.440    8.6572
   19.455    8.9415
   19.470    8.3834
   19.485    8.2359
   19.500    8.5308
   19.515    8.3834
   19.530    8.8257
   19.545    8.8468
   19.560    8.7098
   19.575    8.5835
   19.590    8.6361
   19.605    8.4255
   19.620    8.8257
   19.635    8.9415
   19.650    8.8152
   19.665    9.0995
   19.680    9.0469
   19.695    8.4781
   19.710    9.0047
   19.725    8.6256
   19.740    8.7730
   19.755    8.6151
   19.770    8.9626
   19.785    9.4576
   19.800    8.6256
   19.815    8.5624
   19.830    8.9415
   19.845    9.0258
   19.860    8.6888
   19.875    8.9310
   19.890    8.6993
   19.905    8.9310
   19.920    8.9837
   19.935    8.6045
   19.950    8.9626
   19.965    8.6993
   19.980    8.9415
   19.995    9.0995
   20.010    8.6467
   20.025    8.3623
   20.040    8.8468
   20.055    8.6677
   20.070    8.6151
   20.085    8.8362
   20.100    9.0679
   20.115    8.9100
   20.130    8.4150
   20.145    8.5624
   20.160    8.4887
   20.175    8.9626
   20.190    8.5624
   20.205    8.6993
   20.220    8.9521
   20.235    8.7098
   20.250    8.8046
   20.265    9.4155
   20.280    8.9731
   20.295    9.1311
   20.310    9.0679
   20.325    8.7414
   20.340    8.4571
   20.355    8.5940
   20.370    8.4571
   20.385    8.4360
   20.400    8.6361
   20.415    9.2470
   20.430    8.7941
   20.445    8.7204
   20.460    9.0153
   20.475    8.8994
   20.490    8.7204
   20.505    8.8678
   20.520    8.8468
   20.535    9.0679
   20.550    8.9415
   20.565    8.5519
   20.580    9.1311
   20.595    8.9942
   20.610    9.0363
   20.625    8.9100
   20.640    8.7625
   20.655    8.3623
   20.670    8.7309
   20.685    8.9731
   20.700    8.7414
   20.715    9.2680
   20.730    8.7941
   20.745    8.5097
   20.760    9.0995
   20.775    9.2680
   20.790    8.5729
   20.805    9.3628
   20.820    9.5524
   20.835    8.8573
   20.850    8.5203
   20.865    9.0469
   20.880    9.0574
   20.895    9.2048
   20.910    9.0995
   20.925    8.6256
   20.940    8.8362
   20.955    8.5519
   20.970    8.9100
   20.985    8.7309
   21.000    9.0785
   21.015    9.2259
   21.030    8.8046
   21.045    8.7309
   21.060    8.9837
   21.075    9.0995
   21.090    8.8257
   21.105    8.5624
   21.120    9.0679
   21.135    8.8257
   21.150    8.7836
   21.165    8.7625
   21.180    8.5940
   21.195    9.0153
   21.210    9.4260
   21.225    9.4155
   21.240    8.9942
   21.255    8.9310
   21.270    8.9942
   21.285    8.9837
   21.300    9.4155
   21.315    9.2891
   21.330    8.9942
   21.345    9.5524
   21.360    9.1311
   21.375    8.7836
   21.390    9.2575
   21.405    8.6361
   21.420    8.7309
   21.435    9.1838
   21.450    9.1311
   21.465    9.0469
   21.480    9.0469
   21.495    8.6783
   21.510    8.9100
   21.525    8.6572
   21.540    8.9837
   21.555    9.0469
   21.570    9.1943
   21.585    9.2048
   21.600    9.3523
   21.615    9.3418
   21.630    9.2680
   21.645    9.5419
   21.660    9.0890
   21.675    8.7730
   21.690    9.0469
   21.705    9.1732
   21.720    9.0785
   21.735    8.9205
   21.750    8.9837
   21.765    9.2048
   21.780    9.2786
   21.795    8.7204
   21.810    8.8257
   21.825    9.4365
   21.840    9.1838
   21.855    9.0679
   21.870    9.2048
   21.885    8.9942
   21.900    8.6256
   21.915    9.2259
   21.930    9.1943
   21.945    8.6572
   21.960    9.0363
   21.975    8.8152
   21.990    9.7314
   22.005    9.2891
   22.020    9.2470
   22.035    8.9310
   22.050    9.1627
   22.065    8.9942
   22.080    8.8889
   22.095    9.2786
   22.110    9.4155
   22.125    9.4576
   22.140    9.2470
   22.155    9.1206
   22.170    9.4997
   22.185    8.9731
   22.200    8.9415
   22.215    9.0995
   22.230    9.1206
   22.245    9.1522
   22.260    9.1417
   22.275    9.2680
   22.290    9.1732
   22.305    9.2575
   22.320    9.3628
   22.335    9.1522
   22.350    8.8046
   22.365    8.8152
   22.380    8.9942
   22.395    9.2470
   22.410    9.2154
   22.425    8.9731
   22.440    9.0785
   22.455    8.8678
   22.470    9.3734
   22.485    9.3312
   22.500    9.0153
   22.515    9.6156
   22.530    9.6472
   22.545    9.5840
   22.560    9.7104
   22.575    9.8368
   22.590    9.3734
   22.605    9.2680
   22.620    9.3839
   22.635    9.0679
   22.650    9.3734
   22.665    9.2891
   22.680    9.4787
   22.695    9.5103
   22.710    9.2996
   22.725    9.2786
   22.740    9.4892
   22.755    9.3102
   22.770    9.2048
   22.785    9.1101
   22.800    9.6051
   22.815    9.0995
   22.830    9.4997
   22.845    9.3102
   22.860    9.0890
   22.875    9.2575
   22.890    9.1732
   22.905    8.6993
   22.920    9.0363
   22.935    9.0258
   22.950    9.2364
   22.965    9.3418
   22.980    9.0469
   22.995    8.7414
   23.010    8.6467
   23.025    8.8994
   23.040    9.0153
   23.055    8.6572
   23.070    8.4466
   23.085    8.9415
   23.100    9.0469
   23.115    9.0153
   23.130    8.8678
   23.145    8.9521
   23.160    9.0469
   23.175    9.0785
   23.190    8.9942
   23.205    9.3628
   23.220    9.6051
   23.235    9.2996
   23.250    8.8362
   23.265    9.1627
   23.280    8.9205
   23.295    9.2259
   23.310    9.1417
   23.325    9.0995
   23.340    9.0679
   23.355    9.4260
   23.370    9.6788
   23.385    9.0153
   23.400    9.1522
   23.415    8.7730
   23.430    8.9942
   23.445    9.0363
   23.460    9.0153
   23.475    8.8994
   23.490    9.4155
   23.505    9.6998
   23.520    9.4050
   23.535    8.9415
   23.550    9.2364
   23.565    9.8052
   23.580    9.8789
   23.595   10.4160
   23.610    9.5208
   23.625    9.4260
   23.640    8.8468
   23.655    9.0574
   23.670    8.9942
   23.685    9.0574
   23.700    9.1206
   23.715    9.1838
   23.730    9.1943
   23.745    9.1101
   23.760    8.9415
   23.775    8.8362
   23.790    8.9837
   23.805    9.1311
   23.820    8.8994
   23.835    9.0153
   23.850    9.3628
   23.865    9.3839
   23.880    9.3102
   23.895    9.3734
   23.910    8.7730
   23.925    8.6677
   23.940    8.8994
   23.955    9.2786
   23.970    9.1101
   23.985    8.9731
   24.000    9.2680
   24.015    9.2575
   24.030    9.4471
   24.045    9.0995
   24.060    9.0785
   24.075    8.2254
   24.090    9.1417
   24.105    9.0679
   24.120    8.7098
   24.135    9.2575
   24.150    9.2364
   24.165    8.4676
   24.180    8.8362
   24.195    9.3418
   24.210    9.2259
   24.225    9.0363
   24.240    9.0679
   24.255    9.2048
   24.270    9.1206
   24.285    9.0047
   24.300    9.4155
   24.315    9.2575
   24.330    9.0258
   24.345    8.5729
   24.360    9.1101
   24.375    8.9942
   24.390    9.0153
   24.405    9.0995
   24.420    9.1732
   24.435    8.2359
   24.450    8.5308
   24.465    9.2154
   24.480    8.8784
   24.495    8.9731
   24.510    8.9626
   24.525    9.0469
   24.540    9.0363
   24.555    9.0047
   24.570    8.8257
   24.585    9.3944
   24.600    9.0153
   24.615    8.8362
   24.630    8.7098
   24.645    8.5940
   24.660    8.5940
   24.675    9.0469
   24.690    9.1522
   24.705    8.6993
   24.720    8.9731
   24.735    8.9942
   24.750    8.5624
   24.765    8.1622
   24.780    8.8678
   24.795    9.1838
   24.810    8.9837
   24.825    9.1311
   24.840    8.2991
   24.855    8.4676
   24.870    8.4887
   24.885    8.8257
   24.900    8.7098
   24.915    8.9415
   24.930    8.6888
   24.945    8.7204
   24.960    9.2575
   24.975    8.5835
   24.990    8.6572
   25.005    8.7204
   25.020    9.0258
   25.035    9.1732
   25.050    9.4787
   25.065    9.1522
   25.080    8.7730
   25.095    8.8784
   25.110    8.7836
   25.125    8.7730
   25.140    8.4360
   25.155    8.6993
   25.170    8.7836
   25.185    8.8678
   25.200    8.7414
   25.215    9.1417
   25.230    8.9415
   25.245    8.8573
   25.260    8.9626
   25.275    8.7414
   25.290    8.9626
   25.305    8.6993
   25.320    8.5940
   25.335    8.8784
   25.350    9.0785
   25.365    9.1627
   25.380    8.9837
   25.395    8.7414
   25.410    8.8573
   25.425    9.2154
   25.440    9.4681
   25.455    9.8157
   25.470    9.5629
   25.485    9.1206
   25.500    8.9415
   25.515    8.8784
   25.530    8.7625
   25.545    9.1101
   25.560    9.2575
   25.575   10.0263
   25.590   10.7214
   25.605    9.8262
   25.620    9.4576
   25.635    8.8468
   25.650    8.6677
   25.665    8.5308
   25.680    8.7730
   25.695    8.8994
   25.710    8.9100
   25.725    8.7941
   25.740    8.8994
   25.755    8.6993
   25.770    8.7098
   25.785    8.6993
   25.800    8.6572
   25.815    8.7098
   25.830    8.5203
   25.845    8.2149
   25.860    8.3939
   25.875    8.5413
   25.890    8.3518
   25.905    8.5835
   25.920    8.7414
   25.935    8.6045
   25.950    8.5097
   25.965    8.9521
   25.980    8.6572
   25.995    8.2991
   26.010    8.5940
   26.025    8.8994
   26.040    8.5835
   26.055    8.5729
   26.070    8.9837
   26.085    8.8257
   26.100    8.7625
   26.115    8.7836
   26.130    8.6572
   26.145    8.6045
   26.160    8.7520
   26.175    8.5940
   26.190    8.8152
   26.205    8.6361
   26.220    8.7414
   26.235    8.3939
   26.250    8.1095
   26.265    8.6888
   26.280    8.8152
   26.295    8.6045
   26.310    8.2780
   26.325    8.5308
   26.340    8.6361
   26.355    8.5519
   26.370    8.5308
   26.385    8.3518
   26.400    8.7941
   26.415    8.5413
   26.430    8.6467
   26.445    8.6572
   26.460    8.7836
   26.475    8.4150
   26.490    8.8994
   26.505    8.7204
   26.520    8.3623
   26.535    8.4992
   26.550    8.4781
   26.565    9.1206
   26.580    8.8046
   26.595    8.6572
   26.610    8.1938
   26.625    8.3728
   26.640    8.4887
   26.655    8.4887
   26.670    8.6151
   26.685    8.6783
   26.700    8.0779
   26.715    8.1306
   26.730    8.5203
   26.745    8.6783
   26.760    8.4150
   26.775    8.3939
   26.790    7.9200
   26.805    8.1622
   26.820    8.2886
   26.835    8.6572
   26.850    8.4887
   26.865    8.5624
   26.880    8.6677
   26.895    8.4255
   26.910    8.7098
   26.925    8.3202
   26.940    8.3623
   26.955    8.6993
   26.970    8.5940
   26.985    8.5413
   27.000    8.5413
   27.015    8.3096
   27.030    8.0253
   27.045    8.5624
   27.060    8.4571
   27.075    8.4887
   27.090    8.6467
   27.105    8.1622
   27.120    8.7414
   27.135    8.5097
   27.150    7.8884
   27.165    8.3623
   27.180    8.9521
   27.195    8.7204
   27.210    8.7836
   27.225    8.4887
   27.240    8.6467
   27.255    8.7520
   27.270    8.1411
   27.285    8.0674
   27.300    8.4887
   27.315    8.7414
   27.330    8.3412
   27.345    8.8362
   27.360    8.5519
   27.375    8.5413
   27.390    8.4781
   27.405    8.6677
   27.420    8.2780
   27.435    8.1622
   27.450    8.5203
   27.465    8.0147
   27.480    8.5308
   27.495    8.4571
   27.510    8.2149
   27.525    8.2991
   27.540    8.2464
   27.555    8.1833
   27.570    8.4676
   27.585    8.6467
   27.600    8.1833
   27.615    8.0674
   27.630    8.2254
   27.645    8.6572
   27.660    8.5097
   27.675    8.6256
   27.690    8.4676
   27.705    8.3728
   27.720    8.5097
   27.735    8.5519
   27.750    8.5624
   27.765    8.6572
   27.780    8.2991
   27.795    8.5940
   27.810    8.4676
   27.825    8.2254
   27.840    8.5940
   27.855    8.7204
   27.870    7.9094
   27.885    8.1727
   27.900    8.2043
   27.915    8.1095
   27.930    8.2991
   27.945    8.6677
   27.960    8.1306
   27.975    8.3412
   27.990    8.2043
   28.005    8.2780
   28.020    8.0779
   28.035    8.1095
   28.050    8.3939
   28.065    8.1517
   28.080    8.1201
   28.095    8.2359
   28.110    8.5097
   28.125    8.5413
   28.140    8.2359
   28.155    8.2149
   28.170    8.8784
   28.185    8.4571
   28.200    8.4781
   28.215    8.2464
   28.230    7.9726
   28.245    7.7409
   28.260    8.3096
   28.275    7.9831
   28.290    8.3728
   28.305    8.3096
   28.320    8.1411
   28.335    7.8568
   28.350    8.1201
   28.365    8.1095
   28.380    7.8673
   28.395    8.1411
   28.410    8.0569
   28.425    8.0147
   28.440    8.3623
   28.455    8.0885
   28.470    7.9726
   28.485    8.1201
   28.500    8.7204
   28.515    8.2043
   28.530    7.9621
   28.545    8.3939
   28.560    8.1411
   28.575    8.2991
   28.590    8.7098
   28.605    8.7836
   28.620    8.6677
   28.635    8.0569
   28.650    7.8778
   28.665    8.4781
   28.680    8.3096
   28.695    8.0253
   28.710    8.2043
   28.725    7.7304
   28.740    8.0674
   28.755    8.3728
   28.770    8.4255
   28.785    7.8462
   28.800    7.9305
   28.815    8.2780
   28.830    7.9621
   28.845    8.1411
   28.860    8.2254
   28.875    7.6883
   28.890    7.6567
   28.905    7.7093
   28.920    7.3407
   28.935    7.7409
   28.950    8.2570
   28.965    7.7936
   28.980    7.7830
   28.995    7.5935
   29.010    8.1201
   29.025    8.3939
   29.040    8.0147
   29.055    8.0990
   29.070    8.2043
   29.085    8.2991
   29.100    8.0779
   29.115    8.3412
   29.130    8.3412
   29.145    8.0779
   29.160    8.1095
   29.175    7.5724
   29.190    7.7830
   29.205    7.4566
   29.220    7.5197
   29.235    8.2886
   29.250    7.9305
   29.265    7.9621
   29.280    7.9094
   29.295    7.9621
   29.310    7.9726
   29.325    8.0779
   29.340    8.2254
   29.355    8.2043
   29.370    7.7409
   29.385    7.9831
   29.400    8.1306
   29.415    7.5935
   29.430    7.6672
   29.445    8.0990
   29.460    8.0147
   29.475    8.1411
   29.490    8.0358
   29.505    8.1622
   29.520    8.1938
   29.535    7.9410
   29.550    7.4144
   29.565    7.7725
   29.580    7.4987
   29.595    7.6988
   29.610    8.0358
   29.625    8.4044
   29.640    7.9200
   29.655    7.8041
   29.670    7.8357
   29.685    8.1727
   29.700    7.8357
   29.715    8.1095
   29.730    8.1411
   29.745    7.9831
   29.760    7.9410
   29.775    7.8462
   29.790    7.8041
   29.805    8.0042
   29.820    7.8778
   29.835    8.1938
   29.850    7.5724
   29.865    7.7093
   29.880    7.6145
   29.895    7.6988
   29.910    7.5408
   29.925    7.7199
   29.940    7.7304
   29.955    7.3618
   29.970    8.1201
   29.985    7.6567
   30.000    7.7409
   30.015    7.4039
   30.030    7.7409
   30.045    7.3407
   30.060    7.1933
   30.075    7.6251
   30.090    7.7725
   30.105    8.0569
   30.120    7.9726
   30.135    7.9726
   30.150    7.7725
   30.165    7.7304
   30.180    8.0147
   30.195    7.6883
   30.210    7.8146
   30.225    7.7304
   30.240    8.4360
   30.255    7.9410
   30.270    7.5724
   30.285    8.1833
   30.300    7.7936
   30.315    7.5303
   30.330    7.7409
   30.345    8.0042
   30.360    7.8146
   30.375    7.4566
   30.390    7.5724
   30.405    7.7514
   30.420    7.7725
   30.435    7.4987
   30.450    7.5829
   30.465    7.5197
   30.480    7.7620
   30.495    7.9305
   30.510    7.8673
   30.525    7.9305
   30.540    7.7725
   30.555    7.8673
   30.570    7.4671
   30.585    7.5092
   30.600    7.5197
   30.615    7.4882
   30.630    7.8884
   30.645    7.7514
   30.660    7.9410
   30.675    7.9305
   30.690    7.7936
   30.705    7.8884
   30.720    7.6777
   30.735    7.3512
   30.750    7.5829
   30.765    7.3723
   30.780    7.4987
   30.795    7.4882
   30.810    7.4987
   30.825    7.7304
   30.840    7.5829
   30.855    7.9937
   30.870    7.9516
   30.885    7.7936
   30.900    7.7725
   30.915    7.5408
   30.930    8.0569
   30.945    7.6672
   30.960    7.3512
   30.975    7.8252
   30.990    7.9305
   31.005    7.6883
   31.020    7.2775
   31.035    7.4987
   31.050    7.3407
   31.065    7.8252
   31.080    7.9516
   31.095    7.6461
   31.110    7.2880
   31.125    7.6251
   31.140    7.5092
   31.155    7.6356
   31.170    7.8884
   31.185    7.3618
   31.200    7.2670
   31.215    7.4144
   31.230    7.4460
   31.245    7.2986
   31.260    7.4776
   31.275    7.3196
   31.290    7.6567
   31.305    7.4671
   31.320    8.0463
   31.335    8.0253
   31.350    7.4987
   31.365    7.5092
   31.380    7.2880
   31.395    7.3618
   31.410    7.3196
   31.425    7.3934
   31.440    7.3618
   31.455    7.8357
   31.470    7.8252
   31.485    7.4250
   31.500    7.6988
   31.515    7.5724
   31.530    7.9410
   31.545    7.8146
   31.560    7.1617
   31.575    7.6672
   31.590    7.8568
   31.605    7.9726
   31.620    7.7936
   31.635    7.2775
   31.650    7.7409
   31.665    7.7725
   31.680    8.1622
   31.695    7.5197
   31.710    8.0253
   31.725    7.9726
   31.740    8.2359
   31.755    7.7725
   31.770    7.8146
   31.785    8.4466
   31.800    8.5097
   31.815    8.5519
   31.830    8.8468
   31.845    8.5308
   31.860    8.3939
   31.875    8.7204
   31.890    8.2359
   31.905    7.8884
   31.920    7.6567
   31.935    7.5724
   31.950    7.4566
   31.965    7.3512
   31.980    7.3723
   31.995    7.4987
   32.010    7.4882
   32.025    7.6356
   32.040    7.5092
   32.055    7.4882
   32.070    7.2670
   32.085    7.5935
   32.100    7.0458
   32.115    7.1511
   32.130    7.3302
   32.145    7.2459
   32.160    7.6251
   32.175    7.3934
   32.190    7.5408
   32.205    7.3828
   32.220    7.8778
   32.235    7.4776
   32.250    7.1195
   32.265    7.4671
   32.280    7.3723
   32.295    7.4566
   32.310    7.5303
   32.325    7.3934
   32.340    7.6251
   32.355    7.6356
   32.370    7.5724
   32.385    7.1406
   32.400    7.4882
   32.415    7.3828
   32.430    7.8989
   32.445    7.9831
   32.460    7.4566
   32.475    7.1617
   32.490    7.5724
   32.505    7.1090
   32.520    7.0879
   32.535    6.9721
   32.550    7.0879
   32.565    7.5935
   32.580    7.5092
   32.595    7.3091
   32.610    7.7620
   32.625    7.7936
   32.640    7.5935
   32.655    7.1195
   32.670    7.4987
   32.685    7.6777
   32.700    7.4987
   32.715    7.4987
   32.730    7.5724
   32.745    7.3934
   32.760    7.9726
   32.775    7.7304
   32.790    7.2565
   32.805    7.7093
   32.820    7.6672
   32.835    7.4566
   32.850    7.3302
   32.865    7.2354
   32.880    7.3512
   32.895    7.0248
   32.910    7.3934
   32.925    7.4250
   32.940    7.1511
   32.955    7.4355
   32.970    7.5935
   32.985    7.4039
   33.000    7.6461
   33.015    7.6567
   33.030    7.0037
   33.045    7.1090
   33.060    6.9089
   33.075    7.5724
   33.090    7.2775
   33.105    7.4355
   33.120    7.3196
   33.135    7.5724
   33.150    7.1933
   33.165    7.2880
   33.180    7.7093
   33.195    7.6567
   33.210    7.0563
   33.225    7.1827
   33.240    7.2038
   33.255    7.0563
   33.270    6.9089
   33.285    7.2775
   33.300    7.3618
   33.315    7.2354
   33.330    7.2354
   33.345    7.2249
   33.360    7.8041
   33.375    7.4355
   33.390    7.5724
   33.405    7.3302
   33.420    7.1617
   33.435    7.1827
   33.450    7.2459
   33.465    7.4250
   33.480    7.6356
   33.495    7.7620
   33.510    7.0458
   33.525    7.6040
   33.540    7.4882
   33.555    7.1195
   33.570    7.1195
   33.585    7.3091
   33.600    7.4882
   33.615    7.5303
   33.630    6.9932
   33.645    7.2249
   33.660    7.5724
   33.675    7.0774
   33.690    7.2038
   33.705    6.6351
   33.720    7.4776
   33.735    7.5619
   33.750    7.0248
   33.765    6.8036
   33.780    7.0669
   33.795    7.4882
   33.810    7.5935
   33.825    7.5619
   33.840    7.2775
   33.855    7.5724
   33.870    7.1933
   33.885    7.1301
   33.900    7.6777
   33.915    7.6251
   33.930    7.4671
   33.945    7.4671
   33.960    7.7409
   33.975    7.7514
   33.990    7.8568
   34.005    7.8673
   34.020    7.7409
   34.035    7.5513
   34.050    7.3512
   34.065    7.3407
   34.080    7.1722
   34.095    7.0037
   34.110    7.2249
   34.125    7.1301
   34.140    7.2249
   34.155    7.4566
   34.170    7.0985
   34.185    6.8773
   34.200    7.3618
   34.215    7.3828
   34.230    7.2880
   34.245    7.1301
   34.260    6.9300
   34.275    7.2143
   34.290    7.0879
   34.305    6.8668
   34.320    7.3407
   34.335    7.0248
   34.350    7.2775
   34.365    6.9616
   34.380    6.7825
   34.395    6.7825
   34.410    6.6877
   34.425    7.2249
   34.440    7.0774
   34.455    7.1722
   34.470    7.0248
   34.485    7.0563
   34.500    6.9405
   34.515    7.4355
   34.530    6.7615
   34.545    7.1933
   34.560    6.7720
   34.575    6.9616
   34.590    6.8457
   34.605    6.8878
   34.620    6.8668
   34.635    7.2249
   34.650    7.2249
   34.665    7.0985
   34.680    6.8352
   34.695    7.4566
   34.710    7.2775
   34.725    7.0563
   34.740    6.7615
   34.755    6.6140
   34.770    6.8878
   34.785    7.0563
   34.800    7.1722
   34.815    7.0563
   34.830    7.2670
   34.845    7.0563
   34.860    6.8457
   34.875    6.8668
   34.890    6.9721
   34.905    6.9194
   34.920    7.1617
   34.935    7.2565
   34.950    7.4460
   34.965    7.0458
   34.980    7.3407
   34.995    7.2143
   35.010    6.9405
   35.025    7.1406
   35.040    7.4460
   35.055    7.2249
   35.070    6.8141
   35.085    6.7825
   35.100    7.1195
   35.115    7.0669
   35.130    6.9089
   35.145    6.9405
   35.160    7.3091
   35.175    7.4250
   35.190    7.3512
   35.205    7.1090
   35.220    7.2249
   35.235    7.0458
   35.250    6.9405
   35.265    7.1090
   35.280    7.3828
   35.295    7.4144
   35.310    7.0142
   35.325    7.1827
   35.340    6.9721
   35.355    6.7404
   35.370    7.1617
   35.385    7.2354
   35.400    6.6983
   35.415    6.2981
   35.430    6.8036
   35.445    6.9932
   35.460    6.9510
   35.475    6.8036
   35.490    6.7930
   35.505    7.0985
   35.520    6.7930
   35.535    6.6245
   35.550    6.7509
   35.565    7.1406
   35.580    7.2565
   35.595    7.1511
   35.610    6.6877
   35.625    7.2143
   35.640    7.4355
   35.655    6.9616
   35.670    6.8036
   35.685    6.9300
   35.700    7.0458
   35.715    7.2670
   35.730    6.9194
   35.745    6.9405
   35.760    7.2986
   35.775    6.7615
   35.790    7.0563
   35.805    7.0037
   35.820    6.9721
   35.835    7.0037
   35.850    6.8562
   35.865    7.2986
   35.880    7.2565
   35.895    7.5619
   35.910    7.5408
   35.925    6.9194
   35.940    7.2880
   35.955    7.3091
   35.970    6.9405
   35.985    7.2249
   36.000    7.4882
   36.015    7.0037
   36.030    6.3296
   36.045    6.6877
   36.060    7.1301
   36.075    7.0774
   36.090    7.1301
   36.105    7.0563
   36.120    6.4876
   36.135    7.1090
   36.150    6.7193
   36.165    6.9300
   36.180    7.1933
   36.195    7.0458
   36.210    7.1827
   36.225    6.7088
   36.240    6.8141
   36.255    6.8036
   36.270    6.9089
   36.285    7.4039
   36.300    7.0248
   36.315    6.8246
   36.330    6.8246
   36.345    6.5719
   36.360    6.9300
   36.375    7.0353
   36.390    7.0879
   36.405    6.8984
   36.420    6.9194
   36.435    6.6983
   36.450    6.7930
   36.465    7.1511
   36.480    7.3302
   36.495    7.0142
   36.510    7.1301
   36.525    6.8984
   36.540    6.8984
   36.555    6.8352
   36.570    7.0879
   36.585    7.0774
   36.600    7.0248
   36.615    6.8036
   36.630    6.8457
   36.645    7.6040
   36.660    7.0353
   36.675    6.6245
   36.690    7.2038
   36.705    7.0669
   36.720    6.9721
   36.735    7.0037
   36.750    7.2143
   36.765    6.8246
   36.780    6.6983
   36.795    7.1827
   36.810    7.0879
   36.825    7.0458
   36.840    7.6040
   36.855    7.0985
   36.870    6.8457
   36.885    6.6877
   36.900    7.1511
   36.915    7.2038
   36.930    6.9194
   36.945    6.6561
   36.960    6.7930
   36.975    6.9300
   36.990    6.9932
   37.005    6.9616
   37.020    7.3196
   37.035    7.2249
   37.050    7.0142
   37.065    6.9194
   37.080    7.1406
   37.095    6.8036
   37.110    6.9300
   37.125    6.9300
   37.140    6.8036
   37.155    6.8352
   37.170    6.8246
   37.185    6.6561
   37.200    7.0458
   37.215    7.2775
   37.230    7.1195
   37.245    7.4144
   37.260    7.0248
   37.275    6.7720
   37.290    7.1301
   37.305    7.2249
   37.320    6.8457
   37.335    6.9194
   37.350    6.5192
   37.365    6.6877
   37.380    7.1406
   37.395    6.6140
   37.410    7.1511
   37.425    6.9932
   37.440    6.8141
   37.455    7.2143
   37.470    7.2143
   37.485    7.1722
   37.500    6.7404
   37.515    6.8878
   37.530    6.8668
   37.545    7.1301
   37.560    6.7193
   37.575    6.9510
   37.590    6.9616
   37.605    6.7930
   37.620    6.4771
   37.635    7.0563
   37.650    7.2565
   37.665    6.8773
   37.680    7.1933
   37.695    6.9826
   37.710    7.0458
   37.725    6.7720
   37.740    6.8141
   37.755    7.2038
   37.770    7.1933
   37.785    7.2249
   37.800    7.1933
   37.815    6.8457
   37.830    7.1722
   37.845    6.8562
   37.860    7.1827
   37.875    7.1827
   37.890    6.9089
   37.905    6.3191
   37.920    6.8878
   37.935    7.0879
   37.950    7.2143
   37.965    7.0879
   37.980    7.0248
   37.995    6.6772
   38.010    6.6772
   38.025    7.5935
   38.040    7.0563
   38.055    6.6351
   38.070    6.9194
   38.085    6.9616
   38.100    7.1827
   38.115    7.0353
   38.130    7.0037
   38.145    6.7088
   38.160    6.9510
   38.175    7.3723
   38.190    7.0879
   38.205    6.6772
   38.220    6.6667
   38.235    7.0774
   38.250    6.8141
   38.265    6.8141
   38.280    6.7404
   38.295    6.4771
   38.310    6.7088
   38.325    6.9616
   38.340    6.4666
   38.355    6.8141
   38.370    7.2354
   38.385    7.0353
   38.400    6.6983
   38.415    7.1617
   38.430    7.1406
   38.445    6.8878
   38.460    6.8562
   38.475    7.0458
   38.490    6.9405
   38.505    6.7825
   38.520    6.7509
   38.535    6.6877
   38.550    6.8984
   38.565    7.1301
   38.580    7.1090
   38.595    6.8352
   38.610    6.7404
   38.625    7.1722
   38.640    6.8141
   38.655    6.9826
   38.670    6.9405
   38.685    6.9405
   38.700    6.7193
   38.715    6.6877
   38.730    7.0774
   38.745    6.6772
   38.760    6.9194
   38.775    6.9721
   38.790    7.0985
   38.805    7.1406
   38.820    7.0142
   38.835    6.9616
   38.850    6.9932
   38.865    7.0458
   38.880    6.9826
   38.895    7.0458
   38.910    6.8457
   38.925    6.9510
   38.940    7.1617
   38.955    6.9510
   38.970    7.0774
   38.985    6.7615
   39.000    6.5298
   39.015    7.0353
   39.030    6.9194
   39.045    7.2143
   39.060    7.1933
   39.075    7.1933
   39.090    7.0774
   39.105    6.7193
   39.120    6.2875
   39.135    6.4876
   39.150    6.6877
   39.165    6.7720
   39.180    6.8562
   39.195    6.9932
   39.210    6.7825
   39.225    6.9826
   39.240    7.1933
   39.255    6.9405
   39.270    7.1617
   39.285    6.8668
   39.300    6.9089
   39.315    7.1301
   39.330    7.0774
   39.345    6.9932
   39.360    6.7825
   39.375    6.7615
   39.390    6.7720
   39.405    7.0985
   39.420    6.7088
   39.435    6.9300
   39.450    6.9194
   39.465    6.5087
   39.480    6.6561
   39.495    6.7615
   39.510    6.6456
   39.525    6.8457
   39.540    7.1722
   39.555    6.9300
   39.570    6.7404
   39.585    6.8457
   39.600    7.2986
   39.615    7.1617
   39.630    6.6035
   39.645    6.8668
   39.660    7.0458
   39.675    6.9089
   39.690    6.7404
   39.705    6.9405
   39.720    6.6456
   39.735    6.9300
   39.750    7.0669
   39.765    6.4139
   39.780    6.7404
   39.795    6.9932
   39.810    6.4350
   39.825    6.7404
   39.840    7.2670
   39.855    6.7825
   39.870    6.4350
   39.885    6.7404
   39.900    6.9405
   39.915    6.4982
   39.930    6.6772
   39.945    7.0985
   39.960    6.7088
   39.975    6.5929
   39.990    6.9194
