    1.500   10.3739
    1.515   10.5494
    1.530   10.1808
    1.545    9.7946
    1.560    9.6893
    1.575    9.6015
    1.590    9.9877
    1.605    9.7771
    1.620    9.8122
    1.635    9.4436
    1.650    8.9345
    1.665    8.7414
    1.680    9.0047
    1.695    8.6712
    1.710    8.6712
    1.725    8.1797
    1.740    8.4430
    1.755    7.6356
    1.770    7.6005
    1.785    7.9867
    1.800    8.3377
    1.815    7.7585
    1.830    7.6180
    1.845    7.4776
    1.860    7.6532
    1.875    7.5829
    1.890    7.5654
    1.905    7.6180
    1.920    7.2670
    1.935    7.0388
    1.950    7.1968
    1.965    7.1441
    1.980    6.8457
    1.995    6.9159
    2.010    6.6351
    2.025    6.5649
    2.040    6.4946
    2.055    6.4244
    2.070    5.9856
    2.085    6.3718
    2.100    6.8106
    2.115    6.1962
    2.130    5.9329
    2.145    6.1962
    2.160    6.1085
    2.175    6.4244
    2.190    5.7223
    2.205    5.9505
    2.220    5.8452
    2.235    5.5819
    2.250    5.9329
    2.265    5.6521
    2.280    5.5994
    2.295    5.7223
    2.310    5.9505
    2.325    5.6872
    2.340    5.3537
    2.355    5.4239
    2.370    5.6170
    2.385    5.4239
    2.400    5.5117
    2.415    5.3186
    2.430    5.3712
    2.445    4.8973
    2.460    5.2659
    2.475    5.7574
    2.490    5.8452
    2.505    5.3712
    2.520    5.3712
    2.535    5.5643
    2.550    5.2659
    2.565    5.1606
    2.580    5.2308
    2.595    5.4239
    2.610    5.5117
    2.625    5.1431
    2.640    5.1957
    2.655    5.7223
    2.670    4.8798
    2.685    4.8622
    2.700    5.0728
    2.715    5.3361
    2.730    4.8447
    2.745    5.0377
    2.760    5.0026
    2.775    5.0202
    2.790    4.4760
    2.805    5.0553
    2.820    5.2308
    2.835    5.0026
    2.850    5.2484
    2.865    5.1255
    2.880    4.7569
    2.895    4.9149
    2.910    4.9851
    2.925    4.9675
    2.940    4.7393
    2.955    4.9500
    2.970    4.6867
    2.985    4.7393
    3.000    4.7042
    3.015    5.0026
    3.030    5.0202
    3.045    5.0553
    3.060    4.7393
    3.075    4.5287
    3.090    4.6165
    3.105    4.6867
    3.120    5.0553
    3.135    4.6516
    3.150    4.8622
    3.165    4.7042
    3.180    4.9675
    3.195    4.7920
    3.210    4.9500
    3.225    5.0202
    3.240    5.0026
    3.255    4.7393
    3.270    4.7042
    3.285    4.4936
    3.300    4.4234
    3.315    4.3181
    3.330    4.3356
    3.345    4.5287
    3.360    4.6516
    3.375    4.5814
    3.390    4.7744
    3.405    4.4234
    3.420    4.3707
    3.435    4.4058
    3.450    4.4760
    3.465    4.5989
    3.480    4.6165
    3.495    4.8271
    3.510    4.9149
    3.525    4.9851
    3.540    4.4585
    3.555    4.3883
    3.570    4.2303
    3.585    4.3707
    3.600    4.6516
    3.615    4.8095
    3.630    4.6516
    3.645    4.7218
    3.660    4.2654
    3.675    4.4760
    3.690    4.4058
    3.705    4.4058
    3.720    4.1952
    3.735    4.2127
    3.750    4.5111
    3.765    4.3532
    3.780    4.4409
    3.795    4.4058
    3.810    4.4936
    3.825    4.3532
    3.840    4.3883
    3.855    4.5111
    3.870    4.4936
    3.885    4.6691
    3.900    4.7218
    3.915    4.8798
    3.930    4.4760
    3.945    4.3005
    3.960    4.5463
    3.975    4.5463
    3.990    4.4760
    4.005    4.7393
    4.020    4.5463
    4.035    4.5638
    4.050    4.7920
    4.065    4.3181
    4.080    4.4058
    4.095    4.4585
    4.110    4.1952
    4.125    4.2127
    4.140    4.0372
    4.155    4.5989
    4.170    4.8447
    4.185    4.4760
    4.200    4.6691
    4.215    4.4409
    4.230    5.0202
    4.245    4.8973
    4.260    4.4058
    4.275    4.7920
    4.290    4.5463
    4.305    4.0548
    4.320    4.3181
    4.335    4.3005
    4.350    4.3883
    4.365    4.2654
    4.380    4.0548
    4.395    4.1952
    4.410    4.4409
    4.425    4.6340
    4.440    4.4409
    4.455    4.5989
    4.470    4.7393
    4.485    4.7218
    4.500    4.5463
    4.515    4.6165
    4.530    4.3707
    4.545    4.3356
    4.560    4.5814
    4.575    4.1425
    4.590    4.0372
    4.605    4.3356
    4.620    3.9143
    4.635    4.2830
    4.650    4.1250
    4.665    4.3356
    4.680    4.4234
    4.695    4.5989
    4.710    4.4760
    4.725    4.7920
    4.740    4.5989
    4.755    4.0548
    4.770    4.5463
    4.785    4.6691
    4.800    4.1425
    4.815    4.4409
    4.830    4.4760
    4.845    4.5111
    4.860    4.9149
    4.875    4.6691
    4.890    4.7042
    4.905    4.4936
    4.920    4.3532
    4.935    4.3181
    4.950    4.2654
    4.965    4.3005
    4.980    4.0723
    4.995    4.3356
    5.010    4.2654
    5.025    4.5463
    5.040    4.3883
    5.055    4.1425
    5.070    4.0899
    5.085    4.2303
    5.100    4.5814
    5.115    4.2478
    5.130    3.7388
    5.145    4.5814
    5.160    4.4585
    5.175    4.1425
    5.190    4.1601
    5.205    4.4936
    5.220    4.6340
    5.235    4.7744
    5.250    4.3707
    5.265    4.2478
    5.280    4.4585
    5.295    4.6867
    5.310    4.5463
    5.325    4.2127
    5.340    4.5463
    5.355    4.4234
    5.370    4.6165
    5.385    4.1425
    5.400    4.4585
    5.415    4.5638
    5.430    4.6516
    5.445    4.5814
    5.460    4.3883
    5.475    4.1425
    5.490    4.1425
    5.505    4.9500
    5.520    4.7920
    5.535    4.4409
    5.550    4.2478
    5.565    4.5463
    5.580    4.9149
    5.595    4.6165
    5.610    4.6691
    5.625    4.7744
    5.640    4.3707
    5.655    4.8095
    5.670    4.7042
    5.685    4.5463
    5.700    5.1606
    5.715    4.2654
    5.730    4.2127
    5.745    4.4760
    5.760    4.7042
    5.775    4.8447
    5.790    4.1601
    5.805    4.4936
    5.820    4.4760
    5.835    4.6691
    5.850    4.6691
    5.865    4.4760
    5.880    4.2478
    5.895    4.4234
    5.910    4.1250
    5.925    4.0723
    5.940    4.0197
    5.955    4.1776
    5.970    4.4409
    5.985    4.6340
    6.000    4.6165
    6.015    4.3181
    6.030    4.6691
    6.045    4.3356
    6.060    4.3356
    6.075    4.0548
    6.090    4.5463
    6.105    4.4760
    6.120    3.9494
    6.135    4.2303
    6.150    4.3356
    6.165    4.3181
    6.180    4.3532
    6.195    4.3181
    6.210    4.3181
    6.225    4.2478
    6.240    4.4234
    6.255    4.1074
    6.270    4.5111
    6.285    4.2654
    6.300    4.2654
    6.315    4.5111
    6.330    4.6516
    6.345    4.3356
    6.360    4.3005
    6.375    4.5463
    6.390    4.4585
    6.405    4.3356
    6.420    4.7920
    6.435    4.6165
    6.450    4.7569
    6.465    4.5638
    6.480    4.4409
    6.495    4.3181
    6.510    4.3181
    6.525    4.5638
    6.540    4.5638
    6.555    4.5638
    6.570    4.6516
    6.585    4.5287
    6.600    4.6165
    6.615    4.3181
    6.630    4.7218
    6.645    4.8095
    6.660    4.5814
    6.675    4.7218
    6.690    4.5989
    6.705    4.3883
    6.720    4.5463
    6.735    4.3707
    6.750    4.3005
    6.765    4.2303
    6.780    4.1776
    6.795    4.3181
    6.810    4.7218
    6.825    4.6691
    6.840    4.3883
    6.855    4.2830
    6.870    4.4234
    6.885    4.4409
    6.900    4.8622
    6.915    4.8447
    6.930    4.5638
    6.945    4.4936
    6.960    4.0548
    6.975    4.4936
    6.990    4.1776
    7.005    4.3883
    7.020    4.4760
    7.035    4.6516
    7.050    4.5463
    7.065    4.7042
    7.080    4.4760
    7.095    4.4760
    7.110    4.8973
    7.125    4.9675
    7.140    4.5111
    7.155    4.4585
    7.170    4.5989
    7.185    4.8095
    7.200    4.7218
    7.215    4.4058
    7.230    4.8271
    7.245    4.9851
    7.260    4.7569
    7.275    4.1074
    7.290    4.5111
    7.305    4.6867
    7.320    4.7218
    7.335    4.8622
    7.350    4.8447
    7.365    4.6867
    7.380    4.7744
    7.395    4.2303
    7.410    4.3181
    7.425    4.5989
    7.440    4.8271
    7.455    4.7920
    7.470    4.6867
    7.485    4.5814
    7.500    4.7218
    7.515    4.9675
    7.530    4.8095
    7.545    4.7042
    7.560    4.7042
    7.575    5.0728
    7.590    4.5989
    7.605    4.9675
    7.620    4.8798
    7.635    4.7920
    7.650    4.2830
    7.665    4.6340
    7.680    4.8095
    7.695    4.7569
    7.710    4.5638
    7.725    4.7744
    7.740    4.6867
    7.755    4.7042
    7.770    4.7920
    7.785    4.4585
    7.800    4.6165
    7.815    4.9851
    7.830    5.0377
    7.845    4.9324
    7.860    4.8973
    7.875    4.5989
    7.890    4.4760
    7.905    4.4058
    7.920    4.6516
    7.935    4.7920
    7.950    5.0377
    7.965    5.1606
    7.980    4.9851
    7.995    4.5111
    8.010    4.9500
    8.025    4.6516
    8.040    4.9324
    8.055    4.4409
    8.070    4.5287
    8.085    4.7393
    8.100    4.6340
    8.115    4.7042
    8.130    4.9851
    8.145    4.7569
    8.160    5.2308
    8.175    4.8095
    8.190    4.9675
    8.205    5.0553
    8.220    4.8973
    8.235    5.0904
    8.250    4.9149
    8.265    4.7920
    8.280    4.5463
    8.295    5.0026
    8.310    5.0553
    8.325    4.3181
    8.340    5.1782
    8.355    4.6516
    8.370    4.4936
    8.385    4.8447
    8.400    5.1957
    8.415    5.0904
    8.430    5.0553
    8.445    4.9675
    8.460    4.9500
    8.475    4.9324
    8.490    4.8798
    8.505    5.3010
    8.520    5.3010
    8.535    4.9675
    8.550    4.7218
    8.565    4.8798
    8.580    5.3537
    8.595    4.9500
    8.610    4.9324
    8.625    5.0377
    8.640    5.0904
    8.655    4.8447
    8.670    5.0728
    8.685    4.5463
    8.700    5.2659
    8.715    5.0377
    8.730    4.9324
    8.745    5.0553
    8.760    5.1782
    8.775    4.8622
    8.790    5.2659
    8.805    5.3186
    8.820    5.3712
    8.835    5.3010
    8.850    5.0026
    8.865    4.8271
    8.880    5.0026
    8.895    5.3888
    8.910    5.3888
    8.925    5.5819
    8.940    5.4239
    8.955    4.9851
    8.970    5.0728
    8.985    5.1080
    9.000    4.9500
    9.015    5.0728
    9.030    4.9149
    9.045    4.7920
    9.060    5.2659
    9.075    5.2659
    9.090    5.6697
    9.105    5.4064
    9.120    5.3888
    9.135    5.4766
    9.150    4.9675
    9.165    5.1080
    9.180    5.2484
    9.195    5.4590
    9.210    5.5292
    9.225    5.0728
    9.240    5.3010
    9.255    5.4766
    9.270    5.3010
    9.285    5.4415
    9.300    5.3010
    9.315    5.3186
    9.330    5.3537
    9.345    5.0026
    9.360    5.3361
    9.375    5.8978
    9.390    5.8803
    9.405    5.4766
    9.420    5.3712
    9.435    5.2659
    9.450    4.8973
    9.465    5.1431
    9.480    5.5819
    9.495    5.5643
    9.510    5.5819
    9.525    5.3888
    9.540    5.4590
    9.555    5.4590
    9.570    5.1431
    9.585    5.3361
    9.600    5.2659
    9.615    5.0553
    9.630    4.8447
    9.645    4.9149
    9.660    5.1606
    9.675    4.9149
    9.690    4.8622
    9.705    5.5994
    9.720    5.4590
    9.735    5.4239
    9.750    5.4590
    9.765    5.2308
    9.780    4.9675
    9.795    5.0904
    9.810    5.1255
    9.825    5.3010
    9.840    5.0728
    9.855    5.1080
    9.870    5.3888
    9.885    5.2835
    9.900    5.8627
    9.915    5.4239
    9.930    5.1606
    9.945    5.4590
    9.960    5.3361
    9.975    5.5117
    9.990    5.6697
   10.005    5.1957
   10.020    5.5468
   10.035    5.1606
   10.050    5.2308
   10.065    5.1080
   10.080    5.1782
   10.095    5.1782
   10.110    5.4239
   10.125    5.2133
   10.140    5.2133
   10.155    5.1782
   10.170    5.4239
   10.185    5.1782
   10.200    5.4064
   10.215    5.2484
   10.230    5.0377
   10.245    5.4941
   10.260    5.3186
   10.275    5.0553
   10.290    5.2484
   10.305    5.3361
   10.320    5.3888
   10.335    5.5117
   10.350    5.4590
   10.365    5.5819
   10.380    5.0026
   10.395    5.1957
   10.410    5.5643
   10.425    5.5643
   10.440    5.1080
   10.455    4.8973
   10.470    5.1957
   10.485    5.2659
   10.500    5.1255
   10.515    5.1431
   10.530    5.2659
   10.545    4.9324
   10.560    4.9149
   10.575    5.2835
   10.590    5.3537
   10.605    4.5989
   10.620    5.1606
   10.635    5.0553
   10.650    5.4415
   10.665    5.6345
   10.680    4.9851
   10.695    4.8973
   10.710    5.4239
   10.725    5.1957
   10.740    5.3010
   10.755    5.0202
   10.770    4.8271
   10.785    5.1957
   10.800    4.8271
   10.815    5.4590
   10.830    5.3888
   10.845    5.4239
   10.860    5.3888
   10.875    4.7393
   10.890    4.9851
   10.905    4.7569
   10.920    4.7569
   10.935    4.8622
   10.950    5.7750
   10.965    5.0728
   10.980    4.8447
   10.995    4.9500
   11.010    5.0377
   11.025    5.1957
   11.040    4.9149
   11.055    4.7920
   11.070    4.9851
   11.085    5.1255
   11.100    4.8095
   11.115    5.0553
   11.130    5.0904
   11.145    5.0728
   11.160    5.4766
   11.175    5.4064
   11.190    5.2133
   11.205    4.9851
   11.220    4.8973
   11.235    5.2133
   11.250    4.7218
   11.265    5.4415
   11.280    5.6170
   11.295    4.9851
   11.310    4.6867
   11.325    5.2484
   11.340    4.5989
   11.355    4.4936
   11.370    4.7920
   11.385    5.1606
   11.400    5.3888
   11.415    5.5117
   11.430    4.7569
   11.445    4.8095
   11.460    4.6165
   11.475    4.4409
   11.490    4.7218
   11.505    5.3186
   11.520    4.8798
   11.535    4.9675
   11.550    4.7393
   11.565    4.6691
   11.580    4.7744
   11.595    5.0202
   11.610    5.0026
   11.625    4.6340
   11.640    4.5111
   11.655    5.1957
   11.670    5.0553
   11.685    4.6867
   11.700    5.0026
   11.715    4.8622
   11.730    4.8271
   11.745    4.8095
   11.760    4.6516
   11.775    4.5989
   11.790    4.7393
   11.805    5.0553
   11.820    4.5638
   11.835    4.5638
   11.850    4.8271
   11.865    4.4585
   11.880    4.5814
   11.895    4.5287
   11.910    4.2830
   11.925    4.9675
   11.940    4.5989
   11.955    5.0728
   11.970    5.1957
   11.985    4.9851
   12.000    4.2303
   12.015    4.0197
   12.030    4.3883
   12.045    4.1952
   12.060    4.5814
   12.075    4.2830
   12.090    4.4936
   12.105    4.6516
   12.120    4.7920
   12.135    4.8798
   12.150    4.8271
   12.165    4.5463
   12.180    4.4234
   12.195    4.5287
   12.210    4.5814
   12.225    4.8095
   12.240    4.8447
   12.255    4.3532
   12.270    4.9851
   12.285    4.8271
   12.300    4.9851
   12.315    4.7218
   12.330    4.5463
   12.345    4.5463
   12.360    4.3883
   12.375    4.4936
   12.390    4.4936
   12.405    4.5814
   12.420    4.4760
   12.435    4.3181
   12.450    4.5463
   12.465    4.6516
   12.480    4.0723
   12.495    4.2303
   12.510    4.2654
   12.525    4.9324
   12.540    4.6340
   12.555    4.1776
   12.570    4.1074
   12.585    4.1425
   12.600    4.3181
   12.615    4.4936
   12.630    4.5814
   12.645    4.5111
   12.660    4.2478
   12.675    4.5287
   12.690    4.7744
   12.705    4.6340
   12.720    4.6165
   12.735    4.3883
   12.750    4.1776
   12.765    4.2478
   12.780    4.7218
   12.795    4.2303
   12.810    4.3707
   12.825    4.2654
   12.840    4.4585
   12.855    4.6691
   12.870    4.6516
   12.885    4.3532
   12.900    4.0197
   12.915    4.3532
   12.930    4.6340
   12.945    4.2654
   12.960    4.2654
   12.975    4.1776
   12.990    4.1601
   13.005    4.8095
   13.020    4.5638
   13.035    4.4234
   13.050    4.2830
   13.065    4.4234
   13.080    4.8095
   13.095    4.2303
   13.110    4.4585
   13.125    4.4409
   13.140    4.2830
   13.155    4.3883
   13.170    4.3356
   13.185    4.4234
   13.200    4.3005
   13.215    4.1074
   13.230    4.5111
   13.245    4.3181
   13.260    3.9670
   13.275    4.4234
   13.290    4.4409
   13.305    4.5989
   13.320    4.1952
   13.335    4.1250
   13.350    4.3532
   13.365    4.5638
   13.380    4.4585
   13.395    4.6516
   13.410    4.5814
   13.425    4.4234
   13.440    4.5814
   13.455    4.0021
   13.470    4.1425
   13.485    4.7042
   13.500    4.4760
   13.515    4.5814
   13.530    3.7915
   13.545    4.1250
   13.560    4.2830
   13.575    4.2127
   13.590    4.4058
   13.605    4.2830
   13.620    4.5814
   13.635    4.7744
   13.650    4.4234
   13.665    4.4936
   13.680    4.1952
   13.695    4.4234
   13.710    4.3005
   13.725    4.3356
   13.740    4.1250
   13.755    4.1425
   13.770    4.1952
   13.785    4.6165
   13.800    4.4234
   13.815    4.2127
   13.830    3.9846
   13.845    4.2830
   13.860    4.2830
   13.875    4.3883
   13.890    4.1776
   13.905    4.4760
   13.920    4.6340
   13.935    4.4585
   13.950    4.4760
   13.965    4.3707
   13.980    4.9851
   13.995    4.4936
   14.010    4.0548
   14.025    4.0021
   14.040    4.3532
   14.055    4.4058
   14.070    4.1601
   14.085    4.3181
   14.100    4.2654
   14.115    4.4585
   14.130    4.3707
   14.145    4.4760
   14.160    4.2478
   14.175    4.5111
   14.190    4.4760
   14.205    4.6340
   14.220    4.2127
   14.235    4.7569
   14.250    4.7042
   14.265    4.3532
   14.280    4.4058
   14.295    4.2478
   14.310    4.5287
   14.325    4.4409
   14.340    4.3532
   14.355    4.2654
   14.370    4.4234
   14.385    4.4936
   14.400    4.2303
   14.415    4.4585
   14.430    4.0197
   14.445    4.4409
   14.460    4.1952
   14.475    4.1074
   14.490    4.4234
   14.505    4.7393
   14.520    4.3356
   14.535    4.6691
   14.550    4.3883
   14.565    4.4409
   14.580    4.8798
   14.595    4.4936
   14.610    4.5989
   14.625    4.3005
   14.640    4.4409
   14.655    4.3356
   14.670    4.5814
   14.685    4.1250
   14.700    4.0548
   14.715    4.2830
   14.730    4.3356
   14.745    4.4760
   14.760    4.1776
   14.775    4.1952
   14.790    4.3707
   14.805    4.3181
   14.820    4.4936
   14.835    4.3532
   14.850    4.1425
   14.865    4.3707
   14.880    4.2830
   14.895    4.4409
   14.910    4.0372
   14.925    4.1250
   14.940    4.4234
   14.955    4.1074
   14.970    4.0021
   14.985    4.0548
   15.000    4.2478
   15.015    4.5111
   15.030    4.2127
   15.045    4.3005
   15.060    4.5111
   15.075    4.3532
   15.090    4.4585
   15.105    4.4760
   15.120    4.2830
   15.135    4.0723
   15.150    4.2127
   15.165    4.3005
   15.180    4.1776
   15.195    4.4585
   15.210    4.4234
   15.225    4.3707
   15.240    4.0723
   15.255    4.5287
   15.270    4.7393
   15.285    4.3356
   15.300    4.7393
   15.315    4.5814
   15.330    4.5814
   15.345    4.3356
   15.360    4.1250
   15.375    4.0197
   15.390    4.1776
   15.405    4.5638
   15.420    4.3707
   15.435    4.2654
   15.450    3.6862
   15.465    4.3005
   15.480    4.4058
   15.495    4.2127
   15.510    4.3532
   15.525    4.5287
   15.540    4.2303
   15.555    4.2654
   15.570    4.2830
   15.585    4.3883
   15.600    4.3181
   15.615    4.5111
   15.630    4.6165
   15.645    4.4936
   15.660    4.5463
   15.675    4.4760
   15.690    4.2478
   15.705    4.3005
   15.720    4.5463
   15.735    4.1250
   15.750    4.4409
   15.765    4.6691
   15.780    4.8095
   15.795    4.3707
   15.810    4.4409
   15.825    4.3707
   15.840    4.0723
   15.855    4.0372
   15.870    4.2654
   15.885    4.3883
   15.900    4.4760
   15.915    4.4409
   15.930    4.6165
   15.945    5.0026
   15.960    4.7218
   15.975    4.7042
   15.990    4.3707
   16.005    4.0548
   16.020    4.0548
   16.035    4.4936
   16.050    4.2478
   16.065    4.0899
   16.080    4.7569
   16.095    4.7393
   16.110    4.5989
   16.125    4.6867
   16.140    4.5287
   16.155    4.1074
   16.170    4.2127
   16.185    3.9494
   16.200    4.1425
   16.215    4.6340
   16.230    4.3532
   16.245    4.4409
   16.260    4.4058
   16.275    4.3532
   16.290    4.4409
   16.305    4.3707
   16.320    4.1425
   16.335    4.1250
   16.350    3.6159
   16.365    4.3181
   16.380    4.1601
   16.395    4.1776
   16.410    4.1952
   16.425    4.2830
   16.440    4.2830
   16.455    4.1250
   16.470    4.1952
   16.485    4.5463
   16.500    4.5463
   16.515    4.3181
   16.530    4.2303
   16.545    4.3707
   16.560    4.3532
   16.575    4.1776
   16.590    4.1776
   16.605    3.8266
   16.620    4.0548
   16.635    4.4234
   16.650    4.5111
   16.665    4.3883
   16.680    4.0899
   16.695    4.6340
   16.710    4.4585
   16.725    4.0197
   16.740    4.3005
   16.755    4.6691
   16.770    4.2127
   16.785    4.2478
   16.800    3.9846
   16.815    4.3181
   16.830    4.5989
   16.845    4.3356
   16.860    4.8447
   16.875    4.4585
   16.890    4.2654
   16.905    4.2303
   16.920    4.2478
   16.935    4.4760
   16.950    4.2478
   16.965    4.6165
   16.980    4.6516
   16.995    4.4058
   17.010    4.4409
   17.025    4.2478
   17.040    4.2830
   17.055    4.4936
   17.070    4.3005
   17.085    4.3532
   17.100    4.4234
   17.115    4.3005
   17.130    3.8617
   17.145    4.1425
   17.160    4.6867
   17.175    3.9319
   17.190    4.2654
   17.205    4.1601
   17.220    3.9319
   17.235    4.0723
   17.250    4.3181
   17.265    4.0372
   17.280    3.7213
   17.295    4.3181
   17.310    4.5111
   17.325    4.5814
   17.340    4.3005
   17.355    4.1074
   17.370    4.0197
   17.385    4.2478
   17.400    4.0372
   17.415    4.4585
   17.430    4.3883
   17.445    4.4234
   17.460    4.6691
   17.475    4.2830
   17.490    4.2303
   17.505    4.4234
   17.520    4.2303
   17.535    4.2303
   17.550    4.7393
   17.565    4.4585
   17.580    4.7042
   17.595    4.7920
   17.610    4.2654
   17.625    4.1601
   17.640    4.5989
   17.655    4.2478
   17.670    4.2127
   17.685    4.7393
   17.700    4.3532
   17.715    4.3532
   17.730    4.3181
   17.745    4.3181
   17.760    4.1601
   17.775    4.1250
   17.790    4.3883
   17.805    4.3707
   17.820    4.3532
   17.835    4.1425
   17.850    4.1776
   17.865    4.2303
   17.880    4.0372
   17.895    4.1776
   17.910    4.3532
   17.925    4.3707
   17.940    4.1952
   17.955    4.1776
   17.970    3.9319
   17.985    4.0899
   18.000    4.2127
   18.015    4.2478
   18.030    4.3883
   18.045    4.4409
   18.060    4.6691
   18.075    4.5989
   18.090    4.0899
   18.105    4.3356
   18.120    4.1250
   18.135    3.8090
   18.150    4.0899
   18.165    4.1601
   18.180    3.9319
   18.195    4.3356
   18.210    4.3532
   18.225    5.1431
   18.240    4.5989
   18.255    4.5989
   18.270    4.1776
   18.285    4.1952
   18.300    4.6516
   18.315    4.1425
   18.330    4.1952
   18.345    4.0197
   18.360    4.2654
   18.375    4.6340
   18.390    4.3181
   18.405    4.0548
   18.420    4.3532
   18.435    4.5814
   18.450    4.8271
   18.465    4.2127
   18.480    4.1074
   18.495    3.9143
   18.510    4.3707
   18.525    4.1776
   18.540    4.5463
   18.555    4.6691
   18.570    4.0197
   18.585    4.2303
   18.600    4.2127
   18.615    3.8441
   18.630    4.0899
   18.645    4.4936
   18.660    4.5814
   18.675    4.0723
   18.690    4.3005
   18.705    4.2654
   18.720    4.1250
   18.735    4.6516
   18.750    4.4058
   18.765    3.8792
   18.780    4.3181
   18.795    4.5989
   18.810    4.2303
   18.825    4.5287
   18.840    4.4058
   18.855    4.0899
   18.870    4.0197
   18.885    4.3005
   18.900    4.5287
   18.915    4.2654
   18.930    4.0548
   18.945    4.3005
   18.960    4.3883
   18.975    4.6516
   18.990    4.8622
   19.005    4.8622
   19.020    4.7569
   19.035    4.4058
   19.050    4.4409
   19.065    4.5111
   19.080    4.2654
   19.095    4.5287
   19.110    4.6516
   19.125    4.4234
   19.140    4.1776
   19.155    4.5638
   19.170    4.5638
   19.185    4.7042
   19.200    4.3181
   19.215    4.5463
   19.230    4.3532
   19.245    4.4058
   19.260    4.4409
   19.275    4.2127
   19.290    4.2303
   19.305    3.7739
   19.320    4.1250
   19.335    4.5463
   19.350    4.3181
   19.365    4.2654
   19.380    4.4058
   19.395    4.2478
   19.410    4.1074
   19.425    4.3356
   19.440    4.0021
   19.455    4.1952
   19.470    4.6340
   19.485    4.2127
   19.500    4.2654
   19.515    4.7393
   19.530    4.6867
   19.545    4.2127
   19.560    4.3532
   19.575    3.9494
   19.590    4.2303
   19.605    4.4760
   19.620    4.4936
   19.635    4.5814
   19.650    4.6165
   19.665    4.6867
   19.680    4.5287
   19.695    4.4058
   19.710    4.5111
   19.725    4.6340
   19.740    4.2478
   19.755    4.5638
   19.770    4.3181
   19.785    4.5814
   19.800    4.5638
   19.815    4.3532
   19.830    4.4760
   19.845    4.2127
   19.860    3.9319
   19.875    4.4409
   19.890    4.2830
   19.905    4.3883
   19.920    4.7218
   19.935    4.3005
   19.950    4.2303
   19.965    4.2127
   19.980    4.8447
   19.995    4.6691
   20.010    4.8271
   20.025    4.8095
   20.040    4.5463
   20.055    4.1952
   20.070    4.5989
   20.085    4.7218
   20.100    4.6516
   20.115    4.6340
   20.130    4.5638
   20.145    4.7218
   20.160    4.4585
   20.175    4.4409
   20.190    4.3532
   20.205    4.4936
   20.220    4.4058
   20.235    4.1601
   20.250    4.3707
   20.265    4.4585
   20.280    4.5638
   20.295    4.5989
   20.310    4.7393
   20.325    4.3707
   20.340    4.4234
   20.355    4.4936
   20.370    4.7744
   20.385    4.3883
   20.400    3.8968
   20.415    4.7393
   20.430    4.7920
   20.445    4.2654
   20.460    4.7042
   20.475    4.6165
   20.490    4.5463
   20.505    4.5287
   20.520    4.3356
   20.535    3.8617
   20.550    4.0548
   20.565    4.1776
   20.580    4.3883
   20.595    4.0197
   20.610    4.4760
   20.625    4.5111
   20.640    4.4760
   20.655    4.3005
   20.670    4.2478
   20.685    4.8271
   20.700    4.4234
   20.715    4.1776
   20.730    4.3356
   20.745    4.6691
   20.760    4.6867
   20.775    4.5463
   20.790    4.2654
   20.805    4.7218
   20.820    4.5463
   20.835    4.8622
   20.850    4.8622
   20.865    4.5287
   20.880    4.7042
   20.895    4.5463
   20.910    4.4058
   20.925    4.5463
   20.940    4.4760
   20.955    4.3005
   20.970    4.7920
   20.985    4.5463
   21.000    4.3181
   21.015    4.5989
   21.030    4.7042
   21.045    4.5814
   21.060    4.3181
   21.075    4.2478
   21.090    4.6340
   21.105    4.5463
   21.120    4.1952
   21.135    4.3532
   21.150    4.4585
   21.165    4.2830
   21.180    4.2303
   21.195    4.3532
   21.210    4.6516
   21.225    4.8095
   21.240    5.0026
   21.255    4.8447
   21.270    4.2127
   21.285    4.2654
   21.300    4.5463
   21.315    4.5814
   21.330    4.5287
   21.345    4.0899
   21.360    4.3707
   21.375    4.8271
   21.390    4.4234
   21.405    4.4760
   21.420    4.7218
   21.435    4.7218
   21.450    4.4058
   21.465    4.4585
   21.480    4.4585
   21.495    4.8973
   21.510    4.2654
   21.525    4.7920
   21.540    4.9149
   21.555    4.8798
   21.570    4.5814
   21.585    4.5287
   21.600    4.3181
   21.615    4.8271
   21.630    4.5111
   21.645    4.4760
   21.660    4.2303
   21.675    4.6691
   21.690    4.7393
   21.705    4.7393
   21.720    4.9675
   21.735    4.8095
   21.750    4.9149
   21.765    4.5287
   21.780    4.5111
   21.795    4.5111
   21.810    4.4058
   21.825    4.3181
   21.840    4.2654
   21.855    4.3883
   21.870    4.7569
   21.885    4.8095
   21.900    4.3356
   21.915    4.5638
   21.930    4.4234
   21.945    5.0904
   21.960    4.3005
   21.975    4.1952
   21.990    4.3181
   22.005    4.7744
   22.020    4.5638
   22.035    4.5638
   22.050    4.6867
   22.065    4.4760
   22.080    4.5463
   22.095    4.7042
   22.110    4.4234
   22.125    4.8798
   22.140    4.8447
   22.155    4.5814
   22.170    4.7569
   22.185    4.8798
   22.200    4.4760
   22.215    4.5814
   22.230    4.5463
   22.245    3.8968
   22.260    4.0197
   22.275    4.8447
   22.290    4.7042
   22.305    4.4234
   22.320    4.7920
   22.335    4.4936
   22.350    4.4936
   22.365    4.3181
   22.380    4.4760
   22.395    4.9324
   22.410    4.7042
   22.425    4.4234
   22.440    4.5638
   22.455    4.5814
   22.470    4.7218
   22.485    4.5287
   22.500    4.9149
   22.515    4.4058
   22.530    4.5463
   22.545    4.6165
   22.560    4.5989
   22.575    4.7920
   22.590    4.4585
   22.605    4.5989
   22.620    4.4936
   22.635    4.7569
   22.650    4.4409
   22.665    4.7393
   22.680    4.3005
   22.695    4.4760
   22.710    4.2303
   22.725    4.7218
   22.740    4.8622
   22.755    4.4585
   22.770    4.6867
   22.785    4.5111
   22.800    4.4760
   22.815    4.6867
   22.830    4.9149
   22.845    4.8271
   22.860    4.7920
   22.875    4.5814
   22.890    4.5287
   22.905    4.5463
   22.920    4.5638
   22.935    4.8973
   22.950    4.4936
   22.965    4.3707
   22.980    4.3356
   22.995    4.5111
   23.010    4.7393
   23.025    4.7744
   23.040    4.0021
   23.055    4.5638
   23.070    4.9675
   23.085    4.4058
   23.100    4.2654
   23.115    4.1425
   23.130    4.3005
   23.145    4.4058
   23.160    4.2478
   23.175    4.2654
   23.190    4.4936
   23.205    4.3883
   23.220    4.3883
   23.235    4.6340
   23.250    4.5111
   23.265    4.3181
   23.280    4.2830
   23.295    4.5638
   23.310    4.7744
   23.325    4.6516
   23.340    4.7218
   23.355    5.0202
   23.370    4.5638
   23.385    4.5814
   23.400    4.2303
   23.415    4.3356
   23.430    4.3532
   23.445    4.5814
   23.460    4.5989
   23.475    4.3883
   23.490    4.8095
   23.505    4.7744
   23.520    4.0021
   23.535    4.4760
   23.550    4.2654
   23.565    4.3181
   23.580    4.5989
   23.595    4.4585
   23.610    4.4058
   23.625    4.7218
   23.640    4.8095
   23.655    4.6165
   23.670    4.7920
   23.685    4.4058
   23.700    4.6516
   23.715    4.5989
   23.730    4.4936
   23.745    4.2303
   23.760    4.3356
   23.775    4.4409
   23.790    4.6165
   23.805    4.5111
   23.820    4.5111
   23.835    4.4409
   23.850    4.5814
   23.865    4.4058
   23.880    4.1425
   23.895    4.4585
   23.910    4.1952
   23.925    4.2654
   23.940    4.3532
   23.955    4.6165
   23.970    4.3005
   23.985    4.3356
   24.000    4.1601
   24.015    4.6165
   24.030    4.6165
   24.045    5.0553
   24.060    4.5463
   24.075    4.4409
   24.090    4.3356
   24.105    4.8798
   24.120    4.5287
   24.135    4.7042
   24.150    4.4409
   24.165    4.1952
   24.180    4.4409
   24.195    4.2303
   24.210    4.4234
   24.225    4.9149
   24.240    4.3707
   24.255    4.4936
   24.270    4.0899
   24.285    4.5111
   24.300    4.8973
   24.315    4.8271
   24.330    4.3532
   24.345    4.3005
   24.360    4.3181
   24.375    4.3181
   24.390    4.3005
   24.405    4.1601
   24.420    4.2830
   24.435    4.7042
   24.450    4.5111
   24.465    4.3532
   24.480    4.2478
   24.495    4.4936
   24.510    4.4234
   24.525    4.9500
   24.540    4.3707
   24.555    4.3532
   24.570    4.5989
   24.585    4.4585
   24.600    3.9494
   24.615    4.3883
   24.630    4.5463
   24.645    4.7569
   24.660    4.5638
   24.675    4.4058
   24.690    4.4936
   24.705    4.5989
   24.720    4.1776
   24.735    4.1776
   24.750    4.7569
   24.765    4.6340
   24.780    4.4936
   24.795    4.7744
   24.810    4.4585
   24.825    4.4409
   24.840    4.3005
   24.855    4.2303
   24.870    4.4058
   24.885    4.5111
   24.900    4.4234
   24.915    4.5287
   24.930    4.2127
   24.945    4.7569
   24.960    4.6165
   24.975    4.5638
   24.990    4.5287
   25.005    4.3181
   25.020    4.0372
   25.035    4.1601
   25.050    4.2478
   25.065    4.1601
   25.080    4.2654
   25.095    4.7393
   25.110    4.5287
   25.125    4.5989
   25.140    4.6691
   25.155    4.5638
   25.170    4.5463
   25.185    4.1952
   25.200    4.4234
   25.215    4.2127
   25.230    4.1776
   25.245    4.0197
   25.260    4.1074
   25.275    4.2654
   25.290    4.3532
   25.305    4.4234
   25.320    4.2830
   25.335    4.5463
   25.350    4.4760
   25.365    4.5287
   25.380    4.3181
   25.395    4.0372
   25.410    4.4936
   25.425    4.4058
   25.440    4.5463
   25.455    4.6165
   25.470    4.5814
   25.485    4.7744
   25.500    4.1776
   25.515    4.5638
   25.530    4.7393
   25.545    4.5814
   25.560    4.6867
   25.575    4.4234
   25.590    4.6340
   25.605    4.7042
   25.620    4.2127
   25.635    4.1776
   25.650    4.0021
   25.665    4.1074
   25.680    4.7393
   25.695    4.0548
   25.710    4.3883
   25.725    4.7042
   25.740    4.6165
   25.755    4.1952
   25.770    4.2303
   25.785    4.2127
   25.800    4.2830
   25.815    4.3356
   25.830    4.6691
   25.845    4.6691
   25.860    4.3356
   25.875    4.4760
   25.890    4.4760
   25.905    4.6867
   25.920    4.6340
   25.935    4.0021
   25.950    3.9319
   25.965    4.4409
   25.980    4.1425
   25.995    4.0723
   26.010    4.3356
   26.025    4.6516
   26.040    4.5814
   26.055    4.2478
   26.070    4.4058
   26.085    4.7393
   26.100    4.3181
   26.115    4.4760
   26.130    4.2478
   26.145    4.0899
   26.160    4.5814
   26.175    4.4409
   26.190    4.4585
   26.205    4.2654
   26.220    4.4585
   26.235    4.5989
   26.250    4.3356
   26.265    4.1425
   26.280    4.6691
   26.295    4.4234
   26.310    4.1601
   26.325    3.9319
   26.340    4.2303
   26.355    4.5111
   26.370    4.2654
   26.385    4.3883
   26.400    3.9670
   26.415    4.0197
   26.430    4.0548
   26.445    4.4058
   26.460    4.5111
   26.475    4.1776
   26.490    4.1074
   26.505    4.2303
   26.520    3.8792
   26.535    4.2478
   26.550    4.0197
   26.565    4.0372
   26.580    4.5463
   26.595    4.5287
   26.610    4.4058
   26.625    4.5111
   26.640    4.3356
   26.655    4.3707
   26.670    4.4585
   26.685    4.4585
   26.700    4.4058
   26.715    4.2303
   26.730    4.1952
   26.745    4.0548
   26.760    4.0197
   26.775    4.1952
   26.790    4.3883
   26.805    4.7744
   26.820    4.5111
   26.835    4.2654
   26.850    4.2478
   26.865    4.6516
   26.880    3.9670
   26.895    4.0723
   26.910    4.1776
   26.925    4.1776
   26.940    4.6691
   26.955    4.0548
   26.970    4.3883
   26.985    4.3883
   27.000    4.1601
   27.015    4.2830
   27.030    4.4585
   27.045    4.4760
   27.060    4.2830
   27.075    4.3532
   27.090    4.5287
   27.105    4.3532
   27.120    4.1074
   27.135    4.4936
   27.150    3.8792
   27.165    3.8266
   27.180    4.2654
   27.195    4.5638
   27.210    4.2830
   27.225    4.4760
   27.240    4.4058
   27.255    4.0021
   27.270    4.1776
   27.285    4.1425
   27.300    4.2654
   27.315    4.1250
   27.330    3.7564
   27.345    4.0899
   27.360    3.8792
   27.375    3.9494
   27.390    3.6686
   27.405    3.9670
   27.420    4.4058
   27.435    4.5111
   27.450    4.2303
   27.465    4.3883
   27.480    3.9319
   27.495    3.8266
   27.510    3.8617
   27.525    3.8441
   27.540    4.3532
   27.555    3.9846
   27.570    3.8441
   27.585    3.9494
   27.600    3.9143
   27.615    4.3181
   27.630    4.0372
   27.645    4.0548
   27.660    3.7915
   27.675    4.1425
   27.690    4.1601
   27.705    4.4936
   27.720    4.3883
   27.735    4.1776
   27.750    4.0723
   27.765    4.5463
   27.780    4.8271
   27.795    4.5111
   27.810    4.2127
   27.825    3.8441
   27.840    3.9494
   27.855    3.8968
   27.870    4.1074
   27.885    4.1074
   27.900    4.6340
   27.915    4.2478
   27.930    4.1952
   27.945    4.0548
   27.960    4.1776
   27.975    3.6159
   27.990    3.8090
   28.005    4.0197
   28.020    4.0372
   28.035    4.2830
   28.050    3.8441
   28.065    4.0197
   28.080    4.7042
   28.095    4.6165
   28.110    4.1250
   28.125    4.1952
   28.140    3.8090
   28.155    4.0372
   28.170    3.8441
   28.185    4.1250
   28.200    3.8090
   28.215    4.2127
   28.230    3.9319
   28.245    4.1601
   28.260    4.0197
   28.275    3.9494
   28.290    3.8968
   28.305    4.1250
   28.320    4.1074
   28.335    3.7564
   28.350    4.2478
   28.365    4.3883
   28.380    4.2303
   28.395    4.2478
   28.410    4.2654
   28.425    4.0021
   28.440    4.0548
   28.455    4.3532
   28.470    4.0723
   28.485    3.9143
   28.500    3.7739
   28.515    4.0548
   28.530    3.7564
   28.545    4.2127
   28.560    4.1250
   28.575    3.9319
   28.590    3.6159
   28.605    3.8792
   28.620    4.0548
   28.635    4.1250
   28.650    3.9846
   28.665    4.3532
   28.680    3.9319
   28.695    4.2478
   28.710    4.0372
   28.725    4.3532
   28.740    4.2478
   28.755    3.6862
   28.770    3.9846
   28.785    4.0197
   28.800    4.2478
   28.815    4.3181
   28.830    4.3883
   28.845    4.2303
   28.860    4.1074
   28.875    4.3883
   28.890    4.0899
   28.905    3.8617
   28.920    4.1425
   28.935    4.1074
   28.950    4.0899
   28.965    4.2127
   28.980    4.1074
   28.995    3.9143
   29.010    4.3005
   29.025    4.3532
   29.040    4.3005
   29.055    3.8792
   29.070    4.3005
   29.085    3.8617
   29.100    3.9846
   29.115    4.5287
   29.130    3.9846
   29.145    3.8266
   29.160    3.8090
   29.175    3.8266
   29.190    4.0197
   29.205    4.3356
   29.220    4.1425
   29.235    3.7037
   29.250    3.6510
   29.265    3.5808
   29.280    4.2478
   29.295    3.8968
   29.310    4.2127
   29.325    3.9670
   29.340    3.9494
   29.355    3.9670
   29.370    4.1074
   29.385    3.9494
   29.400    4.3181
   29.415    4.1250
   29.430    3.7915
   29.445    3.8792
   29.460    4.2127
   29.475    3.9494
   29.490    3.6862
   29.505    4.2478
   29.520    3.6862
   29.535    3.8266
   29.550    4.0021
   29.565    3.7915
   29.580    3.7213
   29.595    3.8792
   29.610    3.6862
   29.625    3.9670
   29.640    3.9846
   29.655    3.8792
   29.670    3.7213
   29.685    4.0548
   29.700    4.0021
   29.715    4.3181
   29.730    4.1425
   29.745    4.2303
   29.760    4.2830
   29.775    3.8441
   29.790    4.1952
   29.805    4.0899
   29.820    3.7915
   29.835    3.7915
   29.850    3.7388
   29.865    4.0021
   29.880    3.9494
   29.895    3.6335
   29.910    3.7388
   29.925    3.8792
   29.940    3.7564
   29.955    3.5106
   29.970    3.6686
   29.985    3.5984
   30.000    3.6686
   30.015    3.7564
   30.030    3.9319
   30.045    3.7739
   30.060    3.7739
   30.075    3.8090
   30.090    3.6510
   30.105    4.0899
   30.120    3.8441
   30.135    4.0372
   30.150    3.9670
   30.165    3.7213
   30.180    3.8441
   30.195    3.7213
   30.210    3.7564
   30.225    3.5633
   30.240    3.8090
   30.255    4.2127
   30.270    3.6862
   30.285    3.7739
   30.300    4.0197
   30.315    4.1074
   30.330    3.9670
   30.345    3.9319
   30.360    3.8617
   30.375    3.7213
   30.390    3.5457
   30.405    3.7564
   30.420    4.0548
   30.435    3.8617
   30.450    3.6335
   30.465    3.6686
   30.480    4.0372
   30.495    3.5808
   30.510    4.1074
   30.525    3.9670
   30.540    4.0899
   30.555    3.8090
   30.570    3.8090
   30.585    3.8792
   30.600    4.3005
   30.615    3.9846
   30.630    3.6862
   30.645    3.9846
   30.660    3.6159
   30.675    3.5808
   30.690    4.1250
   30.705    4.3181
   30.720    4.1250
   30.735    3.6862
   30.750    3.8441
   30.765    3.8617
   30.780    3.7915
   30.795    3.5808
   30.810    3.5282
   30.825    4.0723
   30.840    3.5808
   30.855    3.8441
   30.870    3.9494
   30.885    3.6862
   30.900    3.7388
   30.915    3.8617
   30.930    3.4755
   30.945    3.3526
   30.960    3.6159
   30.975    3.8090
   30.990    3.7739
   31.005    3.7037
   31.020    3.6335
   31.035    3.7564
   31.050    3.7388
   31.065    3.5282
   31.080    3.7564
   31.095    3.8792
   31.110    3.7037
   31.125    3.6159
   31.140    3.5457
   31.155    3.7037
   31.170    3.5282
   31.185    3.3175
   31.200    3.5984
   31.215    3.5282
   31.230    3.4053
   31.245    3.2473
   31.260    3.6862
   31.275    3.9846
   31.290    3.8441
   31.305    3.6510
   31.320    3.9670
   31.335    3.3702
   31.350    3.5457
   31.365    3.6510
   31.380    3.3877
   31.395    3.5633
   31.410    3.4931
   31.425    3.7213
   31.440    3.8968
   31.455    3.5282
   31.470    3.4229
   31.485    3.3877
   31.500    3.5282
   31.515    3.4580
   31.530    3.6862
   31.545    3.8968
   31.560    3.5106
   31.575    3.5984
   31.590    3.4580
   31.605    3.6159
   31.620    3.5457
   31.635    3.6510
   31.650    3.6335
   31.665    3.9494
   31.680    3.9846
   31.695    3.6159
   31.710    3.5457
   31.725    3.9143
   31.740    4.0548
   31.755    3.7037
   31.770    3.8266
   31.785    3.9319
   31.800    3.9143
   31.815    3.5984
   31.830    3.8792
   31.845    3.8441
   31.860    3.7564
   31.875    3.5984
   31.890    3.8266
   31.905    3.6862
   31.920    3.8968
   31.935    3.6510
   31.950    3.8617
   31.965    3.7213
   31.980    3.4755
   31.995    3.4931
   32.010    3.8617
   32.025    3.4404
   32.040    3.5457
   32.055    3.7213
   32.070    3.9846
   32.085    3.9494
   32.100    3.9143
   32.115    3.2122
   32.130    3.2824
   32.145    3.5106
   32.160    3.4755
   32.175    3.3351
   32.190    3.7213
   32.205    3.7037
   32.220    3.4404
   32.235    3.5106
   32.250    3.7915
   32.265    3.5633
   32.280    3.4580
   32.295    3.6862
   32.310    3.5633
   32.325    3.7037
   32.340    3.6862
   32.355    3.4755
   32.370    3.7213
   32.385    3.6335
   32.400    3.0542
   32.415    3.3351
   32.430    3.5984
   32.445    3.4580
   32.460    3.2824
   32.475    3.1771
   32.490    3.5106
   32.505    3.6159
   32.520    3.3000
   32.535    3.6862
   32.550    3.4229
   32.565    3.5984
   32.580    3.5282
   32.595    3.3877
   32.610    3.6510
   32.625    3.5106
   32.640    3.4053
   32.655    3.6686
   32.670    3.7213
   32.685    3.5633
   32.700    3.7564
   32.715    3.6862
   32.730    3.5808
   32.745    3.8090
   32.760    3.4755
   32.775    3.7388
   32.790    3.3175
   32.805    3.6510
   32.820    3.2122
   32.835    2.9665
   32.850    3.3351
   32.865    3.5282
   32.880    3.5282
   32.895    3.6686
   32.910    3.3000
   32.925    3.8441
   32.940    3.6335
   32.955    3.2473
   32.970    3.4053
   32.985    3.4404
   33.000    3.6335
   33.015    3.5633
   33.030    3.7213
   33.045    3.3526
   33.060    3.7213
   33.075    3.5808
   33.090    3.7213
   33.105    3.6510
   33.120    3.6686
   33.135    3.1069
   33.150    3.2298
   33.165    3.4229
   33.180    3.3351
   33.195    3.3351
   33.210    3.4755
   33.225    3.4053
   33.240    3.9143
   33.255    3.6686
   33.270    3.4053
   33.285    2.9314
   33.300    3.3351
   33.315    3.5457
   33.330    3.6686
   33.345    3.7037
   33.360    3.5808
   33.375    3.5282
   33.390    3.3702
   33.405    3.4229
   33.420    3.5282
   33.435    3.9319
   33.450    3.5106
   33.465    3.5457
   33.480    3.0893
   33.495    3.3526
   33.510    3.6862
   33.525    3.4931
   33.540    3.3877
   33.555    3.4755
   33.570    3.3526
   33.585    3.4229
   33.600    3.4053
   33.615    3.4580
   33.630    3.3351
   33.645    3.4580
   33.660    3.2824
   33.675    3.1420
   33.690    3.4053
   33.705    2.9138
   33.720    3.2473
   33.735    3.6510
   33.750    3.7388
   33.765    3.4931
   33.780    3.0542
   33.795    3.3175
   33.810    3.1596
   33.825    3.4580
   33.840    3.4229
   33.855    3.2473
   33.870    3.6159
   33.885    3.4755
   33.900    3.8090
   33.915    3.2824
   33.930    3.4580
   33.945    3.2298
   33.960    3.3000
   33.975    3.5633
   33.990    3.3526
   34.005    3.6335
   34.020    3.3877
   34.035    3.1771
   34.050    3.2649
   34.065    3.0542
   34.080    2.7909
   34.095    3.2122
   34.110    3.1947
   34.125    3.2473
   34.140    3.2298
   34.155    3.2298
   34.170    3.3351
   34.185    3.3351
   34.200    3.3000
   34.215    3.2122
   34.230    3.4404
   34.245    3.4755
   34.260    3.3702
   34.275    3.1069
   34.290    3.2122
   34.305    3.1420
   34.320    3.1596
   34.335    3.4755
   34.350    3.5808
   34.365    3.4053
   34.380    3.2649
   34.395    3.2122
   34.410    3.3175
   34.425    3.2473
   34.440    3.3175
   34.455    3.0191
   34.470    3.3000
   34.485    3.8617
   34.500    3.2824
   34.515    3.4580
   34.530    3.4931
   34.545    3.9143
   34.560    3.6686
   34.575    3.2298
   34.590    3.4229
   34.605    3.5633
   34.620    3.1947
   34.635    3.0718
   34.650    3.0718
   34.665    3.3702
   34.680    3.2122
   34.695    3.3877
   34.710    3.5808
   34.725    3.4229
   34.740    3.1596
   34.755    3.3175
   34.770    3.4931
   34.785    3.4755
   34.800    3.4931
   34.815    3.3351
   34.830    3.4931
   34.845    3.3877
   34.860    3.5457
   34.875    3.1947
   34.890    3.3175
   34.905    2.9314
   34.920    2.9665
   34.935    3.3175
   34.950    3.1947
   34.965    3.1947
   34.980    3.2473
   34.995    3.2298
   35.010    3.3877
   35.025    3.1947
   35.040    3.7037
   35.055    3.3526
   35.070    3.3702
   35.085    3.3702
   35.100    3.4229
   35.115    3.4229
   35.130    3.1245
   35.145    2.9489
   35.160    3.1069
   35.175    3.6159
   35.190    3.1771
   35.205    3.0718
   35.220    3.4404
   35.235    3.1420
   35.250    3.2122
   35.265    3.1069
   35.280    3.3877
   35.295    3.4229
   35.310    3.2122
   35.325    3.2473
   35.340    3.0367
   35.355    3.4229
   35.370    3.6159
   35.385    3.1771
   35.400    3.2649
   35.415    3.3351
   35.430    3.0718
   35.445    3.2298
   35.460    3.1245
   35.475    3.1420
   35.490    3.4229
   35.505    3.0367
   35.520    3.3175
   35.535    3.3702
   35.550    3.5106
   35.565    3.4053
   35.580    3.3000
   35.595    3.1596
   35.610    3.2122
   35.625    3.2473
   35.640    3.2298
   35.655    3.3000
   35.670    3.2824
   35.685    3.1771
   35.700    3.3175
   35.715    3.1420
   35.730    3.0718
   35.745    3.1420
   35.760    3.1947
   35.775    3.3000
   35.790    2.9840
   35.805    3.2122
   35.820    3.6510
   35.835    3.7564
   35.850    3.7739
   35.865    3.4931
   35.880    3.3526
   35.895    3.2473
   35.910    3.3351
   35.925    2.9489
   35.940    3.1947
   35.955    3.4229
   35.970    3.2122
   35.985    3.1596
   36.000    2.8260
   36.015    2.9138
   36.030    3.1771
   36.045    3.1771
   36.060    3.6686
   36.075    3.3526
   36.090    3.5282
   36.105    3.5106
   36.120    3.1947
   36.135    3.1947
   36.150    3.2824
   36.165    3.0893
   36.180    3.0016
   36.195    2.9489
   36.210    3.2122
   36.225    3.1596
   36.240    3.1771
   36.255    2.8787
   36.270    3.1596
   36.285    3.1420
   36.300    3.0893
   36.315    3.4931
   36.330    3.0191
   36.345    3.0718
   36.360    3.5808
   36.375    3.1596
   36.390    2.9314
   36.405    2.9840
   36.420    3.0191
   36.435    3.1069
   36.450    3.2649
   36.465    3.1771
   36.480    3.2649
   36.495    3.3351
   36.510    3.1069
   36.525    2.8085
   36.540    3.5282
   36.555    3.1947
   36.570    3.4580
   36.585    3.5106
   36.600    3.2122
   36.615    2.9840
   36.630    3.6510
   36.645    3.2649
   36.660    2.9840
   36.675    3.1771
   36.690    3.3175
   36.705    3.1596
   36.720    3.3000
   36.735    3.1771
   36.750    3.2824
   36.765    3.0367
   36.780    3.2298
   36.795    3.1420
   36.810    2.9489
   36.825    3.1069
   36.840    3.3000
   36.855    3.2473
   36.870    3.0016
   36.885    3.1420
   36.900    3.4404
   36.915    3.4053
   36.930    3.5282
   36.945    3.0542
   36.960    3.1420
   36.975    3.2473
   36.990    3.0016
   37.005    3.2122
   37.020    3.1245
   37.035    3.0367
   37.050    3.1420
   37.065    3.4580
   37.080    3.3877
   37.095    3.0893
   37.110    3.3000
   37.125    3.1245
   37.140    3.1947
   37.155    3.3702
   37.170    3.2824
   37.185    3.2824
   37.200    3.5106
   37.215    3.0718
   37.230    3.0191
   37.245    3.1420
   37.260    3.3702
   37.275    3.2649
   37.290    3.1245
   37.305    3.1771
   37.320    3.2824
   37.335    3.4580
   37.350    3.3000
   37.365    3.0542
   37.380    3.1420
   37.395    3.0718
   37.410    3.2122
   37.425    3.1245
   37.440    3.1596
   37.455    2.8787
   37.470    3.1596
   37.485    3.3877
   37.500    3.4229
   37.515    2.9489
   37.530    3.0718
   37.545    3.3526
   37.560    3.2824
   37.575    3.1771
   37.590    3.1771
   37.605    3.1596
   37.620    3.3702
   37.635    3.5106
   37.650    2.8787
   37.665    2.7909
   37.680    3.4755
   37.695    3.3702
   37.710    3.1771
   37.725    3.3000
   37.740    2.8085
   37.755    3.4053
   37.770    3.1245
   37.785    3.1947
   37.800    3.2824
   37.815    3.4580
   37.830    3.3351
   37.845    3.3175
   37.860    3.0542
   37.875    2.7909
   37.890    2.7558
   37.905    3.0016
   37.920    3.1947
   37.935    3.1245
   37.950    3.0893
   37.965    2.8085
   37.980    2.9840
   37.995    3.3000
   38.010    3.3351
   38.025    2.8963
   38.040    3.0542
   38.055    3.5633
   38.070    2.8436
   38.085    3.2298
   38.100    3.1420
   38.115    3.0367
   38.130    2.9314
   38.145    3.1596
   38.160    3.1245
   38.175    2.8963
   38.190    3.0893
   38.205    2.7558
   38.220    3.0542
   38.235    2.8612
   38.250    3.0016
   38.265    3.2473
   38.280    3.1420
   38.295    3.3000
   38.310    3.3351
   38.325    3.2649
   38.340    3.2298
   38.355    2.9489
   38.370    3.0893
   38.385    3.2298
   38.400    3.2473
   38.415    3.2824
   38.430    2.7909
   38.445    2.9840
   38.460    3.2122
   38.475    3.4404
   38.490    3.3000
   38.505    3.2824
   38.520    3.4229
   38.535    3.1245
   38.550    3.1069
   38.565    2.8612
   38.580    2.9840
   38.595    2.7558
   38.610    3.0542
   38.625    3.2473
   38.640    3.4404
   38.655    3.0016
   38.670    2.7558
   38.685    2.9840
   38.700    3.2473
   38.715    3.0016
   38.730    3.3351
   38.745    3.2824
   38.760    3.1420
   38.775    3.3175
   38.790    3.2824
   38.805    3.4229
   38.820    2.9314
   38.835    2.9665
   38.850    2.9665
   38.865    2.8085
   38.880    3.3526
   38.895    3.0542
   38.910    3.1069
   38.925    3.2122
   38.940    3.3175
   38.955    3.0367
   38.970    3.1596
   38.985    3.0542
   39.000    2.9489
   39.015    2.9138
   39.030    3.4404
   39.045    3.1771
   39.060    2.7383
   39.075    2.8787
   39.090    3.0718
   39.105    3.0893
   39.120    3.3000
   39.135    3.0016
   39.150    3.1420
   39.165    3.2473
   39.180    3.0718
   39.195    3.1596
   39.210    2.9840
   39.225    2.9840
   39.240    3.2298
   39.255    3.2473
   39.270    3.3000
   39.285    2.8436
   39.300    3.0718
   39.315    2.8085
   39.330    2.8260
   39.345    3.3877
   39.360    3.1947
   39.375    3.2824
   39.390    2.8436
   39.405    2.9665
   39.420    2.7032
   39.435    3.0893
   39.450    3.1771
   39.465    3.0718
   39.480    3.3000
   39.495    2.9840
   39.510    3.2473
   39.525    3.3702
   39.540    3.2824
   39.555    3.2298
   39.570    3.3175
   39.585    3.2649
   39.600    3.2473
   39.615    2.8260
   39.630    3.1596
   39.645    3.2298
   39.660    3.0191
   39.675    3.0893
   39.690    2.7032
   39.705    3.5282
   39.720    3.3351
   39.735    2.9489
   39.750    2.9840
   39.765    3.0718
   39.780    2.8963
   39.795    2.7734
   39.810    3.1420
   39.825    3.4404
   39.840    2.8787
   39.855    2.8963
   39.870    2.8085
   39.885    3.0191
   39.900    2.7032
   39.915    2.6856
   39.930    2.8963
   39.945    3.0718
   39.960    3.2298
   39.975    3.1245
   39.990    3.1947
