    1.500    1.5587
    1.515    1.4745
    1.530    1.6324
    1.545    1.5692
    1.560    1.6640
    1.575    1.6746
    1.590    1.6851
    1.605    1.6535
    1.620    1.7272
    1.635    1.4429
    1.650    1.6324
    1.665    1.7272
    1.680    1.6535
    1.695    1.9800
    1.710    2.0853
    1.725    1.8852
    1.740    1.8220
    1.755    1.8852
    1.770    1.9273
    1.785    2.1274
    1.800    2.1169
    1.815    2.0537
    1.830    1.9695
    1.845    2.0642
    1.860    2.0642
    1.875    2.0642
    1.890    1.9484
    1.905    1.9695
    1.920    2.0748
    1.935    2.1169
    1.950    2.1169
    1.965    2.1274
    1.980    2.0432
    1.995    1.9695
    2.010    2.1169
    2.025    2.2433
    2.040    2.2749
    2.055    2.1590
    2.070    2.1485
    2.085    2.2117
    2.100    2.3486
    2.115    2.4434
    2.130    2.6540
    2.145    2.4223
    2.160    2.3907
    2.175    2.2959
    2.190    2.1696
    2.205    2.1064
    2.220    2.3591
    2.235    2.6435
    2.250    2.4329
    2.265    2.3170
    2.280    2.4118
    2.295    2.3802
    2.310    2.2749
    2.325    2.4118
    2.340    2.5171
    2.355    2.4855
    2.370    2.6014
    2.385    2.5698
    2.400    2.3275
    2.415    2.4539
    2.430    2.5382
    2.445    2.6856
    2.460    2.6330
    2.475    2.6751
    2.490    2.6435
    2.505    2.4329
    2.520    2.2854
    2.535    2.5698
    2.550    2.5171
    2.565    2.8015
    2.580    2.5803
    2.595    2.3065
    2.610    2.6540
    2.625    2.5592
    2.640    2.7593
    2.655    2.7488
    2.670    2.5066
    2.685    2.4434
    2.700    2.4855
    2.715    2.6646
    2.730    2.5908
    2.745    2.7067
    2.760    2.4539
    2.775    2.4539
    2.790    2.6014
    2.805    2.8225
    2.820    2.6119
    2.835    2.6014
    2.850    2.5698
    2.865    2.6646
    2.880    2.7909
    2.895    2.5066
    2.910    2.7278
    2.925    2.7909
    2.940    2.6646
    2.955    2.7383
    2.970    2.6014
    2.985    2.5276
    3.000    2.6962
    3.015    2.8541
    3.030    2.5171
    3.045    2.6330
    3.060    2.7488
    3.075    3.0437
    3.090    2.6435
    3.105    2.6119
    3.120    2.5592
    3.135    2.6014
    3.150    2.5908
    3.165    2.9279
    3.180    2.6224
    3.195    2.6962
    3.210    2.9489
    3.225    2.9595
    3.240    2.7699
    3.255    2.9173
    3.270    2.7172
    3.285    2.8015
    3.300    2.8331
    3.315    2.7593
    3.330    2.9805
    3.345    2.8120
    3.360    2.9384
    3.375    2.9700
    3.390    2.9279
    3.405    2.9489
    3.420    3.0437
    3.435    2.8857
    3.450    3.1174
    3.465    2.8331
    3.480    2.8963
    3.495    2.8541
    3.510    2.6962
    3.525    3.0753
    3.540    2.8752
    3.555    3.1174
    3.570    2.9489
    3.585    2.6962
    3.600    3.1174
    3.615    3.1596
    3.630    3.2438
    3.645    3.0753
    3.660    2.7383
    3.675    3.0437
    3.690    3.0648
    3.705    3.1385
    3.720    3.0226
    3.735    2.8752
    3.750    2.7699
    3.765    3.1069
    3.780    2.8963
    3.795    2.8541
    3.810    3.0016
    3.825    2.9068
    3.840    2.8225
    3.855    3.2649
    3.870    3.1385
    3.885    2.9595
    3.900    2.9595
    3.915    2.9173
    3.930    2.9700
    3.945    3.0437
    3.960    3.0753
    3.975    2.9700
    3.990    2.8436
    4.005    3.0332
    4.020    3.3386
    4.035    3.4439
    4.050    3.0858
    4.065    2.9068
    4.080    2.9384
    4.095    2.7593
    4.110    3.0648
    4.125    2.6962
    4.140    2.8225
    4.155    2.6962
    4.170    2.8752
    4.185    3.2438
    4.200    3.0332
    4.215    2.9173
    4.230    2.9489
    4.245    2.9700
    4.260    3.1280
    4.275    3.0437
    4.290    3.2122
    4.305    3.0332
    4.320    2.9489
    4.335    2.9805
    4.350    3.1490
    4.365    3.2965
    4.380    3.1912
    4.395    2.8331
    4.410    2.9805
    4.425    3.1490
    4.440    3.1280
    4.455    3.3386
    4.470    3.0016
    4.485    2.8752
    4.500    3.1174
    4.515    2.7804
    4.530    2.8752
    4.545    3.0121
    4.560    3.1385
    4.575    3.2438
    4.590    3.0858
    4.605    3.0332
    4.620    2.9595
    4.635    3.0332
    4.650    2.9384
    4.665    2.9910
    4.680    2.9700
    4.695    3.1069
    4.710    3.2649
    4.725    3.2122
    4.740    3.1806
    4.755    3.2754
    4.770    3.1280
    4.785    3.0437
    4.800    3.2859
    4.815    2.9910
    4.830    3.0753
    4.845    3.0542
    4.860    3.2227
    4.875    3.0332
    4.890    3.2965
    4.905    3.2859
    4.920    3.3070
    4.935    3.3807
    4.950    3.2649
    4.965    2.9805
    4.980    2.9279
    4.995    3.1385
    5.010    3.0858
    5.025    3.0648
    5.040    2.9700
    5.055    2.8120
    5.070    2.9068
    5.085    3.0437
    5.100    2.8647
    5.115    2.8331
    5.130    3.1174
    5.145    3.0648
    5.160    3.0964
    5.175    2.9910
    5.190    3.1701
    5.205    3.3702
    5.220    3.1701
    5.235    3.0753
    5.250    3.3702
    5.265    3.3913
    5.280    3.0858
    5.295    3.1385
    5.310    3.0016
    5.325    3.0648
    5.340    3.4018
    5.355    3.0437
    5.370    3.2649
    5.385    3.3597
    5.400    2.8120
    5.415    3.1280
    5.430    3.0858
    5.445    3.3491
    5.460    3.3175
    5.475    3.4544
    5.490    3.2227
    5.505    3.3386
    5.520    3.5598
    5.535    3.1280
    5.550    3.1069
    5.565    3.1596
    5.580    3.1912
    5.595    3.2649
    5.610    3.2227
    5.625    2.9279
    5.640    3.4966
    5.655    3.3070
    5.670    3.2017
    5.685    3.1490
    5.700    3.0121
    5.715    3.0437
    5.730    2.7278
    5.745    3.0542
    5.760    3.2438
    5.775    3.2333
    5.790    3.2122
    5.805    3.1174
    5.820    3.1912
    5.835    3.1806
    5.850    3.0437
    5.865    3.2649
    5.880    3.2017
    5.895    3.1490
    5.910    3.3491
    5.925    3.1490
    5.940    3.1701
    5.955    3.3070
    5.970    3.1806
    5.985    2.8857
    6.000    3.0542
    6.015    3.0964
    6.030    3.1596
    6.045    3.0016
    6.060    2.9384
    6.075    3.2227
    6.090    3.0542
    6.105    2.8963
    6.120    3.4018
    6.135    3.1069
    6.150    3.3807
    6.165    3.1701
    6.180    3.1174
    6.195    3.0858
    6.210    3.1806
    6.225    3.1069
    6.240    3.2227
    6.255    3.0542
    6.270    3.1174
    6.285    3.1806
    6.300    3.0542
    6.315    2.9489
    6.330    2.9068
    6.345    3.1174
    6.360    3.2859
    6.375    3.4229
    6.390    3.2227
    6.405    3.1069
    6.420    3.2543
    6.435    3.1280
    6.450    3.2965
    6.465    3.2017
    6.480    3.1280
    6.495    3.0542
    6.510    3.3597
    6.525    3.2017
    6.540    3.4755
    6.555    3.4439
    6.570    3.3597
    6.585    3.0121
    6.600    2.9595
    6.615    2.9805
    6.630    3.2649
    6.645    3.1174
    6.660    3.1701
    6.675    3.3597
    6.690    3.0964
    6.705    3.0121
    6.720    3.1701
    6.735    3.0542
    6.750    3.1806
    6.765    3.4018
    6.780    3.3913
    6.795    3.2017
    6.810    3.1174
    6.825    3.0016
    6.840    3.0648
    6.855    3.0332
    6.870    3.2965
    6.885    3.2859
    6.900    3.4860
    6.915    3.2965
    6.930    3.1596
    6.945    2.9805
    6.960    2.8963
    6.975    3.0858
    6.990    3.2543
    7.005    3.1280
    7.020    3.0753
    7.035    3.3807
    7.050    3.2017
    7.065    3.2754
    7.080    3.4860
    7.095    3.3913
    7.110    3.4966
    7.125    3.6862
    7.140    3.2649
    7.155    2.9384
    7.170    3.3281
    7.185    3.2227
    7.200    3.2649
    7.215    3.2333
    7.230    3.2649
    7.245    3.0121
    7.260    3.4544
    7.275    3.4334
    7.290    2.9489
    7.305    3.1490
    7.320    3.2227
    7.335    2.9068
    7.350    3.3070
    7.365    3.3807
    7.380    3.0121
    7.395    3.1069
    7.410    3.1280
    7.425    3.2965
    7.440    3.0226
    7.455    3.2017
    7.470    3.2859
    7.485    2.9173
    7.500    3.2543
    7.515    3.1806
    7.530    3.1806
    7.545    3.1701
    7.560    3.1069
    7.575    3.1596
    7.590    3.1490
    7.605    3.0542
    7.620    3.1701
    7.635    3.0964
    7.650    3.2965
    7.665    3.3702
    7.680    3.2122
    7.695    3.2438
    7.710    3.2965
    7.725    3.0542
    7.740    3.0332
    7.755    3.0648
    7.770    3.0437
    7.785    3.1490
    7.800    3.2017
    7.815    3.0226
    7.830    3.0858
    7.845    3.0542
    7.860    2.9068
    7.875    2.9489
    7.890    2.9910
    7.905    3.3281
    7.920    3.2859
    7.935    3.1912
    7.950    3.0016
    7.965    3.3281
    7.980    3.1069
    7.995    3.2122
    8.010    3.4229
    8.025    3.2754
    8.040    3.3597
    8.055    3.1385
    8.070    3.1806
    8.085    3.3281
    8.100    3.1912
    8.115    3.1912
    8.130    3.2227
    8.145    3.0016
    8.160    3.3597
    8.175    3.1701
    8.190    2.8963
    8.205    3.0753
    8.220    3.3281
    8.235    3.3175
    8.250    3.2438
    8.265    2.9489
    8.280    3.0858
    8.295    3.3702
    8.310    3.2438
    8.325    2.9805
    8.340    3.3386
    8.355    3.3807
    8.370    3.1806
    8.385    3.2859
    8.400    3.2017
    8.415    2.8331
    8.430    2.9173
    8.445    3.2017
    8.460    3.2859
    8.475    3.3913
    8.490    3.1385
    8.505    3.0648
    8.520    3.1596
    8.535    3.0121
    8.550    3.1490
    8.565    3.0964
    8.580    3.0332
    8.595    3.0858
    8.610    3.0753
    8.625    3.0964
    8.640    3.2754
    8.655    2.9489
    8.670    2.9700
    8.685    2.9910
    8.700    3.0964
    8.715    3.2543
    8.730    3.4229
    8.745    3.0121
    8.760    3.0753
    8.775    3.2438
    8.790    3.1596
    8.805    3.5071
    8.820    3.0964
    8.835    3.1174
    8.850    3.2122
    8.865    3.2754
    8.880    3.1069
    8.895    3.1596
    8.910    3.1912
    8.925    2.8436
    8.940    2.9700
    8.955    2.8752
    8.970    2.8436
    8.985    3.1806
    9.000    3.3386
    9.015    2.9700
    9.030    3.0964
    9.045    3.0648
    9.060    3.0964
    9.075    3.0753
    9.090    3.0858
    9.105    3.1280
    9.120    3.1806
    9.135    3.0858
    9.150    2.9173
    9.165    2.9068
    9.180    3.0753
    9.195    2.9805
    9.210    3.1385
    9.225    3.0753
    9.240    2.9384
    9.255    3.0964
    9.270    3.1596
    9.285    3.1701
    9.300    2.9910
    9.315    3.1596
    9.330    3.1490
    9.345    3.1280
    9.360    3.1806
    9.375    2.9068
    9.390    3.0332
    9.405    3.2543
    9.420    3.1596
    9.435    3.2122
    9.450    3.1912
    9.465    3.1385
    9.480    3.1385
    9.495    3.2122
    9.510    3.4229
    9.525    3.3175
    9.540    3.1069
    9.555    3.0016
    9.570    2.9173
    9.585    3.0753
    9.600    3.1280
    9.615    3.0016
    9.630    3.1385
    9.645    3.4229
    9.660    3.0542
    9.675    3.0332
    9.690    3.0226
    9.705    2.8963
    9.720    2.8752
    9.735    3.1490
    9.750    3.0016
    9.765    3.0121
    9.780    3.2754
    9.795    3.0648
    9.810    3.0542
    9.825    3.0542
    9.840    3.0437
    9.855    3.1701
    9.870    3.3386
    9.885    3.1385
    9.900    2.9173
    9.915    2.8963
    9.930    3.2649
    9.945    3.3807
    9.960    3.1912
    9.975    3.3386
    9.990    3.1385
   10.005    3.0542
   10.020    3.1385
   10.035    2.9489
   10.050    3.1490
   10.065    3.1069
   10.080    3.2122
   10.095    3.1596
   10.110    3.1385
   10.125    3.3281
   10.140    3.1490
   10.155    3.1596
   10.170    3.2333
   10.185    3.0964
   10.200    3.0964
   10.215    3.2122
   10.230    2.9910
   10.245    3.0858
   10.260    2.9910
   10.275    3.0753
   10.290    2.9700
   10.305    3.4334
   10.320    3.1069
   10.335    3.1596
   10.350    3.1912
   10.365    3.1385
   10.380    3.1701
   10.395    3.1280
   10.410    2.7909
   10.425    3.1280
   10.440    3.3386
   10.455    3.2859
   10.470    3.2017
   10.485    2.9068
   10.500    3.3281
   10.515    3.2859
   10.530    3.0648
   10.545    3.0016
   10.560    3.0016
   10.575    3.2333
   10.590    3.2122
   10.605    3.2017
   10.620    2.9489
   10.635    2.7699
   10.650    2.9173
   10.665    3.0858
   10.680    3.1069
   10.695    3.1490
   10.710    3.0964
   10.725    3.2438
   10.740    3.3175
   10.755    3.0437
   10.770    3.1912
   10.785    3.0437
   10.800    3.1912
   10.815    3.0964
   10.830    2.9279
   10.845    3.0332
   10.860    3.1385
   10.875    3.1912
   10.890    3.3386
   10.905    2.9595
   10.920    2.9910
   10.935    3.1174
   10.950    3.0648
   10.965    2.9595
   10.980    3.0753
   10.995    2.9173
   11.010    3.0964
   11.025    3.2965
   11.040    3.0542
   11.055    2.9700
   11.070    3.0648
   11.085    2.9700
   11.100    2.9068
   11.115    2.9279
   11.130    3.1385
   11.145    3.4860
   11.160    3.4755
   11.175    2.9384
   11.190    2.7804
   11.205    3.3070
   11.220    3.3807
   11.235    2.8120
   11.250    2.8225
   11.265    2.9595
   11.280    3.1806
   11.295    3.0016
   11.310    2.8647
   11.325    3.1174
   11.340    2.8647
   11.355    2.9595
   11.370    3.0858
   11.385    2.7909
   11.400    2.9910
   11.415    2.9489
   11.430    3.1596
   11.445    2.8963
   11.460    2.9068
   11.475    3.0437
   11.490    2.9910
   11.505    3.2543
   11.520    3.1069
   11.535    3.1596
   11.550    3.0226
   11.565    3.0121
   11.580    3.0648
   11.595    3.0542
   11.610    2.9173
   11.625    2.9910
   11.640    3.1596
   11.655    3.1385
   11.670    3.0226
   11.685    2.8225
   11.700    2.9910
   11.715    3.1385
   11.730    2.9489
   11.745    2.9805
   11.760    3.0226
   11.775    2.9910
   11.790    2.8331
   11.805    2.8331
   11.820    3.1385
   11.835    3.1385
   11.850    3.0753
   11.865    2.9910
   11.880    2.9068
   11.895    3.1806
   11.910    2.8647
   11.925    2.8331
   11.940    2.8752
   11.955    2.6330
   11.970    2.9384
   11.985    2.6540
   12.000    2.8857
   12.015    2.7593
   12.030    3.1385
   12.045    2.9489
   12.060    2.8541
   12.075    2.9279
   12.090    2.9700
   12.105    3.1701
   12.120    3.1596
   12.135    3.0226
   12.150    2.9173
   12.165    3.0964
   12.180    3.2017
   12.195    2.9910
   12.210    3.0437
   12.225    3.0858
   12.240    2.9173
   12.255    2.9279
   12.270    2.7804
   12.285    3.0858
   12.300    3.0016
   12.315    2.9910
   12.330    3.1069
   12.345    3.2122
   12.360    2.9910
   12.375    3.0753
   12.390    2.9489
   12.405    3.1596
   12.420    3.2227
   12.435    3.2754
   12.450    2.9700
   12.465    3.1174
   12.480    2.9068
   12.495    2.9279
   12.510    2.8647
   12.525    2.9805
   12.540    3.0016
   12.555    3.2122
   12.570    3.2543
   12.585    3.0964
   12.600    3.0016
   12.615    2.9489
   12.630    2.8752
   12.645    2.9700
   12.660    3.0016
   12.675    2.9805
   12.690    2.8120
   12.705    2.9910
   12.720    2.9910
   12.735    2.8963
   12.750    2.8963
   12.765    3.1069
   12.780    3.2227
   12.795    3.0437
   12.810    3.0753
   12.825    2.8857
   12.840    3.0648
   12.855    3.1280
   12.870    2.7699
   12.885    3.0121
   12.900    2.9910
   12.915    3.1280
   12.930    3.2017
   12.945    3.0016
   12.960    2.8120
   12.975    2.8963
   12.990    2.8541
   13.005    2.7909
   13.020    2.7383
   13.035    2.8752
   13.050    3.0437
   13.065    2.8120
   13.080    3.0016
   13.095    3.1174
   13.110    2.9700
   13.125    2.8225
   13.140    2.9595
   13.155    3.0858
   13.170    3.1280
   13.185    3.0016
   13.200    2.8963
   13.215    2.9279
   13.230    2.9173
   13.245    2.9700
   13.260    2.8015
   13.275    2.9068
   13.290    2.9384
   13.305    2.6856
   13.320    3.1069
   13.335    2.8331
   13.350    2.9489
   13.365    2.9910
   13.380    3.0016
   13.395    2.7909
   13.410    2.8752
   13.425    2.8225
   13.440    3.0964
   13.455    2.9489
   13.470    3.0437
   13.485    2.8752
   13.500    2.8331
   13.515    3.0648
   13.530    2.8963
   13.545    2.8752
   13.560    2.8857
   13.575    2.9805
   13.590    2.8963
   13.605    2.8331
   13.620    2.9595
   13.635    2.6962
   13.650    2.7383
   13.665    3.0121
   13.680    2.8120
   13.695    2.9595
   13.710    2.8120
   13.725    2.9384
   13.740    2.7593
   13.755    3.0226
   13.770    2.9173
   13.785    3.0121
   13.800    3.0858
   13.815    3.0016
   13.830    2.9173
   13.845    3.0332
   13.860    3.0226
   13.875    3.0858
   13.890    3.0858
   13.905    2.8752
   13.920    3.0753
   13.935    3.2333
   13.950    2.8225
   13.965    2.7593
   13.980    3.0332
   13.995    2.9068
   14.010    2.9595
   14.025    2.8225
   14.040    2.7909
   14.055    2.6751
   14.070    2.6119
   14.085    2.6646
   14.100    2.8120
   14.115    2.7067
   14.130    2.7278
   14.145    2.9384
   14.160    2.9384
   14.175    2.8857
   14.190    2.9595
   14.205    3.2017
   14.220    2.8857
   14.235    2.8752
   14.250    3.0226
   14.265    2.8963
   14.280    2.7909
   14.295    3.0437
   14.310    3.0016
   14.325    2.7488
   14.340    2.8436
   14.355    2.8647
   14.370    3.0121
   14.385    2.8331
   14.400    3.1174
   14.415    2.9068
   14.430    2.6751
   14.445    2.8436
   14.460    2.9279
   14.475    2.8436
   14.490    2.7383
   14.505    2.8647
   14.520    3.0753
   14.535    2.8331
   14.550    2.8225
   14.565    3.0016
   14.580    3.0016
   14.595    3.1701
   14.610    3.1912
   14.625    2.9489
   14.640    2.8015
   14.655    2.7593
   14.670    2.8541
   14.685    2.7172
   14.700    2.7488
   14.715    3.0332
   14.730    3.0016
   14.745    3.1069
   14.760    2.9700
   14.775    2.9279
   14.790    2.9173
   14.805    2.9700
   14.820    2.9700
   14.835    2.8436
   14.850    3.2122
   14.865    3.0753
   14.880    2.9068
   14.895    2.8331
   14.910    2.9279
   14.925    2.7909
   14.940    2.7278
   14.955    2.9173
   14.970    2.9068
   14.985    2.8120
   15.000    2.8752
   15.015    2.7278
   15.030    2.8541
   15.045    2.8225
   15.060    2.9068
   15.075    3.0121
   15.090    2.8331
   15.105    2.7383
   15.120    2.9595
   15.135    2.9489
   15.150    2.9068
   15.165    2.9279
   15.180    3.0332
   15.195    2.8436
   15.210    3.0121
   15.225    2.7278
   15.240    2.7488
   15.255    2.7699
   15.270    3.0016
   15.285    2.9279
   15.300    2.7909
   15.315    2.9700
   15.330    2.9910
   15.345    2.8752
   15.360    2.7909
   15.375    2.6646
   15.390    3.0542
   15.405    2.7488
   15.420    2.9910
   15.435    3.0226
   15.450    2.6435
   15.465    2.8541
   15.480    2.9173
   15.495    3.1280
   15.510    3.0332
   15.525    2.8331
   15.540    3.0858
   15.555    2.8963
   15.570    2.9279
   15.585    2.8857
   15.600    2.8857
   15.615    2.6962
   15.630    2.8436
   15.645    2.8857
   15.660    3.0753
   15.675    2.7278
   15.690    2.7278
   15.705    2.5592
   15.720    2.7067
   15.735    2.9489
   15.750    2.8541
   15.765    2.8647
   15.780    2.8225
   15.795    2.5803
   15.810    2.6962
   15.825    2.9279
   15.840    2.7488
   15.855    2.9279
   15.870    2.7278
   15.885    2.6751
   15.900    2.7699
   15.915    2.8647
   15.930    3.2122
   15.945    2.8963
   15.960    2.8541
   15.975    2.8015
   15.990    2.6751
   16.005    2.8647
   16.020    3.0964
   16.035    3.0016
   16.050    2.9700
   16.065    2.8752
   16.080    3.0016
   16.095    3.0121
   16.110    2.6751
   16.125    2.6856
   16.140    2.9279
   16.155    2.7067
   16.170    2.7172
   16.185    2.9279
   16.200    2.7699
   16.215    2.7804
   16.230    2.9279
   16.245    3.1912
   16.260    2.8015
   16.275    2.6646
   16.290    2.6962
   16.305    2.9910
   16.320    2.7804
   16.335    3.0226
   16.350    2.7488
   16.365    2.8225
   16.380    2.9068
   16.395    2.9384
   16.410    2.8541
   16.425    2.8647
   16.440    3.0121
   16.455    2.9595
   16.470    3.0016
   16.485    2.8752
   16.500    2.9279
   16.515    2.7593
   16.530    2.8857
   16.545    2.8015
   16.560    2.9384
   16.575    2.7593
   16.590    2.6435
   16.605    3.1280
   16.620    2.8857
   16.635    3.0648
   16.650    2.9173
   16.665    2.9173
   16.680    2.9489
   16.695    2.9700
   16.710    2.9595
   16.725    2.9910
   16.740    2.8647
   16.755    3.0964
   16.770    2.9595
   16.785    2.8857
   16.800    2.8331
   16.815    2.7172
   16.830    2.9700
   16.845    3.0542
   16.860    2.9279
   16.875    2.8647
   16.890    3.0542
   16.905    2.7278
   16.920    3.0964
   16.935    2.9068
   16.950    3.0753
   16.965    2.7804
   16.980    2.5698
   16.995    2.7593
   17.010    2.8436
   17.025    2.9489
   17.040    2.6435
   17.055    2.9910
   17.070    2.9384
   17.085    2.9910
   17.100    3.0753
   17.115    3.2859
   17.130    2.9805
   17.145    3.0016
   17.160    3.1596
   17.175    2.9068
   17.190    3.1069
   17.205    2.8857
   17.220    3.2438
   17.235    2.8647
   17.250    3.0016
   17.265    2.7593
   17.280    2.8436
   17.295    2.7383
   17.310    2.8120
   17.325    3.1280
   17.340    3.2965
   17.355    2.9805
   17.370    2.7172
   17.385    2.8647
   17.400    2.8752
   17.415    2.9384
   17.430    2.8647
   17.445    2.9068
   17.460    2.7278
   17.475    2.9489
   17.490    2.7593
   17.505    2.8225
   17.520    2.8120
   17.535    2.8120
   17.550    2.8015
   17.565    2.6962
   17.580    2.9384
   17.595    3.0648
   17.610    2.8331
   17.625    2.9700
   17.640    2.8331
   17.655    2.9173
   17.670    2.9173
   17.685    2.9595
   17.700    2.9173
   17.715    2.8120
   17.730    3.0858
   17.745    2.9173
   17.760    2.9384
   17.775    2.9805
   17.790    2.7909
   17.805    2.7804
   17.820    2.7804
   17.835    2.8225
   17.850    2.6330
   17.865    2.8857
   17.880    2.8541
   17.895    2.9173
   17.910    2.8331
   17.925    2.9805
   17.940    3.0016
   17.955    2.8752
   17.970    2.7804
   17.985    2.8120
   18.000    3.0648
   18.015    3.1490
   18.030    2.9068
   18.045    2.9910
   18.060    2.8225
   18.075    2.9489
   18.090    2.7383
   18.105    2.8857
   18.120    2.9595
   18.135    3.2438
   18.150    3.1069
   18.165    2.8541
   18.180    2.9068
   18.195    2.8647
   18.210    2.8331
   18.225    3.3913
   18.240    2.9700
   18.255    3.0226
   18.270    3.2438
   18.285    2.9279
   18.300    2.8436
   18.315    3.1385
   18.330    2.8436
   18.345    3.0753
   18.360    2.9279
   18.375    2.9700
   18.390    2.6751
   18.405    2.6224
   18.420    2.9910
   18.435    3.0332
   18.450    2.6540
   18.465    3.0226
   18.480    2.8541
   18.495    3.0648
   18.510    2.8963
   18.525    3.2122
   18.540    2.8436
   18.555    3.2122
   18.570    3.1385
   18.585    2.8436
   18.600    2.9279
   18.615    2.8963
   18.630    2.8015
   18.645    3.1385
   18.660    3.0964
   18.675    2.8963
   18.690    2.8857
   18.705    3.3597
   18.720    3.2227
   18.735    3.0648
   18.750    2.5592
   18.765    2.7067
   18.780    3.0437
   18.795    2.8225
   18.810    3.0437
   18.825    2.8225
   18.840    3.0226
   18.855    2.9700
   18.870    2.8120
   18.885    2.8225
   18.900    3.1069
   18.915    2.9384
   18.930    2.6962
   18.945    2.9910
   18.960    3.2017
   18.975    3.2649
   18.990    3.3702
   19.005    3.0648
   19.020    3.0016
   19.035    3.0437
   19.050    3.0016
   19.065    2.8752
   19.080    2.8752
   19.095    2.9595
   19.110    3.0016
   19.125    3.1490
   19.140    3.1806
   19.155    3.0226
   19.170    3.0542
   19.185    3.1280
   19.200    2.9384
   19.215    3.0226
   19.230    2.9595
   19.245    3.0753
   19.260    3.0016
   19.275    3.0964
   19.290    2.9910
   19.305    3.1069
   19.320    3.0437
   19.335    3.1596
   19.350    3.0016
   19.365    2.9279
   19.380    2.9910
   19.395    3.0753
   19.410    3.1701
   19.425    2.9910
   19.440    2.9910
   19.455    3.0858
   19.470    2.8647
   19.485    2.8015
   19.500    2.8963
   19.515    2.9068
   19.530    3.1806
   19.545    3.0437
   19.560    2.8541
   19.575    3.0964
   19.590    3.0858
   19.605    3.3281
   19.620    3.2859
   19.635    3.0437
   19.650    2.8436
   19.665    3.0542
   19.680    3.0226
   19.695    3.0332
   19.710    3.1701
   19.725    3.2649
   19.740    2.8857
   19.755    3.0016
   19.770    3.3386
   19.785    3.0121
   19.800    3.2754
   19.815    3.1701
   19.830    2.8647
   19.845    2.8225
   19.860    2.8752
   19.875    3.1912
   19.890    3.1174
   19.905    3.0121
   19.920    2.8541
   19.935    2.8963
   19.950    3.0858
   19.965    3.0437
   19.980    3.0016
   19.995    2.9279
   20.010    3.2017
   20.025    3.2122
   20.040    3.2859
   20.055    3.1806
   20.070    2.9910
   20.085    3.0016
   20.100    2.8752
   20.115    2.6646
   20.130    2.8541
   20.145    2.8963
   20.160    2.9910
   20.175    3.0542
   20.190    2.9910
   20.205    2.9805
   20.220    3.5914
   20.235    3.0964
   20.250    3.0016
   20.265    2.8225
   20.280    2.7909
   20.295    3.3491
   20.310    3.0964
   20.325    3.3597
   20.340    3.1280
   20.355    2.9384
   20.370    3.2017
   20.385    3.1385
   20.400    3.0016
   20.415    3.0964
   20.430    3.2122
   20.445    2.7804
   20.460    3.2438
   20.475    3.0648
   20.490    3.0332
   20.505    3.2017
   20.520    2.9805
   20.535    3.1385
   20.550    3.1490
   20.565    2.9700
   20.580    3.0226
   20.595    2.8752
   20.610    3.0753
   20.625    3.4334
   20.640    3.1490
   20.655    2.8752
   20.670    3.0016
   20.685    3.1806
   20.700    3.1912
   20.715    2.7699
   20.730    3.2333
   20.745    3.4123
   20.760    3.1490
   20.775    3.4544
   20.790    2.8963
   20.805    2.7909
   20.820    3.0437
   20.835    3.2122
   20.850    2.8225
   20.865    2.9910
   20.880    3.0858
   20.895    3.1069
   20.910    3.1280
   20.925    3.3597
   20.940    2.7383
   20.955    3.2122
   20.970    3.0542
   20.985    3.1490
   21.000    3.3175
   21.015    3.0542
   21.030    3.0858
   21.045    3.2227
   21.060    3.3281
   21.075    3.1701
   21.090    3.2017
   21.105    3.0964
   21.120    2.8752
   21.135    2.9279
   21.150    3.0226
   21.165    3.3597
   21.180    3.3386
   21.195    3.0648
   21.210    3.1701
   21.225    3.1280
   21.240    3.0226
   21.255    2.9384
   21.270    3.2965
   21.285    2.9910
   21.300    3.0121
   21.315    3.0226
   21.330    3.1490
   21.345    3.1174
   21.360    2.9910
   21.375    2.9700
   21.390    3.0542
   21.405    3.3807
   21.420    3.3913
   21.435    3.0964
   21.450    3.0542
   21.465    2.8963
   21.480    3.2227
   21.495    3.2122
   21.510    3.2649
   21.525    3.1490
   21.540    3.0858
   21.555    3.0332
   21.570    3.1280
   21.585    3.2227
   21.600    3.1280
   21.615    2.9700
   21.630    3.3386
   21.645    3.1596
   21.660    3.0437
   21.675    3.1385
   21.690    3.1490
   21.705    3.3281
   21.720    3.2754
   21.735    2.8963
   21.750    3.1912
   21.765    3.0964
   21.780    3.1069
   21.795    3.2017
   21.810    3.1701
   21.825    3.0332
   21.840    3.0542
   21.855    3.2227
   21.870    3.2122
   21.885    2.9068
   21.900    3.1280
   21.915    3.2017
   21.930    3.2438
   21.945    3.0858
   21.960    3.2227
   21.975    3.3807
   21.990    3.2438
   22.005    3.1490
   22.020    3.0858
   22.035    3.3281
   22.050    3.4334
   22.065    3.2543
   22.080    2.7593
   22.095    3.1490
   22.110    3.1701
   22.125    3.2333
   22.140    2.9068
   22.155    2.8015
   22.170    3.0016
   22.185    3.1069
   22.200    3.0753
   22.215    3.2333
   22.230    3.1806
   22.245    2.9279
   22.260    2.9595
   22.275    3.2122
   22.290    2.9384
   22.305    2.9068
   22.320    2.9700
   22.335    3.1174
   22.350    3.2333
   22.365    2.9489
   22.380    3.0648
   22.395    3.0753
   22.410    3.3281
   22.425    2.9805
   22.440    3.2122
   22.455    3.1701
   22.470    3.2438
   22.485    2.9489
   22.500    2.8225
   22.515    3.1596
   22.530    2.9805
   22.545    3.0964
   22.560    3.0542
   22.575    2.9910
   22.590    3.1806
   22.605    3.2649
   22.620    3.2438
   22.635    3.1385
   22.650    3.2227
   22.665    3.2122
   22.680    3.1806
   22.695    2.9700
   22.710    3.1385
   22.725    3.3807
   22.740    3.4544
   22.755    3.5387
   22.770    3.3281
   22.785    3.2754
   22.800    3.3597
   22.815    3.3491
   22.830    3.3175
   22.845    3.1806
   22.860    3.0964
   22.875    3.2227
   22.890    2.9595
   22.905    3.0858
   22.920    3.1280
   22.935    3.0858
   22.950    3.0648
   22.965    2.9384
   22.980    3.1280
   22.995    3.1596
   23.010    3.0226
   23.025    2.9384
   23.040    2.7699
   23.055    3.1490
   23.070    2.8015
   23.085    3.0437
   23.100    3.2438
   23.115    3.1069
   23.130    3.0542
   23.145    2.8541
   23.160    3.0858
   23.175    3.3807
   23.190    3.2859
   23.205    3.1912
   23.220    3.1069
   23.235    3.1701
   23.250    3.1596
   23.265    3.0121
   23.280    3.0332
   23.295    3.1806
   23.310    2.8225
   23.325    3.0753
   23.340    2.7909
   23.355    3.1280
   23.370    3.2543
   23.385    3.0437
   23.400    3.2754
   23.415    3.0016
   23.430    3.0437
   23.445    3.2965
   23.460    3.4018
   23.475    2.9910
   23.490    3.1069
   23.505    2.9805
   23.520    3.2438
   23.535    3.2122
   23.550    3.0542
   23.565    3.2122
   23.580    3.3491
   23.595    3.1069
   23.610    2.8752
   23.625    3.0332
   23.640    2.8647
   23.655    3.0542
   23.670    3.0648
   23.685    3.0542
   23.700    3.0226
   23.715    3.1280
   23.730    3.1280
   23.745    3.1912
   23.760    3.0542
   23.775    3.0858
   23.790    2.9700
   23.805    3.1069
   23.820    3.1385
   23.835    3.1280
   23.850    3.3175
   23.865    2.8015
   23.880    2.8331
   23.895    3.0542
   23.910    3.1490
   23.925    3.1385
   23.940    3.1490
   23.955    3.1280
   23.970    3.0858
   23.985    3.0437
   24.000    3.1280
   24.015    3.2227
   24.030    2.9700
   24.045    3.0016
   24.060    3.1280
   24.075    2.9700
   24.090    3.0437
   24.105    2.9279
   24.120    3.1174
   24.135    3.2859
   24.150    2.8436
   24.165    2.9700
   24.180    2.9910
   24.195    3.1280
   24.210    3.0437
   24.225    2.9805
   24.240    3.0753
   24.255    3.1069
   24.270    3.1385
   24.285    2.9489
   24.300    3.0121
   24.315    2.8436
   24.330    3.0964
   24.345    3.0648
   24.360    3.0226
   24.375    3.0858
   24.390    3.1385
   24.405    2.9700
   24.420    2.8857
   24.435    2.9489
   24.450    3.0226
   24.465    3.0542
   24.480    3.1490
   24.495    3.0016
   24.510    3.1385
   24.525    3.1490
   24.540    2.9595
   24.555    3.0858
   24.570    2.9595
   24.585    2.6330
   24.600    2.9068
   24.615    2.8647
   24.630    3.1806
   24.645    2.9068
   24.660    3.2122
   24.675    2.8963
   24.690    3.1280
   24.705    3.2543
   24.720    2.7699
   24.735    2.8752
   24.750    2.9173
   24.765    2.8647
   24.780    3.0332
   24.795    3.1174
   24.810    3.1069
   24.825    3.0858
   24.840    2.9595
   24.855    3.0542
   24.870    2.9805
   24.885    2.9384
   24.900    2.9700
   24.915    3.1490
   24.930    2.8120
   24.945    3.0437
   24.960    3.2017
   24.975    3.1806
   24.990    2.8857
   25.005    3.0226
   25.020    2.8541
   25.035    3.0858
   25.050    2.9489
   25.065    3.0016
   25.080    3.0437
   25.095    2.9595
   25.110    3.0437
   25.125    3.1069
   25.140    3.0858
   25.155    3.0121
   25.170    2.9279
   25.185    2.8120
   25.200    3.1069
   25.215    2.9805
   25.230    3.0121
   25.245    2.9595
   25.260    2.9068
   25.275    3.0121
   25.290    2.9279
   25.305    3.1806
   25.320    2.9700
   25.335    2.9173
   25.350    2.9805
   25.365    3.0858
   25.380    3.0542
   25.395    2.9384
   25.410    3.0648
   25.425    3.1385
   25.440    2.9384
   25.455    2.8436
   25.470    2.6224
   25.485    2.7488
   25.500    2.8120
   25.515    3.1069
   25.530    3.0858
   25.545    3.1490
   25.560    3.0437
   25.575    3.0858
   25.590    3.0858
   25.605    2.8752
   25.620    2.9489
   25.635    2.8752
   25.650    2.9279
   25.665    2.9595
   25.680    2.7699
   25.695    2.8436
   25.710    2.9910
   25.725    2.8541
   25.740    3.0121
   25.755    3.1069
   25.770    2.8120
   25.785    3.0332
   25.800    2.8963
   25.815    3.0437
   25.830    2.8963
   25.845    2.9805
   25.860    2.7804
   25.875    3.0753
   25.890    3.3386
   25.905    2.8647
   25.920    2.7067
   25.935    2.6540
   25.950    2.8752
   25.965    2.9700
   25.980    3.0858
   25.995    2.8647
   26.010    2.8541
   26.025    2.7909
   26.040    3.0332
   26.055    2.6751
   26.070    3.0121
   26.085    2.9910
   26.100    2.8331
   26.115    2.9068
   26.130    2.9910
   26.145    2.7699
   26.160    2.9805
   26.175    2.9595
   26.190    2.8015
   26.205    2.7909
   26.220    2.8752
   26.235    2.9173
   26.250    3.0964
   26.265    2.8647
   26.280    2.9595
   26.295    2.8647
   26.310    2.8857
   26.325    2.8647
   26.340    2.8857
   26.355    2.8331
   26.370    2.8541
   26.385    2.8331
   26.400    2.8541
   26.415    3.0648
   26.430    2.9595
   26.445    2.8436
   26.460    2.7383
   26.475    2.7804
   26.490    2.9805
   26.505    2.7488
   26.520    2.7278
   26.535    2.7383
   26.550    2.8647
   26.565    2.7909
   26.580    2.7909
   26.595    2.7488
   26.610    2.8752
   26.625    2.7699
   26.640    2.6435
   26.655    2.8225
   26.670    2.5276
   26.685    2.6435
   26.700    2.8752
   26.715    3.0016
   26.730    2.7699
   26.745    2.7278
   26.760    2.8225
   26.775    2.8015
   26.790    2.6856
   26.805    3.0226
   26.820    3.1174
   26.835    2.8331
   26.850    2.7593
   26.865    2.4961
   26.880    2.7804
   26.895    2.9279
   26.910    3.0437
   26.925    2.8752
   26.940    2.8436
   26.955    2.9384
   26.970    2.9173
   26.985    2.7593
   27.000    2.6962
   27.015    2.7172
   27.030    2.9489
   27.045    2.6646
   27.060    2.7909
   27.075    2.8963
   27.090    2.6119
   27.105    2.8436
   27.120    2.6330
   27.135    2.9279
   27.150    3.0964
   27.165    3.1385
   27.180    2.8647
   27.195    2.7172
   27.210    2.4961
   27.225    2.8647
   27.240    2.6751
   27.255    2.7278
   27.270    2.6435
   27.285    2.7172
   27.300    2.8015
   27.315    2.6330
   27.330    2.6014
   27.345    2.5908
   27.360    2.7278
   27.375    2.6646
   27.390    2.7699
   27.405    2.7172
   27.420    2.7909
   27.435    2.7488
   27.450    2.6751
   27.465    2.8752
   27.480    2.5908
   27.495    2.6751
   27.510    2.8857
   27.525    2.9489
   27.540    2.7699
   27.555    2.9910
   27.570    2.7067
   27.585    2.5908
   27.600    2.6014
   27.615    2.6014
   27.630    2.7488
   27.645    2.7804
   27.660    2.8331
   27.675    2.5908
   27.690    2.5276
   27.705    2.7488
   27.720    2.8647
   27.735    2.7172
   27.750    2.8541
   27.765    2.7593
   27.780    2.5592
   27.795    2.7278
   27.810    2.8436
   27.825    2.9068
   27.840    3.0016
   27.855    2.9805
   27.870    2.6856
   27.885    2.6962
   27.900    2.9384
   27.915    2.7067
   27.930    2.6224
   27.945    2.7172
   27.960    2.6646
   27.975    2.5803
   27.990    2.7488
   28.005    2.9279
   28.020    2.7804
   28.035    2.9173
   28.050    2.9068
   28.065    2.8120
   28.080    2.4855
   28.095    2.6962
   28.110    2.8541
   28.125    2.7909
   28.140    2.6330
   28.155    2.6856
   28.170    2.4223
   28.185    2.5487
   28.200    2.6330
   28.215    2.4434
   28.230    2.4539
   28.245    2.6330
   28.260    2.6119
   28.275    2.8225
   28.290    2.6224
   28.305    2.6119
   28.320    2.5803
   28.335    2.7804
   28.350    2.7488
   28.365    2.4118
   28.380    2.7172
   28.395    2.8857
   28.410    2.5487
   28.425    2.5908
   28.440    2.5698
   28.455    2.6646
   28.470    2.6119
   28.485    2.8541
   28.500    3.0226
   28.515    2.8436
   28.530    2.7488
   28.545    2.7067
   28.560    2.6119
   28.575    2.4961
   28.590    2.8541
   28.605    2.6646
   28.620    2.5698
   28.635    2.6540
   28.650    2.6224
   28.665    2.4223
   28.680    2.4961
   28.695    2.4855
   28.710    2.5698
   28.725    2.7699
   28.740    2.6119
   28.755    2.6224
   28.770    2.6224
   28.785    2.5908
   28.800    2.6751
   28.815    2.7383
   28.830    2.4434
   28.845    2.7067
   28.860    2.8647
   28.875    2.5382
   28.890    2.4539
   28.905    2.5066
   28.920    2.5382
   28.935    2.5487
   28.950    2.8541
   28.965    2.5066
   28.980    2.4750
   28.995    2.6224
   29.010    2.6962
   29.025    2.6224
   29.040    2.5382
   29.055    2.5698
   29.070    2.8331
   29.085    2.5487
   29.100    2.5698
   29.115    2.6856
   29.130    2.6119
   29.145    2.6330
   29.160    2.7278
   29.175    2.6435
   29.190    2.6435
   29.205    2.6119
   29.220    2.4750
   29.235    2.5066
   29.250    2.3907
   29.265    2.6224
   29.280    2.5698
   29.295    2.7699
   29.310    2.6962
   29.325    2.7804
   29.340    2.6962
   29.355    2.5276
   29.370    2.7067
   29.385    2.5487
   29.400    2.3170
   29.415    2.5171
   29.430    2.5382
   29.445    2.4013
   29.460    2.3697
   29.475    2.4539
   29.490    2.3802
   29.505    2.5698
   29.520    2.4118
   29.535    2.7804
   29.550    2.5698
   29.565    2.5592
   29.580    2.4645
   29.595    2.5908
   29.610    2.6646
   29.625    2.7278
   29.640    2.7593
   29.655    2.3907
   29.670    2.3591
   29.685    2.5276
   29.700    2.4750
   29.715    2.6646
   29.730    2.7909
   29.745    2.6224
   29.760    2.4013
   29.775    2.3802
   29.790    2.3802
   29.805    2.3486
   29.820    2.4645
   29.835    2.4118
   29.850    2.4013
   29.865    2.4329
   29.880    2.3275
   29.895    2.5803
   29.910    2.4013
   29.925    2.6119
   29.940    2.2328
   29.955    2.4645
   29.970    2.2854
   29.985    2.4750
   30.000    2.3170
   30.015    2.4961
   30.030    2.4645
   30.045    2.2012
   30.060    2.4539
   30.075    2.5908
   30.090    2.4118
   30.105    2.4329
   30.120    2.4539
   30.135    2.5066
   30.150    2.4645
   30.165    2.4223
   30.180    2.2222
   30.195    2.3697
   30.210    2.4539
   30.225    2.4855
   30.240    2.3907
   30.255    2.5066
   30.270    2.5487
   30.285    2.4750
   30.300    2.5066
   30.315    2.1801
   30.330    2.2643
   30.345    2.3275
   30.360    2.4118
   30.375    2.5487
   30.390    2.5066
   30.405    2.3275
   30.420    2.4223
   30.435    2.3381
   30.450    2.1906
   30.465    2.3275
   30.480    2.6646
   30.495    2.6646
   30.510    2.2854
   30.525    2.3697
   30.540    2.6330
   30.555    2.3170
   30.570    2.2222
   30.585    2.2959
   30.600    2.5171
   30.615    2.5908
   30.630    2.1274
   30.645    2.4855
   30.660    2.4329
   30.675    2.4223
   30.690    2.3275
   30.705    2.3275
   30.720    2.2117
   30.735    2.3591
   30.750    2.5382
   30.765    2.3697
   30.780    2.1590
   30.795    2.3697
   30.810    2.3591
   30.825    2.4855
   30.840    1.9589
   30.855    2.2959
   30.870    2.5171
   30.885    2.2749
   30.900    2.2222
   30.915    2.2012
   30.930    2.4329
   30.945    2.3486
   30.960    2.1590
   30.975    2.3486
   30.990    2.2117
   31.005    2.1274
   31.020    2.3697
   31.035    2.1485
   31.050    2.2643
   31.065    2.2959
   31.080    2.4223
   31.095    2.3065
   31.110    2.2433
   31.125    2.3802
   31.140    2.4539
   31.155    2.2854
   31.170    2.4329
   31.185    2.5171
   31.200    2.2643
   31.215    2.3170
   31.230    2.2643
   31.245    2.2643
   31.260    2.2328
   31.275    2.4223
   31.290    2.5066
   31.305    2.1485
   31.320    2.2538
   31.335    2.4223
   31.350    2.3591
   31.365    2.3381
   31.380    2.3381
   31.395    2.3381
   31.410    2.3907
   31.425    2.6856
   31.440    2.4118
   31.455    2.3170
   31.470    2.4223
   31.485    2.5592
   31.500    2.7593
   31.515    2.5066
   31.530    2.5698
   31.545    2.4013
   31.560    2.4013
   31.575    2.4329
   31.590    2.5382
   31.605    2.2959
   31.620    2.4118
   31.635    2.3381
   31.650    2.5592
   31.665    2.4855
   31.680    2.6119
   31.695    2.4013
   31.710    2.3907
   31.725    2.4013
   31.740    2.4434
   31.755    2.4223
   31.770    2.2433
   31.785    2.1590
   31.800    2.3170
   31.815    2.3486
   31.830    2.1590
   31.845    2.3591
   31.860    2.4750
   31.875    2.3486
   31.890    2.1590
   31.905    2.0432
   31.920    2.3275
   31.935    2.2117
   31.950    1.8957
   31.965    2.1169
   31.980    2.3065
   31.995    2.2117
   32.010    2.2222
   32.025    2.0432
   32.040    1.9695
   32.055    1.9484
   32.070    1.9063
   32.085    1.9379
   32.100    2.0853
   32.115    2.0853
   32.130    1.9589
   32.145    2.1274
   32.160    2.1906
   32.175    2.1169
   32.190    2.1485
   32.205    2.3065
   32.220    2.2012
   32.235    2.1485
   32.250    2.0853
   32.265    2.1064
   32.280    2.0853
   32.295    1.9695
   32.310    1.9589
   32.325    2.1064
   32.340    2.0221
   32.355    2.0748
   32.370    2.0958
   32.385    2.0748
   32.400    2.0537
   32.415    1.9379
   32.430    2.2117
   32.445    2.1801
   32.460    2.0853
   32.475    2.3486
   32.490    2.0011
   32.505    2.0642
   32.520    2.0537
   32.535    2.2538
   32.550    2.0748
   32.565    1.9273
   32.580    2.1801
   32.595    2.1696
   32.610    1.9905
   32.625    2.0116
   32.640    1.9484
   32.655    1.8957
   32.670    1.9800
   32.685    2.0116
   32.700    2.2222
   32.715    2.0432
   32.730    2.0116
   32.745    2.2328
   32.760    2.1169
   32.775    2.0748
   32.790    2.0642
   32.805    2.0853
   32.820    2.2117
   32.835    2.1169
   32.850    2.0326
   32.865    2.1801
   32.880    2.2117
   32.895    1.9695
   32.910    1.8115
   32.925    1.8641
   32.940    2.2643
   32.955    2.1274
   32.970    2.3381
   32.985    2.1906
   33.000    1.9589
   33.015    1.9589
   33.030    1.8325
   33.045    1.8957
   33.060    1.9905
   33.075    2.0011
   33.090    2.2854
   33.105    2.1696
   33.120    2.0011
   33.135    2.0326
   33.150    2.0432
   33.165    2.1274
   33.180    2.2117
   33.195    1.8747
   33.210    1.9695
   33.225    2.1590
   33.240    2.0011
   33.255    2.0537
   33.270    1.9063
   33.285    1.7799
   33.300    1.6956
   33.315    1.7483
   33.330    1.8220
   33.345    1.9484
   33.360    2.1169
   33.375    1.9379
   33.390    2.0221
   33.405    2.0853
   33.420    1.9800
   33.435    1.8852
   33.450    1.9063
   33.465    2.0537
   33.480    1.7588
   33.495    1.7904
   33.510    1.9800
   33.525    2.0011
   33.540    1.8641
   33.555    1.7272
   33.570    1.9168
   33.585    2.0326
   33.600    1.9484
   33.615    2.1064
   33.630    1.9168
   33.645    1.8009
   33.660    1.8957
   33.675    1.9905
   33.690    2.0748
   33.705    1.9273
   33.720    1.8325
   33.735    1.6430
   33.750    1.7904
   33.765    1.8957
   33.780    1.8747
   33.795    2.0116
   33.810    2.0011
   33.825    1.7483
   33.840    2.0116
   33.855    1.9063
   33.870    2.0116
   33.885    1.8957
   33.900    1.6114
   33.915    1.6956
   33.930    1.9273
   33.945    1.7904
   33.960    2.0642
   33.975    1.8536
   33.990    2.0326
   34.005    1.8747
   34.020    1.8220
   34.035    1.7483
   34.050    1.9168
   34.065    1.8641
   34.080    1.6640
   34.095    1.9273
   34.110    1.6324
   34.125    1.6008
   34.140    1.8325
   34.155    1.9695
   34.170    2.0537
   34.185    1.9273
   34.200    1.9168
   34.215    1.9800
   34.230    1.8536
   34.245    1.8852
   34.260    1.8431
   34.275    1.8641
   34.290    1.7062
   34.305    1.8852
   34.320    1.8747
   34.335    1.6851
   34.350    1.6640
   34.365    1.7694
   34.380    1.6746
   34.395    1.6430
   34.410    1.5798
   34.425    1.7483
   34.440    1.8115
   34.455    1.7799
   34.470    1.7062
   34.485    2.0011
   34.500    1.6430
   34.515    1.7904
   34.530    1.6956
   34.545    1.6956
   34.560    1.7062
   34.575    1.7483
   34.590    1.6851
   34.605    1.7588
   34.620    1.7378
   34.635    1.5903
   34.650    1.6324
   34.665    1.8852
   34.680    1.8431
   34.695    1.9168
   34.710    1.5587
   34.725    1.7272
   34.740    1.7799
   34.755    1.6535
   34.770    1.7378
   34.785    1.8852
   34.800    1.6324
   34.815    1.5587
   34.830    1.8009
   34.845    1.8115
   34.860    1.7694
   34.875    1.7378
   34.890    1.3797
   34.905    1.4955
   34.920    1.5798
   34.935    1.7588
   34.950    1.5166
   34.965    1.5692
   34.980    1.5587
   34.995    1.6535
   35.010    1.6219
   35.025    1.5692
   35.040    1.6746
   35.055    1.9695
   35.070    1.7062
   35.085    1.6114
   35.100    1.6324
   35.115    1.7694
   35.130    1.7062
   35.145    1.7167
   35.160    1.5798
   35.175    1.7694
   35.190    1.7062
   35.205    1.3797
   35.220    1.3797
   35.235    1.8431
   35.250    1.7378
   35.265    1.6324
   35.280    1.8641
   35.295    1.6008
   35.310    1.7588
   35.325    1.6430
   35.340    1.5692
   35.355    1.6746
   35.370    1.6324
   35.385    1.5271
   35.400    1.5692
   35.415    1.7694
   35.430    1.7904
   35.445    1.6746
   35.460    1.5903
   35.475    1.4955
   35.490    1.5903
   35.505    1.6851
   35.520    1.7062
   35.535    1.8325
   35.550    1.7167
   35.565    1.5692
   35.580    1.7378
   35.595    1.6640
   35.610    1.8009
   35.625    1.6956
   35.640    1.6219
   35.655    1.4850
   35.670    1.6640
   35.685    1.4850
   35.700    1.3270
   35.715    1.6114
   35.730    1.6219
   35.745    1.6640
   35.760    1.5587
   35.775    1.5482
   35.790    1.4113
   35.805    1.6535
   35.820    1.6746
   35.835    1.5166
   35.850    1.3797
   35.865    1.5903
   35.880    1.5798
   35.895    1.4955
   35.910    1.6640
   35.925    1.6430
   35.940    1.7588
   35.955    1.6219
   35.970    1.4534
   35.985    1.5482
   36.000    1.7167
   36.015    1.7904
   36.030    1.7062
   36.045    1.4534
   36.060    1.6746
   36.075    1.5903
   36.090    1.4113
   36.105    1.3375
   36.120    1.5482
   36.135    1.5587
   36.150    1.5482
   36.165    1.5482
   36.180    1.6324
   36.195    1.5271
   36.210    1.6430
   36.225    1.4534
   36.240    1.6535
   36.255    1.5166
   36.270    1.5482
   36.285    1.5377
   36.300    1.4218
   36.315    1.6008
   36.330    1.6640
   36.345    1.6324
   36.360    1.4745
   36.375    1.5166
   36.390    1.4429
   36.405    1.2638
   36.420    1.4218
   36.435    1.5587
   36.450    1.5166
   36.465    1.4429
   36.480    1.3691
   36.495    1.3691
   36.510    1.5271
   36.525    1.3481
   36.540    1.4218
   36.555    1.5587
   36.570    1.4745
   36.585    1.4323
   36.600    1.3481
   36.615    1.4639
   36.630    1.5166
   36.645    1.4007
   36.660    1.1901
   36.675    1.3270
   36.690    1.3902
   36.705    1.4323
   36.720    1.3691
   36.735    1.5482
   36.750    1.3586
   36.765    1.4429
   36.780    1.4429
   36.795    1.4007
   36.810    1.3691
   36.825    1.2533
   36.840    1.4218
   36.855    1.3165
   36.870    1.4955
   36.885    1.4323
   36.900    1.6430
   36.915    1.4429
   36.930    1.3481
   36.945    1.2112
   36.960    1.4429
   36.975    1.4639
   36.990    1.5798
   37.005    1.6219
   37.020    1.4429
   37.035    1.3691
   37.050    1.4218
   37.065    1.6851
   37.080    1.5061
   37.095    1.4639
   37.110    1.4113
   37.125    1.2638
   37.140    1.2638
   37.155    1.4850
   37.170    1.3165
   37.185    1.3797
   37.200    1.2744
   37.215    1.2533
   37.230    1.4113
   37.245    1.3797
   37.260    1.5061
   37.275    1.3691
   37.290    1.3691
   37.305    1.2112
   37.320    1.4850
   37.335    1.4007
   37.350    1.2638
   37.365    1.3797
   37.380    1.3691
   37.395    1.3481
   37.410    1.2322
   37.425    1.2428
   37.440    1.2322
   37.455    1.2217
   37.470    1.3586
   37.485    1.4745
   37.500    1.4745
   37.515    1.3375
   37.530    1.3270
   37.545    1.3481
   37.560    1.2638
   37.575    1.3165
   37.590    1.2849
   37.605    1.3375
   37.620    1.3060
   37.635    1.3060
   37.650    1.3586
   37.665    1.3902
   37.680    1.2744
   37.695    1.3586
   37.710    1.4218
   37.725    1.5798
   37.740    1.2322
   37.755    1.1585
   37.770    1.3586
   37.785    1.4850
   37.800    1.3481
   37.815    1.3060
   37.830    1.1374
   37.845    1.3165
   37.860    1.3481
   37.875    1.3270
   37.890    1.3586
   37.905    1.3586
   37.920    1.2217
   37.935    1.1164
   37.950    1.1374
   37.965    1.2954
   37.980    1.3691
   37.995    1.4745
   38.010    1.3165
   38.025    1.2428
   38.040    1.2533
   38.055    1.2112
   38.070    1.4007
   38.085    1.3902
   38.100    1.2217
   38.115    1.3375
   38.130    1.2428
   38.145    1.2217
   38.160    1.4745
   38.175    1.3165
   38.190    1.4639
   38.205    1.2849
   38.220    1.3165
   38.235    1.2217
   38.250    1.2849
   38.265    1.2744
   38.280    1.3481
   38.295    1.1585
   38.310    1.1269
   38.325    1.1058
   38.340    1.2533
   38.355    1.2849
   38.370    1.4007
   38.385    1.1374
   38.400    1.2638
   38.415    1.2533
   38.430    1.2006
   38.445    1.0216
   38.460    1.1585
   38.475    1.2112
   38.490    1.1690
   38.505    1.2428
   38.520    1.2533
   38.535    1.2849
   38.550    1.3586
   38.565    1.4639
   38.580    1.3165
   38.595    1.2849
   38.610    1.2954
   38.625    1.3586
   38.640    1.1901
   38.655    1.1164
   38.670    1.1480
   38.685    1.1585
   38.700    1.2954
   38.715    1.3586
   38.730    1.3270
   38.745    1.2006
   38.760    1.2533
   38.775    1.2006
   38.790    1.2744
   38.805    1.2954
   38.820    1.2112
   38.835    1.4429
   38.850    1.3902
   38.865    1.2112
   38.880    1.2217
   38.895    1.1374
   38.910    1.1480
   38.925    1.1164
   38.940    1.2428
   38.955    1.2006
   38.970    1.2638
   38.985    1.3375
   39.000    1.2322
   39.015    1.1585
   39.030    1.2217
   39.045    1.1164
   39.060    1.3691
   39.075    1.4007
   39.090    1.5166
   39.105    1.2428
   39.120    1.1374
   39.135    1.2638
   39.150    1.3586
   39.165    1.2428
   39.180    1.3691
   39.195    1.1058
   39.210    1.2533
   39.225    1.2322
   39.240    1.0742
   39.255    1.1374
   39.270    1.1690
   39.285    1.2217
   39.300    1.2006
   39.315    1.1164
   39.330    1.2849
   39.345    1.2112
   39.360    1.0742
   39.375    1.0111
   39.390    1.2112
   39.405    1.4850
   39.420    1.3586
   39.435    1.2112
   39.450    1.0637
   39.465    1.1796
   39.480    1.1374
   39.495    1.2533
   39.510    1.1480
   39.525    1.0637
   39.540    1.0742
   39.555    1.1480
   39.570    1.2428
   39.585    1.2744
   39.600    1.3270
   39.615    1.0848
   39.630    1.0427
   39.645    1.1901
   39.660    1.2428
   39.675    1.3165
   39.690    1.1585
   39.705    1.2533
   39.720    1.2112
   39.735    1.2849
   39.750    1.2744
   39.765    1.1164
   39.780    1.2638
   39.795    1.2744
   39.810    1.1058
   39.825    1.1690
   39.840    1.1796
   39.855    1.3270
   39.870    1.2112
   39.885    1.2954
   39.900    1.2322
   39.915    1.3165
   39.930    1.2533
   39.945    1.1164
   39.960    1.3060
   39.975    1.2849
   39.990    1.1901
