    1.500   15.5345
    1.515   15.5134
    1.530   15.5450
    1.545   14.7657
    1.560   14.7446
    1.575   15.1343
    1.590   14.7341
    1.605   14.6182
    1.620   15.3449
    1.635   14.6814
    1.650   14.5129
    1.665   14.3655
    1.680   14.8605
    1.695   14.5972
    1.710   14.0179
    1.725   14.3233
    1.740   14.3549
    1.755   14.4286
    1.770   14.1548
    1.785   14.4286
    1.800   13.8389
    1.815   13.8494
    1.830   13.6598
    1.845   13.5229
    1.860   13.2912
    1.875   13.7230
    1.890   13.6914
    1.905   13.6282
    1.920   13.5334
    1.935   13.7335
    1.950   13.4808
    1.965   13.4176
    1.980   13.1543
    1.995   13.7546
    2.010   13.8283
    2.025   13.4387
    2.040   13.1964
    2.055   13.3965
    2.070   13.4597
    2.085   13.2280
    2.100   13.4071
    2.115   13.9758
    2.130   14.1338
    2.145   13.7441
    2.160   13.7967
    2.175   13.6704
    2.190   13.9126
    2.205   13.6704
    2.220   13.7757
    2.235   13.9442
    2.250   14.3549
    2.265   14.1654
    2.280   14.0600
    2.295   13.7757
    2.310   14.7446
    2.325   14.2075
    2.340   14.2391
    2.355   14.6288
    2.370   14.7657
    2.385   14.6603
    2.400   14.7867
    2.415   14.9763
    2.430   15.2712
    2.445   15.2291
    2.460   15.4924
    2.475   15.4713
    2.490   15.7346
    2.505   15.6187
    2.520   15.7557
    2.535   16.6930
    2.550   16.0716
    2.565   16.4508
    2.580   17.2196
    2.595   17.4618
    2.610   17.1669
    2.625   17.2512
    2.640   16.6825
    2.655   17.9989
    2.670   18.4518
    2.685   18.4518
    2.700   17.9568
    2.715   19.0100
    2.730   19.1680
    2.745   19.9684
    2.760   19.9789
    2.775   20.3897
    2.790   20.6740
    2.805   21.3691
    2.820   21.3481
    2.835   22.4118
    2.850   22.8120
    2.865   23.8231
    2.880   23.5492
    2.895   23.6862
    2.910   24.5392
    2.925   25.5292
    2.940   25.0764
    2.955   26.0137
    2.970   26.3612
    2.985   27.2459
    3.000   27.4882
    3.015   28.1517
    3.030   29.6367
    3.045   30.0158
    3.060   31.8694
    3.075   32.3855
    3.090   33.5545
    3.105   34.2812
    3.120   34.3023
    3.135   36.1348
    3.150   37.3776
    3.165   37.6409
    3.180   38.4939
    3.195   40.0632
    3.210   41.0427
    3.225   43.5282
    3.240   45.1922
    3.255   47.3512
    3.270   48.6677
    3.285   50.3949
    3.300   53.0068
    3.315   55.2923
    3.330   58.7994
    3.345   60.8004
    3.360   64.1074
    3.375   68.4255
    3.390   72.3117
    3.405   76.3876
    3.420   81.9589
    3.435   87.1090
    3.450   93.1859
    3.465   97.3460
    3.480  101.3691
    3.495  101.5271
    3.510   97.9779
    3.525   92.0906
    3.540   83.2965
    3.555   72.0379
    3.570   63.9179
    3.585   55.9874
    3.600   49.4155
    3.615   45.9821
    3.630   43.7493
    3.645   42.1169
    3.660   41.8431
    3.675   41.5798
    3.690   40.4318
    3.705   41.3270
    3.720   41.5166
    3.735   42.7488
    3.750   44.1601
    3.765   45.3186
    3.780   46.7615
    3.795   48.2149
    3.810   50.9637
    3.825   53.7967
    3.840   56.5982
    3.855   59.2417
    3.870   64.2865
    3.885   70.2159
    3.900   73.7441
    3.915   74.4286
    3.930   70.9005
    3.945   64.9394
    3.960   55.4292
    3.975   47.3934
    3.990   43.6124
    4.005   42.1696
    4.020   41.7588
    4.035   42.0748
    4.050   40.4634
    4.065   38.3360
    4.080   37.0300
    4.095   36.7773
    4.110   33.9968
    4.125   31.9958
    4.140   31.8378
    4.155   29.3523
    4.170   27.0248
    4.185   25.9926
    4.200   24.2759
    4.215   23.1596
    4.230   21.4218
    4.245   19.9263
    4.260   19.1469
    4.275   18.2938
    4.290   17.0090
    4.305   16.3981
    4.320   15.1448
    4.335   14.8920
    4.350   14.1127
    4.365   13.4071
    4.380   13.0700
    4.395   12.7751
    4.410   12.0800
    4.425   11.4060
    4.440   10.8162
    4.455   10.6688
    4.470    9.8578
    4.485    9.5313
    4.500    9.1206
    4.515    8.5308
    4.530    8.9415
    4.545    8.9100
    4.560    8.8046
    4.575    8.4887
    4.590    8.5729
    4.605    7.7936
    4.620    7.7620
    4.635    8.1306
    4.650    8.1727
    4.665    7.8041
    4.680    7.6461
    4.695    7.9200
    4.710    7.1722
    4.725    7.2986
    4.740    7.2249
    4.755    6.5298
    4.770    6.9932
    4.785    7.0458
    4.800    7.3196
    4.815    7.1511
    4.830    6.9826
    4.845    6.7825
    4.860    6.6877
    4.875    6.9300
    4.890    6.6351
    4.905    6.8141
    4.920    7.0985
    4.935    6.7299
    4.950    6.5613
    4.965    6.6561
    4.980    7.2038
    4.995    6.9721
    5.010    7.1722
    5.025    7.0037
    5.040    6.8878
    5.055    6.5929
    5.070    6.7615
    5.085    6.8246
    5.100    6.9721
    5.115    6.9616
    5.130    7.3723
    5.145    7.1722
    5.160    6.7720
    5.175    7.4039
    5.190    7.5935
    5.205    7.5935
    5.220    7.5619
    5.235    7.3618
    5.250    7.1090
    5.265    7.5513
    5.280    7.4776
    5.295    7.9410
    5.310    7.5092
    5.325    7.8568
    5.340    8.2675
    5.355    8.1411
    5.370    8.7204
    5.385    8.6888
    5.400    9.2575
    5.415    9.4892
    5.430   10.0369
    5.445   10.3844
    5.460   11.0479
    5.475   12.5224
    5.490   13.8705
    5.505   15.4186
    5.520   15.4502
    5.535   15.1132
    5.550   15.0395
    5.565   12.3960
    5.580    9.1311
    5.595    6.6561
    5.610    5.7715
    5.625    5.5608
    5.640    5.6135
    5.655    5.4976
    5.670    5.5924
    5.685    5.6767
    5.700    5.4450
    5.715    5.5819
    5.730    5.5503
    5.745    5.4766
    5.760    5.4555
    5.775    5.2870
    5.790    5.0342
    5.805    5.4344
    5.820    5.8873
    5.835    5.4555
    5.850    5.3607
    5.865    5.6451
    5.880    5.0869
    5.895    5.2975
    5.910    5.4766
    5.925    5.2975
    5.940    5.3291
    5.955    5.5292
    5.970    5.6556
    5.985    5.1080
    6.000    5.2975
    6.015    5.3081
    6.030    5.3712
    6.045    5.4660
    6.060    5.0869
    6.075    5.2027
    6.090    5.3607
    6.105    5.0342
    6.120    5.4028
    6.135    5.7293
    6.150    5.4239
    6.165    5.7293
    6.180    5.2870
    6.195    5.3081
    6.210    5.9084
    6.225    5.8768
    6.240    5.3712
    6.255    5.6661
    6.270    5.6872
    6.285    5.6556
    6.300    5.6240
    6.315    5.6345
    6.330    5.6556
    6.345    5.6661
    6.360    5.7188
    6.375    5.7925
    6.390    6.1295
    6.405    5.9084
    6.420    5.8873
    6.435    5.9400
    6.450    6.0348
    6.465    6.1611
    6.480    6.4139
    6.495    6.6456
    6.510    6.3402
    6.525    6.7615
    6.540    6.5508
    6.555    6.4982
    6.570    6.6245
    6.585    7.0879
    6.600    7.1933
    6.615    7.2880
    6.630    7.5513
    6.645    7.6883
    6.660    7.7409
    6.675    8.0463
    6.690    8.3623
    6.705    8.6572
    6.720    9.1311
    6.735    9.6577
    6.750   10.5635
    6.765   10.6898
    6.780   11.0795
    6.795   10.9637
    6.810   10.3107
    6.825    9.5524
    6.840    9.5313
    6.855    9.9526
    6.870   10.3844
    6.885   10.6056
    6.900   10.7109
    6.915   11.3323
    6.930   11.6272
    6.945   12.7014
    6.960   13.4492
    6.975   13.8073
    6.990   13.6493
    7.005   13.6282
    7.020   13.0174
    7.035   12.1643
    7.050   11.2059
    7.065   10.6266
    7.080    9.4787
    7.095    8.7625
    7.110    8.0674
    7.125    7.6145
    7.140    7.2670
    7.155    7.0458
    7.170    6.7509
    7.185    6.1295
    7.200    6.4982
    7.215    6.2454
    7.230    6.0979
    7.245    6.0558
    7.260    5.9189
    7.275    6.0769
    7.290    6.0874
    7.305    5.5292
    7.320    5.7504
    7.335    5.7820
    7.350    5.8978
    7.365    6.1611
    7.380    6.0979
    7.395    6.4350
    7.410    6.1401
    7.425    6.0348
    7.440    5.8452
    7.455    6.0979
    7.470    6.6245
    7.485    6.2138
    7.500    6.0032
    7.515    6.2138
    7.530    6.2454
    7.545    5.9084
    7.560    6.2138
    7.575    6.4139
    7.590    6.8141
    7.605    6.6983
    7.620    6.8141
    7.635    7.1511
    7.650    6.7615
    7.665    7.2143
    7.680    7.3618
    7.695    7.4987
    7.710    7.5513
    7.725    7.2143
    7.740    7.5829
    7.755    8.0674
    7.770    8.5729
    7.785    8.8889
    7.800    8.8573
    7.815    8.9310
    7.830    8.7309
    7.845    8.8889
    7.860    8.8257
    7.875    8.4360
    7.890    7.6251
    7.905    7.8252
    7.920    7.5829
    7.935    7.7620
    7.950    7.8778
    7.965    7.5513
    7.980    7.9305
    7.995    8.4466
    8.010    8.3518
    8.025    8.1833
    8.040    8.5729
    8.055    7.9621
    8.070    7.9094
    8.085    7.9621
    8.100    8.1411
    8.115    7.9516
    8.130    8.0147
    8.145    7.8146
    8.160    7.8778
    8.175    7.8673
    8.190    7.9516
    8.205    7.9200
    8.220    7.7830
    8.235    7.4250
    8.250    7.3512
    8.265    7.7936
    8.280    7.2143
    8.295    7.4882
    8.310    7.5619
    8.325    7.3512
    8.340    7.2038
    8.355    7.1406
    8.370    6.9510
    8.385    6.7930
    8.400    6.6667
    8.415    7.0563
    8.430    6.8141
    8.445    6.7720
    8.460    6.7825
    8.475    6.2033
    8.490    6.2665
    8.505    6.2454
    8.520    6.4244
    8.535    6.2981
    8.550    6.3507
    8.565    5.9716
    8.580    5.7504
    8.595    5.8557
    8.610    6.1085
    8.625    6.0032
    8.640    5.9610
    8.655    5.7188
    8.670    5.7188
    8.685    5.7504
    8.700    5.9716
    8.715    6.3402
    8.730    6.0242
    8.745    5.4555
    8.760    5.5082
    8.775    5.8557
    8.790    5.6661
    8.805    5.6661
    8.820    5.4766
    8.835    5.2133
    8.850    5.3712
    8.865    5.3081
    8.880    5.0764
    8.895    5.3818
    8.910    5.4871
    8.925    5.4976
    8.940    5.4871
    8.955    5.3397
    8.970    5.2975
    8.985    5.3818
    9.000    5.1817
    9.015    5.1185
    9.030    5.2975
    9.045    5.2975
    9.060    5.1606
    9.075    5.2133
    9.090    5.1501
    9.105    5.3607
    9.120    5.2343
    9.135    5.1711
    9.150    5.0764
    9.165    5.0026
    9.180    5.2343
    9.195    5.4239
    9.210    5.2870
    9.225    5.3923
    9.240    5.7083
    9.255    5.2343
    9.270    5.3502
    9.285    5.3186
    9.300    5.3081
    9.315    5.3186
    9.330    5.6345
    9.345    5.0869
    9.360    5.4450
    9.375    5.4660
    9.390    5.2765
    9.405    5.5187
    9.420    5.8241
    9.435    5.7504
    9.450    6.0348
    9.465    6.1927
    9.480    6.2665
    9.495    6.5403
    9.510    6.8773
    9.525    7.2249
    9.540    8.1095
    9.555    8.3728
    9.570    9.0995
    9.585    9.2048
    9.600    9.0995
    9.615    8.6677
    9.630    7.6356
    9.645    6.0769
    9.660    4.9921
    9.675    5.0658
    9.690    4.8131
    9.705    5.1501
    9.720    4.6551
    9.735    4.9078
    9.750    4.7709
    9.765    5.2975
    9.780    5.4134
    9.795    5.1080
    9.810    5.1290
    9.825    4.6235
    9.840    4.7183
    9.855    4.6445
    9.870    4.9816
    9.885    5.0132
    9.900    4.8763
    9.915    5.0342
    9.930    5.1606
    9.945    5.1185
    9.960    5.4344
    9.975    5.0553
    9.990    4.9289
   10.005    4.9605
   10.020    5.0448
   10.035    5.0448
   10.050    4.9816
   10.065    4.9394
   10.080    4.9710
   10.095    5.2765
   10.110    5.0448
   10.125    5.1501
   10.140    5.4028
   10.155    5.1185
   10.170    5.1395
   10.185    5.1606
   10.200    5.3923
   10.215    5.4766
   10.230    5.3818
   10.245    5.5608
   10.260    5.4871
   10.275    5.3923
   10.290    5.8557
   10.305    5.6661
   10.320    6.1190
   10.335    6.4139
   10.350    6.3296
   10.365    6.5403
   10.380    6.4771
   10.395    6.4666
   10.410    5.9821
   10.425    5.7293
   10.440    5.5924
   10.455    5.2343
   10.470    5.4976
   10.485    5.7609
   10.500    5.5503
   10.515    5.6977
   10.530    5.5398
   10.545    5.5714
   10.560    5.4450
   10.575    5.4555
   10.590    5.2133
   10.605    5.1501
   10.620    5.0974
   10.635    5.1922
   10.650    4.8657
   10.665    5.3923
   10.680    5.6135
   10.695    5.1711
   10.710    5.0237
   10.725    5.2449
   10.740    5.1501
   10.755    5.2449
   10.770    5.1185
   10.785    5.0869
   10.800    5.2027
   10.815    5.0553
   10.830    5.0237
   10.845    5.0553
   10.860    4.7288
   10.875    4.7815
   10.890    5.0132
   10.905    5.1501
   10.920    4.9921
   10.935    5.3186
   10.950    5.4555
   10.965    4.9500
   10.980    5.2659
   10.995    5.2975
   11.010    5.2027
   11.025    5.7820
   11.040    5.9084
   11.055    6.1295
   11.070    6.2454
   11.085    6.1190
   11.100    5.8031
   11.115    5.9084
   11.130    5.3818
   11.145    4.8973
   11.160    4.8657
   11.175    5.1395
   11.190    5.1606
   11.205    5.0764
   11.220    4.9184
   11.235    5.0448
   11.250    4.9921
   11.265    5.2027
   11.280    4.9184
   11.295    4.8341
   11.310    4.9605
   11.325    5.0132
   11.340    5.1501
   11.355    5.1080
   11.370    4.6972
   11.385    4.8236
   11.400    5.0974
   11.415    5.2343
   11.430    5.0764
   11.445    5.0553
   11.460    4.7815
   11.475    4.8868
   11.490    5.1395
   11.505    4.8657
   11.520    4.9921
   11.535    4.8447
   11.550    5.0658
   11.565    5.4344
   11.580    5.6767
   11.595    5.4134
   11.610    5.0237
   11.625    5.1501
   11.640    5.6661
   11.655    5.2975
   11.670    5.3291
   11.685    6.0032
   11.700    6.4139
   11.715    6.2559
   11.730    6.8352
   11.745    6.4666
   11.760    6.2875
   11.775    6.3191
   11.790    6.3928
   11.805    5.7504
   11.820    5.7504
   11.835    5.5819
   11.850    5.0658
   11.865    5.1711
   11.880    4.9816
   11.895    5.1501
   11.910    5.2554
   11.925    5.4134
   11.940    5.1080
   11.955    5.0553
   11.970    5.3818
   11.985    5.5292
   12.000    5.3397
   12.015    5.3502
   12.030    5.6029
   12.045    5.3502
   12.060    5.2027
   12.075    5.2027
   12.090    4.8973
   12.105    4.9078
   12.120    4.7183
   12.135    5.1501
   12.150    5.5187
   12.165    5.2238
   12.180    5.3712
   12.195    5.1290
   12.210    5.1922
   12.225    5.2554
   12.240    5.5924
   12.255    5.4871
   12.270    5.4976
   12.285    5.3502
   12.300    5.3291
   12.315    5.5924
   12.330    5.3712
   12.345    5.6029
   12.360    5.6872
   12.375    5.9400
   12.390    5.6240
   12.405    5.5398
   12.420    5.0869
   12.435    5.1290
   12.450    5.1395
   12.465    5.2765
   12.480    5.3502
   12.495    5.0553
   12.510    5.0448
   12.525    5.1395
   12.540    5.3081
   12.555    5.2343
   12.570    4.9921
   12.585    5.3502
   12.600    5.1711
   12.615    5.4344
   12.630    5.3081
   12.645    5.1922
   12.660    5.0869
   12.675    5.1080
   12.690    4.9078
   12.705    4.8131
   12.720    5.0764
   12.735    4.9394
   12.750    4.7815
   12.765    5.2133
   12.780    4.9605
   12.795    4.6867
   12.810    5.2554
   12.825    5.2238
   12.840    5.3607
   12.855    5.3712
   12.870    5.4239
   12.885    5.1922
   12.900    5.3291
   12.915    5.2659
   12.930    5.4871
   12.945    5.5608
   12.960    5.4766
   12.975    6.2349
   12.990    5.6556
   13.005    6.0664
   13.020    6.0242
   13.035    5.5924
   13.050    5.1817
   13.065    4.8447
   13.080    5.1290
   13.095    5.1711
   13.110    4.9710
   13.125    5.1080
   13.140    5.1290
   13.155    5.0237
   13.170    4.9816
   13.185    4.9710
   13.200    4.8341
   13.215    4.9289
   13.230    5.0342
   13.245    5.0026
   13.260    4.7709
   13.275    4.8552
   13.290    5.0237
   13.305    5.0237
   13.320    5.0237
   13.335    5.0342
   13.350    4.8763
   13.365    5.2133
   13.380    5.0342
   13.395    4.9605
   13.410    4.8763
   13.425    4.9289
   13.440    5.2027
   13.455    4.9605
   13.470    4.9816
   13.485    5.1080
   13.500    5.1711
   13.515    5.3607
   13.530    5.2659
   13.545    5.2027
   13.560    5.2659
   13.575    5.3186
   13.590    5.2659
   13.605    5.1395
   13.620    4.9921
   13.635    5.1185
   13.650    4.8657
   13.665    4.9184
   13.680    5.0974
   13.695    4.6551
   13.710    4.7920
   13.725    5.0237
   13.740    5.0974
   13.755    4.8973
   13.770    4.6972
   13.785    4.7288
   13.800    4.6024
   13.815    4.8131
   13.830    5.1395
   13.845    5.0342
   13.860    4.6340
   13.875    4.9289
   13.890    5.0448
   13.905    4.9921
   13.920    5.0132
   13.935    5.1606
   13.950    4.9500
   13.965    5.2870
   13.980    5.2870
   13.995    5.0974
   14.010    5.2554
   14.025    5.0132
   14.040    5.3081
   14.055    5.0553
   14.070    5.3081
   14.085    5.2238
   14.100    5.2659
   14.115    5.5714
   14.130    5.8241
   14.145    5.8347
   14.160    5.3818
   14.175    5.2659
   14.190    4.9289
   14.205    4.9184
   14.220    5.1290
   14.235    5.1080
   14.250    4.5919
   14.265    4.7183
   14.280    4.8973
   14.295    4.6130
   14.310    4.6761
   14.325    4.8552
   14.340    4.6761
   14.355    4.6656
   14.370    4.5498
   14.385    4.5287
   14.400    4.6867
   14.415    4.6024
   14.430    4.9289
   14.445    4.8868
   14.460    4.5919
   14.475    4.5919
   14.490    4.8236
   14.505    4.8341
   14.520    4.9605
   14.535    4.5919
   14.550    4.8657
   14.565    4.7604
   14.580    4.7288
   14.595    4.6445
   14.610    4.7815
   14.625    4.8447
   14.640    4.8341
   14.655    4.3602
   14.670    4.7288
   14.685    4.9605
   14.700    4.8657
   14.715    4.6130
   14.730    4.5076
   14.745    4.7077
   14.760    4.7920
   14.775    4.4655
   14.790    4.8025
   14.805    4.4971
   14.820    4.7499
   14.835    4.7393
   14.850    4.7709
   14.865    4.8341
   14.880    4.4023
   14.895    4.6551
   14.910    4.8973
   14.925    4.8025
   14.940    4.6761
   14.955    4.5814
   14.970    4.6867
   14.985    4.5603
   15.000    4.9184
   15.015    4.6551
   15.030    4.7920
   15.045    4.7499
   15.060    5.0553
   15.075    5.0764
   15.090    4.9500
   15.105    4.8236
   15.120    4.8447
   15.135    4.5182
   15.150    4.8236
   15.165    4.8341
   15.180    5.0132
   15.195    4.5708
   15.210    4.9184
   15.225    5.0448
   15.240    5.0448
   15.255    4.6130
   15.270    4.6972
   15.285    4.7920
   15.300    4.5919
   15.315    4.6130
   15.330    4.7815
   15.345    4.8341
   15.360    4.5919
   15.375    4.3391
   15.390    5.0132
   15.405    4.8131
   15.420    4.7393
   15.435    4.8657
   15.450    5.0658
   15.465    4.8657
   15.480    5.0448
   15.495    5.0869
   15.510    4.8447
   15.525    4.3918
   15.540    4.8973
   15.555    5.0658
   15.570    4.8552
   15.585    4.6340
   15.600    5.0026
   15.615    4.7709
   15.630    4.6656
   15.645    4.8552
   15.660    4.5076
   15.675    4.7288
   15.690    4.8131
   15.705    5.1290
   15.720    4.6551
   15.735    4.6340
   15.750    4.8025
   15.765    4.8131
   15.780    4.7183
   15.795    4.8552
   15.810    4.9500
   15.825    4.9921
   15.840    5.2238
   15.855    4.6761
   15.870    4.6551
   15.885    4.5287
   15.900    4.6130
   15.915    4.5287
   15.930    4.6656
   15.945    4.5708
   15.960    4.7288
   15.975    4.3075
   15.990    4.6235
   16.005    4.5287
   16.020    4.8447
   16.035    4.6972
   16.050    5.0658
   16.065    4.8131
   16.080    4.7499
   16.095    4.5708
   16.110    4.7393
   16.125    4.7604
   16.140    4.6551
   16.155    5.0974
   16.170    4.8236
   16.185    4.7709
   16.200    4.7288
   16.215    5.0764
   16.230    5.0869
   16.245    5.0974
   16.260    4.5498
   16.275    4.7183
   16.290    4.7183
   16.305    4.4234
   16.320    4.6024
   16.335    4.8973
   16.350    4.8236
   16.365    4.5392
   16.380    4.6024
   16.395    4.6761
   16.410    4.3286
   16.425    4.3813
   16.440    4.5708
   16.455    4.6235
   16.470    4.7604
   16.485    4.5287
   16.500    4.8341
   16.515    4.8657
   16.530    4.6340
   16.545    4.9289
   16.560    4.8236
   16.575    5.0132
   16.590    4.7183
   16.605    4.7604
   16.620    4.5603
   16.635    4.7920
   16.650    4.7499
   16.665    4.8236
   16.680    4.9394
   16.695    5.2133
   16.710    4.9710
   16.725    4.4971
   16.740    4.4971
   16.755    4.5708
   16.770    4.6972
   16.785    5.1290
   16.800    4.9078
   16.815    4.2759
   16.830    4.3602
   16.845    4.4655
   16.860    4.7604
   16.875    4.6972
   16.890    4.6130
   16.905    4.6972
   16.920    4.8552
   16.935    4.5392
   16.950    4.4234
   16.965    4.3286
   16.980    4.9500
   16.995    4.9184
   17.010    4.8236
   17.025    5.0448
   17.040    4.8973
   17.055    4.8657
   17.070    5.1395
   17.085    5.6767
   17.100    5.6029
   17.115    5.4660
   17.130    5.4450
   17.145    5.3607
   17.160    5.0553
   17.175    4.8552
   17.190    4.8552
   17.205    4.7288
   17.220    4.7288
   17.235    4.4866
   17.250    4.5287
   17.265    4.9921
   17.280    4.8763
   17.295    4.6972
   17.310    4.4760
   17.325    4.5392
   17.340    4.5498
   17.355    4.7183
   17.370    4.9710
   17.385    4.6130
   17.400    4.7499
   17.415    5.0132
   17.430    4.6235
   17.445    4.5919
   17.460    4.4023
   17.475    4.7288
   17.490    4.9605
   17.505    4.6656
   17.520    5.1290
   17.535    4.8025
   17.550    5.2238
   17.565    5.2133
   17.580    4.9394
   17.595    4.8552
   17.610    5.0553
   17.625    4.6130
   17.640    4.9710
   17.655    4.8657
   17.670    4.9289
   17.685    4.7393
   17.700    5.0237
   17.715    4.8131
   17.730    4.5182
   17.745    5.0026
   17.760    4.8236
   17.775    4.6761
   17.790    5.0342
   17.805    4.8763
   17.820    4.7815
   17.835    4.6761
   17.850    5.1817
   17.865    5.2238
   17.880    4.7077
   17.895    4.9500
   17.910    5.1501
   17.925    4.8552
   17.940    4.9500
   17.955    4.8973
   17.970    4.6761
   17.985    5.0448
   18.000    5.0869
   18.015    5.1395
   18.030    5.0658
   18.045    4.8657
   18.060    4.7815
   18.075    4.6972
   18.090    4.6972
   18.105    5.1711
   18.120    4.8552
   18.135    4.7077
   18.150    4.5708
   18.165    4.8973
   18.180    4.8131
   18.195    4.8868
   18.210    4.9816
   18.225    4.8868
   18.240    4.7815
   18.255    4.7077
   18.270    4.6340
   18.285    4.9921
   18.300    4.5287
   18.315    4.8447
   18.330    4.7288
   18.345    4.8025
   18.360    4.7288
   18.375    5.0448
   18.390    4.7709
   18.405    5.0026
   18.420    4.9289
   18.435    4.5392
   18.450    4.7920
   18.465    5.0342
   18.480    4.7815
   18.495    4.8657
   18.510    4.9289
   18.525    4.4444
   18.540    4.9078
   18.555    5.2133
   18.570    4.7499
   18.585    4.7709
   18.600    4.7077
   18.615    4.8763
   18.630    4.8657
   18.645    4.8025
   18.660    4.8657
   18.675    4.9605
   18.690    4.4234
   18.705    4.8657
   18.720    4.9921
   18.735    4.4760
   18.750    4.5498
   18.765    4.5392
   18.780    4.5392
   18.795    4.8763
   18.810    4.7920
   18.825    4.8552
   18.840    4.8763
   18.855    4.9078
   18.870    4.7709
   18.885    5.0974
   18.900    5.2133
   18.915    4.9710
   18.930    5.0448
   18.945    5.1817
   18.960    5.0974
   18.975    5.1711
   18.990    5.0658
   19.005    5.2554
   19.020    5.0026
   19.035    5.1922
   19.050    4.8552
   19.065    5.1501
   19.080    5.0237
   19.095    4.9921
   19.110    4.4866
   19.125    4.9605
   19.140    5.0764
   19.155    5.1711
   19.170    5.2238
   19.185    5.2027
   19.200    4.9078
   19.215    4.6761
   19.230    4.6130
   19.245    5.3081
   19.260    4.9816
   19.275    4.8973
   19.290    5.0026
   19.305    4.9184
   19.320    4.7077
   19.335    4.9816
   19.350    5.0448
   19.365    5.0237
   19.380    4.9500
   19.395    4.5814
   19.410    4.6235
   19.425    4.8236
   19.440    4.9921
   19.455    5.4871
   19.470    5.1080
   19.485    4.8657
   19.500    4.9289
   19.515    4.7183
   19.530    4.8025
   19.545    5.1922
   19.560    5.3607
   19.575    5.2027
   19.590    5.0974
   19.605    5.0237
   19.620    4.9605
   19.635    5.4239
   19.650    5.2554
   19.665    4.7499
   19.680    5.2027
   19.695    5.1185
   19.710    4.8025
   19.725    5.0974
   19.740    5.0237
   19.755    5.1185
   19.770    5.0869
   19.785    4.9394
   19.800    4.9710
   19.815    5.0764
   19.830    4.9921
   19.845    5.0132
   19.860    5.0026
   19.875    5.1711
   19.890    5.0132
   19.905    5.4450
   19.920    5.2765
   19.935    5.1501
   19.950    5.1922
   19.965    5.2870
   19.980    4.9394
   19.995    5.1080
   20.010    5.4134
   20.025    4.9289
   20.040    5.1080
   20.055    5.4871
   20.070    5.2659
   20.085    5.2659
   20.100    5.0764
   20.115    5.0237
   20.130    5.0764
   20.145    5.0026
   20.160    5.3923
   20.175    5.0974
   20.190    5.0026
   20.205    5.0342
   20.220    4.8868
   20.235    5.0974
   20.250    5.0132
   20.265    5.2133
   20.280    5.4660
   20.295    5.3712
   20.310    5.1817
   20.325    5.1395
   20.340    4.9816
   20.355    5.3818
   20.370    5.6872
   20.385    5.5398
   20.400    5.5503
   20.415    5.4555
   20.430    5.6345
   20.445    5.4239
   20.460    5.6556
   20.475    5.7399
   20.490    6.1190
   20.505    5.3923
   20.520    5.3818
   20.535    5.3607
   20.550    5.1711
   20.565    5.3397
   20.580    5.3712
   20.595    5.4450
   20.610    5.2659
   20.625    5.3291
   20.640    5.4134
   20.655    5.2449
   20.670    4.9394
   20.685    4.7815
   20.700    5.2133
   20.715    5.1080
   20.730    4.7815
   20.745    5.0026
   20.760    5.2870
   20.775    5.0448
   20.790    5.0132
   20.805    4.9500
   20.820    5.2870
   20.835    5.1606
   20.850    5.0026
   20.865    5.3397
   20.880    5.3607
   20.895    5.4766
   20.910    5.1817
   20.925    5.2238
   20.940    5.3712
   20.955    5.3397
   20.970    5.4134
   20.985    5.5292
   21.000    5.1606
   21.015    5.2238
   21.030    5.1290
   21.045    5.2659
   21.060    5.4871
   21.075    5.4134
   21.090    5.1501
   21.105    4.8236
   21.120    5.3818
   21.135    5.3397
   21.150    5.4976
   21.165    5.2343
   21.180    5.0553
   21.195    5.2975
   21.210    4.9816
   21.225    4.8552
   21.240    5.2659
   21.255    5.1080
   21.270    5.1395
   21.285    5.3818
   21.300    5.1711
   21.315    5.2027
   21.330    5.2343
   21.345    5.3818
   21.360    5.4134
   21.375    5.2238
   21.390    5.0342
   21.405    5.5187
   21.420    5.2765
   21.435    5.3818
   21.450    5.5187
   21.465    5.2975
   21.480    5.3607
   21.495    5.2554
   21.510    5.2027
   21.525    5.0342
   21.540    5.5608
   21.555    5.2554
   21.570    5.5398
   21.585    5.2870
   21.600    5.2659
   21.615    5.3923
   21.630    5.7293
   21.645    5.1817
   21.660    5.4344
   21.675    5.0448
   21.690    5.0237
   21.705    4.9184
   21.720    5.2870
   21.735    4.8131
   21.750    5.2659
   21.765    5.0237
   21.780    5.0448
   21.795    5.4134
   21.810    5.6872
   21.825    5.7083
   21.840    5.4976
   21.855    5.2765
   21.870    5.6872
   21.885    5.2343
   21.900    5.6767
   21.915    5.4766
   21.930    5.3397
   21.945    5.0448
   21.960    5.2343
   21.975    5.1711
   21.990    4.9500
   22.005    5.4344
   22.020    5.0448
   22.035    5.4028
   22.050    5.3291
   22.065    5.3291
   22.080    5.4660
   22.095    5.2449
   22.110    5.5187
   22.125    5.2870
   22.140    5.2238
   22.155    5.1817
   22.170    5.1395
   22.185    5.0342
   22.200    5.0764
   22.215    5.1922
   22.230    5.1922
   22.245    5.3081
   22.260    5.3186
   22.275    5.5924
   22.290    5.0764
   22.305    5.3502
   22.320    5.2554
   22.335    5.0764
   22.350    5.0553
   22.365    5.4555
   22.380    5.1711
   22.395    5.0026
   22.410    5.4660
   22.425    5.3291
   22.440    4.9184
   22.455    4.9184
   22.470    5.0764
   22.485    5.4239
   22.500    5.2765
   22.515    5.1606
   22.530    5.2238
   22.545    5.2870
   22.560    5.6872
   22.575    5.4450
   22.590    5.8557
   22.605    6.0558
   22.620    5.8768
   22.635    5.6240
   22.650    5.9926
   22.665    5.4239
   22.680    5.2659
   22.695    5.1501
   22.710    5.0237
   22.725    5.2449
   22.740    5.0132
   22.755    5.0974
   22.770    5.6872
   22.785    5.2449
   22.800    5.2027
   22.815    5.0974
   22.830    5.3607
   22.845    5.6872
   22.860    5.3502
   22.875    5.4450
   22.890    5.6977
   22.905    5.6240
   22.920    5.3397
   22.935    5.8347
   22.950    5.6451
   22.965    5.8452
   22.980    5.5819
   22.995    5.4766
   23.010    5.5714
   23.025    5.4871
   23.040    5.5608
   23.055    5.8241
   23.070    5.4134
   23.085    5.2027
   23.100    5.2659
   23.115    5.5503
   23.130    5.1922
   23.145    5.3502
   23.160    5.2238
   23.175    4.9710
   23.190    5.2027
   23.205    5.2449
   23.220    5.6345
   23.235    5.1395
   23.250    4.9921
   23.265    5.5082
   23.280    5.4450
   23.295    5.2765
   23.310    5.1606
   23.325    5.3712
   23.340    5.4660
   23.355    5.1711
   23.370    5.4344
   23.385    5.1185
   23.400    5.3081
   23.415    5.1711
   23.430    4.8868
   23.445    5.1290
   23.460    5.1817
   23.475    5.1817
   23.490    5.2870
   23.505    5.1711
   23.520    5.2238
   23.535    5.1711
   23.550    5.1606
   23.565    5.3502
   23.580    5.2554
   23.595    5.3291
   23.610    5.4028
   23.625    5.4660
   23.640    5.6029
   23.655    5.3818
   23.670    5.3818
   23.685    5.4239
   23.700    4.8763
   23.715    5.0026
   23.730    5.1711
   23.745    5.1922
   23.760    5.0658
   23.775    4.8657
   23.790    5.0132
   23.805    4.6761
   23.820    5.0553
   23.835    5.0026
   23.850    4.9394
   23.865    5.1080
   23.880    5.0764
   23.895    5.5187
   23.910    4.8341
   23.925    4.9605
   23.940    5.3397
   23.955    5.3923
   23.970    5.1395
   23.985    5.5398
   24.000    5.3712
   24.015    5.0448
   24.030    4.7604
   24.045    5.2449
   24.060    5.0974
   24.075    5.0764
   24.090    5.1080
   24.105    5.0237
   24.120    4.8447
   24.135    4.5498
   24.150    4.9816
   24.165    4.8973
   24.180    4.9184
   24.195    4.9078
   24.210    5.1817
   24.225    4.7393
   24.240    4.8131
   24.255    4.8868
   24.270    4.5603
   24.285    4.9500
   24.300    5.1711
   24.315    5.1606
   24.330    4.9500
   24.345    5.1922
   24.360    4.8973
   24.375    5.0869
   24.390    4.9921
   24.405    4.9184
   24.420    4.7920
   24.435    4.7393
   24.450    4.9078
   24.465    5.1922
   24.480    4.9921
   24.495    5.2133
   24.510    4.9921
   24.525    4.9078
   24.540    4.8868
   24.555    4.8868
   24.570    4.8552
   24.585    5.1606
   24.600    5.0658
   24.615    5.0026
   24.630    5.1290
   24.645    5.2027
   24.660    4.8341
   24.675    5.0448
   24.690    4.9184
   24.705    4.7183
   24.720    4.7393
   24.735    4.9500
   24.750    4.7709
   24.765    5.0342
   24.780    4.8868
   24.795    4.7709
   24.810    4.6867
   24.825    5.1185
   24.840    5.0132
   24.855    5.0974
   24.870    5.3291
   24.885    4.8763
   24.900    4.6656
   24.915    4.8025
   24.930    4.8025
   24.945    4.9394
   24.960    5.1395
   24.975    4.8973
   24.990    5.0869
   25.005    4.9605
   25.020    4.9289
   25.035    4.9921
   25.050    4.9816
   25.065    4.9184
   25.080    4.7183
   25.095    4.6551
   25.110    4.8763
   25.125    4.9394
   25.140    4.8657
   25.155    4.8131
   25.170    4.9184
   25.185    4.8657
   25.200    4.4339
   25.215    4.6551
   25.230    4.6972
   25.245    4.8131
   25.260    4.8763
   25.275    4.8131
   25.290    5.0448
   25.305    5.1711
   25.320    4.7499
   25.335    4.9394
   25.350    5.0658
   25.365    5.0237
   25.380    4.6972
   25.395    4.7077
   25.410    4.9816
   25.425    4.8025
   25.440    4.8447
   25.455    4.7815
   25.470    4.7393
   25.485    4.5919
   25.500    4.8447
   25.515    5.0026
   25.530    4.9816
   25.545    5.1395
   25.560    5.0342
   25.575    4.6656
   25.590    4.6130
   25.605    4.9078
   25.620    4.7499
   25.635    5.1711
   25.650    4.9605
   25.665    4.5287
   25.680    4.9921
   25.695    5.1395
   25.710    4.9500
   25.725    5.0974
   25.740    4.6656
   25.755    5.0869
   25.770    4.8973
   25.785    4.7183
   25.800    4.8236
   25.815    5.2975
   25.830    5.3502
   25.845    5.4239
   25.860    5.0658
   25.875    5.3081
   25.890    4.8973
   25.905    5.2238
   25.920    4.7604
   25.935    4.7393
   25.950    5.0658
   25.965    5.0658
   25.980    4.9289
   25.995    4.5498
   26.010    4.7183
   26.025    4.6024
   26.040    4.6972
   26.055    4.6340
   26.070    4.9078
   26.085    4.9184
   26.100    4.7815
   26.115    4.5392
   26.130    4.3391
   26.145    4.6235
   26.160    4.5287
   26.175    4.6340
   26.190    4.3497
   26.205    4.3918
   26.220    4.8236
   26.235    4.7077
   26.250    4.6235
   26.265    4.5076
   26.280    4.8447
   26.295    4.7183
   26.310    4.5498
   26.325    4.2233
   26.340    4.1285
   26.355    4.5498
   26.370    4.5814
   26.385    4.5603
   26.400    4.4023
   26.415    4.7920
   26.430    4.8657
   26.445    4.7077
   26.460    4.6867
   26.475    4.7709
   26.490    5.1711
   26.505    4.9500
   26.520    4.6551
   26.535    4.6445
   26.550    4.1496
   26.565    4.2338
   26.580    4.6024
   26.595    4.6551
   26.610    4.4128
   26.625    4.3813
   26.640    4.4128
   26.655    4.3813
   26.670    4.4866
   26.685    4.5076
   26.700    4.4760
   26.715    4.5392
   26.730    4.6130
   26.745    4.7815
   26.760    4.5708
   26.775    4.3181
   26.790    4.3181
   26.805    4.2233
   26.820    4.4971
   26.835    4.5392
   26.850    4.3391
   26.865    4.6445
   26.880    4.6867
   26.895    4.2127
   26.910    4.4234
   26.925    4.5076
   26.940    4.4760
   26.955    4.6656
   26.970    4.3497
   26.985    4.5708
   27.000    4.2865
   27.015    4.5392
   27.030    4.4128
   27.045    4.3918
   27.060    4.7604
   27.075    4.4655
   27.090    4.6551
   27.105    4.8763
   27.120    4.6551
   27.135    5.0132
   27.150    4.5708
   27.165    4.4655
   27.180    4.8447
   27.195    4.6551
   27.210    4.7288
   27.225    4.5287
   27.240    4.3813
   27.255    4.3707
   27.270    4.3391
   27.285    4.4023
   27.300    4.4023
   27.315    4.5603
   27.330    4.5392
   27.345    4.6445
   27.360    4.4023
   27.375    4.2549
   27.390    4.6445
   27.405    4.3813
   27.420    4.4234
   27.435    4.3286
   27.450    4.5498
   27.465    4.3707
   27.480    4.6340
   27.495    4.5182
   27.510    4.4234
   27.525    4.2759
   27.540    4.2443
   27.555    4.3181
   27.570    4.6551
   27.585    4.6551
   27.600    4.5814
   27.615    4.6972
   27.630    5.0342
   27.645    4.4339
   27.660    4.5076
   27.675    4.2654
   27.690    4.6656
   27.705    4.6340
   27.720    4.8447
   27.735    4.4339
   27.750    4.3286
   27.765    4.2970
   27.780    4.4234
   27.795    4.3497
   27.810    4.3813
   27.825    4.4971
   27.840    4.2338
   27.855    4.5076
   27.870    4.6340
   27.885    4.5919
   27.900    4.5603
   27.915    4.6445
   27.930    4.4866
   27.945    4.3918
   27.960    4.7077
   27.975    4.7499
   27.990    5.0553
   28.005    5.0553
   28.020    4.6972
   28.035    4.3497
   28.050    4.6656
   28.065    4.6130
   28.080    4.8868
   28.095    4.7288
   28.110    4.8341
   28.125    4.7183
   28.140    4.7920
   28.155    4.8236
   28.170    4.8552
   28.185    5.0132
   28.200    4.9078
   28.215    5.0237
   28.230    4.8657
   28.245    4.8236
   28.260    4.7077
   28.275    4.9500
   28.290    4.6972
   28.305    4.6445
   28.320    4.3181
   28.335    4.6130
   28.350    4.5182
   28.365    4.2549
   28.380    4.6656
   28.395    4.6445
   28.410    4.4655
   28.425    4.2654
   28.440    4.2549
   28.455    4.5603
   28.470    4.4760
   28.485    4.7077
   28.500    4.7499
   28.515    4.4866
   28.530    4.1285
   28.545    4.4550
   28.560    4.7393
   28.575    4.4128
   28.590    4.3391
   28.605    4.4655
   28.620    4.4971
   28.635    4.4023
   28.650    4.5498
   28.665    4.5287
   28.680    4.5287
   28.695    4.5392
   28.710    4.4655
   28.725    4.4234
   28.740    4.5814
   28.755    4.2127
   28.770    4.4866
   28.785    4.6445
   28.800    4.4655
   28.815    4.4655
   28.830    4.3707
   28.845    4.5814
   28.860    4.5603
   28.875    4.7920
   28.890    4.2549
   28.905    4.4128
   28.920    4.4128
   28.935    4.4444
   28.950    4.4760
   28.965    4.8131
   28.980    4.7709
   28.995    4.6024
   29.010    4.7604
   29.025    4.6024
   29.040    4.4444
   29.055    4.5076
   29.070    4.8447
   29.085    4.5076
   29.100    4.4444
   29.115    4.4866
   29.130    4.4866
   29.145    4.2233
   29.160    4.4655
   29.175    4.3391
   29.190    4.3707
   29.205    4.9394
   29.220    4.7604
   29.235    4.5182
   29.250    4.3497
   29.265    4.4339
   29.280    4.5814
   29.295    4.4234
   29.310    4.6867
   29.325    4.5392
   29.340    4.3918
   29.355    4.2127
   29.370    4.2759
   29.385    4.4655
   29.400    4.3075
   29.415    3.9179
   29.430    4.3075
   29.445    4.3286
   29.460    4.2970
   29.475    4.2549
   29.490    4.5182
   29.505    4.7183
   29.520    4.5182
   29.535    4.1917
   29.550    4.4339
   29.565    4.5076
   29.580    4.2233
   29.595    4.4760
   29.610    4.5076
   29.625    4.5287
   29.640    4.4023
   29.655    4.4760
   29.670    4.1285
   29.685    4.1811
   29.700    4.1706
   29.715    4.0653
   29.730    4.1390
   29.745    4.2970
   29.760    4.4339
   29.775    4.2865
   29.790    4.4128
   29.805    4.4866
   29.820    4.3075
   29.835    4.2549
   29.850    4.2759
   29.865    4.1285
   29.880    4.2970
   29.895    4.4550
   29.910    4.7499
   29.925    4.2022
   29.940    4.4550
   29.955    4.8763
   29.970    4.3813
   29.985    4.3602
   30.000    4.2970
   30.015    4.1706
   30.030    3.9179
   30.045    4.0969
   30.060    4.0969
   30.075    3.8125
   30.090    4.0653
   30.105    4.3602
   30.120    4.1285
   30.135    4.3602
   30.150    4.2865
   30.165    4.1811
   30.180    4.4339
   30.195    4.2970
   30.210    4.4550
   30.225    4.5392
   30.240    4.4234
   30.255    4.1601
   30.270    3.8863
   30.285    4.0232
   30.300    4.0864
   30.315    4.1601
   30.330    4.0758
   30.345    4.2654
   30.360    4.3075
   30.375    4.3497
   30.390    4.1706
   30.405    4.0758
   30.420    4.3286
   30.435    4.5603
   30.450    4.3918
   30.465    4.0232
   30.480    4.2549
   30.495    4.3075
   30.510    4.1390
   30.525    4.0337
   30.540    3.8547
   30.555    4.2549
   30.570    4.2338
   30.585    4.0021
   30.600    4.1706
   30.615    4.1601
   30.630    4.0337
   30.645    3.9916
   30.660    4.0864
   30.675    4.0864
   30.690    4.0969
   30.705    4.3075
   30.720    4.7604
   30.735    3.9494
   30.750    4.0653
   30.765    4.1074
   30.780    3.9494
   30.795    4.0442
   30.810    3.9284
   30.825    3.8968
   30.840    3.9600
   30.855    3.8547
   30.870    4.1285
   30.885    4.0232
   30.900    4.2022
   30.915    4.1811
   30.930    4.0864
   30.945    4.0337
   30.960    4.2443
   30.975    3.8863
   30.990    3.8441
   31.005    3.9705
   31.020    4.0126
   31.035    3.7809
   31.050    4.2549
   31.065    4.0442
   31.080    3.8125
   31.095    3.6967
   31.110    3.7283
   31.125    4.0864
   31.140    3.9284
   31.155    4.3286
   31.170    4.0021
   31.185    3.7915
   31.200    4.0337
   31.215    4.3497
   31.230    3.8652
   31.245    3.8441
   31.260    4.0969
   31.275    3.8968
   31.290    3.9179
   31.305    4.1917
   31.320    4.2233
   31.335    4.3602
   31.350    4.1496
   31.365    3.9705
   31.380    4.1390
   31.395    4.5708
   31.410    4.3075
   31.425    4.2549
   31.440    4.1390
   31.455    4.0232
   31.470    3.9705
   31.485    4.1180
   31.500    3.8652
   31.515    4.1917
   31.530    4.2970
   31.545    4.3707
   31.560    3.9916
   31.575    3.8231
   31.590    4.1390
   31.605    4.4234
   31.620    4.2865
   31.635    4.0442
   31.650    4.0021
   31.665    3.9179
   31.680    4.0232
   31.695    4.1390
   31.710    4.0864
   31.725    4.1180
   31.740    4.2654
   31.755    4.1917
   31.770    4.1390
   31.785    4.0442
   31.800    4.1706
   31.815    4.2127
   31.830    4.1285
   31.845    4.2549
   31.860    4.5919
   31.875    4.0969
   31.890    3.7915
   31.905    4.5287
   31.920    4.1390
   31.935    4.0653
   31.950    4.2127
   31.965    4.1811
   31.980    4.2338
   31.995    4.2654
   32.010    3.9916
   32.025    4.2127
   32.040    4.7183
   32.055    4.3602
   32.070    4.2022
   32.085    4.3602
   32.100    4.7920
   32.115    4.5498
   32.130    4.7288
   32.145    4.9394
   32.160    4.4128
   32.175    4.5076
   32.190    4.2654
   32.205    4.0653
   32.220    4.1285
   32.235    4.3391
   32.250    4.1285
   32.265    3.8757
   32.280    3.9810
   32.295    4.1180
   32.310    4.2549
   32.325    3.9600
   32.340    3.9494
   32.355    3.9705
   32.370    3.9810
   32.385    3.6967
   32.400    3.9073
   32.415    3.8125
   32.430    4.0442
   32.445    3.6019
   32.460    3.6124
   32.475    4.0337
   32.490    3.9600
   32.505    4.0442
   32.520    3.9494
   32.535    3.9916
   32.550    3.6651
   32.565    3.7704
   32.580    3.9284
   32.595    3.9916
   32.610    3.9916
   32.625    3.9494
   32.640    3.7704
   32.655    4.0021
   32.670    3.6651
   32.685    3.7704
   32.700    3.7915
   32.715    4.3391
   32.730    4.0969
   32.745    4.0758
   32.760    4.1601
   32.775    3.8757
   32.790    3.7915
   32.805    3.7283
   32.820    3.8336
   32.835    3.8125
   32.850    3.9073
   32.865    3.9179
   32.880    4.2443
   32.895    3.7809
   32.910    3.5808
   32.925    3.6756
   32.940    3.8125
   32.955    3.9494
   32.970    4.0442
   32.985    3.7493
   33.000    3.7704
   33.015    3.7493
   33.030    3.7599
   33.045    3.9705
   33.060    3.3175
   33.075    3.3491
   33.090    3.6440
   33.105    3.8441
   33.120    3.5387
   33.135    3.6335
   33.150    3.8441
   33.165    3.6756
   33.180    3.5071
   33.195    3.6967
   33.210    3.5808
   33.225    3.4650
   33.240    3.5808
   33.255    3.5176
   33.270    3.4123
   33.285    3.9916
   33.300    3.9284
   33.315    3.8547
   33.330    3.8652
   33.345    3.6230
   33.360    3.4544
   33.375    3.6335
   33.390    3.4650
   33.405    3.6019
   33.420    3.7809
   33.435    3.7599
   33.450    3.8231
   33.465    3.8547
   33.480    3.8652
   33.495    3.6756
   33.510    3.5282
   33.525    3.6967
   33.540    3.7704
   33.555    3.7915
   33.570    3.6440
   33.585    3.4650
   33.600    3.7283
   33.615    3.7493
   33.630    3.7704
   33.645    3.2333
   33.660    3.7493
   33.675    3.7177
   33.690    3.6440
   33.705    3.7599
   33.720    3.6967
   33.735    3.2965
   33.750    4.1390
   33.765    3.7072
   33.780    3.7704
   33.795    3.9073
   33.810    3.7072
   33.825    3.9494
   33.840    4.0653
   33.855    3.7704
   33.870    3.8757
   33.885    4.1390
   33.900    4.1285
   33.915    4.2443
   33.930    4.1917
   33.945    3.8757
   33.960    3.7809
   33.975    4.0758
   33.990    3.6756
   34.005    3.7493
   34.020    3.6967
   34.035    3.5598
   34.050    3.6440
   34.065    3.4755
   34.080    3.4860
   34.095    3.3070
   34.110    3.4860
   34.125    3.8441
   34.140    3.6335
   34.155    3.7177
   34.170    3.5808
   34.185    3.7388
   34.200    3.5176
   34.215    3.4439
   34.230    3.3913
   34.245    3.7388
   34.260    3.7388
   34.275    3.4439
   34.290    3.5387
   34.305    3.3386
   34.320    3.2438
   34.335    3.4544
   34.350    3.6440
   34.365    3.7072
   34.380    3.5176
   34.395    3.6651
   34.410    3.4334
   34.425    3.6546
   34.440    3.6546
   34.455    3.5176
   34.470    3.5598
   34.485    3.5808
   34.500    3.7915
   34.515    3.8336
   34.530    3.9284
   34.545    3.4123
   34.560    3.4966
   34.575    3.5703
   34.590    3.5176
   34.605    3.5703
   34.620    3.5492
   34.635    3.6019
   34.650    3.5387
   34.665    3.4439
   34.680    3.5808
   34.695    3.6230
   34.710    3.4966
   34.725    3.4018
   34.740    3.3807
   34.755    3.2333
   34.770    3.5598
   34.785    3.4860
   34.800    3.4123
   34.815    3.5492
   34.830    3.6019
   34.845    3.4229
   34.860    3.5492
   34.875    3.5176
   34.890    3.9600
   34.905    3.8125
   34.920    3.5176
   34.935    3.3807
   34.950    3.2017
   34.965    3.3070
   34.980    3.2965
   34.995    3.4439
   35.010    3.2859
   35.025    3.6019
   35.040    3.4755
   35.055    3.4755
   35.070    3.5492
   35.085    3.2122
   35.100    3.3491
   35.115    3.3491
   35.130    3.4755
   35.145    3.4439
   35.160    3.4544
   35.175    3.6862
   35.190    3.6440
   35.205    3.5387
   35.220    3.4650
   35.235    3.5176
   35.250    3.5914
   35.265    3.5387
   35.280    3.7177
   35.295    3.4544
   35.310    3.5387
   35.325    3.5071
   35.340    3.8020
   35.355    3.5703
   35.370    3.4860
   35.385    3.1912
   35.400    3.3913
   35.415    3.4334
   35.430    3.4966
   35.445    3.3491
   35.460    3.5176
   35.475    3.3491
   35.490    3.6440
   35.505    3.3702
   35.520    3.4018
   35.535    3.8125
   35.550    3.5387
   35.565    3.5914
   35.580    3.4544
   35.595    3.6335
   35.610    3.1806
   35.625    3.3386
   35.640    3.1490
   35.655    3.2649
   35.670    3.3913
   35.685    3.4018
   35.700    3.4544
   35.715    3.1912
   35.730    3.6756
   35.745    3.4650
   35.760    3.6651
   35.775    3.6862
   35.790    3.4334
   35.805    3.4439
   35.820    3.3597
   35.835    3.2754
   35.850    3.2122
   35.865    3.4860
   35.880    3.6230
   35.895    3.4123
   35.910    3.7388
   35.925    3.4544
   35.940    3.4860
   35.955    3.3386
   35.970    3.6230
   35.985    3.6651
   36.000    3.3281
   36.015    3.4229
   36.030    3.4018
   36.045    3.4229
   36.060    3.2965
   36.075    3.1912
   36.090    3.1385
   36.105    3.3281
   36.120    3.5492
   36.135    3.3597
   36.150    3.3175
   36.165    3.3175
   36.180    3.2649
   36.195    3.3913
   36.210    3.2227
   36.225    3.3386
   36.240    3.2333
   36.255    3.3386
   36.270    3.3597
   36.285    3.4018
   36.300    3.2965
   36.315    3.4755
   36.330    3.5071
   36.345    3.4650
   36.360    3.1912
   36.375    3.3070
   36.390    3.2965
   36.405    3.3807
   36.420    3.4755
   36.435    3.3913
   36.450    3.4123
   36.465    3.0858
   36.480    3.1280
   36.495    3.3807
   36.510    3.3070
   36.525    3.3597
   36.540    3.5703
   36.555    3.1490
   36.570    3.2227
   36.585    3.3702
   36.600    3.2438
   36.615    3.3175
   36.630    3.4334
   36.645    3.6756
   36.660    3.3913
   36.675    3.1490
   36.690    3.2859
   36.705    3.1701
   36.720    2.9279
   36.735    3.2754
   36.750    3.5282
   36.765    3.4860
   36.780    3.1069
   36.795    3.5492
   36.810    3.5808
   36.825    3.2859
   36.840    3.2543
   36.855    3.3386
   36.870    3.0964
   36.885    3.2965
   36.900    3.4018
   36.915    3.3281
   36.930    2.9489
   36.945    3.4018
   36.960    3.2754
   36.975    3.0542
   36.990    3.2965
   37.005    3.4439
   37.020    3.2965
   37.035    3.1280
   37.050    3.4860
   37.065    3.5387
   37.080    3.4229
   37.095    3.2965
   37.110    3.3597
   37.125    3.4229
   37.140    3.3807
   37.155    3.2227
   37.170    3.4755
   37.185    3.0858
   37.200    3.0648
   37.215    3.2333
   37.230    3.0437
   37.245    3.1280
   37.260    3.2438
   37.275    3.3386
   37.290    3.2649
   37.305    3.2754
   37.320    3.3913
   37.335    3.0332
   37.350    3.1490
   37.365    3.1596
   37.380    3.3070
   37.395    3.3175
   37.410    3.2017
   37.425    3.2649
   37.440    3.0437
   37.455    3.1174
   37.470    3.1701
   37.485    3.0858
   37.500    3.2438
   37.515    3.1385
   37.530    3.3807
   37.545    3.4544
   37.560    3.5071
   37.575    3.2438
   37.590    3.2333
   37.605    2.9910
   37.620    3.0542
   37.635    3.5071
   37.650    3.5808
   37.665    3.4229
   37.680    3.2227
   37.695    3.2649
   37.710    3.0437
   37.725    3.2649
   37.740    3.1912
   37.755    3.0016
   37.770    3.3175
   37.785    3.2333
   37.800    3.2122
   37.815    3.1174
   37.830    3.3702
   37.845    3.3702
   37.860    3.0542
   37.875    3.1490
   37.890    3.1806
   37.905    3.3386
   37.920    3.1596
   37.935    3.4860
   37.950    3.5914
   37.965    3.3597
   37.980    3.3807
   37.995    3.4229
   38.010    3.0858
   38.025    2.9595
   38.040    3.0858
   38.055    3.0542
   38.070    3.2333
   38.085    3.4334
   38.100    3.3175
   38.115    3.1806
   38.130    3.0964
   38.145    3.0332
   38.160    3.1912
   38.175    3.0648
   38.190    3.4018
   38.205    3.4650
   38.220    3.0437
   38.235    3.3807
   38.250    3.2859
   38.265    3.0121
   38.280    3.0332
   38.295    3.0226
   38.310    3.1385
   38.325    2.9910
   38.340    3.1701
   38.355    2.9173
   38.370    3.0121
   38.385    3.1912
   38.400    3.0542
   38.415    3.3070
   38.430    3.0964
   38.445    3.1385
   38.460    3.3491
   38.475    3.2965
   38.490    3.3070
   38.505    3.3070
   38.520    3.2543
   38.535    3.1069
   38.550    3.2333
   38.565    3.4334
   38.580    3.0753
   38.595    3.0332
   38.610    3.3913
   38.625    3.3175
   38.640    3.2649
   38.655    3.2754
   38.670    3.3070
   38.685    3.1912
   38.700    3.4860
   38.715    3.3491
   38.730    3.4123
   38.745    3.2333
   38.760    3.2122
   38.775    3.1596
   38.790    3.0964
   38.805    3.1280
   38.820    3.4544
   38.835    3.0437
   38.850    3.0332
   38.865    3.0964
   38.880    3.0016
   38.895    3.4334
   38.910    3.3175
   38.925    3.3386
   38.940    2.9595
   38.955    2.9173
   38.970    3.2965
   38.985    2.9068
   39.000    3.1806
   39.015    3.2017
   39.030    3.3281
   39.045    3.4966
   39.060    3.1490
   39.075    3.3175
   39.090    3.3597
   39.105    3.1806
   39.120    3.0332
   39.135    3.0332
   39.150    3.0542
   39.165    3.0332
   39.180    3.0437
   39.195    3.2859
   39.210    3.1490
   39.225    3.1596
   39.240    3.3386
   39.255    3.1069
   39.270    2.9910
   39.285    2.9910
   39.300    3.4966
   39.315    3.7177
   39.330    3.2017
   39.345    3.0753
   39.360    3.3491
   39.375    3.0226
   39.390    2.9910
   39.405    3.1385
   39.420    3.0753
   39.435    3.2017
   39.450    3.1385
   39.465    3.0332
   39.480    3.3491
   39.495    3.1385
   39.510    3.1280
   39.525    3.2122
   39.540    3.3386
   39.555    3.0542
   39.570    2.9279
   39.585    2.9384
   39.600    2.8120
   39.615    3.0648
   39.630    3.0648
   39.645    3.1806
   39.660    3.0332
   39.675    3.1174
   39.690    3.4123
   39.705    3.2227
   39.720    3.0332
   39.735    2.9173
   39.750    2.9279
   39.765    3.3281
   39.780    3.2017
   39.795    3.3386
   39.810    3.1596
   39.825    3.1385
   39.840    3.1385
   39.855    2.9595
   39.870    3.1174
   39.885    3.0753
   39.900    3.0121
   39.915    2.9384
   39.930    3.0648
   39.945    3.2122
   39.960    3.2543
   39.975    3.1385
   39.990    3.0648
