    1.500   15.6609
    1.515   15.6925
    1.530   15.6187
    1.545   16.0084
    1.560   15.3870
    1.575   15.4608
    1.590   15.1764
    1.605   15.3660
    1.620   14.8920
    1.635   14.5445
    1.650   14.8078
    1.665   14.8815
    1.680   14.5866
    1.695   14.5656
    1.710   14.4602
    1.725   13.8494
    1.740   13.9442
    1.755   14.2601
    1.770   14.0179
    1.785   13.8494
    1.800   13.5650
    1.815   14.1022
    1.830   14.1969
    1.845   13.8283
    1.860   13.2385
    1.875   12.7646
    1.890   13.3649
    1.905   12.9226
    1.920   12.8594
    1.935   12.8383
    1.950   13.0279
    1.965   12.7541
    1.980   12.1432
    1.995   12.3012
    2.010   12.3223
    2.025   12.7541
    2.040   12.4697
    2.055   12.6066
    2.070   12.2170
    2.085   12.6804
    2.100   12.3855
    2.115   12.0169
    2.130   12.2907
    2.145   11.8799
    2.160   11.7957
    2.175   11.6798
    2.190   11.5324
    2.205   11.3217
    2.220   11.3323
    2.235   11.4376
    2.250   11.1532
    2.265   10.9531
    2.280   11.1427
    2.295   11.7641
    2.310   11.3744
    2.325   11.1638
    2.340   11.1216
    2.355   10.3318
    2.370   10.8478
    2.385   10.0579
    2.400   10.3528
    2.415   11.0269
    2.430   10.8478
    2.445   10.7741
    2.460   10.4160
    2.475   10.6688
    2.490   10.1422
    2.505   10.6266
    2.520   10.3739
    2.535   10.2264
    2.550   10.0895
    2.565   10.0579
    2.580    9.7209
    2.595    9.9315
    2.610   10.1527
    2.625    9.6472
    2.640    9.9210
    2.655   10.0685
    2.670    9.7104
    2.685    9.8368
    2.700    9.7420
    2.715    9.5524
    2.730    9.6472
    2.745    9.4787
    2.760    9.4155
    2.775    9.7946
    2.790   10.3844
    2.805    9.6893
    2.820    9.5629
    2.835    9.9421
    2.850    9.7209
    2.865   10.1632
    2.880   10.0790
    2.895    9.7104
    2.910    9.0785
    2.925    9.6998
    2.940    9.9842
    2.955    9.4050
    2.970    9.0995
    2.985    9.2575
    3.000    9.1732
    3.015    9.5735
    3.030    9.3418
    3.045    9.1627
    3.060    9.2575
    3.075    9.1943
    3.090    9.4787
    3.105    9.4681
    3.120    9.1522
    3.135    9.2575
    3.150    9.5735
    3.165    9.6893
    3.180    9.9210
    3.195    9.6472
    3.210    9.5419
    3.225   10.1001
    3.240    9.8262
    3.255    9.8789
    3.270   10.0895
    3.285    9.9842
    3.300   10.2686
    3.315   10.4687
    3.330   11.0479
    3.345   10.7846
    3.360   10.7846
    3.375   10.7004
    3.390   11.5324
    3.405   11.1848
    3.420   11.6377
    3.435   11.2902
    3.450   11.6377
    3.465   11.8167
    3.480   11.9221
    3.495   12.6277
    3.510   12.7962
    3.525   12.7541
    3.540   12.6593
    3.555   13.2175
    3.570   13.9337
    3.585   13.8283
    3.600   13.6282
    3.615   13.4176
    3.630   13.5545
    3.645   13.6704
    3.660   13.5229
    3.675   13.7335
    3.690   13.0490
    3.705   12.8383
    3.720   13.5545
    3.735   13.7335
    3.750   13.0279
    3.765   12.2275
    3.780   11.9221
    3.795   11.9326
    3.810   11.7009
    3.825   11.8273
    3.840   10.9742
    3.855   10.9110
    3.870   10.9321
    3.885   11.3428
    3.900   11.0479
    3.915   11.0269
    3.930   10.6266
    3.945   10.1527
    3.960   10.4687
    3.975    9.8894
    3.990    9.9421
    4.005   10.0369
    4.020    9.7630
    4.035   10.0263
    4.050    9.7104
    4.065    9.3102
    4.080    9.3734
    4.095    9.3944
    4.110    9.0153
    4.125    9.0785
    4.140    9.0890
    4.155    8.8573
    4.170    9.1417
    4.185    8.9626
    4.200    8.9731
    4.215    9.0679
    4.230    9.0679
    4.245    9.3628
    4.260    8.6045
    4.275    8.1095
    4.290    8.7309
    4.305    8.7309
    4.320    8.7836
    4.335    8.1095
    4.350    8.2149
    4.365    8.7098
    4.380    8.5413
    4.395    8.2043
    4.410    8.0674
    4.425    8.0779
    4.440    8.6256
    4.455    8.4571
    4.470    8.1727
    4.485    8.1622
    4.500    8.2991
    4.515    8.5940
    4.530    8.0042
    4.545    7.9305
    4.560    7.3934
    4.575    8.3623
    4.590    8.4360
    4.605    8.4571
    4.620    8.3623
    4.635    7.9516
    4.650    7.9831
    4.665    8.0674
    4.680    7.8568
    4.695    7.8041
    4.710    8.1727
    4.725    8.1201
    4.740    7.5619
    4.755    7.7725
    4.770    7.8568
    4.785    7.7725
    4.800    7.7514
    4.815    8.1517
    4.830    8.0463
    4.845    7.7936
    4.860    7.8462
    4.875    7.9305
    4.890    7.9726
    4.905    7.4566
    4.920    7.8146
    4.935    7.9831
    4.950    8.0358
    4.965    7.9621
    4.980    8.1095
    4.995    7.9621
    5.010    7.7936
    5.025    8.1833
    5.040    8.2675
    5.055    8.0042
    5.070    8.2359
    5.085    8.3939
    5.100    8.1306
    5.115    8.2991
    5.130    8.6151
    5.145    8.7520
    5.160    8.5624
    5.175    8.5729
    5.190    8.6151
    5.205    8.4150
    5.220    8.5940
    5.235    8.7098
    5.250    8.6256
    5.265    8.6677
    5.280    8.8152
    5.295    8.7414
    5.310    8.9310
    5.325    8.4255
    5.340    9.0890
    5.355    9.3418
    5.370    8.6151
    5.385    8.9205
    5.400    8.6783
    5.415    9.2048
    5.430    8.9415
    5.445    9.0469
    5.460    8.3518
    5.475    8.8046
    5.490    9.0995
    5.505    9.2575
    5.520    9.5735
    5.535    9.7736
    5.550    9.2891
    5.565    8.9731
    5.580    9.4576
    5.595    9.0574
    5.610    9.2364
    5.625    9.2575
    5.640    9.5945
    5.655    9.2259
    5.670    9.4787
    5.685    8.9415
    5.700    8.9521
    5.715    9.1417
    5.730    8.7836
    5.745    8.5835
    5.760    8.9415
    5.775    8.4150
    5.790    8.1411
    5.805    8.6572
    5.820    8.2570
    5.835    8.2570
    5.850    8.4781
    5.865    8.1411
    5.880    8.2149
    5.895    8.5940
    5.910    7.9937
    5.925    7.6672
    5.940    7.8568
    5.955    7.3723
    5.970    7.6777
    5.985    7.8252
    6.000    7.5935
    6.015    7.5197
    6.030    7.1827
    6.045    6.6351
    6.060    7.2670
    6.075    7.3196
    6.090    6.8984
    6.105    6.9300
    6.120    6.8352
    6.135    6.8141
    6.150    6.8773
    6.165    6.9616
    6.180    6.9616
    6.195    6.4350
    6.210    6.5298
    6.225    6.3612
    6.240    6.6667
    6.255    6.8773
    6.270    6.8036
    6.285    6.3718
    6.300    6.7088
    6.315    6.4350
    6.330    6.7193
    6.345    6.8246
    6.360    6.9510
    6.375    6.6035
    6.390    6.1295
    6.405    6.3612
    6.420    6.3718
    6.435    6.1822
    6.450    6.4560
    6.465    6.7299
    6.480    6.3296
    6.495    6.3928
    6.510    6.0242
    6.525    6.3191
    6.540    6.2454
    6.555    6.0348
    6.570    5.8978
    6.585    6.2243
    6.600    6.1927
    6.615    5.7188
    6.630    6.0348
    6.645    6.1190
    6.660    5.8978
    6.675    6.0348
    6.690    6.1401
    6.705    6.1295
    6.720    5.7925
    6.735    5.7925
    6.750    6.2243
    6.765    5.9926
    6.780    5.8347
    6.795    6.0874
    6.810    5.6240
    6.825    5.9716
    6.840    6.0874
    6.855    5.8978
    6.870    5.7715
    6.885    5.6240
    6.900    6.0137
    6.915    5.6345
    6.930    5.7083
    6.945    5.9926
    6.960    6.1401
    6.975    6.4139
    6.990    6.2770
    7.005    6.0348
    7.020    5.7293
    7.035    5.6345
    7.050    5.8978
    7.065    5.8557
    7.080    5.7083
    7.095    5.8347
    7.110    5.6135
    7.125    5.7609
    7.140    5.8452
    7.155    5.4450
    7.170    5.9294
    7.185    6.0137
    7.200    5.9189
    7.215    5.8136
    7.230    5.5292
    7.245    6.0242
    7.260    5.7715
    7.275    5.7715
    7.290    5.9084
    7.305    5.5608
    7.320    5.6556
    7.335    5.6767
    7.350    5.9821
    7.365    5.3923
    7.380    5.3923
    7.395    5.1501
    7.410    5.1606
    7.425    5.3818
    7.440    5.4766
    7.455    5.4660
    7.470    5.0974
    7.485    5.2975
    7.500    5.2449
    7.515    5.4028
    7.530    5.1711
    7.545    5.4239
    7.560    5.5608
    7.575    5.2027
    7.590    4.9184
    7.605    5.1922
    7.620    4.8763
    7.635    5.0764
    7.650    5.0974
    7.665    5.1185
    7.680    5.0974
    7.695    5.2343
    7.710    5.2027
    7.725    5.3607
    7.740    5.0237
    7.755    4.9921
    7.770    4.8236
    7.785    5.1185
    7.800    5.0237
    7.815    5.1395
    7.830    4.6340
    7.845    4.7604
    7.860    4.8763
    7.875    4.7288
    7.890    4.8657
    7.905    4.8657
    7.920    4.5498
    7.935    4.4655
    7.950    4.2022
    7.965    4.6235
    7.980    4.8236
    7.995    5.0869
    8.010    4.6445
    8.025    5.0237
    8.040    4.9816
    8.055    4.5919
    8.070    4.8552
    8.085    4.5708
    8.100    4.4128
    8.115    4.8131
    8.130    4.6235
    8.145    4.4128
    8.160    4.1917
    8.175    4.4234
    8.190    4.4866
    8.205    4.6551
    8.220    4.1285
    8.235    4.4655
    8.250    4.5498
    8.265    4.4971
    8.280    4.2443
    8.295    4.6340
    8.310    4.0969
    8.325    3.9073
    8.340    4.3918
    8.355    4.4339
    8.370    4.5603
    8.385    4.3286
    8.400    4.3813
    8.415    4.4550
    8.430    4.1390
    8.445    4.2654
    8.460    4.4655
    8.475    4.5076
    8.490    4.2338
    8.505    4.3602
    8.520    4.5498
    8.535    4.1811
    8.550    4.0126
    8.565    4.2127
    8.580    4.3918
    8.595    4.3075
    8.610    4.3813
    8.625    4.1180
    8.640    4.1917
    8.655    4.0442
    8.670    4.0969
    8.685    4.0021
    8.700    4.0442
    8.715    4.1074
    8.730    4.4866
    8.745    4.1074
    8.760    4.5708
    8.775    4.0653
    8.790    3.8652
    8.805    4.0864
    8.820    3.8757
    8.835    4.1601
    8.850    4.1180
    8.865    3.9494
    8.880    3.6440
    8.895    3.6440
    8.910    3.8020
    8.925    3.8863
    8.940    3.9179
    8.955    3.9284
    8.970    4.3286
    8.985    3.7599
    9.000    3.7072
    9.015    3.8441
    9.030    3.8968
    9.045    4.1074
    9.060    3.7599
    9.075    3.5598
    9.090    3.8652
    9.105    4.0969
    9.120    4.1706
    9.135    3.9600
    9.150    3.8652
    9.165    4.0442
    9.180    4.0021
    9.195    4.2654
    9.210    3.7283
    9.225    3.8020
    9.240    3.6019
    9.255    3.9073
    9.270    3.7283
    9.285    3.8652
    9.300    3.5914
    9.315    3.6230
    9.330    3.8020
    9.345    3.9705
    9.360    3.8757
    9.375    3.8757
    9.390    3.6440
    9.405    3.6230
    9.420    3.6230
    9.435    3.7704
    9.450    3.6862
    9.465    3.6124
    9.480    3.7388
    9.495    3.9705
    9.510    3.7599
    9.525    3.4123
    9.540    3.6862
    9.555    4.0126
    9.570    3.7493
    9.585    3.7283
    9.600    3.7283
    9.615    3.9494
    9.630    3.6862
    9.645    3.7283
    9.660    3.7072
    9.675    3.9389
    9.690    3.8020
    9.705    3.7283
    9.720    3.8441
    9.735    4.0126
    9.750    3.9179
    9.765    3.7704
    9.780    3.8757
    9.795    3.9179
    9.810    3.8547
    9.825    3.8020
    9.840    3.6862
    9.855    3.8652
    9.870    3.6862
    9.885    3.8652
    9.900    3.5598
    9.915    3.6651
    9.930    3.6335
    9.945    3.7072
    9.960    3.7599
    9.975    3.7283
    9.990    3.9073
   10.005    3.9389
   10.020    3.8125
   10.035    3.7599
   10.050    3.4966
   10.065    3.7704
   10.080    3.6967
   10.095    3.8020
   10.110    3.6440
   10.125    3.6124
   10.140    3.7809
   10.155    3.8441
   10.170    3.5387
   10.185    3.6230
   10.200    3.6546
   10.215    3.8020
   10.230    4.0969
   10.245    3.9494
   10.260    3.7704
   10.275    3.9494
   10.290    3.6019
   10.305    3.6124
   10.320    3.6862
   10.335    3.6230
   10.350    4.0126
   10.365    3.7599
   10.380    3.8441
   10.395    4.0653
   10.410    3.8652
   10.425    3.6756
   10.440    3.6124
   10.455    3.7072
   10.470    3.5387
   10.485    3.6546
   10.500    3.9284
   10.515    3.9284
   10.530    3.6862
   10.545    3.7072
   10.560    4.0969
   10.575    4.0232
   10.590    4.0864
   10.605    3.8441
   10.620    3.7809
   10.635    3.5282
   10.650    3.8125
   10.665    4.2127
   10.680    4.1074
   10.695    3.8336
   10.710    4.0758
   10.725    4.2549
   10.740    3.9494
   10.755    3.7809
   10.770    4.0653
   10.785    3.7809
   10.800    3.9284
   10.815    3.9179
   10.830    3.8968
   10.845    3.9600
   10.860    3.8441
   10.875    3.7388
   10.890    3.9916
   10.905    3.9073
   10.920    4.1811
   10.935    3.9179
   10.950    3.8968
   10.965    4.2759
   10.980    4.0337
   10.995    4.0232
   11.010    4.0126
   11.025    4.1390
   11.040    4.0442
   11.055    3.9600
   11.070    3.6967
   11.085    3.8441
   11.100    3.9600
   11.115    4.0232
   11.130    4.1390
   11.145    4.3075
   11.160    4.3286
   11.175    3.8863
   11.190    3.8020
   11.205    4.1811
   11.220    4.3602
   11.235    4.0126
   11.250    4.0548
   11.265    3.8336
   11.280    4.0969
   11.295    4.3707
   11.310    4.2127
   11.325    3.8231
   11.340    3.8231
   11.355    3.8125
   11.370    4.0337
   11.385    4.3497
   11.400    4.1390
   11.415    4.0337
   11.430    3.7915
   11.445    4.0442
   11.460    3.7915
   11.475    4.0021
   11.490    4.0653
   11.505    4.0548
   11.520    3.7072
   11.535    3.7915
   11.550    4.0442
   11.565    3.9916
   11.580    3.8441
   11.595    3.6862
   11.610    3.6651
   11.625    4.0126
   11.640    4.0653
   11.655    3.8757
   11.670    3.9810
   11.685    3.9810
   11.700    3.7388
   11.715    3.9494
   11.730    3.8125
   11.745    4.0653
   11.760    3.9810
   11.775    3.5598
   11.790    3.9600
   11.805    3.9705
   11.820    4.0126
   11.835    3.8652
   11.850    3.8231
   11.865    3.8336
   11.880    3.9389
   11.895    3.7072
   11.910    4.0758
   11.925    3.8231
   11.940    3.6862
   11.955    3.9179
   11.970    3.7283
   11.985    3.8020
   12.000    4.1496
   12.015    3.8547
   12.030    3.6124
   12.045    3.7388
   12.060    3.7493
   12.075    3.8863
   12.090    4.0442
   12.105    4.0126
   12.120    3.6335
   12.135    3.8652
   12.150    3.7704
   12.165    3.7283
   12.180    3.6440
   12.195    3.6335
   12.210    3.4544
   12.225    3.6862
   12.240    3.6862
   12.255    3.8547
   12.270    3.9389
   12.285    4.1074
   12.300    3.6124
   12.315    3.7704
   12.330    3.8441
   12.345    3.7809
   12.360    3.7809
   12.375    3.9494
   12.390    4.0232
   12.405    3.8231
   12.420    3.6019
   12.435    3.5808
   12.450    3.6967
   12.465    3.7809
   12.480    3.6230
   12.495    3.6124
   12.510    3.4860
   12.525    4.0232
   12.540    3.9284
   12.555    3.7388
   12.570    3.8020
   12.585    3.8020
   12.600    3.8336
   12.615    3.7599
   12.630    3.5808
   12.645    3.7493
   12.660    3.6440
   12.675    3.5703
   12.690    3.7177
   12.705    3.5914
   12.720    3.7704
   12.735    3.7177
   12.750    3.8020
   12.765    3.6440
   12.780    4.0548
   12.795    3.7704
   12.810    3.6335
   12.825    3.5808
   12.840    3.8336
   12.855    3.4650
   12.870    3.2965
   12.885    3.4544
   12.900    3.6230
   12.915    3.6862
   12.930    3.8231
   12.945    3.7283
   12.960    3.6440
   12.975    3.4229
   12.990    3.4439
   13.005    3.6756
   13.020    3.9284
   13.035    3.9916
   13.050    3.9810
   13.065    3.8231
   13.080    4.1390
   13.095    4.0232
   13.110    3.6756
   13.125    3.4860
   13.140    4.0653
   13.155    3.9705
   13.170    3.9810
   13.185    3.7704
   13.200    3.8757
   13.215    3.6335
   13.230    3.4966
   13.245    3.8336
   13.260    3.5598
   13.275    3.6230
   13.290    3.8547
   13.305    3.6546
   13.320    3.8020
   13.335    3.7493
   13.350    3.6230
   13.365    3.7388
   13.380    3.6862
   13.395    3.4755
   13.410    3.6019
   13.425    3.8020
   13.440    3.8125
   13.455    3.6019
   13.470    3.8336
   13.485    3.8231
   13.500    3.7177
   13.515    3.7493
   13.530    3.6862
   13.545    3.9284
   13.560    3.5492
   13.575    3.4966
   13.590    3.7599
   13.605    3.6651
   13.620    3.8547
   13.635    3.4966
   13.650    3.6440
   13.665    4.0653
   13.680    3.6124
   13.695    3.4229
   13.710    3.7493
   13.725    3.7809
   13.740    3.5387
   13.755    3.8336
   13.770    3.7177
   13.785    3.7283
   13.800    3.6756
   13.815    3.6756
   13.830    3.9073
   13.845    3.7283
   13.860    3.9600
   13.875    3.8020
   13.890    3.3281
   13.905    3.7072
   13.920    3.8441
   13.935    3.6862
   13.950    3.7493
   13.965    3.9494
   13.980    3.9916
   13.995    4.1496
   14.010    4.3497
   14.025    4.0021
   14.040    4.1496
   14.055    4.0548
   14.070    3.8125
   14.085    4.1180
   14.100    3.7809
   14.115    3.8020
   14.130    3.8547
   14.145    4.1390
   14.160    4.3286
   14.175    4.0758
   14.190    3.9284
   14.205    4.0232
   14.220    3.9705
   14.235    4.0969
   14.250    3.9284
   14.265    3.9916
   14.280    3.9705
   14.295    3.8547
   14.310    3.9916
   14.325    4.4339
   14.340    4.2970
   14.355    3.9705
   14.370    4.1074
   14.385    4.1074
   14.400    4.2127
   14.415    4.0548
   14.430    4.0548
   14.445    4.1601
   14.460    4.2759
   14.475    4.2865
   14.490    4.1917
   14.505    4.1706
   14.520    4.3075
   14.535    4.2865
   14.550    4.0864
   14.565    4.1074
   14.580    4.0653
   14.595    3.9389
   14.610    3.9073
   14.625    4.2759
   14.640    4.1917
   14.655    4.2549
   14.670    3.9389
   14.685    3.8441
   14.700    3.8547
   14.715    3.9916
   14.730    4.0758
   14.745    4.0864
   14.760    4.0232
   14.775    3.8441
   14.790    4.1496
   14.805    3.8968
   14.820    3.9916
   14.835    4.0126
   14.850    4.0758
   14.865    3.7704
   14.880    4.0548
   14.895    3.7177
   14.910    3.9179
   14.925    3.9389
   14.940    3.8757
   14.955    4.0969
   14.970    3.9916
   14.985    3.8652
   15.000    4.0442
   15.015    3.9705
   15.030    3.6335
   15.045    3.7283
   15.060    3.5598
   15.075    3.8757
   15.090    3.8863
   15.105    3.4966
   15.120    3.4018
   15.135    3.4123
   15.150    3.5914
   15.165    3.6124
   15.180    3.7388
   15.195    3.7283
   15.210    3.5914
   15.225    3.7493
   15.240    3.7283
   15.255    3.5598
   15.270    3.8547
   15.285    4.0864
   15.300    3.6967
   15.315    3.5387
   15.330    3.7809
   15.345    4.1390
   15.360    3.4439
   15.375    3.8231
   15.390    3.8968
   15.405    3.7915
   15.420    3.5914
   15.435    3.7388
   15.450    3.2965
   15.465    3.6230
   15.480    3.6862
   15.495    3.4650
   15.510    3.3491
   15.525    3.5176
   15.540    3.8757
   15.555    3.6019
   15.570    3.5914
   15.585    3.7809
   15.600    3.8547
   15.615    3.8757
   15.630    3.9284
   15.645    3.8336
   15.660    3.6967
   15.675    3.9073
   15.690    3.9810
   15.705    3.7072
   15.720    3.8020
   15.735    3.7177
   15.750    3.7177
   15.765    3.8020
   15.780    3.6967
   15.795    3.7177
   15.810    3.4439
   15.825    3.7809
   15.840    3.8231
   15.855    3.5598
   15.870    3.6651
   15.885    3.6651
   15.900    3.6756
   15.915    3.7177
   15.930    3.9916
   15.945    3.8652
   15.960    3.7599
   15.975    3.3070
   15.990    3.7283
   16.005    4.1811
   16.020    3.5492
   16.035    3.4860
   16.050    3.6440
   16.065    3.5492
   16.080    3.7388
   16.095    3.8863
   16.110    3.6546
   16.125    3.7388
   16.140    3.8652
   16.155    3.4755
   16.170    3.6756
   16.185    3.5387
   16.200    3.7072
   16.215    3.9284
   16.230    3.9600
   16.245    3.8652
   16.260    3.9810
   16.275    3.5598
   16.290    3.6756
   16.305    3.7388
   16.320    3.4650
   16.335    3.6967
   16.350    3.5703
   16.365    3.7388
   16.380    3.4860
   16.395    3.6230
   16.410    3.6440
   16.425    3.5914
   16.440    3.7177
   16.455    3.6124
   16.470    3.8968
   16.485    4.0337
   16.500    3.7283
   16.515    3.7388
   16.530    3.7704
   16.545    3.8968
   16.560    3.6967
   16.575    3.7072
   16.590    3.8968
   16.605    4.0232
   16.620    3.8231
   16.635    3.7072
   16.650    3.6230
   16.665    3.6756
   16.680    3.8125
   16.695    3.3597
   16.710    3.5703
   16.725    3.5914
   16.740    3.5808
   16.755    3.5176
   16.770    3.7283
   16.785    3.4018
   16.800    3.9389
   16.815    3.6230
   16.830    3.7915
   16.845    4.0021
   16.860    3.7809
   16.875    3.9810
   16.890    3.8020
   16.905    3.5071
   16.920    3.5492
   16.935    4.0758
   16.950    3.6546
   16.965    4.0021
   16.980    4.0337
   16.995    3.7493
   17.010    3.6124
   17.025    3.4966
   17.040    3.5071
   17.055    3.4650
   17.070    3.6335
   17.085    3.6756
   17.100    3.6862
   17.115    3.5176
   17.130    3.5071
   17.145    3.5914
   17.160    3.7072
   17.175    3.8652
   17.190    3.7072
   17.205    3.9810
   17.220    3.6335
   17.235    3.8020
   17.250    3.6546
   17.265    3.8757
   17.280    3.8125
   17.295    3.7283
   17.310    3.6756
   17.325    3.6967
   17.340    3.8547
   17.355    3.7388
   17.370    3.4229
   17.385    3.5387
   17.400    3.3597
   17.415    3.7072
   17.430    3.8441
   17.445    3.7599
   17.460    3.7072
   17.475    3.6546
   17.490    3.6019
   17.505    3.5492
   17.520    3.7599
   17.535    3.5914
   17.550    3.4229
   17.565    3.5282
   17.580    3.4650
   17.595    3.6019
   17.610    3.6651
   17.625    3.6335
   17.640    3.4755
   17.655    3.8231
   17.670    3.7388
   17.685    3.7599
   17.700    3.7915
   17.715    3.6651
   17.730    3.4123
   17.745    3.8441
   17.760    3.8336
   17.775    3.7915
   17.790    3.9073
   17.805    3.9810
   17.820    3.7915
   17.835    3.7283
   17.850    3.6862
   17.865    3.8231
   17.880    3.8547
   17.895    3.7072
   17.910    3.8336
   17.925    3.7704
   17.940    3.8231
   17.955    4.1074
   17.970    3.8757
   17.985    3.6862
   18.000    3.5071
   18.015    3.8336
   18.030    3.8125
   18.045    3.9600
   18.060    4.0653
   18.075    3.6862
   18.090    3.4439
   18.105    3.7599
   18.120    4.0337
   18.135    3.7493
   18.150    3.5492
   18.165    3.8231
   18.180    3.7915
   18.195    3.7704
   18.210    3.7809
   18.225    3.8547
   18.240    4.1706
   18.255    3.9284
   18.270    3.7388
   18.285    3.7072
   18.300    3.6651
   18.315    3.8547
   18.330    4.0864
   18.345    3.8441
   18.360    3.9389
   18.375    4.0442
   18.390    3.6230
   18.405    3.5282
   18.420    3.9179
   18.435    4.1285
   18.450    3.9284
   18.465    3.7072
   18.480    3.5914
   18.495    3.7072
   18.510    3.5492
   18.525    3.6756
   18.540    4.0021
   18.555    4.1811
   18.570    4.1496
   18.585    3.9494
   18.600    3.9600
   18.615    3.6230
   18.630    3.8652
   18.645    3.8863
   18.660    3.8125
   18.675    3.9705
   18.690    3.8863
   18.705    3.7177
   18.720    3.8652
   18.735    3.5071
   18.750    3.7493
   18.765    3.7599
   18.780    3.5914
   18.795    3.6440
   18.810    3.7177
   18.825    3.9284
   18.840    3.9179
   18.855    3.4439
   18.870    3.6862
   18.885    3.7915
   18.900    3.8020
   18.915    3.7704
   18.930    3.8863
   18.945    4.2233
   18.960    4.2233
   18.975    4.4339
   18.990    4.4339
   19.005    4.7393
   19.020    4.7183
   19.035    4.7183
   19.050    4.6445
   19.065    4.3602
   19.080    4.2338
   19.095    3.9073
   19.110    3.4544
   19.125    3.8125
   19.140    3.8757
   19.155    3.8336
   19.170    3.7283
   19.185    3.9073
   19.200    3.8336
   19.215    3.7177
   19.230    3.7388
   19.245    3.6546
   19.260    3.5598
   19.275    3.8125
   19.290    3.6019
   19.305    3.6440
   19.320    3.6651
   19.335    3.7072
   19.350    3.3597
   19.365    3.7388
   19.380    3.7283
   19.395    4.0021
   19.410    3.6862
   19.425    3.8547
   19.440    3.5808
   19.455    3.6124
   19.470    3.6335
   19.485    3.5703
   19.500    3.3597
   19.515    3.3702
   19.530    3.6756
   19.545    3.3702
   19.560    3.5914
   19.575    3.4229
   19.590    3.6335
   19.605    3.7388
   19.620    3.4650
   19.635    3.4860
   19.650    3.5703
   19.665    3.8231
   19.680    3.6230
   19.695    3.7809
   19.710    3.8336
   19.725    3.6546
   19.740    3.2227
   19.755    3.5387
   19.770    3.8020
   19.785    3.6651
   19.800    3.9916
   19.815    3.8757
   19.830    3.6546
   19.845    3.8441
   19.860    3.6862
   19.875    3.6440
   19.890    3.6440
   19.905    3.8231
   19.920    3.7704
   19.935    3.3491
   19.950    3.4650
   19.965    3.4544
   19.980    3.5598
   19.995    3.6440
   20.010    3.6230
   20.025    3.1701
   20.040    3.3597
   20.055    3.4229
   20.070    3.3702
   20.085    3.6124
   20.100    3.4966
   20.115    3.4755
   20.130    3.4650
   20.145    3.6756
   20.160    3.2965
   20.175    3.2438
   20.190    3.5914
   20.205    3.6862
   20.220    3.6019
   20.235    3.4544
   20.250    3.5492
   20.265    3.5703
   20.280    3.7072
   20.295    3.2859
   20.310    3.1806
   20.325    3.3175
   20.340    3.6019
   20.355    3.4966
   20.370    3.7072
   20.385    3.7072
   20.400    3.5176
   20.415    3.3175
   20.430    3.4650
   20.445    3.6967
   20.460    3.6967
   20.475    3.6756
   20.490    3.5492
   20.505    3.4755
   20.520    3.3702
   20.535    3.6230
   20.550    3.2017
   20.565    3.2649
   20.580    3.2649
   20.595    3.3597
   20.610    3.4018
   20.625    3.3597
   20.640    3.4018
   20.655    3.2333
   20.670    3.0542
   20.685    3.2438
   20.700    3.5492
   20.715    3.5492
   20.730    3.5914
   20.745    3.5492
   20.760    3.2438
   20.775    3.3386
   20.790    3.4334
   20.805    3.3386
   20.820    3.4755
   20.835    3.3913
   20.850    3.4334
   20.865    3.2543
   20.880    3.2017
   20.895    3.3597
   20.910    3.2438
   20.925    3.2438
   20.940    3.3702
   20.955    3.1596
   20.970    3.4439
   20.985    3.3281
   21.000    3.3386
   21.015    3.4966
   21.030    3.4544
   21.045    3.3281
   21.060    3.5703
   21.075    3.7388
   21.090    3.8652
   21.105    3.5808
   21.120    3.3913
   21.135    3.4860
   21.150    3.4544
   21.165    3.6546
   21.180    3.6230
   21.195    3.5071
   21.210    3.3281
   21.225    3.2438
   21.240    3.4229
   21.255    3.4123
   21.270    3.2965
   21.285    3.1806
   21.300    3.1912
   21.315    3.2438
   21.330    3.3070
   21.345    3.2227
   21.360    3.4229
   21.375    3.3175
   21.390    3.4544
   21.405    3.4755
   21.420    3.5598
   21.435    3.3702
   21.450    3.2649
   21.465    3.4544
   21.480    3.2754
   21.495    3.0016
   21.510    3.3491
   21.525    3.3491
   21.540    3.4018
   21.555    3.3807
   21.570    3.4755
   21.585    3.2017
   21.600    3.2333
   21.615    3.3070
   21.630    3.3281
   21.645    3.4334
   21.660    3.3175
   21.675    3.1912
   21.690    3.0016
   21.705    3.2017
   21.720    3.1280
   21.735    3.2227
   21.750    3.0753
   21.765    3.1596
   21.780    3.2649
   21.795    3.2965
   21.810    3.2543
   21.825    3.1385
   21.840    3.1280
   21.855    2.9595
   21.870    3.2965
   21.885    3.4966
   21.900    3.5071
   21.915    3.4544
   21.930    3.5808
   21.945    3.4439
   21.960    3.4123
   21.975    3.2333
   21.990    3.4544
   22.005    3.4755
   22.020    3.4966
   22.035    3.3597
   22.050    3.2649
   22.065    3.0542
   22.080    3.4439
   22.095    3.0226
   22.110    3.0858
   22.125    3.1069
   22.140    3.3807
   22.155    3.4755
   22.170    3.3702
   22.185    3.2754
   22.200    3.1385
   22.215    2.9595
   22.230    3.1069
   22.245    3.3702
   22.260    3.0964
   22.275    3.2965
   22.290    3.5387
   22.305    3.4439
   22.320    3.3491
   22.335    3.0858
   22.350    3.2333
   22.365    2.6435
   22.380    3.0437
   22.395    3.0332
   22.410    3.0542
   22.425    3.1806
   22.440    3.1490
   22.455    3.2649
   22.470    3.1596
   22.485    3.2965
   22.500    2.9805
   22.515    3.1174
   22.530    3.2227
   22.545    3.2438
   22.560    3.1385
   22.575    3.1490
   22.590    3.2122
   22.605    3.0964
   22.620    3.1069
   22.635    3.0226
   22.650    3.0858
   22.665    3.1069
   22.680    3.0964
   22.695    3.1596
   22.710    3.0437
   22.725    2.9489
   22.740    3.1280
   22.755    3.0016
   22.770    3.1174
   22.785    3.1806
   22.800    3.1280
   22.815    3.2859
   22.830    3.0121
   22.845    3.2965
   22.860    2.9910
   22.875    3.0648
   22.890    3.0753
   22.905    2.9805
   22.920    3.0753
   22.935    2.9173
   22.950    3.3386
   22.965    3.2543
   22.980    3.0858
   22.995    3.0648
   23.010    3.1385
   23.025    3.1174
   23.040    3.1806
   23.055    2.8015
   23.070    3.0964
   23.085    3.4334
   23.100    3.4334
   23.115    3.0753
   23.130    3.3913
   23.145    3.4018
   23.160    3.0648
   23.175    3.0964
   23.190    3.2965
   23.205    3.1806
   23.220    3.0542
   23.235    2.8331
   23.250    2.8963
   23.265    3.1596
   23.280    3.0121
   23.295    2.8331
   23.310    3.0964
   23.325    3.0121
   23.340    3.0437
   23.355    3.0437
   23.370    3.1701
   23.385    3.0016
   23.400    2.8857
   23.415    2.8541
   23.430    3.1701
   23.445    3.0226
   23.460    2.8225
   23.475    2.9700
   23.490    2.6119
   23.505    2.7278
   23.520    3.1385
   23.535    2.9489
   23.550    2.8752
   23.565    2.7488
   23.580    3.0753
   23.595    3.0858
   23.610    3.2859
   23.625    3.0753
   23.640    3.0121
   23.655    3.1912
   23.670    3.1069
   23.685    2.9068
   23.700    2.7699
   23.715    2.8015
   23.730    2.8331
   23.745    2.6962
   23.760    2.6962
   23.775    3.0121
   23.790    2.6014
   23.805    2.7804
   23.820    2.9489
   23.835    2.6856
   23.850    2.8015
   23.865    2.6856
   23.880    2.8647
   23.895    2.6856
   23.910    2.8331
   23.925    2.9489
   23.940    2.8120
   23.955    2.9384
   23.970    2.6330
   23.985    2.8436
   24.000    2.9910
   24.015    2.8857
   24.030    2.6540
   24.045    2.7488
   24.060    2.7593
   24.075    2.8331
   24.090    2.7067
   24.105    2.7593
   24.120    2.6856
   24.135    2.5698
   24.150    2.6962
   24.165    2.9173
   24.180    2.9068
   24.195    2.7488
   24.210    2.8857
   24.225    2.8752
   24.240    2.7909
   24.255    2.9068
   24.270    2.9489
   24.285    2.7804
   24.300    2.8331
   24.315    2.7593
   24.330    2.8120
   24.345    2.6540
   24.360    2.7488
   24.375    2.6330
   24.390    2.5908
   24.405    2.8647
   24.420    2.6435
   24.435    2.5382
   24.450    2.5803
   24.465    2.7593
   24.480    2.6856
   24.495    2.7383
   24.510    3.0121
   24.525    2.8225
   24.540    3.0437
   24.555    2.7699
   24.570    2.3697
   24.585    2.7278
   24.600    2.6540
   24.615    2.7909
   24.630    2.7067
   24.645    2.6751
   24.660    2.6751
   24.675    2.7593
   24.690    2.9700
   24.705    2.5487
   24.720    2.7593
   24.735    2.7067
   24.750    2.5908
   24.765    2.6224
   24.780    2.7699
   24.795    2.6435
   24.810    2.3907
   24.825    2.6962
   24.840    2.6962
   24.855    2.5592
   24.870    2.6751
   24.885    2.8436
   24.900    3.0332
   24.915    2.8225
   24.930    2.4539
   24.945    2.4855
   24.960    2.5276
   24.975    2.7804
   24.990    2.5698
   25.005    2.5803
   25.020    2.5803
   25.035    2.4329
   25.050    2.2328
   25.065    2.4961
   25.080    2.4961
   25.095    2.4855
   25.110    2.7067
   25.125    2.3381
   25.140    2.3170
   25.155    2.4855
   25.170    2.8331
   25.185    2.5803
   25.200    2.5487
   25.215    2.7067
   25.230    2.6014
   25.245    2.7067
   25.260    2.6751
   25.275    2.8015
   25.290    2.6014
   25.305    2.2749
   25.320    2.4013
   25.335    2.4539
   25.350    2.4645
   25.365    2.4750
   25.380    2.4750
   25.395    2.5698
   25.410    2.5803
   25.425    2.7278
   25.440    2.8120
   25.455    2.5276
   25.470    2.5487
   25.485    2.7488
   25.500    2.8331
   25.515    2.5382
   25.530    2.7804
   25.545    2.8331
   25.560    2.7383
   25.575    2.4750
   25.590    2.8647
   25.605    2.7278
   25.620    2.8120
   25.635    2.7909
   25.650    2.4855
   25.665    2.4961
   25.680    2.4223
   25.695    2.6330
   25.710    2.6119
   25.725    2.4750
   25.740    2.6224
   25.755    2.3381
   25.770    2.5487
   25.785    2.6751
   25.800    2.6435
   25.815    2.6119
   25.830    2.6646
   25.845    2.6119
   25.860    2.4961
   25.875    2.5382
   25.890    2.5171
   25.905    2.4223
   25.920    2.6224
   25.935    2.4961
   25.950    2.3065
   25.965    2.6435
   25.980    2.6646
   25.995    2.5803
   26.010    2.5171
   26.025    2.6014
   26.040    2.6119
   26.055    2.2959
   26.070    2.2854
   26.085    2.3802
   26.100    2.3486
   26.115    2.4961
   26.130    2.5908
   26.145    2.1906
   26.160    2.5382
   26.175    2.3065
   26.190    2.3591
   26.205    2.6224
   26.220    2.4223
   26.235    2.3591
   26.250    2.3697
   26.265    2.2854
   26.280    2.3697
   26.295    2.4223
   26.310    2.5276
   26.325    2.5803
   26.340    2.3275
   26.355    2.4223
   26.370    2.4539
   26.385    2.2959
   26.400    2.2433
   26.415    2.1485
   26.430    2.2538
   26.445    2.3697
   26.460    2.3381
   26.475    2.3275
   26.490    2.2117
   26.505    2.2854
   26.520    2.4539
   26.535    2.2959
   26.550    2.2117
   26.565    2.1590
   26.580    2.4223
   26.595    2.2538
   26.610    2.3486
   26.625    2.3275
   26.640    2.4750
   26.655    2.2222
   26.670    2.2012
   26.685    2.2328
   26.700    2.2433
   26.715    2.3802
   26.730    2.1064
   26.745    2.2749
   26.760    2.2854
   26.775    2.0853
   26.790    2.1169
   26.805    2.2643
   26.820    2.6014
   26.835    2.3275
   26.850    2.0642
   26.865    2.3275
   26.880    2.4013
   26.895    2.3065
   26.910    2.3170
   26.925    2.2222
   26.940    2.2222
   26.955    2.2643
   26.970    2.3486
   26.985    2.2538
   27.000    2.2959
   27.015    2.0853
   27.030    2.3170
   27.045    2.4645
   27.060    2.3170
   27.075    2.2328
   27.090    2.0011
   27.105    2.0748
   27.120    2.1274
   27.135    2.1696
   27.150    2.2854
   27.165    1.9800
   27.180    2.0642
   27.195    2.2222
   27.210    2.1169
   27.225    2.0537
   27.240    2.2538
   27.255    2.0958
   27.270    2.1485
   27.285    2.3591
   27.300    2.1485
   27.315    2.1906
   27.330    2.1169
   27.345    2.1274
   27.360    2.3170
   27.375    2.2854
   27.390    2.2433
   27.405    2.1590
   27.420    2.0853
   27.435    2.1274
   27.450    1.7588
   27.465    2.0326
   27.480    2.1906
   27.495    2.1485
   27.510    2.1485
   27.525    2.0011
   27.540    1.8957
   27.555    2.1485
   27.570    2.0116
   27.585    2.0221
   27.600    2.0537
   27.615    1.9379
   27.630    2.0853
   27.645    1.9589
   27.660    2.0326
   27.675    1.9484
   27.690    2.1485
   27.705    2.1696
   27.720    2.0432
   27.735    2.1169
   27.750    1.9484
   27.765    2.1485
   27.780    2.1380
   27.795    2.2012
   27.810    2.0432
   27.825    1.8220
   27.840    1.8852
   27.855    1.9800
   27.870    1.7483
   27.885    2.0326
   27.900    1.8957
   27.915    1.9905
   27.930    1.9695
   27.945    2.1696
   27.960    2.3907
   27.975    2.3591
   27.990    2.7172
   28.005    2.7699
   28.020    2.4645
   28.035    2.6330
   28.050    2.6856
   28.065    2.4539
   28.080    2.2538
   28.095    2.2222
   28.110    2.2117
   28.125    2.1590
   28.140    2.1380
   28.155    1.9800
   28.170    2.0116
   28.185    2.0958
   28.200    1.9905
   28.215    1.9695
   28.230    2.0432
   28.245    1.8641
   28.260    1.8431
   28.275    1.9695
   28.290    2.0537
   28.305    2.1696
   28.320    1.8641
   28.335    1.8220
   28.350    2.2328
   28.365    1.9800
   28.380    1.9273
   28.395    2.0221
   28.410    1.9589
   28.425    1.8536
   28.440    2.1274
   28.455    1.9379
   28.470    2.0642
   28.485    1.8747
   28.500    1.8536
   28.515    1.9168
   28.530    1.9695
   28.545    2.1064
   28.560    2.1801
   28.575    2.0642
   28.590    1.8747
   28.605    1.8220
   28.620    2.0011
   28.635    1.8747
   28.650    1.9273
   28.665    1.9379
   28.680    1.9273
   28.695    1.9800
   28.710    2.0221
   28.725    1.8747
   28.740    1.9484
   28.755    2.0326
   28.770    1.9379
   28.785    1.8957
   28.800    2.1590
   28.815    1.8641
   28.830    1.8641
   28.845    1.9800
   28.860    1.9273
   28.875    2.3591
   28.890    2.1380
   28.905    1.9589
   28.920    1.9695
   28.935    2.1696
   28.950    2.4329
   28.965    2.7804
   28.980    2.8963
   28.995    2.9279
   29.010    2.6014
   29.025    2.6751
   29.040    2.3697
   29.055    2.0432
   29.070    2.1485
   29.085    2.0326
   29.100    2.0116
   29.115    2.0537
   29.130    1.8009
   29.145    1.9273
   29.160    2.0748
   29.175    1.9484
   29.190    2.1380
   29.205    2.0642
   29.220    1.8852
   29.235    1.9800
   29.250    2.1906
   29.265    1.8009
   29.280    1.7904
   29.295    1.6535
   29.310    1.9168
   29.325    1.9168
   29.340    1.8641
   29.355    1.7167
   29.370    1.6219
   29.385    1.8325
   29.400    1.8009
   29.415    1.8747
   29.430    1.8431
   29.445    1.7904
   29.460    1.8747
   29.475    1.8325
   29.490    1.8220
   29.505    1.9273
   29.520    1.9379
   29.535    1.8431
   29.550    1.8009
   29.565    1.8957
   29.580    1.8325
   29.595    1.6430
   29.610    1.6535
   29.625    1.6851
   29.640    1.7588
   29.655    1.7062
   29.670    1.7799
   29.685    1.8852
   29.700    1.9484
   29.715    1.8325
   29.730    1.6746
   29.745    1.6324
   29.760    1.7378
   29.775    1.5482
   29.790    1.5692
   29.805    1.5903
   29.820    1.4534
   29.835    1.6956
   29.850    1.5798
   29.865    1.5692
   29.880    1.7588
   29.895    1.8431
   29.910    1.8115
   29.925    1.7694
   29.940    1.8220
   29.955    1.6746
   29.970    1.4639
   29.985    1.5798
   30.000    1.5798
   30.015    1.9168
   30.030    1.8009
   30.045    1.6535
   30.060    1.6324
   30.075    1.6430
   30.090    1.6114
   30.105    1.6956
   30.120    1.6324
   30.135    1.7272
   30.150    1.7904
   30.165    1.6956
   30.180    1.6219
   30.195    1.6219
   30.210    1.5482
   30.225    1.6430
   30.240    1.8852
   30.255    1.6008
   30.270    1.5271
   30.285    1.7904
   30.300    1.7694
   30.315    1.8115
   30.330    1.9589
   30.345    1.5798
   30.360    1.5692
   30.375    1.5692
   30.390    1.7167
   30.405    1.7483
   30.420    1.6956
   30.435    1.8957
   30.450    1.7588
   30.465    1.6324
   30.480    1.7167
   30.495    1.5798
   30.510    1.6114
   30.525    1.8009
   30.540    1.6956
   30.555    1.5798
   30.570    1.5482
   30.585    1.4534
   30.600    1.7483
   30.615    1.5798
   30.630    1.6430
   30.645    1.7904
   30.660    1.4850
   30.675    1.6746
   30.690    1.5692
   30.705    1.7588
   30.720    1.5166
   30.735    1.5271
   30.750    1.6851
   30.765    1.6324
   30.780    1.6851
   30.795    1.4639
   30.810    1.5903
   30.825    1.8009
   30.840    1.5482
   30.855    1.4639
   30.870    1.4955
   30.885    1.4955
   30.900    1.4850
   30.915    1.6324
   30.930    1.5271
   30.945    1.5271
   30.960    1.4113
   30.975    1.6008
   30.990    1.6430
   31.005    1.4850
   31.020    1.3691
   31.035    1.5271
   31.050    1.6219
   31.065    1.4639
   31.080    1.5061
   31.095    1.5061
   31.110    1.6430
   31.125    1.5798
   31.140    1.4429
   31.155    1.4429
   31.170    1.3902
   31.185    1.4218
   31.200    1.3586
   31.215    1.5271
   31.230    1.2954
   31.245    1.5271
   31.260    1.4323
   31.275    1.4218
   31.290    1.6008
   31.305    1.4534
   31.320    1.3060
   31.335    1.3060
   31.350    1.4429
   31.365    1.6956
   31.380    1.4007
   31.395    1.3270
   31.410    1.3902
   31.425    1.3691
   31.440    1.4323
   31.455    1.3586
   31.470    1.2849
   31.485    1.4639
   31.500    1.3797
   31.515    1.4323
   31.530    1.6008
   31.545    1.3060
   31.560    1.2638
   31.575    1.4534
   31.590    1.4955
   31.605    1.4639
   31.620    1.6008
   31.635    1.5271
   31.650    1.4218
   31.665    1.5271
   31.680    1.5482
   31.695    1.4429
   31.710    1.5271
   31.725    1.6008
   31.740    1.6324
   31.755    1.4323
   31.770    1.6008
   31.785    1.7799
   31.800    1.7167
   31.815    1.8220
   31.830    1.8220
   31.845    1.7062
   31.860    1.7694
   31.875    1.5587
   31.890    1.4745
   31.905    1.6535
   31.920    1.7272
   31.935    1.6956
   31.950    1.4850
   31.965    1.6114
   31.980    1.5903
   31.995    1.5798
   32.010    1.6008
   32.025    1.5798
   32.040    1.8536
   32.055    1.8220
   32.070    2.1274
   32.085    2.4223
   32.100    2.8647
   32.115    2.6751
   32.130    2.8331
   32.145    2.4961
   32.160    2.4118
   32.175    2.1274
   32.190    1.9168
   32.205    1.8115
   32.220    1.6324
   32.235    1.7167
   32.250    1.3691
   32.265    1.2322
   32.280    1.6008
   32.295    1.4007
   32.310    1.5061
   32.325    1.4534
   32.340    1.4429
   32.355    1.4534
   32.370    1.3586
   32.385    1.3481
   32.400    1.3586
   32.415    1.2849
   32.430    1.3586
   32.445    1.4534
   32.460    1.3481
   32.475    1.3902
   32.490    1.2217
   32.505    1.3165
   32.520    1.2954
   32.535    1.4429
   32.550    1.3481
   32.565    1.2954
   32.580    1.4113
   32.595    1.3165
   32.610    1.0742
   32.625    1.1901
   32.640    1.3797
   32.655    1.3481
   32.670    1.3270
   32.685    1.3902
   32.700    1.2849
   32.715    1.4007
   32.730    1.4007
   32.745    1.3060
   32.760    1.1690
   32.775    1.2849
   32.790    1.2533
   32.805    1.2954
   32.820    1.3586
   32.835    1.3586
   32.850    1.4007
   32.865    1.2849
   32.880    1.3375
   32.895    1.4429
   32.910    1.3060
   32.925    1.0742
   32.940    1.3481
   32.955    1.2744
   32.970    1.4323
   32.985    1.3586
   33.000    1.3165
   33.015    1.4007
   33.030    1.2533
   33.045    1.2322
   33.060    1.2217
   33.075    1.2322
   33.090    1.2006
   33.105    1.3902
   33.120    1.4534
   33.135    1.1585
   33.150    1.3375
   33.165    1.3481
   33.180    1.2322
   33.195    1.3481
   33.210    1.2112
   33.225    1.2112
   33.240    1.2533
   33.255    1.2849
   33.270    1.3375
   33.285    1.1901
   33.300    1.2638
   33.315    1.3270
   33.330    1.4323
   33.345    1.4850
   33.360    1.3165
   33.375    1.2849
   33.390    1.3691
   33.405    1.3375
   33.420    1.2006
   33.435    1.2217
   33.450    1.2217
   33.465    1.2217
   33.480    1.2849
   33.495    1.3586
   33.510    1.3060
   33.525    1.3375
   33.540    1.2744
   33.555    1.2322
   33.570    1.2322
   33.585    1.3060
   33.600    1.2217
   33.615    1.2744
   33.630    1.2849
   33.645    1.0742
   33.660    1.0637
   33.675    1.1901
   33.690    1.4429
   33.705    1.3060
   33.720    1.3586
   33.735    1.4534
   33.750    1.3691
   33.765    1.3270
   33.780    1.6746
   33.795    1.8325
   33.810    1.8431
   33.825    2.1590
   33.840    2.1485
   33.855    1.9800
   33.870    1.6114
   33.885    1.6219
   33.900    1.6324
   33.915    1.4639
   33.930    1.2217
   33.945    1.5587
   33.960    1.6008
   33.975    1.3270
   33.990    1.3165
   34.005    1.2533
   34.020    1.1901
   34.035    1.1690
   34.050    1.2954
   34.065    1.2638
   34.080    1.2112
   34.095    1.3375
   34.110    1.3060
   34.125    1.0848
   34.140    1.1901
   34.155    1.3375
   34.170    1.2322
   34.185    1.1164
   34.200    1.1585
   34.215    1.1480
   34.230    1.3375
   34.245    1.2006
   34.260    1.1164
   34.275    1.0427
   34.290    1.1796
   34.305    1.2112
   34.320    1.2533
   34.335    1.0742
   34.350    1.2849
   34.365    1.2428
   34.380    1.3375
   34.395    1.3691
   34.410    1.0742
   34.425    1.0848
   34.440    1.2112
   34.455    1.2112
   34.470    1.1164
   34.485    1.3270
   34.500    1.1374
   34.515    1.2744
   34.530    1.2428
   34.545    1.3165
   34.560    1.0742
   34.575    1.1058
   34.590    1.0532
   34.605    1.2217
   34.620    1.2428
   34.635    1.1796
   34.650    1.1796
   34.665    1.3270
   34.680    1.3165
   34.695    1.0742
   34.710    1.0216
   34.725    1.1585
   34.740    1.1269
   34.755    1.2322
   34.770    1.2744
   34.785    1.3165
   34.800    1.1269
   34.815    1.3060
   34.830    1.2112
   34.845    1.1058
   34.860    1.1480
   34.875    1.2533
   34.890    1.2217
   34.905    1.2954
   34.920    1.2744
   34.935    1.2322
   34.950    1.2112
   34.965    1.2744
   34.980    1.3902
   34.995    1.2744
   35.010    1.2954
   35.025    1.2006
   35.040    1.2533
   35.055    1.0953
   35.070    1.1058
   35.085    1.2322
   35.100    1.0953
   35.115    1.1374
   35.130    1.2533
   35.145    1.2638
   35.160    1.2428
   35.175    1.3481
   35.190    1.2638
   35.205    1.1269
   35.220    1.1690
   35.235    1.0637
   35.250    1.0427
   35.265    1.1269
   35.280    1.0742
   35.295    1.2217
   35.310    1.1374
   35.325    1.0953
   35.340    1.1164
   35.355    1.0742
   35.370    1.1058
   35.385    1.1269
   35.400    1.3165
   35.415    1.0427
   35.430    1.0532
   35.445    1.1585
   35.460    1.3375
   35.475    1.1901
   35.490    1.1058
   35.505    1.2533
   35.520    1.1058
   35.535    0.9795
   35.550    1.2428
   35.565    1.1269
   35.580    1.1690
   35.595    0.9900
   35.610    1.0111
   35.625    1.1374
   35.640    1.1480
   35.655    1.3270
   35.670    1.1058
   35.685    1.0953
   35.700    1.2638
   35.715    1.3902
   35.730    1.2744
   35.745    1.3270
   35.760    1.2322
   35.775    1.0742
   35.790    1.1269
   35.805    1.2638
   35.820    1.1480
   35.835    1.1585
   35.850    1.2217
   35.865    1.1164
   35.880    1.2112
   35.895    1.2112
   35.910    1.2744
   35.925    1.2112
   35.940    1.1690
   35.955    1.3691
   35.970    1.2849
   35.985    1.2217
   36.000    1.2533
   36.015    1.0111
   36.030    1.1374
   36.045    1.0742
   36.060    1.1058
   36.075    1.0637
   36.090    0.9163
   36.105    1.0742
   36.120    1.0005
   36.135    1.2638
   36.150    1.1480
   36.165    1.0742
   36.180    1.1901
   36.195    1.2006
   36.210    1.0848
   36.225    1.2112
   36.240    1.1585
   36.255    1.1164
   36.270    1.2638
   36.285    1.3060
   36.300    1.1269
   36.315    1.1480
   36.330    1.2322
   36.345    1.3375
   36.360    1.1374
   36.375    1.3270
   36.390    1.3586
   36.405    1.2217
   36.420    1.0742
   36.435    1.1901
   36.450    1.2849
   36.465    1.1374
   36.480    1.0742
   36.495    1.0742
   36.510    1.0321
   36.525    1.0111
   36.540    1.0005
   36.555    1.1164
   36.570    1.1796
   36.585    1.1585
   36.600    1.2322
   36.615    1.1690
   36.630    1.0427
   36.645    1.1480
   36.660    1.1164
   36.675    1.3691
   36.690    1.1690
   36.705    1.0427
   36.720    1.0532
   36.735    1.1585
   36.750    1.2954
   36.765    1.0953
   36.780    1.2006
   36.795    1.0216
   36.810    1.1690
   36.825    1.1690
   36.840    1.2638
   36.855    1.2006
   36.870    1.0111
   36.885    1.0005
   36.900    1.0532
   36.915    1.0532
   36.930    1.1585
   36.945    1.1690
   36.960    1.2112
   36.975    1.1164
   36.990    1.2322
   37.005    1.1374
   37.020    1.0742
   37.035    0.9373
   37.050    1.0637
   37.065    1.0848
   37.080    1.2638
   37.095    1.0742
   37.110    1.1058
   37.125    1.1796
   37.140    1.1796
   37.155    1.0005
   37.170    1.0321
   37.185    1.2744
   37.200    1.0321
   37.215    1.0321
   37.230    1.1690
   37.245    1.0532
   37.260    1.0321
   37.275    1.0005
   37.290    0.8847
   37.305    1.0637
   37.320    1.1480
   37.335    1.1058
   37.350    0.9479
   37.365    1.0111
   37.380    1.2638
   37.395    1.1269
   37.410    1.0742
   37.425    1.1058
   37.440    1.1480
   37.455    1.0742
   37.470    1.1164
   37.485    1.0742
   37.500    1.0427
   37.515    1.2428
   37.530    1.1058
   37.545    1.1690
   37.560    1.1690
   37.575    1.1058
   37.590    1.0532
   37.605    1.0005
   37.620    1.0216
   37.635    0.9900
   37.650    0.9689
   37.665    1.0321
   37.680    1.0321
   37.695    1.0532
   37.710    1.2006
   37.725    1.2533
   37.740    1.1796
   37.755    1.0427
   37.770    1.0848
   37.785    1.1690
   37.800    1.1269
   37.815    1.1901
   37.830    1.0848
   37.845    1.0742
   37.860    1.1164
   37.875    1.0005
   37.890    1.0742
   37.905    1.1585
   37.920    1.0321
   37.935    0.9373
   37.950    1.2112
   37.965    1.1585
   37.980    1.0742
   37.995    1.1058
   38.010    1.0111
   38.025    1.0742
   38.040    1.0532
   38.055    1.0427
   38.070    1.0848
   38.085    1.0111
   38.100    1.0321
   38.115    1.1480
   38.130    0.9268
   38.145    1.0848
   38.160    1.1374
   38.175    1.1374
   38.190    1.0742
   38.205    0.9795
   38.220    1.2217
   38.235    1.1585
   38.250    1.1796
   38.265    1.2112
   38.280    1.0005
   38.295    1.1164
   38.310    1.0427
   38.325    1.1164
   38.340    1.0848
   38.355    1.1374
   38.370    1.1585
   38.385    1.3060
   38.400    1.2744
   38.415    1.0111
   38.430    1.1690
   38.445    1.0216
   38.460    1.0111
   38.475    0.9057
   38.490    1.1374
   38.505    1.0742
   38.520    1.0005
   38.535    1.0427
   38.550    1.1796
   38.565    1.4323
   38.580    1.4955
   38.595    1.4955
   38.610    1.3691
   38.625    1.2638
   38.640    1.2954
   38.655    1.2428
   38.670    1.2744
   38.685    1.1901
   38.700    1.1901
   38.715    1.1480
   38.730    1.0111
   38.745    1.1585
   38.760    1.0532
   38.775    1.0637
   38.790    1.0742
   38.805    1.0427
   38.820    1.1690
   38.835    1.1269
   38.850    1.0111
   38.865    1.0637
   38.880    1.0953
   38.895    1.1164
   38.910    1.0216
   38.925    0.9900
   38.940    1.0111
   38.955    0.9900
   38.970    1.2112
   38.985    1.1269
   39.000    1.1585
   39.015    1.0848
   39.030    1.0848
   39.045    1.1164
   39.060    0.9373
   39.075    1.0216
   39.090    0.8952
   39.105    1.0532
   39.120    1.0111
   39.135    1.1164
   39.150    1.1796
   39.165    1.1480
   39.180    1.0637
   39.195    1.0637
   39.210    1.0321
   39.225    1.0321
   39.240    0.9584
   39.255    0.9268
   39.270    0.9795
   39.285    1.0848
   39.300    0.9057
   39.315    1.0005
   39.330    0.8531
   39.345    0.9689
   39.360    1.1164
   39.375    1.1269
   39.390    1.2006
   39.405    0.9900
   39.420    1.1058
   39.435    1.0111
   39.450    0.9900
   39.465    0.9584
   39.480    0.9900
   39.495    0.9795
   39.510    1.0953
   39.525    1.1269
   39.540    0.8847
   39.555    0.9900
   39.570    1.1480
   39.585    1.1058
   39.600    1.1058
   39.615    0.9373
   39.630    0.9900
   39.645    0.9900
   39.660    1.0216
   39.675    0.9795
   39.690    1.0005
   39.705    1.0532
   39.720    1.0953
   39.735    0.9057
   39.750    1.0111
   39.765    1.1058
   39.780    1.0427
   39.795    1.0005
   39.810    1.1480
   39.825    1.1690
   39.840    1.1796
   39.855    0.9373
   39.870    1.0111
   39.885    0.8952
   39.900    0.9057
   39.915    1.1796
   39.930    1.0637
   39.945    1.0216
   39.960    1.0005
   39.975    1.0216
   39.990    0.9689
