    1.500   30.0685
    1.515   30.1843
    1.530   29.9526
    1.545   29.4576
    1.560   27.8462
    1.575   28.2043
    1.590   28.1095
    1.605   27.3407
    1.620   27.3723
    1.635   26.7509
    1.650   26.3718
    1.665   25.8557
    1.680   25.3397
    1.695   25.3607
    1.710   25.4239
    1.725   25.0237
    1.740   23.9179
    1.755   24.2233
    1.770   24.0442
    1.785   23.7388
    1.800   23.5808
    1.815   23.8652
    1.830   23.6862
    1.845   23.7493
    1.860   23.0648
    1.875   22.6330
    1.890   21.8641
    1.905   21.5692
    1.920   22.2538
    1.935   21.1796
    1.950   21.8220
    1.965   22.1064
    1.980   20.8741
    1.995   21.9273
    2.010   20.8215
    2.025   20.7899
    2.040   20.3370
    2.055   21.0743
    2.070   20.8741
    2.085   21.0321
    2.100   20.5477
    2.115   20.0737
    2.130   20.9057
    2.145   20.7162
    2.160   20.5161
    2.175   21.1058
    2.190   20.9900
    2.205   21.1480
    2.220   21.1374
    2.235   20.7056
    2.250   21.2006
    2.265   21.5377
    2.280   21.2322
    2.295   21.4639
    2.310   21.2954
    2.325   21.9800
    2.340   21.5377
    2.355   21.3165
    2.370   21.7694
    2.385   22.0432
    2.400   22.1801
    2.415   22.3170
    2.430   22.8752
    2.445   23.3386
    2.460   22.9068
    2.475   23.2333
    2.490   23.3597
    2.505   22.9700
    2.520   24.4339
    2.535   24.6024
    2.550   25.0132
    2.565   25.4028
    2.580   24.7183
    2.595   24.7815
    2.610   26.0769
    2.625   26.4455
    2.640   25.8452
    2.655   26.5929
    2.670   27.7830
    2.685   27.6251
    2.700   28.7625
    2.715   28.3518
    2.730   29.2259
    2.745   30.0369
    2.760   29.8473
    2.775   29.4997
    2.790   30.6477
    2.805   32.1116
    2.820   31.8167
    2.835   32.7646
    2.850   34.2075
    2.865   33.4808
    2.880   35.1553
    2.895   35.9874
    2.910   36.9352
    2.925   37.5671
    2.940   40.1790
    2.955   40.1369
    2.970   41.4639
    2.985   41.8641
    3.000   43.8863
    3.015   44.3075
    3.030   45.4766
    3.045   47.2775
    3.060   48.6361
    3.075   49.8578
    3.090   51.1322
    3.105   53.6493
    3.120   56.6298
    3.135   57.9252
    3.150   59.3049
    3.165   61.5693
    3.180   64.0653
    3.195   66.9616
    3.210   68.6572
    3.225   71.1006
    3.240   74.6919
    3.255   77.7988
    3.270   81.6324
    3.285   84.7604
    3.300   90.6161
    3.315   95.9242
    3.330   99.1153
    3.345  105.0764
    3.360  111.8273
    3.375  119.1153
    3.390  125.1922
    3.405  132.3012
    3.420  137.8831
    3.435  141.5798
    3.450  142.2538
    3.465  139.4839
    3.480  134.7551
    3.495  124.6235
    3.510  111.3744
    3.525   99.3892
    3.540   88.2570
    3.555   76.9984
    3.570   67.8884
    3.585   60.3054
    3.600   56.5982
    3.615   53.0595
    3.630   49.6156
    3.645   47.8568
    3.660   46.0874
    3.675   45.9821
    3.690   46.1822
    3.705   45.4344
    3.720   45.7188
    3.735   45.0658
    3.750   45.3397
    3.765   45.4239
    3.780   47.8673
    3.795   47.7620
    3.810   48.0463
    3.825   50.2686
    3.840   51.6061
    3.855   51.7957
    3.870   52.6593
    3.885   52.6488
    3.900   53.2807
    3.915   55.7346
    3.930   55.6714
    3.945   56.4718
    3.960   55.9768
    3.975   56.6509
    3.990   57.0616
    4.005   57.2828
    4.020   57.5987
    4.035   56.6930
    4.050   55.5872
    4.065   54.7657
    4.080   55.2291
    4.095   53.5966
    4.110   52.3012
    4.125   49.9737
    4.140   49.5629
    4.155   47.6988
    4.170   45.9821
    4.185   43.3386
    4.200   41.6324
    4.215   39.3260
    4.230   38.4939
    4.245   36.2928
    4.260   34.7551
    4.275   32.2591
    4.290   30.7952
    4.305   28.5308
    4.320   26.8878
    4.335   25.3818
    4.350   23.9600
    4.365   23.3386
    4.380   22.1485
    4.395   19.6735
    4.410   18.5993
    4.425   17.8094
    4.440   17.3144
    4.455   17.2933
    4.470   15.8926
    4.485   14.8394
    4.500   14.7446
    4.515   13.9231
    4.530   12.5540
    4.545   12.5645
    4.560   12.3433
    4.575   12.3117
    4.590   11.5008
    4.605   11.1006
    4.620   10.6372
    4.635   10.7846
    4.650    9.8262
    4.665   10.0474
    4.680   10.0369
    4.695   10.0685
    4.710    9.6051
    4.725    9.6261
    4.740    9.2048
    4.755    9.1101
    4.770    9.2786
    4.785    9.0574
    4.800    8.9521
    4.815    8.3518
    4.830    8.1622
    4.845    8.3728
    4.860    8.2886
    4.875    8.1095
    4.890    8.1201
    4.905    8.1201
    4.920    8.0147
    4.935    7.8357
    4.950    7.7409
    4.965    7.6145
    4.980    7.2459
    4.995    7.6777
    5.010    7.7199
    5.025    7.1933
    5.040    7.4250
    5.055    7.1933
    5.070    7.3512
    5.085    7.0879
    5.100    7.2880
    5.115    7.2986
    5.130    6.9300
    5.145    7.1195
    5.160    7.2565
    5.175    7.3828
    5.190    7.1511
    5.205    7.0985
    5.220    6.9616
    5.235    7.4039
    5.250    6.5613
    5.265    6.7825
    5.280    7.0774
    5.295    6.9932
    5.310    6.6351
    5.325    6.4139
    5.340    6.5298
    5.355    6.6561
    5.370    6.2138
    5.385    6.5192
    5.400    6.3823
    5.415    6.6561
    5.430    6.6140
    5.445    6.3402
    5.460    6.6456
    5.475    6.5298
    5.490    6.5192
    5.505    6.5719
    5.520    6.4560
    5.535    6.4666
    5.550    6.3402
    5.565    6.0137
    5.580    6.2454
    5.595    6.1190
    5.610    5.9926
    5.625    6.3191
    5.640    6.0032
    5.655    6.0979
    5.670    5.9505
    5.685    5.8873
    5.700    6.2665
    5.715    5.8768
    5.730    5.9610
    5.745    5.4660
    5.760    5.8978
    5.775    5.9926
    5.790    6.0137
    5.805    6.1190
    5.820    5.8347
    5.835    5.9294
    5.850    5.7820
    5.865    5.8031
    5.880    6.0664
    5.895    5.8031
    5.910    5.7399
    5.925    5.7504
    5.940    5.9926
    5.955    5.8873
    5.970    6.2033
    5.985    5.7083
    6.000    5.7609
    6.015    6.1401
    6.030    5.9716
    6.045    5.7715
    6.060    5.8031
    6.075    5.9716
    6.090    6.2559
    6.105    6.0242
    6.120    5.7293
    6.135    6.1190
    6.150    5.8557
    6.165    6.0242
    6.180    6.2770
    6.195    5.8031
    6.210    5.7715
    6.225    6.2981
    6.240    5.9189
    6.255    6.1401
    6.270    6.3296
    6.285    6.2981
    6.300    6.3507
    6.315    6.2454
    6.330    6.1822
    6.345    6.5613
    6.360    6.7825
    6.375    6.8141
    6.390    6.8562
    6.405    6.9194
    6.420    6.8246
    6.435    6.5824
    6.450    6.8036
    6.465    6.9826
    6.480    7.2986
    6.495    7.3934
    6.510    7.3512
    6.525    7.4671
    6.540    7.1090
    6.555    7.2354
    6.570    7.5513
    6.585    7.4460
    6.600    8.3623
    6.615    8.5097
    6.630    8.2359
    6.645    8.6888
    6.660    8.9205
    6.675    9.5208
    6.690    9.7946
    6.705   10.0685
    6.720   10.5003
    6.735   10.7846
    6.750   10.8373
    6.765   11.1006
    6.780   11.3639
    6.795   12.0590
    6.810   12.9226
    6.825   13.4808
    6.840   13.7019
    6.855   14.4813
    6.870   14.7130
    6.885   16.2928
    6.900   17.3144
    6.915   17.5250
    6.930   17.9674
    6.945   17.9358
    6.960   17.3986
    6.975   17.3986
    6.990   15.8715
    7.005   15.3976
    7.020   15.0079
    7.035   13.6282
    7.050   12.4803
    7.065   10.9215
    7.080   10.4265
    7.095    9.4365
    7.110    8.4466
    7.125    8.6045
    7.140    8.3202
    7.155    7.8778
    7.170    7.6567
    7.185    7.2143
    7.200    6.8352
    7.215    6.8773
    7.230    7.2565
    7.245    7.0563
    7.260    7.0142
    7.275    6.8878
    7.290    6.6667
    7.305    6.7930
    7.320    6.8984
    7.335    6.7509
    7.350    6.9300
    7.365    6.5403
    7.380    6.3823
    7.395    6.8036
    7.410    6.8352
    7.425    6.6772
    7.440    7.0879
    7.455    6.8457
    7.470    7.0879
    7.485    6.6983
    7.500    6.5087
    7.515    6.9089
    7.530    6.7088
    7.545    6.7825
    7.560    7.0669
    7.575    7.2354
    7.590    7.0458
    7.605    7.0142
    7.620    7.1617
    7.635    6.8352
    7.650    6.7825
    7.665    7.3091
    7.680    7.4144
    7.695    7.3723
    7.710    7.2038
    7.725    7.5935
    7.740    7.6251
    7.755    8.0147
    7.770    8.1306
    7.785    7.6145
    7.800    7.6251
    7.815    7.9621
    7.830    8.2570
    7.845    8.0990
    7.860    8.3412
    7.875    8.3202
    7.890    8.5624
    7.905    8.8889
    7.920    8.6783
    7.935    8.5097
    7.950    8.7414
    7.965    8.7730
    7.980    9.2048
    7.995    9.0785
    8.010    9.2259
    8.025    9.3102
    8.040    9.7525
    8.055    8.8046
    8.070    8.8468
    8.085    9.9105
    8.100    9.7736
    8.115    9.5629
    8.130    9.3102
    8.145    9.4050
    8.160    9.9210
    8.175    9.7420
    8.190    9.5629
    8.205    9.8999
    8.220   10.0369
    8.235    9.4155
    8.250    9.7736
    8.265    9.5208
    8.280    9.6998
    8.295    9.5945
    8.310    9.5735
    8.325    9.3734
    8.340    9.8262
    8.355    9.8368
    8.370    9.2786
    8.385    9.0574
    8.400    9.3944
    8.415    9.6998
    8.430    9.3628
    8.445    9.0995
    8.460    8.9837
    8.475    8.8362
    8.490    8.8994
    8.505    8.9310
    8.520    8.7414
    8.535    8.4676
    8.550    8.4676
    8.565    8.1833
    8.580    7.8357
    8.595    7.8146
    8.610    7.9621
    8.625    7.5513
    8.640    7.8146
    8.655    7.3828
    8.670    7.5197
    8.685    7.2459
    8.700    7.1827
    8.715    7.1090
    8.730    6.9194
    8.745    7.3091
    8.760    7.2565
    8.775    6.8562
    8.790    6.4244
    8.805    6.6351
    8.820    6.6456
    8.835    6.7088
    8.850    6.6667
    8.865    6.4455
    8.880    6.5087
    8.895    6.8246
    8.910    6.4560
    8.925    6.4982
    8.940    6.4666
    8.955    6.0979
    8.970    5.8662
    8.985    6.2770
    9.000    6.1295
    9.015    6.1085
    9.030    5.7609
    9.045    6.0664
    9.060    5.9505
    9.075    5.5924
    9.090    5.9294
    9.105    5.9400
    9.120    5.7083
    9.135    5.6661
    9.150    5.6872
    9.165    5.7083
    9.180    5.6767
    9.195    5.7083
    9.210    5.2975
    9.225    5.6661
    9.240    5.6767
    9.255    5.6135
    9.270    5.6345
    9.285    5.9294
    9.300    5.5503
    9.315    5.7083
    9.330    5.9294
    9.345    5.5503
    9.360    5.2870
    9.375    5.6556
    9.390    5.5187
    9.405    5.7188
    9.420    5.3923
    9.435    5.6345
    9.450    5.6345
    9.465    5.8241
    9.480    5.5819
    9.495    5.5924
    9.510    5.6240
    9.525    5.3397
    9.540    5.3397
    9.555    5.0974
    9.570    5.6767
    9.585    5.7293
    9.600    5.5503
    9.615    5.6029
    9.630    5.4344
    9.645    5.4239
    9.660    5.4555
    9.675    5.5714
    9.690    5.5819
    9.705    5.4450
    9.720    5.3712
    9.735    5.2449
    9.750    5.5187
    9.765    5.5924
    9.780    5.4028
    9.795    5.3923
    9.810    5.2975
    9.825    5.2870
    9.840    5.1922
    9.855    5.3397
    9.870    5.4344
    9.885    5.5292
    9.900    5.7504
    9.915    5.4450
    9.930    5.6345
    9.945    5.5292
    9.960    5.2870
    9.975    5.1922
    9.990    5.2554
   10.005    5.3712
   10.020    5.4134
   10.035    5.0658
   10.050    5.3186
   10.065    5.2765
   10.080    5.5608
   10.095    5.8768
   10.110    5.8031
   10.125    5.5714
   10.140    5.2765
   10.155    5.4766
   10.170    5.3502
   10.185    5.7399
   10.200    5.4660
   10.215    5.3607
   10.230    5.7293
   10.245    5.6661
   10.260    5.7293
   10.275    5.7188
   10.290    5.9294
   10.305    5.8978
   10.320    6.0242
   10.335    5.7399
   10.350    5.7293
   10.365    5.9926
   10.380    6.0874
   10.395    6.0558
   10.410    6.1717
   10.425    6.6035
   10.440    6.6667
   10.455    6.5719
   10.470    6.4455
   10.485    6.2559
   10.500    6.1822
   10.515    6.2243
   10.530    6.1717
   10.545    5.7293
   10.560    6.0348
   10.575    5.6977
   10.590    5.8136
   10.605    5.6029
   10.620    5.2765
   10.635    5.5398
   10.650    5.6872
   10.665    5.4976
   10.680    5.2870
   10.695    5.3818
   10.710    5.3712
   10.725    5.4766
   10.740    5.4450
   10.755    5.2238
   10.770    5.3607
   10.785    5.6345
   10.800    5.4239
   10.815    5.4134
   10.830    5.4239
   10.845    5.2449
   10.860    5.1395
   10.875    5.1080
   10.890    5.0237
   10.905    5.4660
   10.920    5.5082
   10.935    5.4766
   10.950    5.6556
   10.965    5.6977
   10.980    5.2133
   10.995    5.5503
   11.010    5.2659
   11.025    5.6240
   11.040    5.5714
   11.055    5.6661
   11.070    5.4871
   11.085    5.0974
   11.100    5.3818
   11.115    5.2238
   11.130    5.3607
   11.145    5.2238
   11.160    5.5819
   11.175    5.2238
   11.190    4.8657
   11.205    5.1922
   11.220    5.3397
   11.235    5.3186
   11.250    5.5187
   11.265    5.4239
   11.280    5.1395
   11.295    5.6135
   11.310    5.4239
   11.325    5.2554
   11.340    5.6029
   11.355    5.5292
   11.370    5.4344
   11.385    5.1817
   11.400    5.6240
   11.415    5.6767
   11.430    5.4239
   11.445    5.3291
   11.460    5.3923
   11.475    5.1817
   11.490    5.1080
   11.505    5.4028
   11.520    5.3607
   11.535    5.4766
   11.550    5.4134
   11.565    5.3291
   11.580    5.7820
   11.595    5.5608
   11.610    5.1922
   11.625    5.3186
   11.640    5.7399
   11.655    5.7504
   11.670    5.5608
   11.685    5.2765
   11.700    5.6345
   11.715    5.4450
   11.730    5.2238
   11.745    5.6872
   11.760    5.7715
   11.775    5.5082
   11.790    5.2449
   11.805    5.5398
   11.820    5.8768
   11.835    6.1717
   11.850    5.8241
   11.865    5.5819
   11.880    5.5608
   11.895    5.4871
   11.910    5.6872
   11.925    5.8241
   11.940    5.6451
   11.955    5.8347
   11.970    5.5819
   11.985    5.7609
   12.000    5.5608
   12.015    5.9400
   12.030    6.0664
   12.045    5.5924
   12.060    5.9716
   12.075    5.7820
   12.090    5.7188
   12.105    5.6872
   12.120    5.7925
   12.135    5.5608
   12.150    5.5924
   12.165    6.0558
   12.180    5.8347
   12.195    6.0453
   12.210    5.9294
   12.225    5.9821
   12.240    5.3818
   12.255    5.8978
   12.270    5.9926
   12.285    6.1822
   12.300    6.1190
   12.315    5.9821
   12.330    5.8347
   12.345    6.0664
   12.360    6.1190
   12.375    5.9716
   12.390    6.0032
   12.405    5.9821
   12.420    6.0137
   12.435    5.8136
   12.450    6.0979
   12.465    5.7925
   12.480    5.8136
   12.495    5.6872
   12.510    5.9821
   12.525    5.9084
   12.540    6.0558
   12.555    5.8031
   12.570    5.6451
   12.585    5.6029
   12.600    5.9926
   12.615    5.8241
   12.630    5.7925
   12.645    5.8136
   12.660    6.2454
   12.675    6.3612
   12.690    6.0558
   12.705    5.7083
   12.720    5.8452
   12.735    6.3507
   12.750    5.8136
   12.765    5.9294
   12.780    5.6872
   12.795    5.8768
   12.810    6.1401
   12.825    5.7083
   12.840    5.7715
   12.855    5.6135
   12.870    5.5292
   12.885    5.5608
   12.900    5.7188
   12.915    5.7715
   12.930    5.6661
   12.945    5.5503
   12.960    5.7504
   12.975    5.7083
   12.990    5.7293
   13.005    5.7399
   13.020    5.6661
   13.035    5.6977
   13.050    5.4660
   13.065    5.5924
   13.080    5.5924
   13.095    5.8873
   13.110    5.9189
   13.125    5.5819
   13.140    5.7609
   13.155    5.8241
   13.170    5.5503
   13.185    5.7609
   13.200    5.5924
   13.215    5.7293
   13.230    5.7083
   13.245    5.6451
   13.260    5.5398
   13.275    5.4134
   13.290    5.5292
   13.305    5.7820
   13.320    5.6977
   13.335    5.8662
   13.350    5.6240
   13.365    5.5503
   13.380    5.4766
   13.395    5.4976
   13.410    5.5714
   13.425    5.3186
   13.440    5.2975
   13.455    5.5924
   13.470    5.5082
   13.485    5.6661
   13.500    5.7609
   13.515    5.5503
   13.530    5.3397
   13.545    5.4871
   13.560    5.6767
   13.575    5.4450
   13.590    5.6240
   13.605    5.4344
   13.620    5.8452
   13.635    5.2238
   13.650    5.5714
   13.665    5.5714
   13.680    5.7083
   13.695    5.4028
   13.710    5.2554
   13.725    5.7293
   13.740    5.5714
   13.755    5.4134
   13.770    5.4871
   13.785    5.3923
   13.800    5.6135
   13.815    5.6135
   13.830    5.4134
   13.845    5.5503
   13.860    5.3502
   13.875    5.8452
   13.890    5.8768
   13.905    5.4976
   13.920    5.6977
   13.935    5.2554
   13.950    5.6135
   13.965    5.5924
   13.980    5.5608
   13.995    5.8873
   14.010    5.7188
   14.025    5.8347
   14.040    5.8557
   14.055    5.5187
   14.070    5.3081
   14.085    5.1606
   14.100    5.4660
   14.115    5.5398
   14.130    5.3712
   14.145    5.4134
   14.160    5.2975
   14.175    5.3291
   14.190    5.3397
   14.205    5.2870
   14.220    5.1606
   14.235    5.2765
   14.250    5.4344
   14.265    5.3712
   14.280    5.1290
   14.295    5.0132
   14.310    5.2975
   14.325    5.2343
   14.340    4.9184
   14.355    5.3607
   14.370    5.2449
   14.385    5.1711
   14.400    5.1922
   14.415    5.2449
   14.430    5.3291
   14.445    5.2870
   14.460    5.3397
   14.475    5.2133
   14.490    5.5292
   14.505    4.9500
   14.520    4.8868
   14.535    5.3397
   14.550    5.3502
   14.565    5.3818
   14.580    4.9816
   14.595    5.1817
   14.610    5.2975
   14.625    5.2554
   14.640    4.8025
   14.655    5.1606
   14.670    5.5924
   14.685    5.3397
   14.700    5.1606
   14.715    5.0553
   14.730    4.7815
   14.745    4.8236
   14.760    4.9605
   14.775    5.5398
   14.790    4.9289
   14.805    4.8657
   14.820    5.1606
   14.835    5.7083
   14.850    5.2765
   14.865    4.8447
   14.880    5.0553
   14.895    5.4871
   14.910    5.6556
   14.925    4.9710
   14.940    5.3397
   14.955    5.2238
   14.970    5.0448
   14.985    5.2870
   15.000    5.2765
   15.015    5.2975
   15.030    5.1922
   15.045    5.0974
   15.060    5.1395
   15.075    5.3081
   15.090    5.5608
   15.105    5.4134
   15.120    5.5819
   15.135    5.5292
   15.150    5.3186
   15.165    5.5292
   15.180    5.2133
   15.195    5.2238
   15.210    5.2449
   15.225    5.3397
   15.240    4.7815
   15.255    4.8657
   15.270    5.4239
   15.285    5.1290
   15.300    5.4028
   15.315    5.1711
   15.330    5.2027
   15.345    4.8868
   15.360    5.0658
   15.375    5.0764
   15.390    5.3186
   15.405    5.2870
   15.420    5.2027
   15.435    5.3186
   15.450    5.4450
   15.465    5.1606
   15.480    5.0237
   15.495    5.0869
   15.510    5.1080
   15.525    4.8657
   15.540    5.1290
   15.555    5.1290
   15.570    5.3712
   15.585    5.3923
   15.600    5.7925
   15.615    5.4028
   15.630    5.0026
   15.645    5.1185
   15.660    5.0448
   15.675    5.5503
   15.690    5.0342
   15.705    5.3502
   15.720    5.4660
   15.735    5.4134
   15.750    5.4028
   15.765    5.1817
   15.780    5.3081
   15.795    5.7609
   15.810    5.8347
   15.825    5.4134
   15.840    5.3712
   15.855    5.2765
   15.870    5.4028
   15.885    5.3818
   15.900    5.3712
   15.915    5.2765
   15.930    5.1290
   15.945    5.6977
   15.960    5.3186
   15.975    5.4239
   15.990    5.5398
   16.005    5.1817
   16.020    5.1817
   16.035    5.3712
   16.050    4.9605
   16.065    5.0764
   16.080    5.2554
   16.095    5.3291
   16.110    5.1290
   16.125    5.1922
   16.140    5.1606
   16.155    5.5819
   16.170    5.7399
   16.185    5.4239
   16.200    5.3397
   16.215    5.2343
   16.230    5.2659
   16.245    5.0132
   16.260    5.5608
   16.275    5.2870
   16.290    5.4134
   16.305    5.1922
   16.320    5.2343
   16.335    5.6345
   16.350    5.2975
   16.365    4.9500
   16.380    5.3291
   16.395    4.9289
   16.410    5.3291
   16.425    5.2765
   16.440    5.1395
   16.455    4.9816
   16.470    4.8973
   16.485    5.3502
   16.500    5.2975
   16.515    5.4660
   16.530    5.6345
   16.545    5.4450
   16.560    4.9078
   16.575    5.1922
   16.590    5.2343
   16.605    5.3923
   16.620    5.0764
   16.635    5.4239
   16.650    5.1080
   16.665    5.1185
   16.680    5.4871
   16.695    5.5187
   16.710    4.9184
   16.725    5.0553
   16.740    5.0553
   16.755    4.9289
   16.770    4.8763
   16.785    5.0974
   16.800    5.0869
   16.815    5.0869
   16.830    5.1290
   16.845    5.4976
   16.860    5.2343
   16.875    5.5819
   16.890    5.3607
   16.905    5.1501
   16.920    5.2238
   16.935    5.2975
   16.950    5.0974
   16.965    5.3502
   16.980    5.3607
   16.995    5.1922
   17.010    5.5082
   17.025    5.2027
   17.040    4.8657
   17.055    5.0553
   17.070    5.0658
   17.085    4.7288
   17.100    4.8973
   17.115    5.1185
   17.130    5.3502
   17.145    5.3502
   17.160    5.2659
   17.175    5.2554
   17.190    5.0553
   17.205    5.3502
   17.220    5.4134
   17.235    5.2238
   17.250    5.1290
   17.265    4.9184
   17.280    5.4660
   17.295    5.2238
   17.310    5.0448
   17.325    5.3923
   17.340    4.9710
   17.355    5.1606
   17.370    5.3502
   17.385    5.2554
   17.400    4.9816
   17.415    5.3607
   17.430    5.6767
   17.445    5.8031
   17.460    5.2449
   17.475    4.9078
   17.490    5.1290
   17.505    5.3397
   17.520    4.8657
   17.535    5.3081
   17.550    5.1711
   17.565    5.3397
   17.580    5.3291
   17.595    5.1501
   17.610    5.4555
   17.625    5.4239
   17.640    5.3923
   17.655    5.3712
   17.670    5.2027
   17.685    5.0448
   17.700    5.1922
   17.715    5.5924
   17.730    5.1501
   17.745    5.0448
   17.760    5.3502
   17.775    5.2659
   17.790    4.9500
   17.805    5.3607
   17.820    5.2449
   17.835    5.2449
   17.850    5.0974
   17.865    5.3607
   17.880    5.0869
   17.895    5.6661
   17.910    5.7609
   17.925    5.8031
   17.940    5.4555
   17.955    5.3502
   17.970    5.6240
   17.985    5.1395
   18.000    5.6451
   18.015    5.3607
   18.030    5.3818
   18.045    5.5819
   18.060    5.5608
   18.075    5.5608
   18.090    5.2343
   18.105    5.0342
   18.120    5.1606
   18.135    5.1185
   18.150    4.8447
   18.165    5.2238
   18.180    5.4976
   18.195    5.1290
   18.210    4.8025
   18.225    5.5082
   18.240    4.9394
   18.255    5.4344
   18.270    5.4450
   18.285    5.6240
   18.300    5.1395
   18.315    5.2449
   18.330    5.0553
   18.345    5.5819
   18.360    5.3081
   18.375    5.3712
   18.390    5.2659
   18.405    5.1290
   18.420    5.2975
   18.435    5.4134
   18.450    5.6767
   18.465    5.7399
   18.480    5.3081
   18.495    5.2975
   18.510    5.4766
   18.525    5.8241
   18.540    5.5292
   18.555    5.1711
   18.570    5.2343
   18.585    5.4660
   18.600    5.3712
   18.615    5.7293
   18.630    5.4766
   18.645    4.9078
   18.660    5.3818
   18.675    5.4239
   18.690    5.1080
   18.705    5.4976
   18.720    5.5082
   18.735    5.3923
   18.750    5.3712
   18.765    5.3607
   18.780    5.7293
   18.795    5.4134
   18.810    5.3607
   18.825    5.3397
   18.840    5.1501
   18.855    5.4555
   18.870    5.2975
   18.885    5.3397
   18.900    4.8763
   18.915    5.2554
   18.930    5.5082
   18.945    5.7188
   18.960    5.1922
   18.975    5.0342
   18.990    5.4976
   19.005    5.5503
   19.020    5.5924
   19.035    5.1922
   19.050    5.2870
   19.065    5.6029
   19.080    5.2659
   19.095    5.3291
   19.110    5.4555
   19.125    5.5924
   19.140    5.1290
   19.155    5.4344
   19.170    5.5187
   19.185    5.5082
   19.200    5.6556
   19.215    5.3397
   19.230    5.4450
   19.245    5.4871
   19.260    5.5082
   19.275    5.4555
   19.290    5.7188
   19.305    5.2765
   19.320    5.2449
   19.335    5.6135
   19.350    5.3818
   19.365    5.4344
   19.380    5.5503
   19.395    5.5714
   19.410    5.5924
   19.425    5.4976
   19.440    5.8031
   19.455    5.3502
   19.470    5.4344
   19.485    5.3186
   19.500    5.6029
   19.515    5.7293
   19.530    5.5398
   19.545    5.4555
   19.560    5.6872
   19.575    6.0137
   19.590    5.9610
   19.605    5.3502
   19.620    5.6767
   19.635    5.9189
   19.650    5.8241
   19.665    6.1717
   19.680    5.6977
   19.695    5.8031
   19.710    5.9926
   19.725    5.6029
   19.740    5.4976
   19.755    5.7188
   19.770    5.7715
   19.785    5.4871
   19.800    5.8662
   19.815    6.0348
   19.830    5.6872
   19.845    6.0242
   19.860    6.3086
   19.875    5.7820
   19.890    5.7925
   19.905    5.7820
   19.920    5.8136
   19.935    5.9189
   19.950    5.9821
   19.965    5.9189
   19.980    5.8452
   19.995    5.7293
   20.010    5.6135
   20.025    5.7925
   20.040    5.9189
   20.055    5.8978
   20.070    5.9400
   20.085    6.1717
   20.100    5.7925
   20.115    5.9505
   20.130    6.2138
   20.145    6.2349
   20.160    5.6345
   20.175    5.8978
   20.190    6.1611
   20.205    5.8873
   20.220    5.6135
   20.235    6.0769
   20.250    6.0874
   20.265    6.2875
   20.280    6.2138
   20.295    6.1085
   20.310    5.7609
   20.325    5.6977
   20.340    5.6029
   20.355    5.9716
   20.370    6.0348
   20.385    6.2243
   20.400    5.6767
   20.415    5.7609
   20.430    5.8347
   20.445    5.8557
   20.460    5.7399
   20.475    5.6661
   20.490    5.9610
   20.505    5.6872
   20.520    5.6240
   20.535    5.7820
   20.550    5.7399
   20.565    6.0032
   20.580    5.8873
   20.595    5.8978
   20.610    5.7293
   20.625    5.4766
   20.640    5.9610
   20.655    6.0874
   20.670    5.8347
   20.685    5.6135
   20.700    5.5398
   20.715    5.6135
   20.730    5.8978
   20.745    5.6556
   20.760    5.3607
   20.775    5.6029
   20.790    5.8347
   20.805    5.5608
   20.820    5.9716
   20.835    5.6661
   20.850    5.8557
   20.865    5.7188
   20.880    5.6872
   20.895    5.9084
   20.910    6.1611
   20.925    6.3296
   20.940    5.6556
   20.955    6.1611
   20.970    6.3718
   20.985    6.2454
   21.000    6.0664
   21.015    5.8662
   21.030    6.1190
   21.045    5.8347
   21.060    5.7925
   21.075    6.0769
   21.090    5.7504
   21.105    5.9189
   21.120    5.7293
   21.135    5.8557
   21.150    5.8241
   21.165    5.9189
   21.180    5.8768
   21.195    5.8768
   21.210    6.0979
   21.225    5.9505
   21.240    5.8347
   21.255    5.4871
   21.270    5.5082
   21.285    5.9610
   21.300    5.7399
   21.315    5.4871
   21.330    5.8662
   21.345    5.8768
   21.360    5.8241
   21.375    5.5819
   21.390    6.1822
   21.405    6.0242
   21.420    5.6556
   21.435    5.9610
   21.450    6.1085
   21.465    5.7925
   21.480    6.0032
   21.495    5.7715
   21.510    5.8557
   21.525    5.8768
   21.540    5.7609
   21.555    5.9400
   21.570    5.6872
   21.585    5.5608
   21.600    5.9084
   21.615    5.9189
   21.630    5.8241
   21.645    5.7925
   21.660    5.7609
   21.675    6.3612
   21.690    5.8031
   21.705    5.5503
   21.720    5.8031
   21.735    5.5503
   21.750    6.2138
   21.765    5.6767
   21.780    5.8452
   21.795    5.7293
   21.810    5.9926
   21.825    5.7399
   21.840    5.9294
   21.855    5.6240
   21.870    6.0242
   21.885    5.6240
   21.900    5.7399
   21.915    5.8136
   21.930    5.8978
   21.945    5.9610
   21.960    5.8136
   21.975    5.8241
   21.990    5.9505
   22.005    6.0137
   22.020    5.9716
   22.035    5.8136
   22.050    5.9926
   22.065    5.8768
   22.080    5.6977
   22.095    6.0453
   22.110    5.9716
   22.125    5.9821
   22.140    6.5087
   22.155    6.3402
   22.170    5.9294
   22.185    5.8136
   22.200    6.2875
   22.215    5.7609
   22.230    5.8768
   22.245    5.9294
   22.260    5.7609
   22.275    6.0032
   22.290    6.3928
   22.305    5.8662
   22.320    5.7083
   22.335    6.0664
   22.350    6.0348
   22.365    6.1190
   22.380    6.0664
   22.395    6.3191
   22.410    6.0032
   22.425    5.6661
   22.440    5.9505
   22.455    6.3507
   22.470    6.0137
   22.485    5.5503
   22.500    5.9821
   22.515    6.0979
   22.530    6.0769
   22.545    5.9610
   22.560    6.0664
   22.575    5.7293
   22.590    5.9189
   22.605    6.2033
   22.620    5.6240
   22.635    5.8873
   22.650    5.9926
   22.665    6.0242
   22.680    6.1822
   22.695    5.6767
   22.710    5.9400
   22.725    6.1506
   22.740    6.1717
   22.755    6.1190
   22.770    5.8768
   22.785    5.7925
   22.800    5.7715
   22.815    5.8241
   22.830    5.6240
   22.845    5.8768
   22.860    5.4344
   22.875    5.7399
   22.890    5.8768
   22.905    6.0874
   22.920    5.7925
   22.935    5.4239
   22.950    5.4660
   22.965    5.9189
   22.980    5.5714
   22.995    5.4028
   23.010    5.5503
   23.025    5.8873
   23.040    6.0348
   23.055    5.8347
   23.070    5.6345
   23.085    5.4766
   23.100    6.1190
   23.115    5.5819
   23.130    6.0137
   23.145    5.7293
   23.160    5.6029
   23.175    5.6345
   23.190    5.6767
   23.205    5.8873
   23.220    6.0242
   23.235    5.4660
   23.250    5.5082
   23.265    5.9505
   23.280    6.0558
   23.295    5.7504
   23.310    5.8978
   23.325    5.6345
   23.340    5.5503
   23.355    5.5714
   23.370    5.7083
   23.385    5.6872
   23.400    5.5398
   23.415    5.4450
   23.430    5.7504
   23.445    5.2765
   23.460    5.4555
   23.475    5.7399
   23.490    5.8662
   23.505    5.2975
   23.520    5.7293
   23.535    5.7188
   23.550    5.6240
   23.565    5.8452
   23.580    5.4766
   23.595    5.5714
   23.610    5.3923
   23.625    5.6029
   23.640    5.5608
   23.655    5.5503
   23.670    5.7715
   23.685    5.7083
   23.700    5.3923
   23.715    5.8136
   23.730    5.7293
   23.745    5.6977
   23.760    5.7399
   23.775    5.9084
   23.790    5.7083
   23.805    5.6977
   23.820    5.4344
   23.835    5.6029
   23.850    5.5714
   23.865    5.4450
   23.880    5.6661
   23.895    5.4239
   23.910    5.4028
   23.925    5.5714
   23.940    5.6767
   23.955    5.7925
   23.970    5.6872
   23.985    5.3923
   24.000    5.3818
   24.015    5.4239
   24.030    5.6451
   24.045    5.6240
   24.060    5.5187
   24.075    5.3186
   24.090    5.6451
   24.105    5.8873
   24.120    5.7925
   24.135    5.5187
   24.150    5.5187
   24.165    5.3923
   24.180    5.3081
   24.195    5.4239
   24.210    5.6872
   24.225    5.5924
   24.240    5.2659
   24.255    5.5398
   24.270    5.7820
   24.285    5.7715
   24.300    5.4239
   24.315    5.6345
   24.330    5.9610
   24.345    5.6661
   24.360    5.7609
   24.375    5.3923
   24.390    5.8241
   24.405    5.8873
   24.420    5.5608
   24.435    5.6345
   24.450    5.6240
   24.465    5.6661
   24.480    5.7293
   24.495    5.4344
   24.510    5.6661
   24.525    5.6451
   24.540    5.5398
   24.555    5.5714
   24.570    5.9505
   24.585    5.9610
   24.600    5.4766
   24.615    5.4976
   24.630    5.3186
   24.645    5.4766
   24.660    5.4239
   24.675    5.6556
   24.690    5.5503
   24.705    5.4344
   24.720    5.5398
   24.735    5.6029
   24.750    5.5398
   24.765    5.3818
   24.780    5.4766
   24.795    5.6345
   24.810    5.8031
   24.825    5.6872
   24.840    5.4660
   24.855    5.4028
   24.870    5.4028
   24.885    5.7504
   24.900    5.7188
   24.915    5.4344
   24.930    5.6135
   24.945    5.5714
   24.960    5.5187
   24.975    5.4555
   24.990    5.2238
   25.005    5.5714
   25.020    5.6240
   25.035    5.8662
   25.050    5.2870
   25.065    5.2449
   25.080    4.9184
   25.095    5.3291
   25.110    4.9816
   25.125    5.0553
   25.140    5.2975
   25.155    5.2343
   25.170    5.1395
   25.185    5.0553
   25.200    5.0237
   25.215    5.2659
   25.230    5.1185
   25.245    5.2765
   25.260    5.5608
   25.275    5.4871
   25.290    5.5187
   25.305    5.5187
   25.320    5.2870
   25.335    5.4239
   25.350    5.3397
   25.365    5.4871
   25.380    5.3923
   25.395    5.4344
   25.410    5.3291
   25.425    4.8552
   25.440    5.2975
   25.455    5.3712
   25.470    5.0974
   25.485    5.1185
   25.500    5.1080
   25.515    5.1922
   25.530    5.1185
   25.545    5.1606
   25.560    5.1185
   25.575    4.9605
   25.590    5.2133
   25.605    5.2133
   25.620    5.1711
   25.635    5.0237
   25.650    5.3502
   25.665    5.4871
   25.680    5.1711
   25.695    5.3291
   25.710    5.2975
   25.725    5.4344
   25.740    5.3923
   25.755    5.2133
   25.770    5.4028
   25.785    5.4134
   25.800    5.3186
   25.815    5.4134
   25.830    5.1080
   25.845    5.0658
   25.860    5.0974
   25.875    5.0658
   25.890    4.9710
   25.905    5.0658
   25.920    5.0342
   25.935    5.2975
   25.950    5.2554
   25.965    5.1080
   25.980    5.0448
   25.995    5.4555
   26.010    4.8131
   26.025    5.1501
   26.040    5.4134
   26.055    4.8657
   26.070    5.0448
   26.085    5.0026
   26.100    4.8868
   26.115    4.8973
   26.130    5.1290
   26.145    5.0132
   26.160    5.0132
   26.175    4.6972
   26.190    4.8973
   26.205    4.9184
   26.220    5.1395
   26.235    4.9289
   26.250    5.0764
   26.265    5.2027
   26.280    4.8763
   26.295    4.8447
   26.310    5.2027
   26.325    5.0658
   26.340    5.3607
   26.355    5.3291
   26.370    5.0974
   26.385    4.9184
   26.400    5.2975
   26.415    5.2449
   26.430    4.9289
   26.445    4.6867
   26.460    5.0658
   26.475    4.8025
   26.490    5.1080
   26.505    5.1606
   26.520    5.1080
   26.535    4.9289
   26.550    5.1395
   26.565    4.9500
   26.580    5.1711
   26.595    4.9921
   26.610    4.6867
   26.625    4.6024
   26.640    4.7709
   26.655    5.0132
   26.670    5.2238
   26.685    4.8657
   26.700    4.9500
   26.715    4.8131
   26.730    4.7920
   26.745    5.0448
   26.760    5.3818
   26.775    5.0658
   26.790    4.8657
   26.805    4.6867
   26.820    4.6551
   26.835    4.7709
   26.850    5.1395
   26.865    4.9921
   26.880    5.1080
   26.895    4.9184
   26.910    5.0553
   26.925    4.8763
   26.940    4.7920
   26.955    5.0658
   26.970    5.4134
   26.985    5.3712
   27.000    5.0026
   27.015    5.2554
   27.030    5.2133
   27.045    5.0132
   27.060    4.8131
   27.075    4.6972
   27.090    4.9816
   27.105    4.8236
   27.120    4.8341
   27.135    5.0237
   27.150    4.8236
   27.165    4.8657
   27.180    4.9500
   27.195    4.9078
   27.210    4.7920
   27.225    4.9816
   27.240    4.7288
   27.255    4.9184
   27.270    4.6340
   27.285    4.9289
   27.300    4.9289
   27.315    4.9394
   27.330    4.9710
   27.345    5.1290
   27.360    5.0026
   27.375    5.2027
   27.390    4.8025
   27.405    4.8025
   27.420    4.9184
   27.435    5.2343
   27.450    4.5498
   27.465    4.7077
   27.480    4.5498
   27.495    4.6024
   27.510    4.6972
   27.525    4.7288
   27.540    4.7709
   27.555    4.6130
   27.570    4.9816
   27.585    5.0342
   27.600    4.9921
   27.615    4.9289
   27.630    4.4550
   27.645    4.6761
   27.660    5.0026
   27.675    4.8657
   27.690    5.0026
   27.705    4.7920
   27.720    4.7920
   27.735    4.9710
   27.750    4.7920
   27.765    4.8025
   27.780    5.0448
   27.795    5.0026
   27.810    4.7393
   27.825    5.0658
   27.840    5.0448
   27.855    4.6024
   27.870    4.5287
   27.885    4.5919
   27.900    4.8973
   27.915    4.7604
   27.930    4.7920
   27.945    4.8341
   27.960    4.7709
   27.975    5.3186
   27.990    5.3186
   28.005    4.8552
   28.020    4.6656
   28.035    5.2449
   28.050    5.2238
   28.065    4.9605
   28.080    5.0658
   28.095    4.9710
   28.110    5.3923
   28.125    5.4134
   28.140    5.2765
   28.155    5.1185
   28.170    5.5608
   28.185    5.2343
   28.200    5.2238
   28.215    5.1185
   28.230    5.2449
   28.245    5.2765
   28.260    5.0342
   28.275    5.4028
   28.290    5.5503
   28.305    5.2659
   28.320    5.2133
   28.335    5.1395
   28.350    4.9500
   28.365    4.7920
   28.380    4.8447
   28.395    4.9500
   28.410    4.9816
   28.425    5.2449
   28.440    4.9394
   28.455    4.6130
   28.470    4.5919
   28.485    4.9921
   28.500    5.0026
   28.515    4.9921
   28.530    4.9078
   28.545    4.4339
   28.560    4.5498
   28.575    5.1922
   28.590    4.8131
   28.605    4.6972
   28.620    4.8025
   28.635    4.9921
   28.650    4.9605
   28.665    4.8025
   28.680    4.9184
   28.695    4.9921
   28.710    5.1711
   28.725    4.9816
   28.740    4.9289
   28.755    4.8131
   28.770    4.5182
   28.785    5.0869
   28.800    4.6656
   28.815    4.7604
   28.830    4.7288
   28.845    4.9605
   28.860    4.6761
   28.875    4.7604
   28.890    4.5603
   28.905    4.8341
   28.920    5.0237
   28.935    4.7604
   28.950    4.8868
   28.965    5.0342
   28.980    4.8025
   28.995    4.9605
   29.010    4.9605
   29.025    5.0132
   29.040    4.7604
   29.055    4.6656
   29.070    4.7604
   29.085    4.9500
   29.100    4.8657
   29.115    4.7077
   29.130    4.7288
   29.145    4.9078
   29.160    4.8025
   29.175    4.5392
   29.190    4.3707
   29.205    4.6340
   29.220    4.6656
   29.235    5.0026
   29.250    4.6024
   29.265    4.7499
   29.280    4.7393
   29.295    4.7288
   29.310    4.6445
   29.325    4.6656
   29.340    4.9921
   29.355    4.8657
   29.370    4.8973
   29.385    4.8447
   29.400    4.8025
   29.415    4.5603
   29.430    4.5708
   29.445    4.8973
   29.460    4.4023
   29.475    4.5498
   29.490    4.5498
   29.505    4.5392
   29.520    4.6445
   29.535    4.6340
   29.550    4.7815
   29.565    4.6235
   29.580    4.5814
   29.595    4.4550
   29.610    4.6972
   29.625    4.6761
   29.640    4.9710
   29.655    4.8236
   29.670    4.6761
   29.685    4.8447
   29.700    4.8025
   29.715    4.6972
   29.730    4.8131
   29.745    4.8657
   29.760    4.8025
   29.775    4.7815
   29.790    4.6972
   29.805    4.8025
   29.820    4.5919
   29.835    4.6130
   29.850    4.3707
   29.865    4.4339
   29.880    4.9816
   29.895    4.7604
   29.910    4.7815
   29.925    4.6761
   29.940    4.3181
   29.955    4.5919
   29.970    4.6024
   29.985    4.4023
   30.000    4.7288
   30.015    4.5814
   30.030    4.6130
   30.045    4.8025
   30.060    4.7499
   30.075    4.3918
   30.090    4.7815
   30.105    4.7604
   30.120    4.6972
   30.135    4.9184
   30.150    4.5814
   30.165    4.8341
   30.180    4.5182
   30.195    4.6445
   30.210    4.7499
   30.225    4.8025
   30.240    4.7920
   30.255    4.5603
   30.270    4.7815
   30.285    4.5708
   30.300    4.6024
   30.315    4.1601
   30.330    4.4339
   30.345    4.5708
   30.360    4.5919
   30.375    4.6024
   30.390    4.6235
   30.405    4.3286
   30.420    4.2865
   30.435    4.4550
   30.450    4.4339
   30.465    4.9500
   30.480    4.8341
   30.495    4.6972
   30.510    4.6551
   30.525    4.5708
   30.540    4.6340
   30.555    4.6972
   30.570    4.4339
   30.585    4.4760
   30.600    4.6024
   30.615    4.5603
   30.630    4.4550
   30.645    4.5392
   30.660    4.5919
   30.675    4.7604
   30.690    4.3707
   30.705    4.6761
   30.720    4.5919
   30.735    4.6235
   30.750    4.5076
   30.765    4.4128
   30.780    4.6130
   30.795    4.7183
   30.810    4.5392
   30.825    4.4023
   30.840    4.4128
   30.855    4.5287
   30.870    4.4128
   30.885    4.5392
   30.900    4.5603
   30.915    4.8236
   30.930    5.1080
   30.945    4.8657
   30.960    4.6972
   30.975    4.6761
   30.990    4.4339
   31.005    4.3602
   31.020    4.5498
   31.035    4.4550
   31.050    4.3707
   31.065    4.3181
   31.080    4.4023
   31.095    4.4339
   31.110    4.3707
   31.125    4.5498
   31.140    4.4023
   31.155    4.4971
   31.170    4.6130
   31.185    4.3075
   31.200    4.2759
   31.215    4.6024
   31.230    4.4971
   31.245    4.3707
   31.260    4.3391
   31.275    4.6867
   31.290    4.4760
   31.305    4.3918
   31.320    4.6130
   31.335    4.7077
   31.350    4.6656
   31.365    4.9605
   31.380    4.8131
   31.395    4.6656
   31.410    4.4655
   31.425    4.9394
   31.440    4.2759
   31.455    4.4655
   31.470    4.4023
   31.485    4.5392
   31.500    4.8447
   31.515    4.6024
   31.530    4.3391
   31.545    4.4866
   31.560    4.4444
   31.575    4.3075
   31.590    4.5182
   31.605    4.9605
   31.620    4.5182
   31.635    4.5814
   31.650    4.5498
   31.665    4.4760
   31.680    4.5814
   31.695    4.4339
   31.710    4.4655
   31.725    4.3075
   31.740    4.5287
   31.755    4.5498
   31.770    4.6972
   31.785    4.8131
   31.800    4.3075
   31.815    4.6551
   31.830    4.8236
   31.845    4.7183
   31.860    4.4655
   31.875    4.6445
   31.890    4.4971
   31.905    4.2759
   31.920    4.6972
   31.935    4.6656
   31.950    4.3813
   31.965    4.7393
   31.980    4.3497
   31.995    4.4760
   32.010    4.5498
   32.025    4.4655
   32.040    4.5287
   32.055    4.3918
   32.070    4.5814
   32.085    4.7183
   32.100    4.4866
   32.115    4.1811
   32.130    4.6235
   32.145    4.4444
   32.160    4.4128
   32.175    4.6551
   32.190    4.5076
   32.205    4.3813
   32.220    4.7077
   32.235    4.6551
   32.250    4.2443
   32.265    4.4550
   32.280    4.9289
   32.295    4.4971
   32.310    4.1706
   32.325    4.4339
   32.340    4.3286
   32.355    4.4971
   32.370    4.4128
   32.385    4.3181
   32.400    4.4760
   32.415    4.7288
   32.430    4.2549
   32.445    4.3707
   32.460    4.1496
   32.475    4.4023
   32.490    4.3707
   32.505    4.2654
   32.520    4.3286
   32.535    4.3918
   32.550    4.2759
   32.565    4.1496
   32.580    4.1601
   32.595    4.3075
   32.610    4.5814
   32.625    4.0969
   32.640    4.2970
   32.655    4.4339
   32.670    4.3602
   32.685    4.2654
   32.700    4.2549
   32.715    4.3391
   32.730    4.6551
   32.745    4.5182
   32.760    4.1285
   32.775    4.2759
   32.790    4.5708
   32.805    4.5603
   32.820    4.4655
   32.835    4.4023
   32.850    3.9494
   32.865    4.2022
   32.880    4.2970
   32.895    4.1180
   32.910    4.3391
   32.925    4.4760
   32.940    4.3918
   32.955    4.4550
   32.970    4.0442
   32.985    4.1811
   33.000    3.9494
   33.015    3.9389
   33.030    4.3391
   33.045    4.3497
   33.060    4.3497
   33.075    4.1601
   33.090    4.1285
   33.105    4.3602
   33.120    4.0758
   33.135    4.0653
   33.150    4.1706
   33.165    4.3602
   33.180    4.0969
   33.195    3.9494
   33.210    4.0864
   33.225    4.1917
   33.240    4.4339
   33.255    4.4128
   33.270    4.2022
   33.285    3.8125
   33.300    4.2338
   33.315    3.8125
   33.330    4.1917
   33.345    4.6445
   33.360    4.2127
   33.375    4.1917
   33.390    3.8968
   33.405    4.1917
   33.420    4.2022
   33.435    4.1285
   33.450    4.2127
   33.465    4.2338
   33.480    4.5076
   33.495    4.1180
   33.510    4.1601
   33.525    4.2022
   33.540    4.1917
   33.555    4.3075
   33.570    4.0969
   33.585    4.2233
   33.600    3.9600
   33.615    4.1917
   33.630    4.0232
   33.645    4.4444
   33.660    4.3286
   33.675    4.3181
   33.690    4.1601
   33.705    3.9600
   33.720    4.2865
   33.735    4.3707
   33.750    4.2022
   33.765    4.4234
   33.780    4.7183
   33.795    4.4023
   33.810    4.1706
   33.825    4.0548
   33.840    4.2127
   33.855    4.2654
   33.870    4.1390
   33.885    4.3075
   33.900    4.3181
   33.915    4.1180
   33.930    3.7599
   33.945    4.1074
   33.960    4.3707
   33.975    4.1496
   33.990    3.8441
   34.005    3.9494
   34.020    3.9179
   34.035    4.2865
   34.050    4.0864
   34.065    4.0864
   34.080    4.0126
   34.095    4.1074
   34.110    4.1917
   34.125    4.3181
   34.140    4.2865
   34.155    4.2233
   34.170    4.2233
   34.185    4.2022
   34.200    3.9600
   34.215    3.8336
   34.230    4.1390
   34.245    4.1180
   34.260    3.9810
   34.275    3.8652
   34.290    4.0442
   34.305    4.2970
   34.320    4.0864
   34.335    4.1074
   34.350    4.2233
   34.365    4.0969
   34.380    4.2022
   34.395    3.9705
   34.410    4.0969
   34.425    3.8125
   34.440    3.8968
   34.455    4.3286
   34.470    4.0232
   34.485    4.0864
   34.500    4.2654
   34.515    3.9810
   34.530    3.9073
   34.545    3.8968
   34.560    3.9600
   34.575    4.0337
   34.590    3.6019
   34.605    3.7493
   34.620    3.7809
   34.635    3.9810
   34.650    3.9284
   34.665    3.8968
   34.680    3.9494
   34.695    4.1390
   34.710    3.7493
   34.725    4.0232
   34.740    3.9916
   34.755    3.7177
   34.770    3.8020
   34.785    3.9705
   34.800    4.1496
   34.815    4.0548
   34.830    4.1285
   34.845    4.0653
   34.860    3.7915
   34.875    3.9916
   34.890    4.0548
   34.905    4.1390
   34.920    4.2970
   34.935    4.3181
   34.950    4.1074
   34.965    4.0758
   34.980    4.0021
   34.995    3.8863
   35.010    4.2865
   35.025    3.9810
   35.040    3.9284
   35.055    3.8336
   35.070    3.9494
   35.085    3.9179
   35.100    3.8652
   35.115    4.1601
   35.130    4.0442
   35.145    4.1496
   35.160    4.1180
   35.175    3.9389
   35.190    4.1706
   35.205    4.1390
   35.220    3.8968
   35.235    4.0232
   35.250    3.7283
   35.265    4.1390
   35.280    4.0442
   35.295    4.1285
   35.310    4.2759
   35.325    4.1285
   35.340    3.8757
   35.355    4.2127
   35.370    3.8757
   35.385    4.0232
   35.400    4.0653
   35.415    4.0864
   35.430    3.9494
   35.445    3.9073
   35.460    4.0758
   35.475    3.6756
   35.490    3.7072
   35.505    4.0126
   35.520    4.2865
   35.535    3.8336
   35.550    3.9916
   35.565    4.0021
   35.580    3.9073
   35.595    4.0021
   35.610    4.3181
   35.625    3.9389
   35.640    4.1390
   35.655    3.7809
   35.670    3.8231
   35.685    4.0548
   35.700    4.1706
   35.715    3.8231
   35.730    4.0126
   35.745    3.8336
   35.760    3.8231
   35.775    3.8757
   35.790    3.9494
   35.805    3.6546
   35.820    3.9179
   35.835    3.7809
   35.850    3.8441
   35.865    3.9179
   35.880    4.0758
   35.895    4.1496
   35.910    4.0337
   35.925    3.6756
   35.940    3.7599
   35.955    4.1601
   35.970    4.0337
   35.985    4.0548
   36.000    4.0126
   36.015    3.9284
   36.030    3.7283
   36.045    3.8336
   36.060    4.0337
   36.075    4.0864
   36.090    4.2654
   36.105    3.7704
   36.120    3.7072
   36.135    3.4439
   36.150    3.8125
   36.165    3.8863
   36.180    4.1917
   36.195    4.1496
   36.210    3.8020
   36.225    3.6019
   36.240    3.8336
   36.255    3.8757
   36.270    3.8441
   36.285    3.9494
   36.300    3.9179
   36.315    3.9073
   36.330    3.8863
   36.345    3.8863
   36.360    3.7388
   36.375    3.7915
   36.390    3.4966
   36.405    3.9705
   36.420    3.9179
   36.435    3.4650
   36.450    3.8125
   36.465    4.0442
   36.480    3.8757
   36.495    4.0758
   36.510    4.1285
   36.525    3.9284
   36.540    4.0969
   36.555    3.8652
   36.570    3.5387
   36.585    3.7915
   36.600    3.7388
   36.615    3.6967
   36.630    3.8757
   36.645    3.7704
   36.660    3.8020
   36.675    3.9600
   36.690    4.0337
   36.705    3.9916
   36.720    3.6967
   36.735    3.6440
   36.750    3.8336
   36.765    3.7915
   36.780    3.4966
   36.795    3.7599
   36.810    3.6546
   36.825    3.9705
   36.840    3.9705
   36.855    4.1180
   36.870    3.8863
   36.885    3.6862
   36.900    3.9916
   36.915    3.7072
   36.930    3.9073
   36.945    3.8441
   36.960    4.0548
   36.975    4.0337
   36.990    3.6546
   37.005    3.7704
   37.020    3.7704
   37.035    3.6546
   37.050    3.9284
   37.065    3.8547
   37.080    3.8863
   37.095    3.6335
   37.110    3.7599
   37.125    3.6335
   37.140    3.8125
   37.155    3.8336
   37.170    3.8231
   37.185    3.7283
   37.200    3.6124
   37.215    3.8125
   37.230    3.7599
   37.245    4.1390
   37.260    4.0653
   37.275    4.1180
   37.290    3.6230
   37.305    3.7704
   37.320    3.7388
   37.335    3.7809
   37.350    4.0864
   37.365    3.5914
   37.380    3.8020
   37.395    3.6230
   37.410    3.7283
   37.425    3.8125
   37.440    3.9494
   37.455    3.8125
   37.470    3.6756
   37.485    3.8125
   37.500    3.5808
   37.515    3.5703
   37.530    3.8547
   37.545    4.1074
   37.560    3.8652
   37.575    3.7704
   37.590    3.9810
   37.605    3.7704
   37.620    3.6546
   37.635    3.8757
   37.650    3.8020
   37.665    3.5282
   37.680    3.5598
   37.695    3.5703
   37.710    3.6124
   37.725    3.5282
   37.740    3.7809
   37.755    3.7493
   37.770    3.8125
   37.785    3.8336
   37.800    3.8441
   37.815    3.7915
   37.830    3.6124
   37.845    3.7704
   37.860    3.6440
   37.875    4.0021
   37.890    3.7493
   37.905    3.6756
   37.920    3.6756
   37.935    3.6546
   37.950    3.7915
   37.965    3.8125
   37.980    3.7177
   37.995    3.6967
   38.010    3.8231
   38.025    3.6124
   38.040    3.8020
   38.055    3.5387
   38.070    3.9389
   38.085    3.6335
   38.100    3.4544
   38.115    3.6756
   38.130    3.7388
   38.145    3.8441
   38.160    3.5914
   38.175    3.5598
   38.190    3.3702
   38.205    3.8652
   38.220    3.8547
   38.235    3.9494
   38.250    3.7493
   38.265    3.4229
   38.280    3.6651
   38.295    3.8125
   38.310    3.7283
   38.325    3.8020
   38.340    3.6230
   38.355    3.4229
   38.370    3.4860
   38.385    3.9284
   38.400    3.5176
   38.415    3.5071
   38.430    3.7493
   38.445    3.8863
   38.460    3.7072
   38.475    3.8863
   38.490    3.8757
   38.505    3.7072
   38.520    3.4439
   38.535    3.8863
   38.550    3.7809
   38.565    3.6546
   38.580    3.6756
   38.595    3.6230
   38.610    3.8020
   38.625    3.6335
   38.640    3.7072
   38.655    3.5914
   38.670    3.3386
   38.685    3.6967
   38.700    3.9073
   38.715    3.7493
   38.730    3.7599
   38.745    3.7177
   38.760    3.8652
   38.775    3.8231
   38.790    3.5808
   38.805    3.5598
   38.820    3.5598
   38.835    3.4018
   38.850    3.3491
   38.865    3.3807
   38.880    3.6756
   38.895    3.8652
   38.910    3.9179
   38.925    3.6756
   38.940    3.3386
   38.955    3.4860
   38.970    3.7915
   38.985    3.7493
   39.000    3.6440
   39.015    3.6967
   39.030    3.6335
   39.045    3.5703
   39.060    3.7704
   39.075    3.7388
   39.090    3.5176
   39.105    3.7915
   39.120    3.9600
   39.135    3.6862
   39.150    3.6862
   39.165    3.5387
   39.180    3.4439
   39.195    3.6440
   39.210    3.9810
   39.225    3.7915
   39.240    3.6440
   39.255    3.5914
   39.270    3.6756
   39.285    3.4229
   39.300    3.5808
   39.315    3.6546
   39.330    3.5808
   39.345    3.7704
   39.360    3.7388
   39.375    3.5387
   39.390    3.6124
   39.405    3.6124
   39.420    3.5492
   39.435    3.6546
   39.450    3.6967
   39.465    3.6756
   39.480    3.5598
   39.495    4.0232
   39.510    3.7283
   39.525    3.7599
   39.540    3.6230
   39.555    3.6651
   39.570    3.5387
   39.585    3.7599
   39.600    3.3913
   39.615    3.4544
   39.630    3.6651
   39.645    3.6230
   39.660    3.6440
   39.675    3.6862
   39.690    3.5914
   39.705    3.7388
   39.720    3.5914
   39.735    3.4229
   39.750    3.6651
   39.765    3.7388
   39.780    3.6230
   39.795    3.6230
   39.810    3.5492
   39.825    3.7177
   39.840    3.8125
   39.855    3.6756
   39.870    3.8547
   39.885    3.6546
   39.900    3.6335
   39.915    3.7177
   39.930    3.5387
   39.945    3.8336
   39.960    3.9494
   39.975    3.8757
   39.990    3.5808
