    1.500   25.2062
    1.515   25.6977
    1.530   24.7148
    1.545   23.9249
    1.560   22.9068
    1.575   23.8547
    1.590   23.2754
    1.605   22.9068
    1.620   23.3105
    1.635   22.8190
    1.650   21.6605
    1.665   20.9584
    1.680   21.0286
    1.695   21.1866
    1.710   20.2387
    1.725   20.0807
    1.740   19.3260
    1.755   18.6940
    1.770   19.1329
    1.785   19.5366
    1.800   18.5536
    1.815   18.7994
    1.830   18.8345
    1.845   19.5717
    1.860   18.5712
    1.875   17.9919
    1.890   18.2903
    1.905   18.3430
    1.920   17.5707
    1.935   17.7286
    1.950   17.2898
    1.965   16.3244
    1.980   17.4302
    1.995   17.0616
    2.010   16.4824
    2.025   16.8334
    2.040   16.6754
    2.055   16.0962
    2.070   15.9207
    2.085   16.2893
    2.100   16.3595
    2.115   17.0967
    2.130   15.7451
    2.145   14.9026
    2.160   15.5169
    2.175   15.3765
    2.190   14.9026
    2.205   14.9903
    2.220   15.6574
    2.235   15.3063
    2.250   13.9547
    2.265   14.2707
    2.280   15.6925
    2.295   14.7622
    2.310   14.5515
    2.325   15.3063
    2.340   15.5872
    2.355   14.8850
    2.370   14.7446
    2.385   15.0255
    2.400   14.7797
    2.415   15.3239
    2.430   15.3239
    2.445   14.1302
    2.460   15.7978
    2.475   14.8675
    2.490   14.6393
    2.505   14.8499
    2.520   15.6749
    2.535   15.0781
    2.550   15.1308
    2.565   15.4292
    2.580   15.3765
    2.595   15.0606
    2.610   14.4813
    2.625   15.5872
    2.640   16.0435
    2.655   15.8856
    2.670   16.0084
    2.685   15.6223
    2.700   15.6749
    2.715   15.9558
    2.730   16.2542
    2.745   17.0616
    2.760   16.2717
    2.775   16.8334
    2.790   16.3946
    2.805   17.1143
    2.820   17.0616
    2.835   16.3244
    2.850   17.5180
    2.865   17.2020
    2.880   17.3951
    2.895   18.0095
    2.910   18.4659
    2.925   18.3781
    2.940   18.5536
    2.955   18.8696
    2.970   18.6238
    2.985   18.4132
    3.000   19.9052
    3.015   20.0983
    3.030   19.7121
    3.045   19.9052
    3.060   20.1861
    3.075   20.3616
    3.090   20.8180
    3.105   20.5196
    3.120   21.8361
    3.135   22.5733
    3.150   22.5557
    3.165   23.2052
    3.180   23.0823
    3.195   23.3983
    3.210   24.3813
    3.225   25.0658
    3.240   25.6100
    3.255   25.9259
    3.270   27.4179
    3.285   27.0844
    3.300   27.8041
    3.315   27.8743
    3.330   28.9626
    3.345   31.2796
    3.360   31.4727
    3.375   31.3674
    3.390   33.8248
    3.405   33.4738
    3.420   36.1418
    3.435   37.1599
    3.450   36.3876
    3.465   38.9679
    3.480   39.8280
    3.495   41.6359
    3.510   42.4609
    3.525   45.0588
    3.540   45.9014
    3.555   46.9721
    3.570   50.3072
    3.585   52.9928
    3.600   56.2050
    3.615   57.3811
    3.630   60.2247
    3.645   63.9986
    3.660   65.9996
    3.675   69.8613
    3.690   72.0555
    3.705   77.3038
    3.720   85.3256
    3.735   91.0655
    3.750   99.2277
    3.765  109.8297
    3.780  121.9765
    3.795  139.2663
    3.810  159.9087
    3.825  184.8517
    3.840  199.5436
    3.855  193.6458
    3.870  166.1050
    3.885  130.9812
    3.900   88.3974
    3.915   52.6768
    3.930   30.6126
    3.945   19.9228
    3.960   15.2185
    3.975   12.7962
    3.990   11.7079
    4.005   11.4622
    4.020   10.6723
    4.035   10.9356
    4.050   10.3914
    4.065    9.7946
    4.080    9.4787
    4.095    8.9696
    4.110    8.9170
    4.125    9.2329
    4.140    9.4611
    4.155    9.2329
    4.170    9.0223
    4.185    9.9175
    4.200    8.4957
    4.215    8.3553
    4.230    8.2324
    4.245    8.5835
    4.260    8.8468
    4.275    8.8292
    4.290    8.9345
    4.305    8.8468
    4.320    8.1622
    4.335    7.7409
    4.350    8.1973
    4.365    8.3904
    4.380    8.1973
    4.395    7.7936
    4.410    7.9516
    4.425    8.1622
    4.440    8.4430
    4.455    8.2675
    4.470    7.8813
    4.485    7.8462
    4.500    7.9516
    4.515    7.9867
    4.530    7.9867
    4.545    8.3202
    4.560    7.7936
    4.575    7.7058
    4.590    8.1446
    4.605    7.9867
    4.620    7.8462
    4.635    7.7936
    4.650    7.8989
    4.665    8.0393
    4.680    8.2324
    4.695    7.9867
    4.710    7.5654
    4.725    8.1973
    4.740    7.5478
    4.755    7.5303
    4.770    8.8292
    4.785    8.4606
    4.800    8.4606
    4.815    7.9340
    4.830    8.1797
    4.845    8.1622
    4.860    8.5835
    4.875    9.0925
    4.890    8.5308
    4.905    8.2149
    4.920    8.7239
    4.935    8.7941
    4.950    9.1452
    4.965    9.6893
    4.980    8.9696
    4.995    9.3031
    5.010    9.4611
    5.025    9.3207
    5.040    8.8994
    5.055    9.4085
    5.070    9.9702
    5.085    9.9175
    5.100    9.9877
    5.115   10.1281
    5.130   10.8303
    5.145   11.1462
    5.160   11.5850
    5.175   11.2691
    5.190   11.5148
    5.205   11.2866
    5.220   11.8483
    5.235   11.7781
    5.250   12.0941
    5.265   13.0068
    5.280   14.4111
    5.295   14.4111
    5.310   14.6042
    5.325   14.1829
    5.340   16.6228
    5.355   16.7983
    5.370   17.2371
    5.385   18.8169
    5.400   21.0111
    5.415   22.0291
    5.430   25.5222
    5.445   29.2786
    5.460   31.9817
    5.475   31.9642
    5.490   28.6818
    5.505   24.6446
    5.520   19.0451
    5.535   13.8845
    5.550   10.1457
    5.565    8.4606
    5.580    7.7409
    5.595    7.4776
    5.610    7.5127
    5.625    8.0744
    5.640    7.3021
    5.655    7.4074
    5.670    7.7409
    5.685    7.6005
    5.700    6.8457
    5.715    6.8808
    5.730    7.3372
    5.745    7.2319
    5.760    7.0037
    5.775    6.7579
    5.790    7.1441
    5.805    6.9159
    5.820    7.0915
    5.835    6.9159
    5.850    6.1611
    5.865    6.6702
    5.880    6.9510
    5.895    6.8106
    5.910    6.7930
    5.925    7.2319
    5.940    6.5298
    5.955    6.8808
    5.970    6.8106
    5.985    7.0915
    6.000    6.9510
    6.015    7.0037
    6.030    7.3547
    6.045    7.1792
    6.060    6.8282
    6.075    6.8106
    6.090    7.3196
    6.105    6.9686
    6.120    6.9335
    6.135    6.8282
    6.150    6.4595
    6.165    7.4601
    6.180    7.7585
    6.195    7.2494
    6.210    7.0212
    6.225    6.5824
    6.240    6.7053
    6.255    6.8633
    6.270    7.3723
    6.285    7.9867
    6.300    7.5127
    6.315    7.7058
    6.330    7.9340
    6.345    7.0915
    6.360    7.6005
    6.375    7.8111
    6.390    7.7058
    6.405    8.1271
    6.420    7.8638
    6.435    7.7234
    6.450    7.6180
    6.465    8.3377
    6.480    8.5308
    6.495    8.8292
    6.510    8.2851
    6.525    8.4781
    6.540    8.1622
    6.555    8.8643
    6.570    8.8994
    6.585    9.5138
    6.600   10.4441
    6.615   10.3563
    6.630   10.3212
    6.645   10.9882
    6.660   11.5675
    6.675   13.1999
    6.690   13.5685
    6.705   14.3058
    6.720   14.2180
    6.735   13.4983
    6.750   13.0771
    6.765   11.7781
    6.780    9.8297
    6.795    8.1095
    6.810    8.0042
    6.825    7.8111
    6.840    6.9686
    6.855    6.8282
    6.870    7.0037
    6.885    6.9510
    6.900    7.0739
    6.915    7.7058
    6.930    6.6175
    6.945    7.1792
    6.960    6.9686
    6.975    6.9159
    6.990    6.4069
    7.005    6.5122
    7.020    6.7579
    7.035    6.6877
    7.050    7.0739
    7.065    7.0388
    7.080    6.7930
    7.095    6.5122
    7.110    6.7579
    7.125    6.6000
    7.140    6.2840
    7.155    6.5824
    7.170    6.6000
    7.185    6.7579
    7.200    6.8808
    7.215    6.1611
    7.230    6.6526
    7.245    6.6351
    7.260    6.8633
    7.275    6.9861
    7.290    7.2845
    7.305    6.8808
    7.320    6.7579
    7.335    6.5122
    7.350    6.5824
    7.365    6.7930
    7.380    6.4771
    7.395    6.8457
    7.410    6.7228
    7.425    6.9335
    7.440    6.9861
    7.455    7.1441
    7.470    7.5829
    7.485    7.3547
    7.500    6.8984
    7.515    7.4074
    7.530    7.3196
    7.545    7.2319
    7.560    8.0042
    7.575    8.3026
    7.590    7.8462
    7.605    8.2851
    7.620    8.0569
    7.635    8.6010
    7.650    9.1101
    7.665    9.2329
    7.680    9.8648
    7.695   10.4968
    7.710   10.7425
    7.725   12.5680
    7.740   13.0595
    7.755   13.7265
    7.770   14.3935
    7.785   13.7265
    7.800   12.0063
    7.815   10.9180
    7.830   10.0053
    7.845    8.4781
    7.860    6.9335
    7.875    6.1085
    7.890    5.7925
    7.905    6.5824
    7.920    6.7755
    7.935    6.0558
    7.950    6.1787
    7.965    6.6351
    7.980    6.8808
    7.995    6.8457
    8.010    6.6175
    8.025    6.4420
    8.040    6.2313
    8.055    6.1787
    8.070    6.4069
    8.085    6.0909
    8.100    6.5122
    8.115    6.9686
    8.130    6.6175
    8.145    6.3542
    8.160    6.3367
    8.175    6.8106
    8.190    6.4595
    8.205    6.0383
    8.220    6.4595
    8.235    6.4595
    8.250    7.2143
    8.265    7.0212
    8.280    6.5824
    8.295    6.4595
    8.310    6.5824
    8.325    6.6175
    8.340    6.1787
    8.355    6.3542
    8.370    6.5473
    8.385    6.4420
    8.400    6.4595
    8.415    6.8808
    8.430    7.0388
    8.445    6.5298
    8.460    6.7930
    8.475    6.9335
    8.490    6.9686
    8.505    6.6175
    8.520    6.4946
    8.535    6.5298
    8.550    6.5649
    8.565    6.7755
    8.580    7.0563
    8.595    7.2319
    8.610    6.8282
    8.625    7.2494
    8.640    7.1441
    8.655    6.9335
    8.670    7.7409
    8.685    7.9164
    8.700    8.1446
    8.715    7.5127
    8.730    7.6707
    8.745    7.6707
    8.760    7.1266
    8.775    6.9686
    8.790    6.5298
    8.805    6.6175
    8.820    6.4595
    8.835    6.6351
    8.850    6.4420
    8.865    5.9505
    8.880    6.6526
    8.895    6.2840
    8.910    6.4069
    8.925    6.3718
    8.940    6.7228
    8.955    6.6000
    8.970    7.0563
    8.985    6.5649
    9.000    6.5473
    9.015    6.6000
    9.030    7.0037
    9.045    7.1617
    9.060    6.5122
    9.075    6.8984
    9.090    7.1441
    9.105    7.0739
    9.120    7.3723
    9.135    7.2319
    9.150    7.4601
    9.165    7.0037
    9.180    7.0037
    9.195    7.8111
    9.210    7.6883
    9.225    8.1446
    9.240    7.4776
    9.255    7.5478
    9.270    8.0042
    9.285    8.8643
    9.300    8.8117
    9.315    8.7414
    9.330    9.4436
    9.345    9.7771
    9.360   10.5670
    9.375   10.4265
    9.390   10.9356
    9.405   12.2345
    9.420   13.1999
    9.435   14.1127
    9.450   14.5164
    9.465   16.1313
    9.480   18.1324
    9.495   21.1515
    9.510   24.0829
    9.525   25.3642
    9.540   25.2589
    9.555   23.2227
    9.570   20.5722
    9.585   16.4121
    9.600   12.6733
    9.615    9.8297
    9.630    8.2851
    9.645    8.0042
    9.660    6.7228
    9.675    6.5824
    9.690    6.9686
    9.705    7.0915
    9.720    6.8808
    9.735    6.9335
    9.750    6.6175
    9.765    6.6175
    9.780    6.4771
    9.795    6.0207
    9.810    6.5824
    9.825    6.3367
    9.840    6.4946
    9.855    6.4420
    9.870    6.3893
    9.885    7.1266
    9.900    6.5473
    9.915    6.4244
    9.930    6.8457
    9.945    6.6000
    9.960    6.6000
    9.975    6.8984
    9.990    6.8984
   10.005    7.2319
   10.020    6.9686
   10.035    7.6180
   10.050    6.9861
   10.065    7.2670
   10.080    7.8989
   10.095    7.3196
   10.110    7.7234
   10.125    7.9867
   10.140    8.3728
   10.155    8.7414
   10.170    9.1978
   10.185    9.5138
   10.200    9.5313
   10.215   10.0228
   10.230   11.3042
   10.245   12.1643
   10.260   12.8489
   10.275   14.3058
   10.290   15.1132
   10.305   15.2361
   10.320   15.3590
   10.335   15.3765
   10.350   12.6558
   10.365   10.5845
   10.380    9.3207
   10.395    7.8638
   10.410    7.3899
   10.425    6.7579
   10.440    6.4771
   10.455    6.3542
   10.470    6.8106
   10.485    6.1085
   10.500    6.5298
   10.515    6.7228
   10.530    6.7930
   10.545    6.3542
   10.560    6.3893
   10.575    6.2313
   10.590    6.2840
   10.605    5.8101
   10.620    6.7228
   10.635    6.6000
   10.650    6.5122
   10.665    6.0909
   10.680    6.6175
   10.695    6.4244
   10.710    7.1090
   10.725    7.0915
   10.740    6.8984
   10.755    6.3191
   10.770    6.4420
   10.785    6.6702
   10.800    7.0388
   10.815    6.5649
   10.830    6.4420
   10.845    6.8633
   10.860    7.5303
   10.875    7.2670
   10.890    7.5478
   10.905    7.9691
   10.920    8.3026
   10.935    8.6186
   10.950    9.4436
   10.965    9.5840
   10.980   10.8127
   10.995   11.2515
   11.010   11.7957
   11.025   12.5154
   11.040   11.7606
   11.055   11.5499
   11.070    9.9175
   11.085    8.7239
   11.100    7.8638
   11.115    6.8984
   11.130    6.6877
   11.145    6.4771
   11.160    6.2313
   11.175    6.4771
   11.190    5.7223
   11.205    6.5473
   11.220    6.3367
   11.235    5.6170
   11.250    6.0207
   11.265    6.7404
   11.280    6.6877
   11.295    6.2313
   11.310    6.1787
   11.325    6.2840
   11.340    6.3016
   11.355    6.4244
   11.370    6.6877
   11.385    6.8282
   11.400    6.1611
   11.415    6.1436
   11.430    6.6000
   11.445    7.0915
   11.460    6.9861
   11.475    7.2670
   11.490    7.1441
   11.505    7.5303
   11.520    7.1792
   11.535    7.2143
   11.550    7.5127
   11.565    7.8638
   11.580    8.3026
   11.595    9.0398
   11.610    9.6542
   11.625    9.6367
   11.640   10.7600
   11.655   12.1643
   11.670   13.4983
   11.685   13.8318
   11.700   14.1654
   11.715   14.2531
   11.730   12.3749
   11.745   11.4095
   11.760    9.7595
   11.775    8.5133
   11.790    7.3723
   11.805    7.0563
   11.820    6.4420
   11.835    6.1611
   11.850    6.2489
   11.865    6.3542
   11.880    5.9505
   11.895    5.6170
   11.910    6.1611
   11.925    6.3367
   11.940    6.2138
   11.955    6.5122
   11.970    6.4244
   11.985    6.2489
   12.000    5.8276
   12.015    5.8276
   12.030    6.1962
   12.045    6.1787
   12.060    6.6351
   12.075    6.4244
   12.090    6.5649
   12.105    6.0558
   12.120    6.5298
   12.135    6.3191
   12.150    6.3367
   12.165    6.0207
   12.180    6.2489
   12.195    6.6526
   12.210    6.7404
   12.225    6.4244
   12.240    7.0915
   12.255    6.6175
   12.270    7.2845
   12.285    6.9335
   12.300    6.4420
   12.315    7.0388
   12.330    7.2494
   12.345    7.4425
   12.360    7.1266
   12.375    6.5824
   12.390    6.6702
   12.405    5.9329
   12.420    5.3712
   12.435    5.9154
   12.450    5.9329
   12.465    5.9856
   12.480    5.7574
   12.495    6.3718
   12.510    6.2138
   12.525    6.1787
   12.540    6.0734
   12.555    6.0558
   12.570    5.5292
   12.585    6.5649
   12.600    6.3893
   12.615    6.0734
   12.630    6.2665
   12.645    6.1436
   12.660    6.4771
   12.675    6.4595
   12.690    5.8452
   12.705    6.2840
   12.720    6.7579
   12.735    6.7053
   12.750    6.6000
   12.765    6.6702
   12.780    6.8457
   12.795    7.3196
   12.810    7.3021
   12.825    8.1271
   12.840    8.2149
   12.855    8.3728
   12.870    8.7765
   12.885    9.6542
   12.900   10.6021
   12.915   11.2866
   12.930   12.3047
   12.945   13.4632
   12.960   12.0590
   12.975   11.5675
   12.990   10.6021
   13.005    9.1276
   13.020    7.4425
   13.035    7.2143
   13.050    7.1090
   13.065    6.9159
   13.080    5.8978
   13.095    5.9681
   13.110    6.2313
   13.125    6.2665
   13.140    6.3016
   13.155    6.2840
   13.170    6.0383
   13.185    6.1611
   13.200    6.6000
   13.215    5.8276
   13.230    6.0383
   13.245    5.8452
   13.260    6.1787
   13.275    6.3718
   13.290    6.0734
   13.305    6.0383
   13.320    6.1611
   13.335    6.2138
   13.350    6.8106
   13.365    6.5298
   13.380    6.3367
   13.395    6.5298
   13.410    6.6877
   13.425    7.0388
   13.440    7.1090
   13.455    6.8808
   13.470    7.4952
   13.485    7.4952
   13.500    8.8643
   13.515    8.5659
   13.530    8.9170
   13.545    8.2675
   13.560    8.0042
   13.575    7.6005
   13.590    6.5298
   13.605    6.4946
   13.620    6.0909
   13.635    6.1962
   13.650    5.8978
   13.665    5.6697
   13.680    5.8627
   13.695    5.7399
   13.710    6.0383
   13.725    6.1085
   13.740    5.7048
   13.755    5.4941
   13.770    6.0909
   13.785    6.7228
   13.800    5.6697
   13.815    6.0734
   13.830    6.1436
   13.845    5.9505
   13.860    6.0558
   13.875    5.9505
   13.890    6.0032
   13.905    6.1085
   13.920    6.7053
   13.935    6.7053
   13.950    6.3016
   13.965    6.3718
   13.980    6.3016
   13.995    6.7228
   14.010    6.9510
   14.025    7.8111
   14.040    8.6186
   14.055    8.9345
   14.070    9.2329
   14.085    9.0223
   14.100    8.8994
   14.115    8.4255
   14.130    7.5654
   14.145    7.3899
   14.160    6.7404
   14.175    6.0032
   14.190    6.0032
   14.205    5.8803
   14.220    5.6345
   14.235    6.3016
   14.250    6.3718
   14.265    6.2665
   14.280    6.0734
   14.295    6.0032
   14.310    6.1085
   14.325    5.8803
   14.340    5.7223
   14.355    5.6521
   14.370    5.9856
   14.385    5.6345
   14.400    5.9681
   14.415    5.5819
   14.430    5.6697
   14.445    5.8803
   14.460    5.7223
   14.475    5.5819
   14.490    6.3542
   14.505    6.2665
   14.520    6.1787
   14.535    5.7925
   14.550    5.5468
   14.565    6.0032
   14.580    6.0558
   14.595    5.6521
   14.610    6.0909
   14.625    6.1436
   14.640    5.4239
   14.655    6.0032
   14.670    5.6872
   14.685    5.7048
   14.700    5.7925
   14.715    5.8452
   14.730    6.0558
   14.745    6.2665
   14.760    6.0383
   14.775    6.0207
   14.790    5.7399
   14.805    6.3542
   14.820    5.5643
   14.835    5.5292
   14.850    5.4941
   14.865    5.7223
   14.880    5.7399
   14.895    6.1962
   14.910    5.7399
   14.925    5.5819
   14.940    5.8276
   14.955    5.6521
   14.970    5.8452
   14.985    6.2313
   15.000    5.9329
   15.015    6.0207
   15.030    6.4595
   15.045    6.1611
   15.060    6.2489
   15.075    6.5649
   15.090    6.8984
   15.105    6.9159
   15.120    7.1441
   15.135    7.0388
   15.150    6.7930
   15.165    6.3367
   15.180    6.3367
   15.195    6.2489
   15.210    6.1085
   15.225    5.8101
   15.240    6.2665
   15.255    5.9154
   15.270    5.9329
   15.285    5.6521
   15.300    5.9505
   15.315    6.1962
   15.330    5.7399
   15.345    5.8803
   15.360    6.0909
   15.375    5.8452
   15.390    5.6697
   15.405    5.9154
   15.420    5.2484
   15.435    5.6872
   15.450    5.5292
   15.465    5.6345
   15.480    6.3016
   15.495    6.3191
   15.510    6.2313
   15.525    5.8803
   15.540    5.7925
   15.555    5.9329
   15.570    5.7048
   15.585    6.4420
   15.600    6.0909
   15.615    5.9329
   15.630    5.7925
   15.645    5.5292
   15.660    6.1611
   15.675    6.2665
   15.690    5.8452
   15.705    5.5994
   15.720    5.6170
   15.735    5.9329
   15.750    5.9856
   15.765    6.3718
   15.780    6.4244
   15.795    6.0558
   15.810    5.5117
   15.825    5.8276
   15.840    6.0207
   15.855    6.3542
   15.870    5.8978
   15.885    5.6170
   15.900    5.7223
   15.915    6.3367
   15.930    5.8452
   15.945    6.4946
   15.960    6.3367
   15.975    6.3718
   15.990    6.6526
   16.005    6.8106
   16.020    6.7755
   16.035    6.7404
   16.050    6.6000
   16.065    6.8808
   16.080    7.4952
   16.095    7.8989
   16.110    7.8813
   16.125    7.9164
   16.140    7.0739
   16.155    7.0212
   16.170    6.7228
   16.185    6.8457
   16.200    6.7228
   16.215    6.2313
   16.230    6.2313
   16.245    5.8627
   16.260    6.1085
   16.275    5.8276
   16.290    5.4064
   16.305    6.2138
   16.320    5.6521
   16.335    5.9505
   16.350    6.4595
   16.365    6.0734
   16.380    6.3718
   16.395    6.0207
   16.410    5.8276
   16.425    6.1611
   16.440    6.1085
   16.455    6.0558
   16.470    6.7228
   16.485    6.5649
   16.500    6.3893
   16.515    6.4771
   16.530    7.0563
   16.545    7.6532
   16.560    8.0218
   16.575    8.4606
   16.590    7.6883
   16.605    8.3026
   16.620    8.0393
   16.635    7.7409
   16.650    7.5127
   16.665    7.6356
   16.680    6.8106
   16.695    6.4946
   16.710    6.5824
   16.725    6.6000
   16.740    6.1260
   16.755    6.0383
   16.770    6.0383
   16.785    6.2489
   16.800    6.5122
   16.815    6.5298
   16.830    6.3718
   16.845    6.4244
   16.860    5.9856
   16.875    6.4595
   16.890    5.8978
   16.905    5.9505
   16.920    6.7404
   16.935    6.6526
   16.950    7.4952
   16.965    7.6707
   16.980    7.5127
   16.995    8.3553
   17.010    9.2154
   17.025    9.2154
   17.040    9.8122
   17.055    9.3909
   17.070   10.7249
   17.085   10.5319
   17.100    9.7244
   17.115    9.1101
   17.130    8.3904
   17.145    7.7936
   17.160    6.6000
   17.175    6.3893
   17.190    6.4595
   17.205    6.6526
   17.220    6.4069
   17.235    6.1085
   17.250    6.1085
   17.265    6.2840
   17.280    5.7399
   17.295    6.6175
   17.310    5.9505
   17.325    5.8276
   17.340    5.7223
   17.355    5.7399
   17.370    5.9856
   17.385    6.0207
   17.400    6.5122
   17.415    6.3191
   17.430    6.2665
   17.445    7.0915
   17.460    6.6526
   17.475    6.6351
   17.490    6.6702
   17.505    6.9335
   17.520    6.8457
   17.535    7.2319
   17.550    6.6351
   17.565    6.7755
   17.580    6.4946
   17.595    6.5298
   17.610    6.3718
   17.625    6.2665
   17.640    5.3712
   17.655    6.1611
   17.670    5.5117
   17.685    5.6697
   17.700    6.1611
   17.715    5.7750
   17.730    6.4946
   17.745    6.4771
   17.760    5.4415
   17.775    6.0909
   17.790    6.2138
   17.805    6.1611
   17.820    5.9856
   17.835    6.4420
   17.850    6.4244
   17.865    6.2840
   17.880    6.4244
   17.895    6.1436
   17.910    6.5298
   17.925    6.9861
   17.940    6.3893
   17.955    6.7930
   17.970    6.7228
   17.985    6.1787
   18.000    6.3542
   18.015    6.6175
   18.030    6.6526
   18.045    6.3718
   18.060    6.5122
   18.075    6.7755
   18.090    6.4595
   18.105    6.0558
   18.120    6.4069
   18.135    6.1787
   18.150    6.4595
   18.165    6.4595
   18.180    6.2840
   18.195    6.1436
   18.210    6.1436
   18.225    5.9681
   18.240    6.1962
   18.255    6.4595
   18.270    6.5473
   18.285    6.6526
   18.300    6.4595
   18.315    6.6702
   18.330    7.2143
   18.345    7.2494
   18.360    7.7585
   18.375    7.8111
   18.390    7.3723
   18.405    7.0739
   18.420    6.6877
   18.435    6.8457
   18.450    6.4771
   18.465    6.4069
   18.480    6.4069
   18.495    6.3367
   18.510    5.7048
   18.525    6.5473
   18.540    6.3542
   18.555    5.9681
   18.570    6.4420
   18.585    5.8276
   18.600    6.4069
   18.615    6.0558
   18.630    6.2489
   18.645    6.2665
   18.660    6.1787
   18.675    5.8627
   18.690    6.0909
   18.705    6.4946
   18.720    6.4420
   18.735    6.5649
   18.750    6.8106
   18.765    6.5473
   18.780    6.2138
   18.795    6.2489
   18.810    6.3718
   18.825    6.4069
   18.840    6.4946
   18.855    5.8452
   18.870    6.5298
   18.885    6.7755
   18.900    7.1090
   18.915    6.1436
   18.930    6.2138
   18.945    5.9681
   18.960    6.6877
   18.975    6.0383
   18.990    5.9856
   19.005    5.9856
   19.020    6.3893
   19.035    6.4244
   19.050    6.3191
   19.065    6.4420
   19.080    6.4946
   19.095    6.4244
   19.110    6.6175
   19.125    6.2138
   19.140    6.0383
   19.155    6.3542
   19.170    6.3367
   19.185    7.3372
   19.200    6.5824
   19.215    6.0207
   19.230    6.4069
   19.245    6.3893
   19.260    6.5122
   19.275    6.1436
   19.290    6.3191
   19.305    6.2665
   19.320    6.6000
   19.335    6.3893
   19.350    6.0032
   19.365    5.9856
   19.380    6.4244
   19.395    6.6702
   19.410    6.3893
   19.425    6.1260
   19.440    6.4069
   19.455    6.1962
   19.470    6.7930
   19.485    6.7755
   19.500    6.7053
   19.515    7.3372
   19.530    7.1968
   19.545    7.0739
   19.560    7.6005
   19.575    7.5303
   19.590    7.9340
   19.605    7.8989
   19.620    7.4250
   19.635    7.8287
   19.650    8.0744
   19.665    7.3372
   19.680    7.1792
   19.695    6.7404
   19.710    6.4771
   19.725    6.4244
   19.740    6.5824
   19.755    6.0558
   19.770    6.0032
   19.785    6.1611
   19.800    6.1260
   19.815    6.1260
   19.830    7.1617
   19.845    6.4595
   19.860    6.4420
   19.875    6.3367
   19.890    6.5122
   19.905    6.3191
   19.920    6.0383
   19.935    6.1085
   19.950    6.6000
   19.965    6.6351
   19.980    6.5473
   19.995    6.5122
   20.010    6.8457
   20.025    6.3718
   20.040    6.1962
   20.055    6.3016
   20.070    5.9681
   20.085    5.9505
   20.100    6.4069
   20.115    7.0915
   20.130    6.0383
   20.145    6.1085
   20.160    6.4771
   20.175    6.8808
   20.190    6.6000
   20.205    7.1617
   20.220    7.1090
   20.235    7.0388
   20.250    7.1792
   20.265    7.3547
   20.280    6.9510
   20.295    7.5654
   20.310    7.4601
   20.325    8.4430
   20.340    8.3553
   20.355    9.0398
   20.370    9.4787
   20.385    9.0925
   20.400    9.3031
   20.415    9.2329
   20.430    9.0398
   20.445    8.7239
   20.460    8.3904
   20.475    7.8462
   20.490    7.0915
   20.505    7.0915
   20.520    7.0212
   20.535    6.6000
   20.550    6.1787
   20.565    6.2138
   20.580    5.7750
   20.595    6.0383
   20.610    6.3191
   20.625    6.0383
   20.640    6.3542
   20.655    6.7228
   20.670    6.9686
   20.685    6.0909
   20.700    6.5649
   20.715    6.7930
   20.730    6.8808
   20.745    6.9861
   20.760    6.7404
   20.775    6.5473
   20.790    6.3367
   20.805    6.6877
   20.820    6.3542
   20.835    6.2840
   20.850    6.7228
   20.865    6.8106
   20.880    5.8803
   20.895    6.1962
   20.910    6.2840
   20.925    6.4069
   20.940    6.6526
   20.955    5.8627
   20.970    5.8276
   20.985    6.1260
   21.000    6.4771
   21.015    6.0032
   21.030    6.0734
   21.045    6.1260
   21.060    6.7053
   21.075    6.5298
   21.090    6.4069
   21.105    6.4069
   21.120    6.6877
   21.135    6.2313
   21.150    6.0207
   21.165    5.8803
   21.180    6.4946
   21.195    6.2489
   21.210    6.5649
   21.225    5.9329
   21.240    6.8984
   21.255    6.3718
   21.270    6.2840
   21.285    6.1085
   21.300    6.3893
   21.315    6.4244
   21.330    6.5824
   21.345    6.4420
   21.360    7.1968
   21.375    6.8457
   21.390    6.1962
   21.405    6.3191
   21.420    6.8282
   21.435    7.0037
   21.450    6.5824
   21.465    6.7053
   21.480    6.8106
   21.495    6.3542
   21.510    6.9861
   21.525    6.8106
   21.540    5.9681
   21.555    6.7228
   21.570    6.0558
   21.585    6.9686
   21.600    6.7579
   21.615    6.3191
   21.630    6.8106
   21.645    6.4244
   21.660    6.7579
   21.675    6.7755
   21.690    6.4946
   21.705    6.7930
   21.720    6.8808
   21.735    6.6351
   21.750    6.8633
   21.765    7.0739
   21.780    7.0739
   21.795    7.3899
   21.810    7.1968
   21.825    6.9686
   21.840    7.8638
   21.855    8.2324
   21.870    8.4079
   21.885    7.9340
   21.900    8.0042
   21.915    7.4601
   21.930    7.3899
   21.945    7.1792
   21.960    7.1968
   21.975    7.0212
   21.990    6.9686
   22.005    6.9510
   22.020    6.8808
   22.035    6.8808
   22.050    6.6000
   22.065    6.6526
   22.080    6.9510
   22.095    7.1266
   22.110    6.4069
   22.125    7.2319
   22.140    7.3196
   22.155    7.3547
   22.170    7.5303
   22.185    7.4425
   22.200    7.8287
   22.215    7.6532
   22.230    7.9340
   22.245    7.7234
   22.260    7.9867
   22.275    7.7234
   22.290    7.4601
   22.305    7.3021
   22.320    6.8984
   22.335    7.7936
   22.350    6.9861
   22.365    6.9686
   22.380    7.0915
   22.395    7.6883
   22.410    6.7930
   22.425    6.7404
   22.440    7.7936
   22.455    7.7936
   22.470    8.1271
   22.485    8.2675
   22.500    9.2680
   22.515   10.0930
   22.530    9.9175
   22.545   10.5494
   22.560   11.1287
   22.575   11.3393
   22.590   11.5499
   22.605   10.8829
   22.620   10.6372
   22.635    9.8122
   22.650    9.0925
   22.665    8.3026
   22.680    7.5478
   22.695    8.0569
   22.710    7.1792
   22.725    6.7930
   22.740    7.2319
   22.755    7.1617
   22.770    8.0744
   22.785    8.4079
   22.800    7.7409
   22.815    7.8462
   22.830    8.8468
   22.845    8.9521
   22.860    9.7244
   22.875   10.4265
   22.890   11.1287
   22.905   11.0936
   22.920   11.2691
   22.935   10.7249
   22.950   10.7425
   22.965    9.8297
   22.980    9.3031
   22.995    8.8819
   23.010    8.4606
   23.025    7.8287
   23.040    7.0915
   23.055    7.1617
   23.070    7.0915
   23.085    6.8282
   23.100    7.0915
   23.115    6.6877
   23.130    6.9861
   23.145    7.4952
   23.160    7.1266
   23.175    7.4601
   23.190    7.6005
   23.205    7.2494
   23.220    7.2319
   23.235    7.1617
   23.250    7.6532
   23.265    7.4425
   23.280    7.5829
   23.295    8.0744
   23.310    8.4606
   23.325    6.8633
   23.340    6.9861
   23.355    7.0388
   23.370    7.0037
   23.385    7.1792
   23.400    7.0037
   23.415    6.9686
   23.430    6.8633
   23.445    6.5122
   23.460    6.7053
   23.475    6.7755
   23.490    6.7228
   23.505    6.4420
   23.520    6.4420
   23.535    6.8282
   23.550    7.0563
   23.565    7.3723
   23.580    7.0915
   23.595    6.6526
   23.610    6.8457
   23.625    6.3016
   23.640    6.6351
   23.655    6.8457
   23.670    6.9335
   23.685    7.0915
   23.700    7.1266
   23.715    6.5649
   23.730    6.4244
   23.745    6.7404
   23.760    6.8984
   23.775    6.8282
   23.790    6.7755
   23.805    6.7755
   23.820    6.8282
   23.835    6.6351
   23.850    7.3021
   23.865    7.3723
   23.880    7.7058
   23.895    8.5835
   23.910    8.1797
   23.925    7.8989
   23.940    8.2500
   23.955    8.3728
   23.970    7.7409
   23.985    7.4425
   24.000    7.4074
   24.015    7.5654
   24.030    7.1617
   24.045    7.0388
   24.060    6.8633
   24.075    6.3016
   24.090    6.6000
   24.105    6.6000
   24.120    6.6702
   24.135    6.6351
   24.150    6.1260
   24.165    6.4069
   24.180    6.9159
   24.195    7.3899
   24.210    7.0212
   24.225    6.6526
   24.240    6.4771
   24.255    6.3893
   24.270    6.6526
   24.285    6.0383
   24.300    6.9335
   24.315    6.7755
   24.330    6.5824
   24.345    6.9686
   24.360    6.6175
   24.375    6.5122
   24.390    6.4771
   24.405    6.3367
   24.420    6.2665
   24.435    6.7755
   24.450    6.8106
   24.465    6.6351
   24.480    6.7930
   24.495    6.7755
   24.510    6.8984
   24.525    6.5824
   24.540    6.8984
   24.555    7.1792
   24.570    6.7755
   24.585    6.9159
   24.600    7.0915
   24.615    6.8633
   24.630    6.6526
   24.645    7.0563
   24.660    7.0212
   24.675    6.6877
   24.690    6.8282
   24.705    6.1085
   24.720    7.0388
   24.735    6.2489
   24.750    6.4595
   24.765    6.6877
   24.780    6.5824
   24.795    6.8984
   24.810    6.6000
   24.825    6.5473
   24.840    6.6000
   24.855    6.4771
   24.870    6.5824
   24.885    6.7228
   24.900    6.8808
   24.915    6.7053
   24.930    6.9510
   24.945    7.2845
   24.960    6.7053
   24.975    6.5649
   24.990    6.4595
   25.005    6.5649
   25.020    6.8457
   25.035    6.3191
   25.050    6.2489
   25.065    6.1260
   25.080    6.4420
   25.095    6.8282
   25.110    7.1792
   25.125    6.8808
   25.140    7.0037
   25.155    7.6005
   25.170    7.3196
   25.185    7.0037
   25.200    6.9510
   25.215    6.7404
   25.230    7.3372
   25.245    6.8808
   25.260    7.0037
   25.275    7.1441
   25.290    6.8984
   25.305    6.7053
   25.320    6.8282
   25.335    6.5298
   25.350    6.7930
   25.365    6.3718
   25.380    6.2665
   25.395    6.6877
   25.410    6.8808
   25.425    7.0037
   25.440    6.9686
   25.455    6.8457
   25.470    7.0212
   25.485    7.1792
   25.500    7.3021
   25.515    7.5478
   25.530    7.1968
   25.545    7.0915
   25.560    7.4250
   25.575    6.9510
   25.590    6.4244
   25.605    6.5298
   25.620    6.8984
   25.635    6.7930
   25.650    6.6702
   25.665    6.7228
   25.680    7.5303
   25.695    7.3547
   25.710    7.3547
   25.725    7.4425
   25.740    7.6005
   25.755    8.2149
   25.770    8.1095
   25.785    8.8292
   25.800    9.1978
   25.815    9.6718
   25.830   10.3388
   25.845   10.5143
   25.860    9.8648
   25.875    9.4436
   25.890    8.6010
   25.905    8.2675
   25.920    8.1622
   25.935    7.7585
   25.950    7.1266
   25.965    7.1441
   25.980    6.8282
   25.995    6.4420
   26.010    6.4244
   26.025    6.4771
   26.040    6.4420
   26.055    6.5824
   26.070    6.5824
   26.085    6.4244
   26.100    6.5649
   26.115    6.5298
   26.130    6.9686
   26.145    7.0037
   26.160    7.1792
   26.175    6.7228
   26.190    6.9335
   26.205    6.7579
   26.220    6.0734
   26.235    6.4244
   26.250    6.5473
   26.265    6.7053
   26.280    6.4069
   26.295    6.3718
   26.310    6.2840
   26.325    6.0383
   26.340    6.8633
   26.355    6.7404
   26.370    7.0388
   26.385    7.5829
   26.400    7.7760
   26.415    7.5303
   26.430    7.3547
   26.445    7.6532
   26.460    7.0739
   26.475    6.8633
   26.490    6.9335
   26.505    6.9335
   26.520    6.6000
   26.535    6.7228
   26.550    6.2489
   26.565    6.1962
   26.580    6.5473
   26.595    6.8457
   26.610    6.7228
   26.625    6.1611
   26.640    6.1787
   26.655    6.1260
   26.670    5.7574
   26.685    5.7048
   26.700    6.2138
   26.715    6.4595
   26.730    6.1260
   26.745    6.2313
   26.760    6.1611
   26.775    6.0909
   26.790    6.6000
   26.805    6.9686
   26.820    6.3367
   26.835    6.2665
   26.850    6.7404
   26.865    6.4771
   26.880    6.3191
   26.895    6.2313
   26.910    6.0383
   26.925    6.3718
   26.940    6.7228
   26.955    6.7404
   26.970    6.5824
   26.985    7.3196
   27.000    7.3899
   27.015    7.0739
   27.030    7.4776
   27.045    7.7409
   27.060    7.4425
   27.075    7.0388
   27.090    6.8106
   27.105    7.3372
   27.120    6.9686
   27.135    6.6000
   27.150    6.6175
   27.165    6.6175
   27.180    6.4244
   27.195    5.5117
   27.210    5.5643
   27.225    6.1611
   27.240    6.4244
   27.255    6.4771
   27.270    6.2313
   27.285    6.1436
   27.300    6.0383
   27.315    6.0734
   27.330    5.9856
   27.345    6.1085
   27.360    6.3893
   27.375    6.7755
   27.390    6.5473
   27.405    5.9329
   27.420    6.0383
   27.435    6.1436
   27.450    5.9856
   27.465    6.4244
   27.480    6.5122
   27.495    6.4771
   27.510    6.2665
   27.525    6.5824
   27.540    6.7930
   27.555    6.4244
   27.570    7.0739
   27.585    7.0212
   27.600    7.0212
   27.615    7.2143
   27.630    6.9510
   27.645    6.7228
   27.660    7.4074
   27.675    7.3899
   27.690    7.1266
   27.705    7.1968
   27.720    6.1085
   27.735    6.6526
   27.750    6.3542
   27.765    6.2489
   27.780    6.2138
   27.795    6.8106
   27.810    6.1085
   27.825    6.2840
   27.840    6.1436
   27.855    6.6526
   27.870    6.4244
   27.885    6.2489
   27.900    6.2313
   27.915    6.4771
   27.930    6.4771
   27.945    6.7579
   27.960    6.8106
   27.975    6.8457
   27.990    7.2670
   28.005    7.1441
   28.020    6.0734
   28.035    6.5298
   28.050    6.4420
   28.065    6.7404
   28.080    6.8633
   28.095    6.9335
   28.110    6.8106
   28.125    7.1441
   28.140    7.1617
   28.155    6.8984
   28.170    7.5478
   28.185    7.9340
   28.200    7.4074
   28.215    7.1090
   28.230    7.1968
   28.245    7.2494
   28.260    7.0388
   28.275    6.6351
   28.290    6.1260
   28.305    6.4069
   28.320    6.4420
   28.335    6.9510
   28.350    6.3367
   28.365    6.2313
   28.380    6.5649
   28.395    6.4771
   28.410    7.0037
   28.425    7.0915
   28.440    7.3723
   28.455    7.0563
   28.470    6.3016
   28.485    6.9510
   28.500    7.4250
   28.515    7.4776
   28.530    7.4425
   28.545    6.5122
   28.560    6.5824
   28.575    6.7053
   28.590    6.2840
   28.605    5.9681
   28.620    6.3718
   28.635    6.3016
   28.650    5.9154
   28.665    6.3893
   28.680    6.1611
   28.695    6.4069
   28.710    6.1611
   28.725    6.7404
   28.740    6.2840
   28.755    6.3542
   28.770    5.8803
   28.785    5.8276
   28.800    6.3893
   28.815    6.0032
   28.830    6.2138
   28.845    6.1611
   28.860    5.9505
   28.875    6.1611
   28.890    5.5292
   28.905    6.1085
   28.920    5.7925
   28.935    6.0558
   28.950    6.0383
   28.965    6.0032
   28.980    6.5298
   28.995    6.4069
   29.010    6.1260
   29.025    6.3016
   29.040    6.3191
   29.055    6.2665
   29.070    6.0734
   29.085    5.6872
   29.100    6.0734
   29.115    6.1611
   29.130    6.2489
   29.145    6.2840
   29.160    5.9856
   29.175    6.0032
   29.190    6.2665
   29.205    6.6000
   29.220    6.0032
   29.235    6.1436
   29.250    6.8808
   29.265    6.6351
   29.280    6.7053
   29.295    6.7930
   29.310    6.5298
   29.325    6.4420
   29.340    6.7579
   29.355    6.5649
   29.370    6.6000
   29.385    6.6877
   29.400    6.3893
   29.415    5.9505
   29.430    6.0909
   29.445    5.7925
   29.460    6.1787
   29.475    5.6345
   29.490    6.1436
   29.505    6.0734
   29.520    6.0032
   29.535    5.6170
   29.550    5.4415
   29.565    5.9505
   29.580    5.8978
   29.595    5.8101
   29.610    5.9329
   29.625    5.8627
   29.640    5.8101
   29.655    5.7925
   29.670    6.0734
   29.685    5.7750
   29.700    6.0734
   29.715    6.2489
   29.730    6.0909
   29.745    5.9154
   29.760    5.7925
   29.775    6.1962
   29.790    6.0383
   29.805    6.2840
   29.820    6.1962
   29.835    5.7048
   29.850    5.8101
   29.865    6.1085
   29.880    6.1085
   29.895    6.4771
   29.910    6.1085
   29.925    5.4766
   29.940    6.0558
   29.955    5.4766
   29.970    5.4941
   29.985    5.5994
   30.000    5.7223
   30.015    5.6697
   30.030    5.2835
   30.045    5.5643
   30.060    5.5643
   30.075    5.7750
   30.090    6.3191
   30.105    6.0207
   30.120    6.6000
   30.135    5.8803
   30.150    5.8627
   30.165    5.6521
   30.180    5.8276
   30.195    5.6170
   30.210    5.7925
   30.225    5.7750
   30.240    5.5643
   30.255    5.8627
   30.270    5.6170
   30.285    5.5994
   30.300    5.7399
   30.315    5.7399
   30.330    6.0032
   30.345    5.8978
   30.360    5.6170
   30.375    5.8452
   30.390    5.8978
   30.405    6.1787
   30.420    5.4941
   30.435    6.0032
   30.450    5.4766
   30.465    5.3361
   30.480    5.5819
   30.495    5.3361
   30.510    5.6170
   30.525    5.8978
   30.540    5.1080
   30.555    5.3712
   30.570    6.1260
   30.585    6.4420
   30.600    6.4771
   30.615    6.0734
   30.630    6.0032
   30.645    6.5473
   30.660    6.1085
   30.675    6.0383
   30.690    6.0383
   30.705    5.7574
   30.720    5.8276
   30.735    5.6521
   30.750    5.4941
   30.765    5.8452
   30.780    5.6170
   30.795    6.1085
   30.810    5.4766
   30.825    5.6170
   30.840    5.5819
   30.855    5.6345
   30.870    6.1787
   30.885    5.5994
   30.900    5.6521
   30.915    5.6345
   30.930    5.7399
   30.945    5.5468
   30.960    5.3010
   30.975    5.5643
   30.990    5.0728
   31.005    5.5468
   31.020    5.6345
   31.035    5.3712
   31.050    5.4239
   31.065    5.1782
   31.080    5.9154
   31.095    5.8276
   31.110    5.3712
   31.125    5.5292
   31.140    5.1431
   31.155    5.3537
   31.170    5.4766
   31.185    5.7399
   31.200    5.2659
   31.215    5.6872
   31.230    5.2484
   31.245    4.9324
   31.260    5.2308
   31.275    5.2133
   31.290    5.6872
   31.305    5.6872
   31.320    5.3537
   31.335    5.5643
   31.350    5.8978
   31.365    5.9505
   31.380    6.3016
   31.395    6.4069
   31.410    6.1260
   31.425    6.3016
   31.440    6.2489
   31.455    5.8276
   31.470    5.7750
   31.485    5.3712
   31.500    5.1606
   31.515    5.4239
   31.530    5.4590
   31.545    5.2835
   31.560    5.1782
   31.575    5.4766
   31.590    5.4239
   31.605    5.4766
   31.620    5.5643
   31.635    5.5643
   31.650    5.5468
   31.665    5.3010
   31.680    5.6521
   31.695    5.8627
   31.710    6.4595
   31.725    6.3016
   31.740    6.0032
   31.755    5.4941
   31.770    5.6521
   31.785    5.4064
   31.800    5.7925
   31.815    5.5994
   31.830    5.5292
   31.845    5.0026
   31.860    5.4766
   31.875    5.8276
   31.890    5.7574
   31.905    5.4415
   31.920    5.7399
   31.935    5.8803
   31.950    5.5819
   31.965    5.7750
   31.980    5.2308
   31.995    5.7574
   32.010    5.4064
   32.025    5.4239
   32.040    5.3361
   32.055    5.3361
   32.070    5.2133
   32.085    5.4064
   32.100    5.1957
   32.115    5.6872
   32.130    5.9681
   32.145    5.6521
   32.160    5.6872
   32.175    5.8978
   32.190    5.4590
   32.205    5.4941
   32.220    5.4941
   32.235    5.4239
   32.250    5.2835
   32.265    5.4239
   32.280    5.2133
   32.295    5.8276
   32.310    5.9505
   32.325    5.7750
   32.340    5.4941
   32.355    5.3537
   32.370    5.0026
   32.385    5.3537
   32.400    5.1255
   32.415    5.3010
   32.430    5.3186
   32.445    5.4239
   32.460    4.8095
   32.475    5.3712
   32.490    5.2308
   32.505    4.9149
   32.520    5.0377
   32.535    5.0202
   32.550    5.4590
   32.565    5.6170
   32.580    5.0728
   32.595    5.1431
   32.610    5.1431
   32.625    5.1080
   32.640    4.8798
   32.655    5.4766
   32.670    5.8101
   32.685    5.5292
   32.700    5.2659
   32.715    5.2659
   32.730    5.3010
   32.745    5.4415
   32.760    5.1606
   32.775    5.1255
   32.790    5.0202
   32.805    4.9324
   32.820    4.9149
   32.835    5.1431
   32.850    5.6872
   32.865    5.2133
   32.880    5.0728
   32.895    5.5643
   32.910    5.2308
   32.925    5.2308
   32.940    5.5292
   32.955    5.7223
   32.970    4.9149
   32.985    5.3010
   33.000    5.4239
   33.015    5.0904
   33.030    5.1431
   33.045    4.7218
   33.060    4.9500
   33.075    5.3186
   33.090    5.3010
   33.105    4.7218
   33.120    4.7042
   33.135    5.0553
   33.150    5.4766
   33.165    5.1606
   33.180    5.3712
   33.195    5.2484
   33.210    5.3361
   33.225    5.4590
   33.240    5.2308
   33.255    5.1255
   33.270    5.3361
   33.285    5.2308
   33.300    5.1431
   33.315    4.9500
   33.330    5.2835
   33.345    4.8973
   33.360    4.9851
   33.375    5.0904
   33.390    4.4585
   33.405    5.1957
   33.420    4.9851
   33.435    4.6691
   33.450    5.0026
   33.465    5.1431
   33.480    4.9149
   33.495    4.8798
   33.510    4.9851
   33.525    5.0728
   33.540    4.9149
   33.555    4.8973
   33.570    5.1080
   33.585    5.2133
   33.600    5.3537
   33.615    4.7569
   33.630    5.0026
   33.645    4.9851
   33.660    5.4239
   33.675    5.1606
   33.690    5.2659
   33.705    5.0728
   33.720    5.0728
   33.735    5.5994
   33.750    5.4064
   33.765    4.9851
   33.780    5.3537
   33.795    4.8095
   33.810    5.1957
   33.825    5.7048
   33.840    5.4239
   33.855    4.7920
   33.870    5.6345
   33.885    5.6521
   33.900    5.5468
   33.915    5.2659
   33.930    5.7048
   33.945    5.1957
   33.960    5.3537
   33.975    5.6170
   33.990    5.4064
   34.005    5.4590
   34.020    5.2659
   34.035    5.1431
   34.050    5.4415
   34.065    5.0026
   34.080    5.7223
   34.095    5.4941
   34.110    5.1431
   34.125    5.4415
   34.140    5.1255
   34.155    5.2133
   34.170    4.5463
   34.185    4.8447
   34.200    4.6516
   34.215    5.0904
   34.230    5.2133
   34.245    5.0202
   34.260    4.8973
   34.275    4.9324
   34.290    5.2659
   34.305    5.3010
   34.320    5.1606
   34.335    4.8271
   34.350    4.7920
   34.365    4.9851
   34.380    4.7744
   34.395    4.9675
   34.410    5.0202
   34.425    5.7048
   34.440    5.5292
   34.455    5.6872
   34.470    5.3186
   34.485    4.9851
   34.500    5.0202
   34.515    5.0904
   34.530    4.8973
   34.545    5.3186
   34.560    4.8622
   34.575    4.8798
   34.590    4.8095
   34.605    4.9675
   34.620    4.8447
   34.635    4.6340
   34.650    4.7393
   34.665    5.0553
   34.680    5.0728
   34.695    5.2835
   34.710    4.9500
   34.725    4.4760
   34.740    4.6691
   34.755    4.8095
   34.770    5.0026
   34.785    4.5463
   34.800    5.3361
   34.815    5.5292
   34.830    5.4766
   34.845    5.2659
   34.860    5.1957
   34.875    5.1431
   34.890    5.3888
   34.905    5.1080
   34.920    4.9675
   34.935    4.4058
   34.950    4.8973
   34.965    5.0202
   34.980    4.8271
   34.995    4.6340
   35.010    5.0026
   35.025    5.2659
   35.040    5.0904
   35.055    4.5111
   35.070    4.7744
   35.085    4.6691
   35.100    4.7218
   35.115    4.8798
   35.130    5.1431
   35.145    4.9675
   35.160    5.0904
   35.175    4.8447
   35.190    4.7920
   35.205    4.4409
   35.220    5.0728
   35.235    4.7393
   35.250    4.6340
   35.265    4.8095
   35.280    4.8622
   35.295    4.8447
   35.310    5.0377
   35.325    5.1080
   35.340    4.5463
   35.355    4.7744
   35.370    4.8271
   35.385    4.9149
   35.400    4.8973
   35.415    4.6340
   35.430    4.7042
   35.445    4.7218
   35.460    4.5463
   35.475    4.5463
   35.490    5.1255
   35.505    5.4415
   35.520    5.2835
   35.535    4.8447
   35.550    5.0377
   35.565    4.9500
   35.580    5.2484
   35.595    4.5287
   35.610    4.6867
   35.625    4.9324
   35.640    4.6691
   35.655    4.8095
   35.670    4.7920
   35.685    4.7744
   35.700    4.9324
   35.715    4.9675
   35.730    5.0553
   35.745    4.5463
   35.760    4.8447
   35.775    4.6691
   35.790    4.8798
   35.805    5.1957
   35.820    5.2133
   35.835    4.8271
   35.850    5.3010
   35.865    5.1606
   35.880    4.7569
   35.895    4.8271
   35.910    5.2659
   35.925    4.8622
   35.940    4.8973
   35.955    4.9675
   35.970    4.7042
   35.985    4.7744
   36.000    5.0202
   36.015    4.9851
   36.030    4.9149
   36.045    4.7569
   36.060    4.7920
   36.075    4.8271
   36.090    5.1255
   36.105    4.8622
   36.120    4.5814
   36.135    4.8095
   36.150    5.3712
   36.165    5.0904
   36.180    5.0202
   36.195    4.5814
   36.210    4.7393
   36.225    5.1080
   36.240    5.0377
   36.255    5.0026
   36.270    5.0202
   36.285    4.9500
   36.300    4.8095
   36.315    4.9324
   36.330    4.8447
   36.345    4.5989
   36.360    4.6340
   36.375    4.4058
   36.390    4.6165
   36.405    4.4585
   36.420    5.0202
   36.435    4.5814
   36.450    4.5638
   36.465    4.7744
   36.480    4.7744
   36.495    4.7393
   36.510    4.6691
   36.525    4.8973
   36.540    5.0553
   36.555    4.6691
   36.570    4.8095
   36.585    4.7393
   36.600    4.6867
   36.615    5.0904
   36.630    5.2484
   36.645    4.9324
   36.660    4.6340
   36.675    4.9324
   36.690    4.7393
   36.705    4.4585
   36.720    4.7569
   36.735    4.4409
   36.750    4.5287
   36.765    4.9500
   36.780    5.2308
   36.795    4.7042
   36.810    4.4585
   36.825    4.3181
   36.840    4.4760
   36.855    4.6867
   36.870    5.0026
   36.885    4.6340
   36.900    4.7920
   36.915    4.5287
   36.930    4.5111
   36.945    5.1255
   36.960    4.7744
   36.975    4.4234
   36.990    4.6516
   37.005    4.6691
   37.020    4.5638
   37.035    5.1957
   37.050    5.3712
   37.065    5.1606
   37.080    5.2484
   37.095    5.1431
   37.110    4.3883
   37.125    5.1782
   37.140    5.1957
   37.155    5.0026
   37.170    4.7042
   37.185    4.8973
   37.200    4.7744
   37.215    4.7218
   37.230    4.8973
   37.245    4.6165
   37.260    4.7042
   37.275    4.4409
   37.290    4.5463
   37.305    4.0548
   37.320    4.5814
   37.335    4.8447
   37.350    4.7218
   37.365    4.1776
   37.380    4.3532
   37.395    4.9149
   37.410    4.6165
   37.425    4.4585
   37.440    4.8622
   37.455    4.7218
   37.470    4.6165
   37.485    4.1776
   37.500    4.5111
   37.515    4.6340
   37.530    4.3707
   37.545    4.4936
   37.560    4.6165
   37.575    4.7569
   37.590    4.5814
   37.605    4.9500
   37.620    4.4585
   37.635    4.7042
   37.650    4.6867
   37.665    4.4760
   37.680    4.9149
   37.695    4.6516
   37.710    5.1431
   37.725    4.3883
   37.740    4.5989
   37.755    4.7393
   37.770    4.5463
   37.785    4.5287
   37.800    4.5111
   37.815    4.7744
   37.830    4.6165
   37.845    4.7920
   37.860    4.6516
   37.875    4.6516
   37.890    4.5814
   37.905    4.5463
   37.920    4.6516
   37.935    4.4760
   37.950    4.5111
   37.965    4.4760
   37.980    4.3005
   37.995    4.5989
   38.010    4.9851
   38.025    4.8447
   38.040    4.8095
   38.055    4.6516
   38.070    4.8798
   38.085    4.3181
   38.100    4.2127
   38.115    4.8622
   38.130    5.0026
   38.145    4.7042
   38.160    4.4234
   38.175    4.5111
   38.190    4.8095
   38.205    4.6165
   38.220    4.2654
   38.235    4.3356
   38.250    4.3356
   38.265    4.4058
   38.280    4.2478
   38.295    4.4409
   38.310    4.7393
   38.325    4.4936
   38.340    4.5814
   38.355    4.4234
   38.370    4.4585
   38.385    4.3181
   38.400    4.8622
   38.415    4.4234
   38.430    4.9500
   38.445    4.4058
   38.460    4.4936
   38.475    4.4936
   38.490    4.5111
   38.505    4.3356
   38.520    4.7218
   38.535    4.6867
   38.550    4.1074
   38.565    4.7393
   38.580    4.4234
   38.595    4.1250
   38.610    4.4409
   38.625    4.5287
   38.640    4.4409
   38.655    4.1250
   38.670    4.0197
   38.685    4.1074
   38.700    4.4058
   38.715    4.6691
   38.730    4.2830
   38.745    4.2478
   38.760    4.4234
   38.775    4.3532
   38.790    4.7569
   38.805    4.3883
   38.820    4.5463
   38.835    4.6867
   38.850    4.6165
   38.865    4.5463
   38.880    4.4234
   38.895    4.2830
   38.910    4.5638
   38.925    4.4936
   38.940    4.1074
   38.955    4.5463
   38.970    4.3532
   38.985    4.3883
   39.000    4.3005
   39.015    4.3532
   39.030    4.6516
   39.045    4.7569
   39.060    4.5638
   39.075    4.8798
   39.090    4.4936
   39.105    4.1952
   39.120    4.1952
   39.135    4.0197
   39.150    4.2654
   39.165    4.3005
   39.180    4.7744
   39.195    5.0377
   39.210    4.7218
   39.225    4.7042
   39.240    4.6867
   39.255    4.4234
   39.270    4.5638
   39.285    4.7920
   39.300    5.0026
   39.315    4.6691
   39.330    4.0548
   39.345    4.4058
   39.360    4.2303
   39.375    4.3532
   39.390    4.5638
   39.405    4.9675
   39.420    4.7569
   39.435    4.4936
   39.450    4.2127
   39.465    4.5989
   39.480    4.4058
   39.495    4.2127
   39.510    4.5111
   39.525    4.0372
   39.540    4.2478
   39.555    4.1952
   39.570    4.4936
   39.585    4.4058
   39.600    4.4234
   39.615    4.2830
   39.630    4.3181
   39.645    4.5989
   39.660    4.2127
   39.675    4.7569
   39.690    4.6516
   39.705    4.4409
   39.720    4.6165
   39.735    4.6165
   39.750    4.7920
   39.765    4.5638
   39.780    4.4585
   39.795    4.1601
   39.810    4.3883
   39.825    4.3005
   39.840    5.0904
   39.855    4.4585
   39.870    3.8617
   39.885    4.3181
   39.900    4.2303
   39.915    4.4585
   39.930    4.5287
   39.945    4.3356
   39.960    4.5111
   39.975    4.2830
   39.990    3.9670
