    1.500    9.4085
    1.515    9.5664
    1.530    9.2329
    1.545    9.1276
    1.560    9.0925
    1.575    8.7063
    1.590    7.5829
    1.605    8.4079
    1.620    7.5127
    1.635    8.0393
    1.650    7.8638
    1.665    7.7234
    1.680    7.7760
    1.695    7.8287
    1.710    7.5303
    1.725    7.1441
    1.740    6.6351
    1.755    7.0037
    1.770    7.0388
    1.785    6.7404
    1.800    6.4420
    1.815    6.3718
    1.830    6.1260
    1.845    6.7404
    1.860    6.1436
    1.875    6.5298
    1.890    6.4244
    1.905    6.3016
    1.920    6.2313
    1.935    6.0909
    1.950    5.8627
    1.965    5.8627
    1.980    5.9329
    1.995    6.1962
    2.010    5.8452
    2.025    5.5819
    2.040    5.3537
    2.055    5.1957
    2.070    5.6521
    2.085    5.6872
    2.100    5.5819
    2.115    5.3537
    2.130    5.2659
    2.145    5.1431
    2.160    5.3537
    2.175    5.0026
    2.190    4.9851
    2.205    5.2133
    2.220    4.7218
    2.235    4.7744
    2.250    5.1606
    2.265    5.1431
    2.280    5.2308
    2.295    4.5287
    2.310    4.8622
    2.325    4.6867
    2.340    4.7744
    2.355    4.4585
    2.370    4.5989
    2.385    4.0899
    2.400    4.3707
    2.415    4.6340
    2.430    4.5287
    2.445    4.6691
    2.460    4.5111
    2.475    4.3532
    2.490    4.5989
    2.505    4.1776
    2.520    4.4234
    2.535    4.1425
    2.550    4.5989
    2.565    4.1250
    2.580    4.5814
    2.595    4.5638
    2.610    4.3181
    2.625    4.1952
    2.640    3.8090
    2.655    4.0723
    2.670    4.0899
    2.685    4.4585
    2.700    4.1776
    2.715    4.1601
    2.730    4.0723
    2.745    4.0021
    2.760    3.5984
    2.775    3.9494
    2.790    3.7915
    2.805    3.9670
    2.820    3.8617
    2.835    3.6159
    2.850    3.7388
    2.865    3.7037
    2.880    3.8266
    2.895    3.7739
    2.910    3.9670
    2.925    4.0723
    2.940    3.8617
    2.955    4.0372
    2.970    3.9846
    2.985    3.7564
    3.000    4.1601
    3.015    3.5457
    3.030    3.6510
    3.045    3.6862
    3.060    3.5984
    3.075    3.6335
    3.090    3.7915
    3.105    3.5106
    3.120    3.7213
    3.135    3.7915
    3.150    3.7213
    3.165    3.7564
    3.180    3.6335
    3.195    3.8617
    3.210    3.7388
    3.225    3.7388
    3.240    3.3351
    3.255    3.6862
    3.270    3.6159
    3.285    3.9846
    3.300    3.7915
    3.315    3.5282
    3.330    3.2824
    3.345    3.6686
    3.360    3.9143
    3.375    3.9494
    3.390    3.5984
    3.405    3.5633
    3.420    3.5808
    3.435    3.5106
    3.450    3.4755
    3.465    3.9319
    3.480    3.7388
    3.495    4.0548
    3.510    3.6335
    3.525    3.5457
    3.540    3.5984
    3.555    3.3351
    3.570    3.4053
    3.585    3.8090
    3.600    3.5106
    3.615    3.7213
    3.630    3.7564
    3.645    3.8617
    3.660    3.4755
    3.675    3.5106
    3.690    3.4229
    3.705    3.6686
    3.720    3.3351
    3.735    3.5808
    3.750    3.7213
    3.765    3.5633
    3.780    3.2649
    3.795    3.4053
    3.810    3.3702
    3.825    3.6686
    3.840    3.8090
    3.855    3.9143
    3.870    3.8792
    3.885    4.0723
    3.900    3.7915
    3.915    3.8968
    3.930    3.5457
    3.945    3.4580
    3.960    3.5106
    3.975    3.2473
    3.990    3.1420
    4.005    3.4931
    4.020    3.4931
    4.035    3.7213
    4.050    3.6510
    4.065    3.4580
    4.080    3.8090
    4.095    3.5808
    4.110    3.4580
    4.125    3.3351
    4.140    3.8617
    4.155    3.4580
    4.170    3.5282
    4.185    3.3000
    4.200    3.4580
    4.215    3.4755
    4.230    3.4229
    4.245    3.6335
    4.260    3.6686
    4.275    3.5633
    4.290    3.6159
    4.305    3.8090
    4.320    3.6159
    4.335    3.6335
    4.350    3.2298
    4.365    3.9319
    4.380    3.7213
    4.395    3.9494
    4.410    3.5633
    4.425    3.8968
    4.440    3.5808
    4.455    3.3877
    4.470    3.5106
    4.485    3.1947
    4.500    3.5106
    4.515    3.6510
    4.530    3.7213
    4.545    3.7915
    4.560    3.5808
    4.575    3.6510
    4.590    3.7388
    4.605    3.4229
    4.620    3.3000
    4.635    3.3702
    4.650    3.6335
    4.665    3.3877
    4.680    3.4580
    4.695    3.5282
    4.710    3.3526
    4.725    3.1420
    4.740    3.6335
    4.755    3.8090
    4.770    3.4580
    4.785    3.2298
    4.800    3.6335
    4.815    3.4931
    4.830    3.5633
    4.845    3.5633
    4.860    3.2824
    4.875    3.5282
    4.890    3.7564
    4.905    3.9670
    4.920    4.0899
    4.935    3.7915
    4.950    3.2298
    4.965    3.5808
    4.980    3.6159
    4.995    3.5106
    5.010    3.5633
    5.025    3.5457
    5.040    3.6510
    5.055    3.4580
    5.070    3.3175
    5.085    3.5282
    5.100    3.4229
    5.115    3.3175
    5.130    3.1771
    5.145    3.5106
    5.160    3.4229
    5.175    3.7388
    5.190    3.7915
    5.205    3.5808
    5.220    3.4404
    5.235    3.6159
    5.250    3.8090
    5.265    3.4580
    5.280    3.7213
    5.295    3.6159
    5.310    3.8090
    5.325    3.3175
    5.340    3.1947
    5.355    3.8617
    5.370    3.7213
    5.385    3.3175
    5.400    3.3877
    5.415    3.3175
    5.430    3.5633
    5.445    3.2824
    5.460    3.2824
    5.475    3.4580
    5.490    3.6335
    5.505    3.4229
    5.520    3.7915
    5.535    3.7915
    5.550    3.3000
    5.565    3.3877
    5.580    3.3351
    5.595    3.3526
    5.610    3.8090
    5.625    3.6335
    5.640    3.7037
    5.655    3.6159
    5.670    3.4931
    5.685    3.5984
    5.700    3.6686
    5.715    3.6510
    5.730    3.8968
    5.745    3.7739
    5.760    3.5457
    5.775    3.8792
    5.790    3.7388
    5.805    3.9143
    5.820    3.5282
    5.835    3.7739
    5.850    3.7388
    5.865    3.7037
    5.880    3.7037
    5.895    3.5984
    5.910    3.7388
    5.925    3.8968
    5.940    3.5633
    5.955    3.5457
    5.970    3.7388
    5.985    3.6686
    6.000    3.8617
    6.015    3.8266
    6.030    4.4058
    6.045    4.0197
    6.060    3.4755
    6.075    3.6335
    6.090    3.4229
    6.105    3.7739
    6.120    3.6335
    6.135    3.8617
    6.150    3.5282
    6.165    3.6510
    6.180    3.7739
    6.195    3.6335
    6.210    3.9846
    6.225    3.5808
    6.240    3.8441
    6.255    3.6159
    6.270    3.8617
    6.285    3.6862
    6.300    3.4755
    6.315    3.8617
    6.330    3.5984
    6.345    3.3702
    6.360    3.5808
    6.375    3.5106
    6.390    3.5633
    6.405    3.2473
    6.420    3.3175
    6.435    3.3351
    6.450    3.6159
    6.465    3.1420
    6.480    3.4053
    6.495    3.4229
    6.510    3.5457
    6.525    3.5808
    6.540    3.2298
    6.555    3.5633
    6.570    3.2298
    6.585    3.5457
    6.600    3.1947
    6.615    3.4755
    6.630    3.7564
    6.645    3.5457
    6.660    3.8090
    6.675    3.6335
    6.690    3.7388
    6.705    3.6686
    6.720    3.4053
    6.735    3.5984
    6.750    3.4580
    6.765    3.6862
    6.780    3.7739
    6.795    4.0372
    6.810    3.8968
    6.825    3.9143
    6.840    3.9494
    6.855    3.3175
    6.870    3.4229
    6.885    3.5457
    6.900    3.7213
    6.915    4.1776
    6.930    3.8266
    6.945    3.7388
    6.960    3.7388
    6.975    3.7564
    6.990    3.3702
    7.005    3.6862
    7.020    3.7915
    7.035    4.0548
    7.050    4.1952
    7.065    3.5457
    7.080    3.6862
    7.095    3.8968
    7.110    3.9846
    7.125    3.4229
    7.140    3.5633
    7.155    3.7213
    7.170    3.9143
    7.185    3.6686
    7.200    3.7213
    7.215    3.4931
    7.230    3.5808
    7.245    3.8792
    7.260    3.5457
    7.275    3.5106
    7.290    3.5808
    7.305    3.7564
    7.320    4.0197
    7.335    4.0899
    7.350    3.8617
    7.365    3.5106
    7.380    3.9143
    7.395    3.8617
    7.410    3.3877
    7.425    3.5106
    7.440    3.6510
    7.455    3.9670
    7.470    3.8441
    7.485    4.1425
    7.500    3.8090
    7.515    4.0372
    7.530    3.7564
    7.545    3.7564
    7.560    4.0899
    7.575    3.7037
    7.590    4.0372
    7.605    3.8968
    7.620    3.8968
    7.635    3.9670
    7.650    3.8090
    7.665    3.7915
    7.680    4.0548
    7.695    4.2127
    7.710    3.8617
    7.725    3.8968
    7.740    3.8968
    7.755    4.0723
    7.770    4.1250
    7.785    4.0197
    7.800    4.0021
    7.815    4.0197
    7.830    3.6862
    7.845    3.5808
    7.860    4.1952
    7.875    4.1074
    7.890    3.8441
    7.905    3.8792
    7.920    3.5984
    7.935    3.8617
    7.950    3.9319
    7.965    3.6335
    7.980    3.8792
    7.995    3.7037
    8.010    3.8441
    8.025    3.7739
    8.040    3.5457
    8.055    3.9494
    8.070    4.1776
    8.085    3.8792
    8.100    3.7739
    8.115    3.9319
    8.130    3.6510
    8.145    3.7388
    8.160    4.3883
    8.175    3.7739
    8.190    3.5633
    8.205    3.7213
    8.220    3.6510
    8.235    3.8266
    8.250    3.8266
    8.265    4.0021
    8.280    3.7739
    8.295    3.7915
    8.310    3.8968
    8.325    3.8090
    8.340    3.7915
    8.355    3.8968
    8.370    3.9494
    8.385    3.7739
    8.400    3.9494
    8.415    3.9494
    8.430    4.0197
    8.445    4.1250
    8.460    3.8266
    8.475    3.8617
    8.490    3.7037
    8.505    3.4404
    8.520    3.7915
    8.535    3.9494
    8.550    3.9846
    8.565    4.1074
    8.580    3.9846
    8.595    3.9670
    8.610    3.9143
    8.625    4.0372
    8.640    3.7213
    8.655    3.9143
    8.670    4.0021
    8.685    4.1250
    8.700    4.0899
    8.715    3.8968
    8.730    3.9319
    8.745    3.7915
    8.760    3.8090
    8.775    4.0548
    8.790    4.2478
    8.805    4.1601
    8.820    3.8266
    8.835    3.7564
    8.850    4.0548
    8.865    3.9319
    8.880    3.9670
    8.895    4.1425
    8.910    4.1952
    8.925    3.7213
    8.940    3.9670
    8.955    4.0548
    8.970    4.5989
    8.985    4.1952
    9.000    3.8792
    9.015    3.9319
    9.030    3.9670
    9.045    4.0723
    9.060    4.1074
    9.075    3.8617
    9.090    4.1250
    9.105    4.0548
    9.120    3.9846
    9.135    3.8792
    9.150    4.1601
    9.165    4.1952
    9.180    3.9846
    9.195    3.8266
    9.210    3.7388
    9.225    4.0723
    9.240    4.2478
    9.255    4.0197
    9.270    4.0372
    9.285    3.9494
    9.300    4.0197
    9.315    4.0197
    9.330    4.1425
    9.345    4.3707
    9.360    4.2127
    9.375    4.2654
    9.390    4.3005
    9.405    4.4234
    9.420    3.8441
    9.435    4.3356
    9.450    4.5111
    9.465    4.5989
    9.480    4.6516
    9.495    4.2830
    9.510    4.4585
    9.525    4.3356
    9.540    4.3005
    9.555    4.3532
    9.570    4.4760
    9.585    4.5638
    9.600    4.6165
    9.615    4.4058
    9.630    4.0548
    9.645    4.1776
    9.660    4.2654
    9.675    4.1776
    9.690    4.4058
    9.705    4.4409
    9.720    4.5111
    9.735    4.0021
    9.750    4.3532
    9.765    4.2654
    9.780    4.5463
    9.795    4.5287
    9.810    4.2478
    9.825    4.4058
    9.840    4.0899
    9.855    4.0197
    9.870    3.9846
    9.885    4.2830
    9.900    4.3005
    9.915    4.4234
    9.930    4.4409
    9.945    4.1952
    9.960    4.5989
    9.975    4.4936
    9.990    4.3532
   10.005    4.5638
   10.020    4.6165
   10.035    4.4409
   10.050    4.2830
   10.065    4.3181
   10.080    4.7569
   10.095    4.6691
   10.110    4.5287
   10.125    4.0723
   10.140    3.8792
   10.155    4.1952
   10.170    4.1425
   10.185    4.4058
   10.200    4.2654
   10.215    4.4234
   10.230    3.9846
   10.245    4.4409
   10.260    4.5287
   10.275    4.2127
   10.290    4.5111
   10.305    4.3883
   10.320    4.6340
   10.335    4.5989
   10.350    4.4409
   10.365    4.1601
   10.380    4.5814
   10.395    4.6165
   10.410    4.5989
   10.425    4.4585
   10.440    4.1601
   10.455    4.2303
   10.470    4.1074
   10.485    4.3707
   10.500    3.8617
   10.515    3.9143
   10.530    4.1250
   10.545    3.8968
   10.560    4.4409
   10.575    4.4409
   10.590    4.0197
   10.605    4.0899
   10.620    4.3707
   10.635    4.0372
   10.650    4.0548
   10.665    3.8266
   10.680    3.9846
   10.695    4.1250
   10.710    3.8968
   10.725    4.6867
   10.740    4.1952
   10.755    4.2127
   10.770    4.1952
   10.785    4.2303
   10.800    4.6340
   10.815    4.4760
   10.830    3.9494
   10.845    4.0372
   10.860    3.9494
   10.875    3.8266
   10.890    3.9494
   10.905    4.0021
   10.920    3.9846
   10.935    4.0021
   10.950    4.1425
   10.965    4.5638
   10.980    4.3532
   10.995    3.9143
   11.010    3.8617
   11.025    3.7564
   11.040    4.3883
   11.055    4.0197
   11.070    4.3181
   11.085    4.0021
   11.100    3.7213
   11.115    3.6686
   11.130    4.4058
   11.145    4.3005
   11.160    3.5984
   11.175    4.0372
   11.190    4.1952
   11.205    3.7915
   11.220    4.1250
   11.235    3.9846
   11.250    3.9143
   11.265    4.0197
   11.280    4.0723
   11.295    3.8968
   11.310    4.2478
   11.325    4.4234
   11.340    3.9494
   11.355    3.5984
   11.370    4.3707
   11.385    3.8266
   11.400    3.5457
   11.415    4.1250
   11.430    3.9846
   11.445    3.6159
   11.460    4.0197
   11.475    3.9846
   11.490    3.8441
   11.505    4.1250
   11.520    4.0723
   11.535    4.0899
   11.550    3.9143
   11.565    3.7564
   11.580    3.7915
   11.595    3.9494
   11.610    3.4931
   11.625    3.7388
   11.640    3.9143
   11.655    3.6335
   11.670    3.7388
   11.685    3.7915
   11.700    3.9670
   11.715    4.0021
   11.730    3.8617
   11.745    3.7037
   11.760    3.5282
   11.775    4.0197
   11.790    4.1074
   11.805    3.5282
   11.820    3.8266
   11.835    3.9846
   11.850    4.0372
   11.865    4.0197
   11.880    3.9846
   11.895    3.7213
   11.910    3.6686
   11.925    3.5106
   11.940    3.9143
   11.955    3.5282
   11.970    3.6686
   11.985    3.7915
   12.000    3.6510
   12.015    3.7213
   12.030    3.9846
   12.045    3.9494
   12.060    4.0021
   12.075    3.8090
   12.090    3.4404
   12.105    3.7213
   12.120    3.5808
   12.135    3.6510
   12.150    3.6862
   12.165    3.8441
   12.180    3.6510
   12.195    3.6335
   12.210    3.7037
   12.225    3.3702
   12.240    3.1596
   12.255    3.4229
   12.270    3.8441
   12.285    3.7037
   12.300    3.6862
   12.315    3.6862
   12.330    3.4931
   12.345    3.6510
   12.360    3.6159
   12.375    3.5984
   12.390    3.2649
   12.405    3.5633
   12.420    3.6510
   12.435    3.4229
   12.450    3.6335
   12.465    3.3351
   12.480    3.6686
   12.495    3.6335
   12.510    3.6862
   12.525    3.7037
   12.540    3.9494
   12.555    3.7739
   12.570    3.2649
   12.585    3.5282
   12.600    3.9670
   12.615    3.5984
   12.630    3.5282
   12.645    3.7388
   12.660    3.6686
   12.675    3.4931
   12.690    3.6686
   12.705    3.9143
   12.720    3.4931
   12.735    3.3526
   12.750    3.4053
   12.765    3.6862
   12.780    4.1250
   12.795    3.3175
   12.810    3.7213
   12.825    3.3877
   12.840    3.3877
   12.855    3.4755
   12.870    3.6159
   12.885    3.4404
   12.900    3.6159
   12.915    3.4229
   12.930    3.0016
   12.945    3.3877
   12.960    3.3000
   12.975    3.6686
   12.990    3.8266
   13.005    3.8266
   13.020    3.3526
   13.035    3.7915
   13.050    3.6510
   13.065    3.6335
   13.080    3.8090
   13.095    3.5984
   13.110    3.6335
   13.125    3.7388
   13.140    3.7037
   13.155    3.6686
   13.170    3.6862
   13.185    3.6686
   13.200    3.7037
   13.215    3.7388
   13.230    3.5984
   13.245    3.5106
   13.260    3.5106
   13.275    3.5106
   13.290    3.4755
   13.305    3.6335
   13.320    3.4404
   13.335    3.5984
   13.350    3.2298
   13.365    3.7388
   13.380    3.1245
   13.395    3.3526
   13.410    3.5633
   13.425    3.3000
   13.440    3.7037
   13.455    3.7213
   13.470    4.0548
   13.485    3.5808
   13.500    3.8792
   13.515    3.0367
   13.530    3.2824
   13.545    3.0718
   13.560    3.5106
   13.575    3.5282
   13.590    3.4931
   13.605    3.7915
   13.620    3.7213
   13.635    3.2298
   13.650    3.3175
   13.665    3.7388
   13.680    3.6862
   13.695    3.4053
   13.710    3.4755
   13.725    3.6159
   13.740    3.6510
   13.755    3.5633
   13.770    3.5984
   13.785    3.4053
   13.800    3.4229
   13.815    3.4580
   13.830    3.4053
   13.845    3.5808
   13.860    3.8792
   13.875    3.4229
   13.890    3.4404
   13.905    3.3351
   13.920    3.4404
   13.935    3.6159
   13.950    3.3175
   13.965    3.7388
   13.980    3.5106
   13.995    3.4053
   14.010    4.0197
   14.025    3.6510
   14.040    3.3000
   14.055    3.4580
   14.070    3.5457
   14.085    3.1771
   14.100    3.4053
   14.115    3.3351
   14.130    3.4229
   14.145    3.8266
   14.160    3.6335
   14.175    3.5106
   14.190    3.5457
   14.205    3.7739
   14.220    3.6159
   14.235    3.5633
   14.250    3.2649
   14.265    3.6335
   14.280    3.5984
   14.295    3.4580
   14.310    3.6159
   14.325    3.5457
   14.340    3.1596
   14.355    3.2824
   14.370    3.0016
   14.385    3.4580
   14.400    3.4580
   14.415    3.7388
   14.430    3.4931
   14.445    3.3000
   14.460    3.5106
   14.475    3.2824
   14.490    3.5282
   14.505    3.7388
   14.520    3.5457
   14.535    3.4053
   14.550    3.5457
   14.565    3.5457
   14.580    3.6686
   14.595    3.5984
   14.610    3.6159
   14.625    3.3702
   14.640    3.7388
   14.655    3.4755
   14.670    3.4931
   14.685    3.8266
   14.700    3.5633
   14.715    3.7388
   14.730    3.5457
   14.745    3.5282
   14.760    3.5106
   14.775    3.3175
   14.790    3.4755
   14.805    3.4404
   14.820    3.7213
   14.835    3.2298
   14.850    3.3000
   14.865    3.1420
   14.880    3.5282
   14.895    3.5457
   14.910    3.5106
   14.925    3.5633
   14.940    3.5457
   14.955    3.7388
   14.970    3.6159
   14.985    3.1771
   15.000    3.6335
   15.015    3.6686
   15.030    3.3877
   15.045    3.4404
   15.060    3.4053
   15.075    3.8266
   15.090    3.7564
   15.105    3.4229
   15.120    3.5633
   15.135    3.6862
   15.150    3.6159
   15.165    3.5633
   15.180    3.4229
   15.195    3.2824
   15.210    3.5457
   15.225    3.4931
   15.240    3.7388
   15.255    3.3526
   15.270    3.3175
   15.285    3.4053
   15.300    3.2649
   15.315    3.1771
   15.330    3.5282
   15.345    3.3877
   15.360    3.7037
   15.375    3.4580
   15.390    3.5808
   15.405    3.4931
   15.420    3.6862
   15.435    3.9494
   15.450    3.4931
   15.465    3.8266
   15.480    3.7213
   15.495    3.6862
   15.510    3.4053
   15.525    3.5633
   15.540    3.8441
   15.555    3.3351
   15.570    3.2824
   15.585    3.5984
   15.600    3.3702
   15.615    3.5457
   15.630    3.5984
   15.645    3.4580
   15.660    3.3526
   15.675    3.4931
   15.690    3.2122
   15.705    3.2298
   15.720    3.1420
   15.735    3.4404
   15.750    3.1069
   15.765    2.8963
   15.780    3.1771
   15.795    3.4053
   15.810    3.4931
   15.825    3.4755
   15.840    3.3877
   15.855    3.6510
   15.870    3.6335
   15.885    3.7564
   15.900    3.5808
   15.915    3.7564
   15.930    3.4580
   15.945    3.4053
   15.960    3.4755
   15.975    3.1069
   15.990    3.3175
   16.005    3.4755
   16.020    3.2122
   16.035    3.2122
   16.050    3.2122
   16.065    3.1771
   16.080    3.4404
   16.095    3.5808
   16.110    3.1947
   16.125    3.2824
   16.140    3.9143
   16.155    3.7564
   16.170    3.7213
   16.185    3.6686
   16.200    3.5106
   16.215    3.8441
   16.230    3.5282
   16.245    3.3877
   16.260    3.7213
   16.275    3.8441
   16.290    3.6335
   16.305    3.4229
   16.320    3.2298
   16.335    3.4755
   16.350    3.6159
   16.365    3.6159
   16.380    3.3702
   16.395    3.3702
   16.410    3.3702
   16.425    3.7388
   16.440    3.6159
   16.455    3.5457
   16.470    3.6335
   16.485    3.0718
   16.500    3.5106
   16.515    3.7388
   16.530    3.6159
   16.545    3.4580
   16.560    3.3877
   16.575    3.4229
   16.590    3.3526
   16.605    3.3526
   16.620    3.5633
   16.635    3.6686
   16.650    3.4580
   16.665    3.6335
   16.680    3.5106
   16.695    3.4755
   16.710    3.5282
   16.725    3.5984
   16.740    3.7739
   16.755    3.4755
   16.770    3.2649
   16.785    3.5106
   16.800    3.3877
   16.815    3.0893
   16.830    3.0191
   16.845    3.3351
   16.860    3.1947
   16.875    3.2298
   16.890    3.3351
   16.905    3.3526
   16.920    3.4053
   16.935    3.1420
   16.950    3.5984
   16.965    3.6335
   16.980    3.4931
   16.995    3.6862
   17.010    3.7388
   17.025    3.5984
   17.040    3.5106
   17.055    3.3175
   17.070    3.2473
   17.085    3.3526
   17.100    3.3175
   17.115    3.2122
   17.130    3.4053
   17.145    3.4931
   17.160    3.8266
   17.175    3.6862
   17.190    3.6335
   17.205    2.9665
   17.220    3.2298
   17.235    3.6159
   17.250    3.7739
   17.265    3.4404
   17.280    3.4931
   17.295    3.4580
   17.310    3.3877
   17.325    3.5984
   17.340    3.5106
   17.355    3.6510
   17.370    3.5457
   17.385    3.5457
   17.400    3.6335
   17.415    3.1947
   17.430    3.6510
   17.445    3.5457
   17.460    3.5633
   17.475    3.4053
   17.490    3.4053
   17.505    3.4404
   17.520    3.4755
   17.535    3.4053
   17.550    3.3877
   17.565    3.5282
   17.580    3.6510
   17.595    3.5633
   17.610    3.2122
   17.625    3.4755
   17.640    3.6510
   17.655    3.6335
   17.670    3.5106
   17.685    3.3000
   17.700    3.3000
   17.715    3.4755
   17.730    3.4931
   17.745    3.5282
   17.760    3.4404
   17.775    3.5282
   17.790    3.0893
   17.805    3.4580
   17.820    3.3877
   17.835    3.4053
   17.850    3.3000
   17.865    3.3526
   17.880    3.6335
   17.895    3.5633
   17.910    3.4580
   17.925    3.6862
   17.940    3.4931
   17.955    3.9143
   17.970    3.7739
   17.985    3.3000
   18.000    3.4580
   18.015    3.6510
   18.030    3.3000
   18.045    3.1245
   18.060    3.0893
   18.075    3.4053
   18.090    3.4580
   18.105    3.3175
   18.120    3.6159
   18.135    3.7739
   18.150    3.8266
   18.165    3.6159
   18.180    3.4053
   18.195    3.2298
   18.210    3.4580
   18.225    3.5282
   18.240    3.1069
   18.255    2.9665
   18.270    3.4229
   18.285    3.1420
   18.300    3.4404
   18.315    3.3175
   18.330    3.3877
   18.345    3.4053
   18.360    3.5282
   18.375    3.3000
   18.390    3.6510
   18.405    3.4580
   18.420    3.2122
   18.435    3.4404
   18.450    3.3000
   18.465    3.2298
   18.480    3.3351
   18.495    3.1420
   18.510    3.5457
   18.525    3.4404
   18.540    3.5808
   18.555    3.3702
   18.570    3.4229
   18.585    3.4404
   18.600    4.0372
   18.615    3.3000
   18.630    3.6159
   18.645    3.8090
   18.660    3.7037
   18.675    3.4755
   18.690    3.5633
   18.705    3.7564
   18.720    3.5984
   18.735    3.2649
   18.750    3.1947
   18.765    3.4053
   18.780    3.6686
   18.795    3.3702
   18.810    3.7213
   18.825    3.6335
   18.840    3.5282
   18.855    3.2649
   18.870    3.3877
   18.885    3.2298
   18.900    3.2824
   18.915    3.1947
   18.930    3.4229
   18.945    3.0191
   18.960    3.4931
   18.975    3.4755
   18.990    3.8266
   19.005    3.4755
   19.020    3.4053
   19.035    3.6159
   19.050    3.4404
   19.065    3.5106
   19.080    3.6159
   19.095    3.4229
   19.110    3.4229
   19.125    3.2122
   19.140    3.4755
   19.155    3.5808
   19.170    3.5633
   19.185    3.4931
   19.200    3.7213
   19.215    3.8617
   19.230    3.7388
   19.245    3.2824
   19.260    3.3702
   19.275    3.4580
   19.290    3.6510
   19.305    3.5808
   19.320    3.6335
   19.335    3.3351
   19.350    3.5106
   19.365    3.4931
   19.380    3.1420
   19.395    3.2649
   19.410    3.7037
   19.425    3.5808
   19.440    3.4931
   19.455    3.5984
   19.470    3.5984
   19.485    3.6159
   19.500    3.7388
   19.515    3.5457
   19.530    3.6159
   19.545    3.6862
   19.560    3.3351
   19.575    3.4053
   19.590    3.5106
   19.605    3.6335
   19.620    3.1947
   19.635    3.6686
   19.650    3.8266
   19.665    3.8617
   19.680    3.8266
   19.695    3.7037
   19.710    3.8792
   19.725    3.6159
   19.740    3.6862
   19.755    3.5984
   19.770    3.5282
   19.785    3.6686
   19.800    3.5808
   19.815    3.3877
   19.830    3.3526
   19.845    3.8266
   19.860    3.8968
   19.875    3.5106
   19.890    3.6862
   19.905    4.0021
   19.920    3.6159
   19.935    3.5457
   19.950    3.4229
   19.965    3.3351
   19.980    3.5106
   19.995    3.4580
   20.010    3.2298
   20.025    3.5457
   20.040    3.8266
   20.055    3.5633
   20.070    3.6335
   20.085    3.8968
   20.100    3.4755
   20.115    3.3702
   20.130    3.3526
   20.145    3.2473
   20.160    3.7037
   20.175    3.8090
   20.190    3.5633
   20.205    3.2824
   20.220    3.4931
   20.235    3.4755
   20.250    3.6335
   20.265    3.7388
   20.280    3.6686
   20.295    3.6335
   20.310    3.6686
   20.325    3.5808
   20.340    3.4229
   20.355    3.3000
   20.370    3.4931
   20.385    3.4580
   20.400    3.6862
   20.415    3.6335
   20.430    3.5984
   20.445    3.8441
   20.460    3.7037
   20.475    3.2298
   20.490    3.2824
   20.505    3.3702
   20.520    3.8792
   20.535    3.4404
   20.550    3.3175
   20.565    3.8090
   20.580    3.3351
   20.595    3.5633
   20.610    3.5633
   20.625    3.1947
   20.640    3.3000
   20.655    3.4931
   20.670    3.1947
   20.685    3.4931
   20.700    3.7037
   20.715    3.7915
   20.730    3.2122
   20.745    3.1771
   20.760    3.2122
   20.775    3.7739
   20.790    3.5633
   20.805    3.6335
   20.820    3.6335
   20.835    3.8968
   20.850    3.8266
   20.865    3.2824
   20.880    3.3702
   20.895    3.7213
   20.910    4.1601
   20.925    3.8617
   20.940    4.1425
   20.955    3.7739
   20.970    3.7915
   20.985    3.6335
   21.000    3.7915
   21.015    3.8266
   21.030    3.4755
   21.045    3.8968
   21.060    3.5282
   21.075    3.5984
   21.090    3.7564
   21.105    3.9143
   21.120    3.9846
   21.135    3.7213
   21.150    4.0021
   21.165    4.1074
   21.180    3.9319
   21.195    4.0197
   21.210    3.6862
   21.225    3.8090
   21.240    3.6686
   21.255    3.6510
   21.270    3.5457
   21.285    3.2122
   21.300    3.5984
   21.315    4.1776
   21.330    3.8090
   21.345    3.7037
   21.360    3.5808
   21.375    3.4229
   21.390    3.8617
   21.405    3.5633
   21.420    3.6862
   21.435    3.7915
   21.450    3.8090
   21.465    4.0372
   21.480    4.0723
   21.495    3.5808
   21.510    3.5106
   21.525    3.5457
   21.540    3.3877
   21.555    3.5984
   21.570    3.4404
   21.585    3.5984
   21.600    3.7388
   21.615    3.8792
   21.630    3.9670
   21.645    4.0548
   21.660    3.4580
   21.675    3.5984
   21.690    3.3526
   21.705    3.4404
   21.720    3.3877
   21.735    3.6862
   21.750    3.4755
   21.765    3.4404
   21.780    3.5808
   21.795    3.3702
   21.810    3.6862
   21.825    3.7213
   21.840    3.5457
   21.855    4.0372
   21.870    3.8266
   21.885    3.2824
   21.900    3.4755
   21.915    3.7915
   21.930    3.6686
   21.945    3.5457
   21.960    3.5633
   21.975    3.7213
   21.990    3.6862
   22.005    3.7037
   22.020    3.9670
   22.035    3.4053
   22.050    3.8266
   22.065    3.7564
   22.080    3.4931
   22.095    3.5808
   22.110    3.8266
   22.125    3.8266
   22.140    3.6686
   22.155    3.8792
   22.170    3.7564
   22.185    3.7388
   22.200    3.5633
   22.215    3.7739
   22.230    3.6510
   22.245    3.5633
   22.260    3.5282
   22.275    3.5984
   22.290    4.0021
   22.305    3.7564
   22.320    4.0021
   22.335    3.8441
   22.350    3.7564
   22.365    3.7739
   22.380    3.5282
   22.395    3.6335
   22.410    3.8617
   22.425    3.7388
   22.440    3.4053
   22.455    3.8792
   22.470    4.0197
   22.485    3.6335
   22.500    3.6510
   22.515    3.4580
   22.530    3.6862
   22.545    3.5106
   22.560    3.7213
   22.575    3.6686
   22.590    3.6686
   22.605    3.7739
   22.620    3.4229
   22.635    3.6335
   22.650    3.8617
   22.665    3.5106
   22.680    3.9319
   22.695    3.8617
   22.710    3.5984
   22.725    3.4931
   22.740    3.5282
   22.755    3.4580
   22.770    3.5808
   22.785    3.5984
   22.800    3.9143
   22.815    3.9670
   22.830    3.4931
   22.845    3.5808
   22.860    3.4580
   22.875    3.5106
   22.890    3.7915
   22.905    3.8090
   22.920    3.7739
   22.935    3.4404
   22.950    3.5633
   22.965    3.5457
   22.980    3.5984
   22.995    4.1601
   23.010    3.8441
   23.025    4.0372
   23.040    3.6159
   23.055    3.7739
   23.070    3.4053
   23.085    4.0899
   23.100    3.9494
   23.115    3.6510
   23.130    4.0372
   23.145    3.4755
   23.160    3.5106
   23.175    3.6335
   23.190    3.5457
   23.205    3.8441
   23.220    4.0548
   23.235    3.9143
   23.250    3.7388
   23.265    3.7213
   23.280    3.9670
   23.295    3.4404
   23.310    3.8617
   23.325    4.0723
   23.340    3.6335
   23.355    3.7739
   23.370    3.8968
   23.385    3.7915
   23.400    3.3526
   23.415    3.6335
   23.430    3.3702
   23.445    3.2649
   23.460    3.8792
   23.475    3.7564
   23.490    3.6510
   23.505    3.8266
   23.520    4.0021
   23.535    3.4404
   23.550    3.5282
   23.565    3.5808
   23.580    3.7213
   23.595    3.3000
   23.610    3.4755
   23.625    3.9319
   23.640    3.9846
   23.655    3.6686
   23.670    3.4931
   23.685    3.7915
   23.700    3.3526
   23.715    3.8266
   23.730    3.7037
   23.745    4.1776
   23.760    3.6862
   23.775    3.7037
   23.790    3.7037
   23.805    3.6686
   23.820    3.7213
   23.835    3.9846
   23.850    3.5984
   23.865    3.8617
   23.880    3.8090
   23.895    3.8266
   23.910    3.9846
   23.925    3.7037
   23.940    3.5457
   23.955    3.8792
   23.970    3.6686
   23.985    3.3702
   24.000    3.7915
   24.015    3.6510
   24.030    3.6510
   24.045    3.4931
   24.060    3.4404
   24.075    3.3175
   24.090    3.6159
   24.105    3.8090
   24.120    3.6335
   24.135    3.4404
   24.150    3.4404
   24.165    3.7739
   24.180    3.9846
   24.195    3.8441
   24.210    3.5808
   24.225    3.3175
   24.240    3.7037
   24.255    3.6510
   24.270    3.8441
   24.285    3.7564
   24.300    4.0372
   24.315    3.6159
   24.330    3.8441
   24.345    3.5106
   24.360    3.6159
   24.375    3.7564
   24.390    3.6335
   24.405    3.8090
   24.420    3.9319
   24.435    3.4755
   24.450    3.5808
   24.465    3.3000
   24.480    3.1420
   24.495    3.5984
   24.510    3.8266
   24.525    4.0723
   24.540    3.7739
   24.555    3.5457
   24.570    3.5808
   24.585    3.6510
   24.600    3.5808
   24.615    3.4229
   24.630    3.4229
   24.645    3.5633
   24.660    3.4229
   24.675    3.4404
   24.690    3.3702
   24.705    3.4229
   24.720    3.3702
   24.735    3.4931
   24.750    3.6510
   24.765    3.4404
   24.780    3.4755
   24.795    3.4755
   24.810    3.9319
   24.825    3.7213
   24.840    4.0548
   24.855    4.0197
   24.870    3.8441
   24.885    3.9143
   24.900    3.6510
   24.915    3.4229
   24.930    3.3702
   24.945    3.4229
   24.960    3.6159
   24.975    3.5282
   24.990    3.5282
   25.005    3.7037
   25.020    4.0899
   25.035    3.6510
   25.050    3.5282
   25.065    3.3877
   25.080    3.3351
   25.095    3.3175
   25.110    3.5633
   25.125    3.5282
   25.140    3.6335
   25.155    3.7564
   25.170    3.7213
   25.185    3.3877
   25.200    3.4755
   25.215    3.3000
   25.230    3.2824
   25.245    3.3877
   25.260    3.4404
   25.275    3.5633
   25.290    3.7564
   25.305    3.6686
   25.320    3.4931
   25.335    3.6686
   25.350    3.4931
   25.365    3.5106
   25.380    3.5106
   25.395    3.6159
   25.410    3.4931
   25.425    3.4404
   25.440    3.5808
   25.455    3.7037
   25.470    3.4931
   25.485    3.3702
   25.500    3.2649
   25.515    3.4580
   25.530    3.7739
   25.545    3.6862
   25.560    3.4404
   25.575    3.5808
   25.590    3.8090
   25.605    3.7037
   25.620    3.6510
   25.635    3.5808
   25.650    3.6862
   25.665    3.4053
   25.680    3.5808
   25.695    3.3000
   25.710    3.5633
   25.725    3.6862
   25.740    3.7213
   25.755    3.4404
   25.770    3.6686
   25.785    3.3351
   25.800    3.2298
   25.815    3.1596
   25.830    3.5808
   25.845    3.9143
   25.860    3.7564
   25.875    3.7739
   25.890    3.3526
   25.905    3.5633
   25.920    3.3175
   25.935    3.4931
   25.950    3.9143
   25.965    3.7739
   25.980    3.3175
   25.995    3.5457
   26.010    3.6862
   26.025    3.4580
   26.040    3.4931
   26.055    3.3877
   26.070    3.3877
   26.085    3.5282
   26.100    3.6862
   26.115    3.8090
   26.130    3.6862
   26.145    3.7213
   26.160    3.8266
   26.175    3.9494
   26.190    3.6686
   26.205    3.4404
   26.220    3.3000
   26.235    3.4404
   26.250    3.3702
   26.265    3.4580
   26.280    3.3877
   26.295    3.3877
   26.310    3.3702
   26.325    3.4931
   26.340    3.5106
   26.355    3.9319
   26.370    3.5457
   26.385    3.6335
   26.400    3.5984
   26.415    3.1069
   26.430    3.3526
   26.445    3.8266
   26.460    3.5457
   26.475    3.4755
   26.490    3.7213
   26.505    3.5808
   26.520    3.4931
   26.535    3.4931
   26.550    3.5282
   26.565    3.6159
   26.580    3.4404
   26.595    3.4580
   26.610    3.5457
   26.625    3.6862
   26.640    3.4755
   26.655    3.6686
   26.670    3.3702
   26.685    3.5633
   26.700    3.6686
   26.715    4.0723
   26.730    3.2649
   26.745    3.3877
   26.760    3.6159
   26.775    3.6510
   26.790    3.1069
   26.805    3.1771
   26.820    3.5808
   26.835    3.6510
   26.850    3.7388
   26.865    3.3877
   26.880    3.2122
   26.895    3.3526
   26.910    3.6335
   26.925    3.6159
   26.940    3.3702
   26.955    3.4053
   26.970    3.5106
   26.985    3.6510
   27.000    3.3526
   27.015    3.2473
   27.030    3.4580
   27.045    3.7564
   27.060    3.5457
   27.075    3.1947
   27.090    3.3000
   27.105    3.4931
   27.120    3.7739
   27.135    3.3877
   27.150    3.0718
   27.165    3.1069
   27.180    3.2122
   27.195    3.4229
   27.210    3.3526
   27.225    3.2824
   27.240    3.6335
   27.255    3.3175
   27.270    3.4229
   27.285    3.1947
   27.300    3.5282
   27.315    3.0367
   27.330    3.5282
   27.345    3.2824
   27.360    3.1245
   27.375    3.3351
   27.390    3.4931
   27.405    3.2298
   27.420    3.4580
   27.435    3.3526
   27.450    3.4053
   27.465    3.6510
   27.480    3.2473
   27.495    3.5106
   27.510    3.3877
   27.525    3.2824
   27.540    3.2824
   27.555    3.3702
   27.570    3.1420
   27.585    3.3526
   27.600    3.3702
   27.615    3.1771
   27.630    3.2298
   27.645    3.3526
   27.660    3.3000
   27.675    3.4053
   27.690    3.4404
   27.705    3.3877
   27.720    3.3175
   27.735    3.4580
   27.750    3.2473
   27.765    3.1596
   27.780    3.5106
   27.795    3.3351
   27.810    3.2473
   27.825    3.4053
   27.840    3.5633
   27.855    3.3351
   27.870    3.2473
   27.885    3.5984
   27.900    3.1596
   27.915    3.2473
   27.930    3.2298
   27.945    3.1947
   27.960    3.6335
   27.975    3.1420
   27.990    3.2824
   28.005    3.3351
   28.020    3.1771
   28.035    3.4931
   28.050    3.2649
   28.065    3.7213
   28.080    3.4931
   28.095    3.3000
   28.110    3.4931
   28.125    3.5106
   28.140    3.1596
   28.155    3.0016
   28.170    3.3175
   28.185    3.2473
   28.200    3.3351
   28.215    3.0367
   28.230    3.1420
   28.245    3.4404
   28.260    3.4404
   28.275    3.4404
   28.290    3.3175
   28.305    3.3351
   28.320    3.3526
   28.335    2.9138
   28.350    3.5633
   28.365    3.6862
   28.380    3.4580
   28.395    3.5106
   28.410    3.7388
   28.425    3.1771
   28.440    3.3526
   28.455    3.2473
   28.470    3.1947
   28.485    3.6862
   28.500    3.4053
   28.515    3.1771
   28.530    3.0191
   28.545    2.9489
   28.560    3.2824
   28.575    3.3702
   28.590    3.4404
   28.605    3.0718
   28.620    3.3175
   28.635    3.5282
   28.650    3.8441
   28.665    3.4229
   28.680    3.2298
   28.695    3.2649
   28.710    3.1245
   28.725    2.9840
   28.740    3.3702
   28.755    3.2122
   28.770    3.2649
   28.785    3.2298
   28.800    3.3351
   28.815    3.0016
   28.830    3.1771
   28.845    3.1596
   28.860    3.1420
   28.875    3.1947
   28.890    3.2298
   28.905    3.4053
   28.920    3.0542
   28.935    3.0542
   28.950    2.8787
   28.965    3.3175
   28.980    3.6159
   28.995    3.0718
   29.010    3.0016
   29.025    3.1245
   29.040    3.2298
   29.055    3.4755
   29.070    2.9840
   29.085    3.3702
   29.100    3.0016
   29.115    2.9665
   29.130    3.5633
   29.145    3.1596
   29.160    2.9665
   29.175    3.0016
   29.190    2.8963
   29.205    3.0542
   29.220    3.5282
   29.235    3.4580
   29.250    3.3526
   29.265    3.0893
   29.280    3.2649
   29.295    3.1771
   29.310    3.5106
   29.325    3.2473
   29.340    2.9489
   29.355    3.0367
   29.370    3.3877
   29.385    2.9138
   29.400    3.4053
   29.415    3.4404
   29.430    3.1596
   29.445    3.2122
   29.460    3.1596
   29.475    3.4229
   29.490    3.2298
   29.505    2.7734
   29.520    3.1420
   29.535    3.0542
   29.550    2.5979
   29.565    2.8963
   29.580    3.2649
   29.595    3.0893
   29.610    3.0893
   29.625    2.9489
   29.640    3.3702
   29.655    3.5282
   29.670    2.7383
   29.685    3.2824
   29.700    3.0016
   29.715    3.1069
   29.730    3.4229
   29.745    3.0191
   29.760    3.3877
   29.775    3.2473
   29.790    2.9665
   29.805    3.0367
   29.820    3.3175
   29.835    3.2298
   29.850    2.7558
   29.865    3.1771
   29.880    2.7207
   29.895    2.7207
   29.910    2.8260
   29.925    3.1420
   29.940    3.2122
   29.955    3.3526
   29.970    3.3000
   29.985    3.0893
   30.000    3.3877
   30.015    3.1420
   30.030    3.2122
   30.045    3.0191
   30.060    3.2298
   30.075    3.4755
   30.090    3.3526
   30.105    2.9840
   30.120    3.2473
   30.135    2.8260
   30.150    3.3000
   30.165    3.3000
   30.180    2.7558
   30.195    3.0367
   30.210    2.9665
   30.225    2.7207
   30.240    2.7734
   30.255    2.8436
   30.270    3.1245
   30.285    3.4580
   30.300    2.9314
   30.315    2.6154
   30.330    2.8612
   30.345    3.2122
   30.360    2.9840
   30.375    3.0191
   30.390    3.0367
   30.405    2.9314
   30.420    3.3702
   30.435    2.8436
   30.450    2.8787
   30.465    3.0367
   30.480    3.0893
   30.495    2.9489
   30.510    2.9840
   30.525    3.0367
   30.540    3.0542
   30.555    3.0542
   30.570    2.6856
   30.585    3.1420
   30.600    3.1069
   30.615    3.4580
   30.630    3.2122
   30.645    3.1947
   30.660    3.0191
   30.675    2.9840
   30.690    3.3175
   30.705    2.8436
   30.720    2.9314
   30.735    3.5106
   30.750    3.1420
   30.765    3.1245
   30.780    3.3351
   30.795    3.1245
   30.810    2.8963
   30.825    2.8085
   30.840    3.0016
   30.855    2.9665
   30.870    3.2298
   30.885    2.7558
   30.900    2.6856
   30.915    2.9314
   30.930    2.9138
   30.945    3.3000
   30.960    3.2122
   30.975    3.0191
   30.990    2.9489
   31.005    2.9314
   31.020    2.8260
   31.035    2.8260
   31.050    3.0367
   31.065    3.1596
   31.080    2.9840
   31.095    3.0893
   31.110    3.3175
   31.125    3.4404
   31.140    2.8612
   31.155    3.0542
   31.170    2.8260
   31.185    2.8612
   31.200    3.1596
   31.215    3.0718
   31.230    3.3351
   31.245    3.5984
   31.260    2.9840
   31.275    2.8963
   31.290    2.9138
   31.305    2.8612
   31.320    2.8787
   31.335    2.7909
   31.350    2.7734
   31.365    2.6681
   31.380    3.0016
   31.395    3.0367
   31.410    3.0542
   31.425    3.1947
   31.440    3.2824
   31.455    2.7558
   31.470    2.9489
   31.485    3.2122
   31.500    3.1596
   31.515    3.1069
   31.530    3.1069
   31.545    3.1245
   31.560    2.8787
   31.575    3.1947
   31.590    3.0016
   31.605    2.7207
   31.620    2.8787
   31.635    3.0016
   31.650    3.0893
   31.665    3.0542
   31.680    2.9138
   31.695    2.8963
   31.710    3.2122
   31.725    3.0718
   31.740    2.9138
   31.755    3.1771
   31.770    2.9840
   31.785    3.1420
   31.800    3.0718
   31.815    2.8260
   31.830    2.7207
   31.845    2.7032
   31.860    2.9314
   31.875    3.1245
   31.890    2.6505
   31.905    2.6856
   31.920    3.0191
   31.935    3.1420
   31.950    2.6505
   31.965    2.8085
   31.980    2.8260
   31.995    2.8963
   32.010    3.0893
   32.025    2.8085
   32.040    2.6505
   32.055    2.9314
   32.070    3.1069
   32.085    3.1069
   32.100    2.8963
   32.115    2.9138
   32.130    2.7558
   32.145    2.7032
   32.160    2.8436
   32.175    2.6154
   32.190    3.0016
   32.205    3.0016
   32.220    3.0016
   32.235    2.8963
   32.250    3.0191
   32.265    2.8612
   32.280    2.8963
   32.295    2.9665
   32.310    2.9314
   32.325    2.8260
   32.340    2.8612
   32.355    2.6856
   32.370    2.5452
   32.385    2.7032
   32.400    3.1596
   32.415    2.9314
   32.430    3.2122
   32.445    2.8787
   32.460    3.1069
   32.475    3.1069
   32.490    2.9840
   32.505    2.8612
   32.520    2.8260
   32.535    2.7207
   32.550    3.1069
   32.565    2.6330
   32.580    2.5101
   32.595    2.7207
   32.610    2.9665
   32.625    2.6330
   32.640    2.7032
   32.655    2.6681
   32.670    3.0191
   32.685    3.0191
   32.700    2.8963
   32.715    2.7207
   32.730    2.8787
   32.745    3.0893
   32.760    2.9489
   32.775    2.5628
   32.790    3.1771
   32.805    3.0893
   32.820    2.7032
   32.835    2.6330
   32.850    3.1771
   32.865    2.8787
   32.880    2.5452
   32.895    2.5276
   32.910    2.8787
   32.925    2.7383
   32.940    2.8085
   32.955    3.0542
   32.970    2.7734
   32.985    2.8963
   33.000    2.7383
   33.015    2.6505
   33.030    2.7909
   33.045    2.8787
   33.060    2.6330
   33.075    2.6681
   33.090    2.7383
   33.105    2.8612
   33.120    2.5452
   33.135    2.8085
   33.150    2.8963
   33.165    2.9138
   33.180    2.5628
   33.195    2.8612
   33.210    3.0016
   33.225    2.6330
   33.240    3.0191
   33.255    3.0893
   33.270    2.9665
   33.285    2.4925
   33.300    2.6681
   33.315    2.5276
   33.330    2.7383
   33.345    2.7558
   33.360    2.9665
   33.375    2.8436
   33.390    3.0191
   33.405    2.8612
   33.420    2.7207
   33.435    2.5452
   33.450    2.4925
   33.465    2.7032
   33.480    2.5803
   33.495    2.8612
   33.510    2.5628
   33.525    2.7909
   33.540    2.8963
   33.555    2.7909
   33.570    2.6681
   33.585    2.9314
   33.600    2.8963
   33.615    2.6505
   33.630    2.6856
   33.645    2.8787
   33.660    2.4574
   33.675    2.3872
   33.690    2.5101
   33.705    3.0367
   33.720    2.9489
   33.735    2.6505
   33.750    2.8787
   33.765    3.0191
   33.780    2.3346
   33.795    2.2995
   33.810    2.5803
   33.825    2.7909
   33.840    2.4223
   33.855    2.5628
   33.870    3.0191
   33.885    2.9840
   33.900    2.9665
   33.915    2.7032
   33.930    2.8612
   33.945    2.8260
   33.960    2.7383
   33.975    2.6154
   33.990    2.7032
   34.005    2.5979
   34.020    2.9314
   34.035    2.9138
   34.050    2.6330
   34.065    2.5803
   34.080    2.5803
   34.095    2.7032
   34.110    2.6856
   34.125    2.5452
   34.140    2.5276
   34.155    2.7383
   34.170    2.8963
   34.185    2.6681
   34.200    2.7207
   34.215    2.6681
   34.230    2.6856
   34.245    2.5276
   34.260    2.7032
   34.275    3.0367
   34.290    2.9489
   34.305    2.8260
   34.320    2.8260
   34.335    3.0191
   34.350    2.7032
   34.365    2.6681
   34.380    2.9665
   34.395    2.6154
   34.410    2.4048
   34.425    2.5276
   34.440    2.6505
   34.455    2.5628
   34.470    2.5452
   34.485    2.7558
   34.500    2.9665
   34.515    2.7909
   34.530    2.8436
   34.545    2.4223
   34.560    2.4399
   34.575    2.6505
   34.590    2.8612
   34.605    2.6856
   34.620    2.8260
   34.635    2.7207
   34.650    2.7383
   34.665    2.8612
   34.680    2.9138
   34.695    2.6856
   34.710    2.8963
   34.725    2.5979
   34.740    2.5979
   34.755    2.5452
   34.770    2.4574
   34.785    2.7909
   34.800    2.7207
   34.815    2.6330
   34.830    2.8963
   34.845    2.6154
   34.860    2.5101
   34.875    2.8612
   34.890    2.7207
   34.905    2.7383
   34.920    2.8787
   34.935    2.7558
   34.950    2.7383
   34.965    2.9489
   34.980    2.7734
   34.995    2.4399
   35.010    2.8963
   35.025    3.0191
   35.040    2.8436
   35.055    2.5101
   35.070    2.6681
   35.085    2.6505
   35.100    2.8963
   35.115    2.3697
   35.130    2.1415
   35.145    2.8085
   35.160    2.5452
   35.175    2.5276
   35.190    2.3697
   35.205    2.5101
   35.220    2.8085
   35.235    2.5803
   35.250    2.9138
   35.265    2.5628
   35.280    2.7383
   35.295    2.5276
   35.310    2.4048
   35.325    2.5452
   35.340    2.4925
   35.355    2.4925
   35.370    2.6330
   35.385    2.5452
   35.400    2.7734
   35.415    2.6505
   35.430    2.8787
   35.445    2.5452
   35.460    2.4399
   35.475    2.2292
   35.490    2.4574
   35.505    2.6154
   35.520    2.7032
   35.535    2.5803
   35.550    2.8963
   35.565    2.6681
   35.580    2.3872
   35.595    2.4925
   35.610    2.5803
   35.625    2.5628
   35.640    2.4399
   35.655    2.5101
   35.670    2.7558
   35.685    2.8787
   35.700    2.6505
   35.715    2.7032
   35.730    2.5101
   35.745    2.2468
   35.760    2.6681
   35.775    2.3346
   35.790    2.5628
   35.805    2.7383
   35.820    2.5803
   35.835    2.5276
   35.850    2.6681
   35.865    2.5101
   35.880    2.5979
   35.895    2.7032
   35.910    2.5803
   35.925    2.5628
   35.940    2.5803
   35.955    2.3521
   35.970    2.4574
   35.985    2.6330
   36.000    2.6505
   36.015    2.6154
   36.030    2.6681
   36.045    2.5276
   36.060    2.7558
   36.075    2.6505
   36.090    2.5628
   36.105    2.4574
   36.120    2.2468
   36.135    2.4925
   36.150    2.5101
   36.165    2.3697
   36.180    2.5803
   36.195    2.7558
   36.210    2.5803
   36.225    2.7207
   36.240    2.8436
   36.255    2.6154
   36.270    2.7032
   36.285    2.5101
   36.300    2.6681
   36.315    2.8612
   36.330    2.5276
   36.345    2.5101
   36.360    2.5628
   36.375    3.0542
   36.390    2.7909
   36.405    2.7207
   36.420    2.5276
   36.435    2.6505
   36.450    2.2995
   36.465    2.7207
   36.480    2.6856
   36.495    2.2819
   36.510    2.5101
   36.525    2.7558
   36.540    2.7207
   36.555    2.8787
   36.570    2.4399
   36.585    2.7383
   36.600    2.4925
   36.615    2.6154
   36.630    2.5452
   36.645    2.5101
   36.660    2.3697
   36.675    2.3521
   36.690    2.5803
   36.705    2.4925
   36.720    2.4048
   36.735    2.4574
   36.750    2.7558
   36.765    2.5803
   36.780    2.3346
   36.795    2.5803
   36.810    2.4223
   36.825    2.8260
   36.840    2.4750
   36.855    2.4223
   36.870    2.6154
   36.885    2.6330
   36.900    2.5276
   36.915    2.2468
   36.930    2.3872
   36.945    2.6154
   36.960    2.6154
   36.975    2.4750
   36.990    2.6505
   37.005    2.3170
   37.020    2.1590
   37.035    2.1941
   37.050    2.3170
   37.065    2.1941
   37.080    2.4750
   37.095    2.6856
   37.110    2.7383
   37.125    2.4399
   37.140    2.3521
   37.155    2.5979
   37.170    2.4925
   37.185    2.5803
   37.200    2.5803
   37.215    2.7558
   37.230    2.6330
   37.245    2.8260
   37.260    2.4574
   37.275    2.4399
   37.290    2.2643
   37.305    2.4048
   37.320    2.5276
   37.335    2.6330
   37.350    2.5979
   37.365    2.5101
   37.380    2.6681
   37.395    2.4750
   37.410    2.4750
   37.425    2.6681
   37.440    2.5101
   37.455    2.3170
   37.470    2.4399
   37.485    2.2819
   37.500    2.6856
   37.515    2.3170
   37.530    2.3346
   37.545    2.3521
   37.560    2.1941
   37.575    2.6330
   37.590    2.5276
   37.605    2.3521
   37.620    2.3346
   37.635    2.3697
   37.650    2.4925
   37.665    2.2292
   37.680    2.3346
   37.695    2.6505
   37.710    2.4925
   37.725    2.5276
   37.740    2.5101
   37.755    2.5101
   37.770    2.3697
   37.785    2.1415
   37.800    2.3697
   37.815    2.4925
   37.830    2.7734
   37.845    2.1590
   37.860    2.5979
   37.875    2.5276
   37.890    2.3170
   37.905    2.4574
   37.920    2.2819
   37.935    2.2819
   37.950    2.7734
   37.965    2.3697
   37.980    2.4574
   37.995    2.5628
   38.010    2.1941
   38.025    2.3872
   38.040    2.5628
   38.055    2.5276
   38.070    2.4750
   38.085    2.4750
   38.100    2.3872
   38.115    2.2819
   38.130    2.5101
   38.145    2.4750
   38.160    2.2819
   38.175    2.5276
   38.190    2.3521
   38.205    2.3346
   38.220    2.3697
   38.235    2.2643
   38.250    2.0537
   38.265    2.5979
   38.280    2.6154
   38.295    2.5979
   38.310    2.5101
   38.325    2.1766
   38.340    2.2643
   38.355    2.2995
   38.370    2.6330
   38.385    2.5803
   38.400    2.1239
   38.415    2.2117
   38.430    2.2819
   38.445    2.6681
   38.460    2.5452
   38.475    2.5979
   38.490    2.1941
   38.505    2.3346
   38.520    2.3521
   38.535    2.3521
   38.550    2.2995
   38.565    2.5101
   38.580    2.4048
   38.595    2.3521
   38.610    2.4750
   38.625    2.3521
   38.640    2.4750
   38.655    2.4399
   38.670    2.7032
   38.685    2.5101
   38.700    2.3521
   38.715    2.3697
   38.730    2.6856
   38.745    2.6330
   38.760    2.6505
   38.775    2.2819
   38.790    2.3872
   38.805    2.3346
   38.820    2.4925
   38.835    2.4223
   38.850    2.5101
   38.865    2.3170
   38.880    2.2643
   38.895    2.2819
   38.910    2.2819
   38.925    2.2468
   38.940    2.4223
   38.955    2.2995
   38.970    2.4750
   38.985    2.5276
   39.000    2.5979
   39.015    2.5276
   39.030    2.6330
   39.045    2.4925
   39.060    2.6856
   39.075    2.7383
   39.090    2.4750
   39.105    2.4750
   39.120    2.6505
   39.135    2.4925
   39.150    2.5101
   39.165    2.3521
   39.180    2.3170
   39.195    2.6154
   39.210    2.6681
   39.225    2.5452
   39.240    2.5979
   39.255    2.2468
   39.270    2.1766
   39.285    2.2643
   39.300    2.2117
   39.315    2.1766
   39.330    2.0713
   39.345    2.6330
   39.360    2.7032
   39.375    2.5803
   39.390    2.1766
   39.405    2.3346
   39.420    2.3170
   39.435    2.5979
   39.450    2.7734
   39.465    2.5979
   39.480    2.3872
   39.495    2.2468
   39.510    2.4223
   39.525    2.3521
   39.540    2.6330
   39.555    2.4574
   39.570    2.5628
   39.585    2.3521
   39.600    2.7207
   39.615    2.2819
   39.630    2.5276
   39.645    2.2819
   39.660    2.1590
   39.675    2.4925
   39.690    2.4750
   39.705    2.7207
   39.720    2.1064
   39.735    2.2292
   39.750    2.7032
   39.765    2.7734
   39.780    2.7558
   39.795    2.6505
   39.810    2.3872
   39.825    2.3346
   39.840    2.3521
   39.855    2.6330
   39.870    2.4399
   39.885    2.5452
   39.900    2.5979
   39.915    2.1941
   39.930    2.7558
   39.945    2.5979
   39.960    2.2643
   39.975    2.2643
   39.990    2.4399
   40.005    2.2468
   40.020    2.5101
   40.035    2.3697
   40.050    2.6681
   40.065    2.0888
   40.080    2.2995
   40.095    2.4574
   40.110    1.9484
   40.125    2.3521
   40.140    2.3872
   40.155    2.3697
   40.170    2.5276
   40.185    2.4925
   40.200    2.3697
   40.215    2.4574
   40.230    2.1941
   40.245    2.0362
   40.260    2.0888
   40.275    2.4048
   40.290    2.5101
   40.305    2.5101
   40.320    2.6681
   40.335    2.5803
   40.350    2.3697
   40.365    2.5452
   40.380    2.5276
   40.395    2.3872
   40.410    2.2468
   40.425    2.6154
   40.440    2.4925
   40.455    2.4399
   40.470    2.3346
   40.485    2.5979
   40.500    2.6681
   40.515    2.3521
   40.530    2.2292
   40.545    2.5101
   40.560    2.3170
   40.575    2.3170
   40.590    2.5452
   40.605    2.2468
   40.620    2.3170
   40.635    2.3872
   40.650    2.2643
   40.665    2.3872
   40.680    2.5628
   40.695    2.5803
   40.710    2.3872
   40.725    2.4925
   40.740    2.3346
   40.755    2.5101
   40.770    2.7558
   40.785    2.5979
   40.800    2.7734
   40.815    2.5101
   40.830    2.4925
   40.845    2.3521
   40.860    2.4048
   40.875    2.6856
   40.890    2.5452
   40.905    2.3346
   40.920    2.5276
   40.935    2.4925
   40.950    2.3697
   40.965    2.5452
   40.980    2.2292
   40.995    1.9133
   41.010    2.4574
   41.025    2.2643
   41.040    2.4925
   41.055    2.6330
   41.070    2.4399
   41.085    2.2292
   41.100    2.3346
   41.115    2.3697
   41.130    2.2995
   41.145    2.5452
   41.160    2.2995
   41.175    2.3346
   41.190    2.8260
   41.205    2.6681
   41.220    2.5276
   41.235    2.5803
   41.250    2.3346
   41.265    2.5276
   41.280    2.4750
   41.295    2.3346
   41.310    2.4399
   41.325    2.4750
   41.340    2.3872
   41.355    2.3170
   41.370    2.4048
   41.385    2.4925
   41.400    2.6330
   41.415    2.2468
   41.430    2.6154
   41.445    2.4399
   41.460    2.4048
   41.475    2.2819
   41.490    2.2117
   41.505    2.4574
   41.520    2.4223
   41.535    2.6505
   41.550    2.5276
   41.565    2.1766
   41.580    2.4750
   41.595    2.5276
   41.610    2.4925
   41.625    2.4048
   41.640    2.5101
   41.655    2.5803
   41.670    2.3346
   41.685    2.5276
   41.700    2.2292
   41.715    2.2468
   41.730    2.4750
   41.745    2.4750
   41.760    2.4399
   41.775    2.5452
   41.790    2.6505
   41.805    2.3170
   41.820    2.3170
   41.835    2.6154
   41.850    2.4223
   41.865    2.0011
   41.880    2.2995
   41.895    2.5101
   41.910    2.4223
   41.925    2.3521
   41.940    2.2995
   41.955    2.3872
   41.970    2.5276
   41.985    2.3346
   42.000    2.3697
   42.015    2.3521
   42.030    2.2292
   42.045    2.3170
   42.060    2.5452
   42.075    2.2995
   42.090    2.4048
   42.105    2.6330
   42.120    2.5101
   42.135    2.5101
   42.150    2.4574
   42.165    2.4048
   42.180    2.3872
   42.195    2.2292
   42.210    2.5979
   42.225    2.2292
   42.240    2.2819
   42.255    2.4750
   42.270    2.1941
   42.285    2.1941
   42.300    2.3697
   42.315    2.4925
   42.330    2.4750
   42.345    2.0713
   42.360    2.0713
   42.375    2.3872
   42.390    2.4750
   42.405    2.4048
   42.420    2.1941
   42.435    2.3170
   42.450    2.1415
   42.465    2.4574
   42.480    2.1941
   42.495    2.1941
   42.510    2.3170
   42.525    2.2117
   42.540    2.5101
   42.555    2.5276
   42.570    2.3697
   42.585    2.6856
   42.600    2.5101
   42.615    2.3346
   42.630    2.2995
   42.645    2.3346
   42.660    2.4574
   42.675    2.5276
   42.690    2.0537
   42.705    2.4048
   42.720    2.2995
   42.735    2.1064
   42.750    2.3346
   42.765    2.2468
   42.780    2.2292
   42.795    2.2292
   42.810    2.2819
   42.825    2.1239
   42.840    2.2292
   42.855    2.1415
   42.870    2.4048
   42.885    2.5276
   42.900    2.1415
   42.915    2.2117
   42.930    2.4048
   42.945    2.5276
   42.960    2.3521
   42.975    2.4048
   42.990    2.2995
   43.005    2.5276
   43.020    2.3697
   43.035    2.2643
   43.050    1.9835
   43.065    2.1064
   43.080    2.4399
   43.095    2.1239
   43.110    2.5452
   43.125    2.4399
   43.140    2.0713
   43.155    2.3521
   43.170    2.2643
   43.185    2.4925
   43.200    2.4750
   43.215    2.2819
   43.230    2.4925
   43.245    2.2819
   43.260    2.2643
   43.275    2.0537
   43.290    2.1064
   43.305    2.3872
   43.320    2.3697
   43.335    2.4750
   43.350    2.2995
   43.365    2.2995
   43.380    2.3521
   43.395    2.3872
   43.410    2.3697
   43.425    2.3521
   43.440    2.6154
   43.455    2.1766
   43.470    2.4048
   43.485    2.1415
   43.500    2.0888
   43.515    2.4925
   43.530    2.4223
   43.545    2.7383
   43.560    2.6681
   43.575    2.4048
   43.590    2.1941
   43.605    2.4399
   43.620    2.0186
   43.635    2.1941
   43.650    2.2643
   43.665    2.4750
   43.680    2.4750
   43.695    2.0362
   43.710    2.2819
   43.725    2.4048
   43.740    2.5803
   43.755    2.2995
   43.770    2.5803
   43.785    2.4925
   43.800    2.4574
   43.815    2.4574
   43.830    2.1766
   43.845    2.2468
   43.860    2.0888
   43.875    2.4574
   43.890    2.4574
   43.905    2.6681
   43.920    2.3170
   43.935    2.4223
   43.950    2.4925
   43.965    2.2468
   43.980    2.2995
   43.995    2.1766
   44.010    2.5452
   44.025    2.4048
   44.040    2.2819
   44.055    2.2995
   44.070    2.1766
   44.085    2.6330
   44.100    2.2819
   44.115    2.2643
   44.130    1.8782
   44.145    2.4048
   44.160    2.5803
   44.175    2.3872
   44.190    2.3521
   44.205    2.2995
   44.220    2.1941
   44.235    2.2468
   44.250    2.4750
   44.265    2.3521
   44.280    2.3170
   44.295    2.4925
   44.310    2.7558
   44.325    2.4574
   44.340    2.1941
   44.355    2.3872
   44.370    2.2643
   44.385    2.3872
   44.400    2.3697
   44.415    2.2292
   44.430    2.1239
   44.445    2.4750
   44.460    2.4048
   44.475    2.2819
   44.490    2.3521
   44.505    2.1590
   44.520    2.2468
   44.535    2.2468
   44.550    2.3872
   44.565    2.3697
   44.580    2.2292
   44.595    2.1239
   44.610    2.3872
   44.625    2.2819
   44.640    2.1941
   44.655    2.4399
   44.670    2.3170
   44.685    2.2643
   44.700    2.3697
   44.715    2.4925
   44.730    2.4048
   44.745    2.4399
   44.760    2.3170
   44.775    2.3521
   44.790    2.4750
   44.805    2.4574
   44.820    2.3872
   44.835    2.3697
   44.850    2.2643
   44.865    2.2643
   44.880    2.2995
   44.895    2.4925
   44.910    2.2819
   44.925    2.1239
   44.940    2.2292
   44.955    2.0713
   44.970    2.2643
   44.985    2.2117
   45.000    2.3170
   45.015    2.1415
   45.030    2.2995
   45.045    2.2643
   45.060    2.3872
   45.075    2.3697
   45.090    2.0011
   45.105    2.3872
   45.120    2.3346
   45.135    2.2117
   45.150    2.5101
   45.165    2.3346
   45.180    2.3170
   45.195    2.1941
   45.210    2.2292
   45.225    2.2117
   45.240    2.5979
   45.255    2.3697
   45.270    2.3697
   45.285    2.2995
   45.300    2.0713
   45.315    2.2819
   45.330    2.3521
   45.345    2.2819
   45.360    2.4048
   45.375    2.5628
   45.390    2.1941
   45.405    2.0011
   45.420    2.1590
   45.435    2.2819
   45.450    2.1590
   45.465    2.3872
   45.480    2.2995
   45.495    2.2643
   45.510    2.1064
   45.525    2.6154
   45.540    2.7383
   45.555    2.2995
   45.570    2.4574
   45.585    2.3697
   45.600    2.5452
   45.615    2.3346
   45.630    2.3521
   45.645    2.6505
   45.660    2.3170
   45.675    2.2643
   45.690    2.2995
   45.705    2.4399
   45.720    2.0537
   45.735    2.0713
   45.750    2.0888
   45.765    2.2292
   45.780    2.3170
   45.795    2.4223
   45.810    2.2292
   45.825    2.2643
   45.840    2.1941
   45.855    2.4223
   45.870    2.2117
   45.885    2.1766
   45.900    2.5276
   45.915    2.4048
   45.930    2.2819
   45.945    2.1064
   45.960    2.2468
   45.975    2.2995
   45.990    2.6505
   46.005    2.3170
   46.020    2.3170
   46.035    2.3170
   46.050    2.1766
   46.065    2.2117
   46.080    2.1941
   46.095    2.1415
   46.110    2.2292
   46.125    2.3521
   46.140    2.6154
   46.155    2.4399
   46.170    2.0888
   46.185    2.0011
   46.200    1.8606
   46.215    1.9133
   46.230    2.2643
   46.245    2.5452
   46.260    2.3170
   46.275    2.3170
   46.290    2.3697
   46.305    2.3170
   46.320    2.1766
   46.335    2.5979
   46.350    2.4399
   46.365    2.5628
   46.380    2.0888
   46.395    2.2292
   46.410    2.2117
   46.425    2.1415
   46.440    2.0713
   46.455    2.2292
   46.470    2.3521
   46.485    2.2117
   46.500    2.2995
   46.515    2.3697
   46.530    2.2643
   46.545    2.2468
   46.560    2.0362
   46.575    2.1590
   46.590    2.2995
   46.605    2.2643
   46.620    2.5101
   46.635    2.2468
   46.650    2.1941
   46.665    2.2995
   46.680    2.0537
   46.695    2.1766
   46.710    2.3170
   46.725    2.3346
   46.740    2.3346
   46.755    2.0713
   46.770    2.1415
   46.785    2.2117
   46.800    2.2468
   46.815    2.3521
   46.830    2.2819
   46.845    2.2117
   46.860    2.4750
   46.875    2.6681
   46.890    2.3872
   46.905    2.0713
   46.920    2.5452
   46.935    2.2117
   46.950    2.1415
   46.965    2.3170
   46.980    2.0888
   46.995    2.0011
   47.010    2.3346
   47.025    2.2468
   47.040    2.3521
   47.055    2.1941
   47.070    2.0888
   47.085    2.1590
   47.100    2.3346
   47.115    2.3346
   47.130    2.0537
   47.145    2.2819
   47.160    2.2117
   47.175    2.2819
   47.190    2.0888
   47.205    2.0537
   47.220    2.2643
   47.235    2.2995
   47.250    2.2819
   47.265    2.1766
   47.280    2.1239
   47.295    2.3170
   47.310    2.3521
   47.325    2.4048
   47.340    2.3346
   47.355    2.2819
   47.370    2.5628
   47.385    2.4399
   47.400    2.5803
   47.415    2.1590
   47.430    2.1766
   47.445    2.3170
   47.460    2.2292
   47.475    2.2292
   47.490    2.2292
   47.505    2.4399
   47.520    2.1239
   47.535    2.0888
   47.550    1.8606
   47.565    1.9308
   47.580    2.2995
   47.595    2.0888
   47.610    2.1941
   47.625    2.2468
   47.640    2.1766
   47.655    2.0713
   47.670    2.3346
   47.685    2.0362
   47.700    2.1590
   47.715    1.9308
   47.730    2.2468
   47.745    1.8957
   47.760    2.3872
   47.775    2.1590
   47.790    2.0537
   47.805    2.2643
   47.820    2.2468
   47.835    2.3346
   47.850    2.0713
   47.865    2.2995
   47.880    1.9133
   47.895    2.1590
   47.910    2.1064
   47.925    2.5101
   47.940    2.4574
   47.955    2.1766
   47.970    2.2643
   47.985    2.4223
   48.000    2.1941
   48.015    2.3697
   48.030    2.1415
   48.045    2.1590
   48.060    2.3521
   48.075    2.2117
   48.090    2.3521
   48.105    2.2995
   48.120    2.3346
   48.135    2.4048
   48.150    2.3697
   48.165    2.7383
   48.180    2.3170
   48.195    2.1064
   48.210    2.1064
   48.225    1.9484
   48.240    1.9659
   48.255    2.3170
   48.270    2.4925
   48.285    2.4048
   48.300    2.1766
   48.315    2.4399
   48.330    2.2819
   48.345    2.1766
   48.360    2.1590
   48.375    2.1590
   48.390    2.3872
   48.405    2.0186
   48.420    2.1766
   48.435    2.3697
   48.450    2.2117
   48.465    2.2117
   48.480    2.0537
   48.495    2.2117
   48.510    2.3521
   48.525    2.3697
   48.540    2.5101
   48.555    2.4574
   48.570    2.1239
   48.585    2.1415
   48.600    2.2995
   48.615    2.4750
   48.630    2.3521
   48.645    1.8782
   48.660    2.0186
   48.675    2.0011
   48.690    2.0713
   48.705    2.2995
   48.720    2.0011
   48.735    2.2117
   48.750    2.2995
   48.765    2.3872
   48.780    2.1064
   48.795    1.9308
   48.810    2.3346
   48.825    2.4574
   48.840    2.2643
   48.855    2.3170
   48.870    2.3872
   48.885    2.2292
   48.900    1.8782
   48.915    2.3872
   48.930    2.2819
   48.945    2.1064
   48.960    2.2117
   48.975    2.2468
   48.990    2.0186
   49.005    1.9308
   49.020    1.8606
   49.035    2.2292
   49.050    2.5276
   49.065    2.1766
   49.080    2.1590
   49.095    2.0888
   49.110    2.4048
   49.125    2.2117
   49.140    2.3872
   49.155    2.1941
   49.170    2.0888
   49.185    2.0713
   49.200    2.1941
   49.215    1.8606
   49.230    1.9133
   49.245    2.1590
   49.260    2.2292
   49.275    2.3170
   49.290    2.1941
   49.305    2.2643
   49.320    2.2117
   49.335    2.3697
   49.350    2.3521
   49.365    2.2117
   49.380    2.3697
   49.395    2.2292
   49.410    1.9308
   49.425    2.1766
   49.440    2.2995
   49.455    2.2468
   49.470    2.0888
   49.485    1.8782
   49.500    2.0011
   49.515    2.1766
   49.530    2.3346
   49.545    2.1590
   49.560    2.3346
   49.575    1.9133
   49.590    2.2643
   49.605    2.2819
   49.620    2.1064
   49.635    2.1415
   49.650    2.4048
   49.665    2.4223
   49.680    2.2292
   49.695    2.1766
   49.710    2.3521
   49.725    2.2292
   49.740    1.9659
   49.755    2.1415
   49.770    2.3521
   49.785    2.0888
   49.800    2.0888
   49.815    2.2468
   49.830    2.1941
   49.845    2.0713
   49.860    2.3521
   49.875    2.2117
   49.890    2.2468
   49.905    2.1064
   49.920    1.9659
   49.935    2.1590
   49.950    2.3170
   49.965    2.1239
   49.980    2.2468
