    1.500   11.2866
    1.515   10.8829
    1.530   11.6904
    1.545   11.6728
    1.560   11.1111
    1.575   10.7776
    1.590   10.6021
    1.605   10.6196
    1.620   10.6196
    1.635   11.2515
    1.650   10.9180
    1.665    9.9526
    1.680   10.1457
    1.695   10.4616
    1.710    9.8999
    1.725   10.5143
    1.740   10.2510
    1.755   10.4090
    1.770   10.2686
    1.785   10.0228
    1.800   10.1457
    1.815    9.8824
    1.830    9.6191
    1.845    9.5489
    1.860    9.6191
    1.875    9.5489
    1.890    9.0574
    1.905    9.2329
    1.920    8.6712
    1.935    8.6888
    1.950   10.0228
    1.965    9.7244
    1.980    9.2680
    1.995    9.0925
    2.010    8.4781
    2.025    8.4781
    2.040    9.1452
    2.055    9.2154
    2.070    9.1627
    2.085    8.8994
    2.100    8.9170
    2.115    9.2505
    2.130    8.5133
    2.145    8.5484
    2.160    8.3202
    2.175    8.6712
    2.190    8.9521
    2.205    8.6888
    2.220    8.8643
    2.235    8.0393
    2.250    7.9867
    2.265    7.9867
    2.280    8.2851
    2.295    8.7063
    2.310    8.7414
    2.325    8.2149
    2.340    8.4079
    2.355    8.2851
    2.370    8.6186
    2.385    9.0047
    2.400    7.9164
    2.415    8.0569
    2.430    8.7239
    2.445    8.3728
    2.460    8.3904
    2.475    7.8287
    2.490    7.8462
    2.505    8.4430
    2.520    8.1095
    2.535    8.2851
    2.550    8.0744
    2.565    7.6707
    2.580    7.9691
    2.595    7.7936
    2.610    7.7936
    2.625    7.8287
    2.640    8.1271
    2.655    7.9340
    2.670    7.6356
    2.685    7.7409
    2.700    8.3377
    2.715    7.9516
    2.730    7.7409
    2.745    7.2143
    2.760    7.4776
    2.775    8.4781
    2.790    8.0218
    2.805    8.0393
    2.820    7.4074
    2.835    7.6005
    2.850    8.1446
    2.865    7.9164
    2.880    7.5478
    2.895    7.5127
    2.910    7.4250
    2.925    7.4601
    2.940    8.2149
    2.955    7.3547
    2.970    7.8287
    2.985    7.7585
    3.000    7.3196
    3.015    7.5303
    3.030    7.5478
    3.045    7.6532
    3.060    7.1441
    3.075    7.6532
    3.090    7.4601
    3.105    7.6707
    3.120    7.8287
    3.135    7.2319
    3.150    7.4425
    3.165    7.4250
    3.180    7.4425
    3.195    7.0915
    3.210    6.8984
    3.225    8.2675
    3.240    7.4425
    3.255    7.5654
    3.270    7.8111
    3.285    7.0037
    3.300    6.8633
    3.315    7.5654
    3.330    7.7058
    3.345    7.1968
    3.360    6.9861
    3.375    6.9861
    3.390    7.4776
    3.405    7.6707
    3.420    7.5303
    3.435    7.1968
    3.450    6.9335
    3.465    7.3196
    3.480    7.5478
    3.495    7.2143
    3.510    7.3899
    3.525    7.8287
    3.540    7.2845
    3.555    7.6532
    3.570    7.7058
    3.585    7.4601
    3.600    7.8111
    3.615    7.6005
    3.630    7.4425
    3.645    7.3021
    3.660    7.1968
    3.675    7.8462
    3.690    7.3547
    3.705    7.5303
    3.720    7.7936
    3.735    7.6180
    3.750    7.3547
    3.765    7.6707
    3.780    7.2494
    3.795    7.4952
    3.810    7.8287
    3.825    7.5829
    3.840    7.3547
    3.855    7.5303
    3.870    8.1797
    3.885    7.7585
    3.900    7.3723
    3.915    7.2670
    3.930    6.9510
    3.945    7.5478
    3.960    7.3899
    3.975    7.3723
    3.990    7.1266
    4.005    7.4250
    4.020    7.2143
    4.035    7.3021
    4.050    7.6356
    4.065    6.9861
    4.080    7.0563
    4.095    7.4074
    4.110    7.4074
    4.125    7.3372
    4.140    7.1090
    4.155    7.5303
    4.170    7.4601
    4.185    7.4952
    4.200    7.1968
    4.215    7.3196
    4.230    7.0739
    4.245    7.4074
    4.260    7.6005
    4.275    7.3196
    4.290    7.6707
    4.305    7.1090
    4.320    7.4425
    4.335    7.4250
    4.350    7.4074
    4.365    7.9164
    4.380    7.7760
    4.395    7.5303
    4.410    6.9335
    4.425    7.0915
    4.440    7.0915
    4.455    7.7760
    4.470    7.2319
    4.485    6.9335
    4.500    8.0569
    4.515    7.8813
    4.530    7.3723
    4.545    7.5654
    4.560    7.5654
    4.575    6.9861
    4.590    7.9340
    4.605    7.9691
    4.620    7.6005
    4.635    8.0042
    4.650    7.5303
    4.665    7.6005
    4.680    7.4601
    4.695    7.5654
    4.710    7.6356
    4.725    7.7058
    4.740    7.9340
    4.755    7.7936
    4.770    7.7234
    4.785    7.8287
    4.800    7.2143
    4.815    7.2494
    4.830    8.3202
    4.845    8.3728
    4.860    7.7585
    4.875    7.7585
    4.890    8.1271
    4.905    8.2324
    4.920    8.1095
    4.935    7.9516
    4.950    8.0569
    4.965    8.3904
    4.980    8.2851
    4.995    8.6010
    5.010    8.0569
    5.025    7.9867
    5.040    8.3904
    5.055    8.1797
    5.070    8.2149
    5.085    8.8292
    5.100    8.4430
    5.115    8.4606
    5.130    8.8292
    5.145    8.6537
    5.160    8.9872
    5.175    9.4962
    5.190    9.5840
    5.205    9.5664
    5.220    9.0223
    5.235    8.8994
    5.250    9.1978
    5.265    9.3207
    5.280    9.0574
    5.295    9.4260
    5.310    8.8117
    5.325    8.9696
    5.340    9.5664
    5.355    9.3734
    5.370    9.8473
    5.385    9.3734
    5.400    9.4787
    5.415   10.6021
    5.430    9.8648
    5.445    9.5489
    5.460   10.0755
    5.475   10.5143
    5.490    9.6367
    5.505   10.3212
    5.520   10.4090
    5.535   10.2159
    5.550   10.4441
    5.565    9.8122
    5.580    9.7771
    5.595    9.8473
    5.610   10.1983
    5.625    9.5313
    5.640    9.1803
    5.655    9.1276
    5.670    9.4260
    5.685    9.0925
    5.700    8.9872
    5.715    9.3382
    5.730   10.0579
    5.745    9.3734
    5.760    9.7771
    5.775    9.3207
    5.790    9.3909
    5.805    9.0223
    5.820    8.9872
    5.835    8.5659
    5.850    8.9696
    5.865    8.7765
    5.880    8.4957
    5.895    8.4079
    5.910    7.7936
    5.925    8.1973
    5.940    8.7063
    5.955    8.3553
    5.970    8.6712
    5.985    8.4606
    6.000    8.1973
    6.015    8.5484
    6.030    7.5478
    6.045    7.4250
    6.060    7.7760
    6.075    7.5127
    6.090    7.4601
    6.105    7.8287
    6.120    7.1792
    6.135    7.4250
    6.150    7.4776
    6.165    7.1090
    6.180    6.9159
    6.195    7.1441
    6.210    7.5829
    6.225    7.1266
    6.240    7.5303
    6.255    7.5303
    6.270    7.3547
    6.285    7.3547
    6.300    7.2494
    6.315    7.4952
    6.330    7.1792
    6.345    6.8457
    6.360    6.7228
    6.375    7.2143
    6.390    6.9335
    6.405    7.3547
    6.420    7.1090
    6.435    6.8808
    6.450    6.7228
    6.465    7.0212
    6.480    6.9159
    6.495    7.0388
    6.510    6.8984
    6.525    7.0037
    6.540    6.7930
    6.555    6.7755
    6.570    6.4069
    6.585    7.1617
    6.600    6.8984
    6.615    7.1617
    6.630    7.1441
    6.645    6.8106
    6.660    6.2489
    6.675    6.7404
    6.690    6.9861
    6.705    6.9686
    6.720    6.8282
    6.735    7.0037
    6.750    6.7579
    6.765    6.7579
    6.780    6.9861
    6.795    6.3367
    6.810    6.5122
    6.825    6.7404
    6.840    6.2665
    6.855    6.4420
    6.870    6.3016
    6.885    7.0739
    6.900    6.7404
    6.915    6.4420
    6.930    6.6526
    6.945    6.2138
    6.960    6.3718
    6.975    6.3542
    6.990    6.3367
    7.005    6.3367
    7.020    6.5298
    7.035    6.3718
    7.050    6.3893
    7.065    6.2840
    7.080    6.3718
    7.095    6.1611
    7.110    6.4946
    7.125    6.5824
    7.140    6.4069
    7.155    6.6000
    7.170    6.0032
    7.185    5.7574
    7.200    6.0734
    7.215    6.1962
    7.230    6.3893
    7.245    5.8452
    7.260    5.7750
    7.275    6.0558
    7.290    5.6697
    7.305    5.7048
    7.320    6.1085
    7.335    6.2313
    7.350    6.0558
    7.365    6.0734
    7.380    6.0909
    7.395    5.9856
    7.410    5.5994
    7.425    5.9329
    7.440    6.3367
    7.455    6.1260
    7.470    5.6170
    7.485    5.5292
    7.500    5.0026
    7.515    5.4064
    7.530    5.6872
    7.545    5.6345
    7.560    6.0032
    7.575    5.7750
    7.590    5.5117
    7.605    5.8101
    7.620    6.0734
    7.635    5.7925
    7.650    5.9681
    7.665    5.1255
    7.680    5.5468
    7.695    5.2659
    7.710    5.3010
    7.725    5.5117
    7.740    6.1085
    7.755    5.8452
    7.770    5.5994
    7.785    5.4590
    7.800    5.4766
    7.815    5.8101
    7.830    5.4239
    7.845    5.7574
    7.860    5.7048
    7.875    5.4941
    7.890    5.7399
    7.905    5.2659
    7.920    5.3186
    7.935    5.0202
    7.950    5.2484
    7.965    4.8973
    7.980    5.1957
    7.995    5.4064
    8.010    5.4941
    8.025    5.2659
    8.040    5.0728
    8.055    5.5819
    8.070    5.7574
    8.085    5.7399
    8.100    5.0904
    8.115    5.3712
    8.130    5.6170
    8.145    5.3537
    8.160    5.6345
    8.175    5.3888
    8.190    4.7744
    8.205    4.8271
    8.220    5.0377
    8.235    4.9500
    8.250    5.2835
    8.265    5.4064
    8.280    5.4415
    8.295    5.2484
    8.310    5.2133
    8.325    5.2484
    8.340    5.2308
    8.355    5.5292
    8.370    5.2484
    8.385    5.3712
    8.400    5.2133
    8.415    5.0202
    8.430    4.9324
    8.445    5.0202
    8.460    4.8798
    8.475    5.1431
    8.490    4.6691
    8.505    4.7218
    8.520    5.0904
    8.535    4.9500
    8.550    5.5819
    8.565    5.1782
    8.580    4.7218
    8.595    4.8973
    8.610    4.8447
    8.625    5.1606
    8.640    5.0377
    8.655    4.8095
    8.670    5.0553
    8.685    5.0904
    8.700    5.0904
    8.715    5.2659
    8.730    4.8271
    8.745    5.0728
    8.760    5.1080
    8.775    5.0904
    8.790    5.2133
    8.805    5.0026
    8.820    4.7218
    8.835    4.8095
    8.850    5.1782
    8.865    4.5989
    8.880    4.9149
    8.895    5.4239
    8.910    4.5989
    8.925    4.8622
    8.940    5.3888
    8.955    5.0377
    8.970    5.6697
    8.985    4.9324
    9.000    4.8798
    9.015    5.4239
    9.030    4.8095
    9.045    5.0202
    9.060    5.2835
    9.075    5.6872
    9.090    5.0553
    9.105    5.0377
    9.120    4.9675
    9.135    4.8622
    9.150    4.9149
    9.165    4.9675
    9.180    4.8447
    9.195    4.9324
    9.210    5.2835
    9.225    4.7042
    9.240    4.6516
    9.255    5.0904
    9.270    5.1606
    9.285    4.8622
    9.300    4.8271
    9.315    4.5814
    9.330    5.3010
    9.345    5.3712
    9.360    5.2484
    9.375    5.1606
    9.390    5.0553
    9.405    4.5989
    9.420    4.9500
    9.435    5.1606
    9.450    4.8973
    9.465    5.0202
    9.480    5.0202
    9.495    4.7920
    9.510    4.9851
    9.525    4.7042
    9.540    4.9675
    9.555    4.4058
    9.570    4.8973
    9.585    5.2484
    9.600    5.2835
    9.615    4.8798
    9.630    4.8447
    9.645    5.0904
    9.660    4.9500
    9.675    4.7042
    9.690    4.8271
    9.705    4.9149
    9.720    4.9149
    9.735    5.0026
    9.750    5.0026
    9.765    4.8798
    9.780    5.1957
    9.795    4.7744
    9.810    5.0377
    9.825    4.9149
    9.840    5.0553
    9.855    4.6340
    9.870    4.7393
    9.885    5.0904
    9.900    5.0377
    9.915    4.6867
    9.930    5.3010
    9.945    5.6872
    9.960    5.7574
    9.975    5.0728
    9.990    4.7393
   10.005    5.4239
   10.020    4.8622
   10.035    4.6516
   10.050    5.1957
   10.065    5.7750
   10.080    5.5468
   10.095    5.2133
   10.110    5.3537
   10.125    4.8447
   10.140    4.8973
   10.155    5.2308
   10.170    4.9149
   10.185    4.6516
   10.200    4.5989
   10.215    4.6867
   10.230    4.6340
   10.245    4.9324
   10.260    5.1080
   10.275    5.3537
   10.290    4.9324
   10.305    5.2835
   10.320    5.3712
   10.335    5.0377
   10.350    5.0904
   10.365    5.1606
   10.380    5.2308
   10.395    5.0377
   10.410    5.6521
   10.425    4.7393
   10.440    5.2659
   10.455    5.6345
   10.470    5.2835
   10.485    5.0377
   10.500    5.3186
   10.515    5.2484
   10.530    4.9500
   10.545    4.8798
   10.560    5.3186
   10.575    4.9149
   10.590    4.9324
   10.605    5.2133
   10.620    5.7574
   10.635    5.6345
   10.650    5.5994
   10.665    5.0026
   10.680    5.1080
   10.695    5.4766
   10.710    4.8973
   10.725    5.2484
   10.740    5.2659
   10.755    4.5638
   10.770    4.3883
   10.785    5.2835
   10.800    5.5292
   10.815    5.4590
   10.830    5.3010
   10.845    5.3537
   10.860    5.4941
   10.875    5.3712
   10.890    5.2659
   10.905    5.5468
   10.920    5.2659
   10.935    4.9500
   10.950    5.4064
   10.965    5.3888
   10.980    5.3537
   10.995    4.8271
   11.010    5.1431
   11.025    5.5117
   11.040    5.5468
   11.055    5.0377
   11.070    4.7569
   11.085    5.1957
   11.100    5.3010
   11.115    5.3186
   11.130    5.1957
   11.145    5.4941
   11.160    5.3537
   11.175    5.2484
   11.190    5.8101
   11.205    5.6170
   11.220    5.5819
   11.235    5.3537
   11.250    5.0728
   11.265    5.5994
   11.280    5.2659
   11.295    4.9675
   11.310    4.8973
   11.325    5.4064
   11.340    5.3010
   11.355    4.8973
   11.370    5.3537
   11.385    5.1957
   11.400    4.6165
   11.415    5.3361
   11.430    5.4941
   11.445    5.3186
   11.460    5.0026
   11.475    5.1255
   11.490    5.3888
   11.505    5.1606
   11.520    5.0026
   11.535    5.1431
   11.550    5.3186
   11.565    5.0026
   11.580    4.8622
   11.595    5.0377
   11.610    5.0377
   11.625    5.1957
   11.640    5.0026
   11.655    4.4409
   11.670    4.8095
   11.685    4.7569
   11.700    5.1255
   11.715    5.1431
   11.730    5.2308
   11.745    5.0026
   11.760    4.8973
   11.775    5.2133
   11.790    4.9675
   11.805    4.8447
   11.820    5.3888
   11.835    5.2835
   11.850    5.5643
   11.865    4.9675
   11.880    4.7218
   11.895    5.0026
   11.910    5.0553
   11.925    4.7744
   11.940    4.5638
   11.955    4.8271
   11.970    4.8973
   11.985    5.0202
   12.000    4.7218
   12.015    5.2659
   12.030    5.2659
   12.045    5.2835
   12.060    4.7569
   12.075    4.8973
   12.090    5.0728
   12.105    4.8973
   12.120    4.7569
   12.135    4.6867
   12.150    5.1606
   12.165    5.2308
   12.180    4.6340
   12.195    4.5638
   12.210    4.9851
   12.225    5.1431
   12.240    4.8798
   12.255    4.5638
   12.270    4.5814
   12.285    4.7569
   12.300    5.1255
   12.315    4.6867
   12.330    5.1080
   12.345    4.9851
   12.360    5.1431
   12.375    5.0026
   12.390    5.1255
   12.405    4.5814
   12.420    4.5463
   12.435    4.8622
   12.450    4.9851
   12.465    5.0904
   12.480    5.1255
   12.495    4.9149
   12.510    4.5989
   12.525    4.7393
   12.540    4.9851
   12.555    4.8447
   12.570    4.5287
   12.585    5.1080
   12.600    4.4585
   12.615    4.4058
   12.630    5.0026
   12.645    4.7393
   12.660    4.6340
   12.675    4.5989
   12.690    4.5111
   12.705    4.6691
   12.720    4.7218
   12.735    4.9851
   12.750    5.1431
   12.765    4.9149
   12.780    4.9149
   12.795    4.3181
   12.810    4.7920
   12.825    4.6165
   12.840    4.6691
   12.855    4.9324
   12.870    5.1606
   12.885    4.9149
   12.900    4.7569
   12.915    4.7393
   12.930    4.7569
   12.945    4.7042
   12.960    4.5638
   12.975    4.7218
   12.990    4.1425
   13.005    4.5638
   13.020    4.3707
   13.035    4.4760
   13.050    5.0377
   13.065    4.5638
   13.080    4.5814
   13.095    4.5638
   13.110    4.5989
   13.125    4.7218
   13.140    4.5287
   13.155    4.5638
   13.170    4.5989
   13.185    4.9675
   13.200    4.8447
   13.215    4.6165
   13.230    4.7042
   13.245    4.8447
   13.260    4.5989
   13.275    4.4760
   13.290    5.1080
   13.305    4.8622
   13.320    4.4058
   13.335    4.3181
   13.350    4.7744
   13.365    5.0728
   13.380    5.0026
   13.395    4.7218
   13.410    4.6867
   13.425    4.8622
   13.440    4.2830
   13.455    4.5463
   13.470    5.0026
   13.485    4.7393
   13.500    4.7920
   13.515    4.6867
   13.530    4.6340
   13.545    4.7042
   13.560    4.5989
   13.575    4.8973
   13.590    5.1782
   13.605    4.5287
   13.620    4.7920
   13.635    4.5287
   13.650    4.9324
   13.665    5.1255
   13.680    5.0026
   13.695    4.7569
   13.710    4.5463
   13.725    5.0553
   13.740    4.7569
   13.755    4.9675
   13.770    4.7569
   13.785    4.5638
   13.800    4.8622
   13.815    4.9149
   13.830    4.6340
   13.845    4.4234
   13.860    4.3883
   13.875    4.6165
   13.890    4.8271
   13.905    4.7920
   13.920    4.6691
   13.935    5.0904
   13.950    5.1957
   13.965    4.9851
   13.980    5.0026
   13.995    4.8622
   14.010    4.9324
   14.025    4.8271
   14.040    4.7042
   14.055    4.5638
   14.070    5.3537
   14.085    4.5989
   14.100    4.5989
   14.115    4.7218
   14.130    5.0904
   14.145    5.2133
   14.160    4.9324
   14.175    4.8798
   14.190    4.8095
   14.205    4.7218
   14.220    4.8447
   14.235    4.6165
   14.250    4.8973
   14.265    5.0904
   14.280    5.2484
   14.295    5.1255
   14.310    5.3888
   14.325    5.2308
   14.340    5.4239
   14.355    5.0728
   14.370    4.9851
   14.385    4.4409
   14.400    4.7569
   14.415    5.3186
   14.430    5.2133
   14.445    5.3537
   14.460    5.0904
   14.475    5.1431
   14.490    5.1606
   14.505    5.0377
   14.520    4.7393
   14.535    5.0202
   14.550    5.4415
   14.565    5.0553
   14.580    4.7744
   14.595    4.9149
   14.610    5.0377
   14.625    4.8447
   14.640    4.8271
   14.655    4.9324
   14.670    4.8271
   14.685    5.1255
   14.700    5.1255
   14.715    4.4936
   14.730    5.0553
   14.745    5.0026
   14.760    4.7920
   14.775    4.5989
   14.790    4.8798
   14.805    4.6691
   14.820    4.8973
   14.835    4.8447
   14.850    5.1606
   14.865    5.2835
   14.880    5.1606
   14.895    5.1606
   14.910    4.9149
   14.925    5.2659
   14.940    5.1431
   14.955    5.1080
   14.970    5.0202
   14.985    4.8798
   15.000    4.9851
   15.015    4.6867
   15.030    4.7744
   15.045    4.6340
   15.060    4.8973
   15.075    4.9675
   15.090    4.6867
   15.105    4.6340
   15.120    4.4585
   15.135    4.6340
   15.150    4.9324
   15.165    4.4936
   15.180    4.5638
   15.195    4.7920
   15.210    4.4585
   15.225    4.7744
   15.240    4.4760
   15.255    3.9846
   15.270    4.8271
   15.285    4.3883
   15.300    4.3883
   15.315    4.5989
   15.330    4.4936
   15.345    4.7920
   15.360    4.6867
   15.375    4.9675
   15.390    5.0026
   15.405    4.6867
   15.420    4.4409
   15.435    4.3532
   15.450    4.6691
   15.465    4.7042
   15.480    4.4760
   15.495    4.2654
   15.510    4.7920
   15.525    4.9324
   15.540    4.5287
   15.555    4.3532
   15.570    4.8095
   15.585    4.5989
   15.600    4.5111
   15.615    4.7218
   15.630    4.5989
   15.645    4.2654
   15.660    4.4585
   15.675    4.4760
   15.690    4.8622
   15.705    4.5814
   15.720    4.5287
   15.735    4.4760
   15.750    4.2830
   15.765    4.8095
   15.780    4.6867
   15.795    4.7920
   15.810    4.5111
   15.825    4.3181
   15.840    4.7393
   15.855    4.9675
   15.870    4.7042
   15.885    4.5638
   15.900    4.7569
   15.915    4.5463
   15.930    4.1425
   15.945    4.4936
   15.960    4.7218
   15.975    4.9500
   15.990    4.6165
   16.005    4.4585
   16.020    4.3181
   16.035    4.5989
   16.050    4.6165
   16.065    4.5111
   16.080    4.9500
   16.095    4.9500
   16.110    4.8798
   16.125    4.6691
   16.140    4.7744
   16.155    5.1080
   16.170    4.7042
   16.185    4.9851
   16.200    4.4585
   16.215    4.9324
   16.230    4.8447
   16.245    4.5287
   16.260    4.7920
   16.275    4.4936
   16.290    4.6867
   16.305    4.3883
   16.320    4.3707
   16.335    4.8798
   16.350    4.4760
   16.365    4.7744
   16.380    4.6340
   16.395    4.6340
   16.410    4.4585
   16.425    4.4234
   16.440    4.8447
   16.455    4.8973
   16.470    4.9851
   16.485    4.7920
   16.500    4.8798
   16.515    4.4760
   16.530    4.4936
   16.545    4.6867
   16.560    4.4058
   16.575    4.4058
   16.590    4.7744
   16.605    4.5463
   16.620    5.0026
   16.635    4.8973
   16.650    4.8973
   16.665    4.7920
   16.680    4.4760
   16.695    4.5989
   16.710    4.8095
   16.725    4.5638
   16.740    4.7393
   16.755    4.4585
   16.770    4.8622
   16.785    4.7920
   16.800    4.7569
   16.815    4.4234
   16.830    4.7042
   16.845    4.2127
   16.860    4.7042
   16.875    4.7393
   16.890    4.4234
   16.905    4.4760
   16.920    4.3532
   16.935    4.8271
   16.950    4.3883
   16.965    4.1776
   16.980    4.4760
   16.995    4.6340
   17.010    4.4058
   17.025    4.1776
   17.040    4.3883
   17.055    4.4409
   17.070    4.7218
   17.085    4.2478
   17.100    4.2830
   17.115    4.1425
   17.130    4.3707
   17.145    4.5287
   17.160    4.7569
   17.175    4.4936
   17.190    4.7569
   17.205    4.4409
   17.220    4.5463
   17.235    4.4760
   17.250    4.2830
   17.265    4.6165
   17.280    4.3883
   17.295    4.2127
   17.310    4.2127
   17.325    4.5287
   17.340    4.3005
   17.355    4.3883
   17.370    4.4585
   17.385    4.4936
   17.400    4.7042
   17.415    4.5287
   17.430    4.2830
   17.445    4.5111
   17.460    4.2303
   17.475    4.1074
   17.490    4.2303
   17.505    4.2303
   17.520    4.3707
   17.535    4.6516
   17.550    4.0723
   17.565    4.9149
   17.580    4.9149
   17.595    4.7920
   17.610    5.0904
   17.625    4.6340
   17.640    4.3005
   17.655    4.3883
   17.670    4.3181
   17.685    4.9500
   17.700    4.5287
   17.715    4.0723
   17.730    4.4760
   17.745    4.6867
   17.760    4.4234
   17.775    4.2303
   17.790    4.0372
   17.805    4.2478
   17.820    4.1601
   17.835    4.3181
   17.850    4.4936
   17.865    4.5463
   17.880    4.4936
   17.895    4.8447
   17.910    4.8798
   17.925    4.8095
   17.940    4.8973
   17.955    4.6165
   17.970    4.5111
   17.985    4.4936
   18.000    4.5463
   18.015    4.7042
   18.030    4.7744
   18.045    4.5287
   18.060    4.4760
   18.075    4.6516
   18.090    4.6691
   18.105    4.8447
   18.120    4.4585
   18.135    4.4760
   18.150    4.4234
   18.165    4.2478
   18.180    4.4409
   18.195    4.4409
   18.210    4.9149
   18.225    4.5989
   18.240    4.1776
   18.255    4.3181
   18.270    4.5638
   18.285    4.6867
   18.300    4.1074
   18.315    4.4760
   18.330    4.8271
   18.345    4.5111
   18.360    4.5111
   18.375    4.3005
   18.390    4.2303
   18.405    4.0372
   18.420    4.2654
   18.435    4.7569
   18.450    4.5989
   18.465    4.7569
   18.480    4.3883
   18.495    4.7218
   18.510    4.0899
   18.525    4.2654
   18.540    4.4409
   18.555    4.5814
   18.570    4.3883
   18.585    4.5814
   18.600    4.4234
   18.615    4.1776
   18.630    4.2303
   18.645    4.0021
   18.660    4.8447
   18.675    4.0899
   18.690    4.2303
   18.705    4.1776
   18.720    4.2830
   18.735    4.6340
   18.750    4.7569
   18.765    4.4234
   18.780    4.3883
   18.795    4.6165
   18.810    4.4234
   18.825    4.5463
   18.840    4.6516
   18.855    4.5111
   18.870    4.7569
   18.885    4.6867
   18.900    4.7393
   18.915    4.7744
   18.930    5.0728
   18.945    5.4239
   18.960    5.2133
   18.975    5.4415
   18.990    5.8978
   19.005    5.5117
   19.020    4.6340
   19.035    5.0202
   19.050    4.9149
   19.065    4.7569
   19.080    4.6165
   19.095    4.7393
   19.110    4.2654
   19.125    4.4058
   19.140    4.2654
   19.155    4.1074
   19.170    4.2654
   19.185    4.5814
   19.200    4.0899
   19.215    3.9846
   19.230    4.1952
   19.245    4.3005
   19.260    4.3707
   19.275    4.1601
   19.290    4.7042
   19.305    4.4058
   19.320    4.1250
   19.335    4.4936
   19.350    4.4234
   19.365    3.9319
   19.380    4.3181
   19.395    4.4760
   19.410    4.0548
   19.425    3.9319
   19.440    4.2303
   19.455    4.8095
   19.470    4.9675
   19.485    4.5989
   19.500    4.5989
   19.515    4.4409
   19.530    4.4936
   19.545    4.6516
   19.560    4.3005
   19.575    4.0899
   19.590    4.8271
   19.605    4.1952
   19.620    4.0899
   19.635    4.3181
   19.650    4.5463
   19.665    4.6340
   19.680    4.3707
   19.695    4.1601
   19.710    3.9143
   19.725    4.2127
   19.740    4.4409
   19.755    4.2303
   19.770    4.4058
   19.785    4.5287
   19.800    4.2127
   19.815    4.3883
   19.830    4.0899
   19.845    4.2654
   19.860    4.4936
   19.875    4.4409
   19.890    4.2830
   19.905    4.5463
   19.920    4.5111
   19.935    4.4058
   19.950    4.5287
   19.965    4.4760
   19.980    4.2478
   19.995    3.9319
   20.010    3.9846
   20.025    3.8266
   20.040    4.2830
   20.055    4.1952
   20.070    4.3181
   20.085    4.2478
   20.100    4.4058
   20.115    4.5638
   20.130    4.1425
   20.145    4.2654
   20.160    4.3181
   20.175    4.5638
   20.190    4.0723
   20.205    4.6516
   20.220    4.4409
   20.235    4.5287
   20.250    4.0372
   20.265    4.4234
   20.280    4.3005
   20.295    4.2303
   20.310    4.3005
   20.325    3.8792
   20.340    3.8792
   20.355    4.0372
   20.370    4.2478
   20.385    4.5287
   20.400    4.2478
   20.415    4.1601
   20.430    4.0197
   20.445    3.9846
   20.460    4.0899
   20.475    4.1952
   20.490    3.9494
   20.505    4.1952
   20.520    3.9143
   20.535    4.0548
   20.550    4.1601
   20.565    3.7388
   20.580    4.1425
   20.595    4.1250
   20.610    4.1952
   20.625    4.4409
   20.640    4.0197
   20.655    4.4936
   20.670    4.3883
   20.685    4.1074
   20.700    3.7037
   20.715    3.8266
   20.730    4.0548
   20.745    4.1601
   20.760    4.0723
   20.775    4.2654
   20.790    3.9494
   20.805    4.0372
   20.820    3.8792
   20.835    3.9143
   20.850    4.0197
   20.865    4.2830
   20.880    4.3356
   20.895    4.0197
   20.910    4.0372
   20.925    4.0723
   20.940    4.1250
   20.955    4.2127
   20.970    4.6691
   20.985    4.1776
   21.000    3.8266
   21.015    4.1425
   21.030    4.3005
   21.045    4.6340
   21.060    4.7218
   21.075    4.4585
   21.090    4.2478
   21.105    4.2303
   21.120    4.1601
   21.135    4.3532
   21.150    4.0197
   21.165    3.7564
   21.180    3.7213
   21.195    4.1074
   21.210    4.1250
   21.225    3.8968
   21.240    4.1776
   21.255    4.6867
   21.270    4.1074
   21.285    4.0723
   21.300    4.0723
   21.315    4.1776
   21.330    4.0548
   21.345    3.9494
   21.360    3.8792
   21.375    3.7388
   21.390    4.0197
   21.405    4.0723
   21.420    3.9846
   21.435    3.8968
   21.450    3.7915
   21.465    3.7213
   21.480    4.1250
   21.495    4.0548
   21.510    3.7915
   21.525    3.7564
   21.540    4.4234
   21.555    4.0723
   21.570    3.9846
   21.585    3.9494
   21.600    4.0548
   21.615    3.9670
   21.630    4.4409
   21.645    4.2303
   21.660    4.2127
   21.675    4.0021
   21.690    4.2830
   21.705    3.8441
   21.720    3.9143
   21.735    3.7915
   21.750    4.1425
   21.765    4.4409
   21.780    4.0723
   21.795    3.6159
   21.810    3.9670
   21.825    4.1250
   21.840    3.8441
   21.855    3.8266
   21.870    4.0723
   21.885    4.3532
   21.900    4.0197
   21.915    4.0197
   21.930    4.0548
   21.945    4.2654
   21.960    3.7915
   21.975    3.8792
   21.990    3.8792
   22.005    4.1250
   22.020    3.7739
   22.035    4.1425
   22.050    3.9846
   22.065    3.9846
   22.080    3.8617
   22.095    4.2127
   22.110    4.1425
   22.125    3.7564
   22.140    3.7213
   22.155    3.9846
   22.170    3.7388
   22.185    3.5808
   22.200    4.0723
   22.215    4.0899
   22.230    3.7213
   22.245    3.8441
   22.260    3.9670
   22.275    3.4404
   22.290    3.7037
   22.305    4.1952
   22.320    3.9143
   22.335    3.9846
   22.350    4.0548
   22.365    4.1776
   22.380    3.7739
   22.395    3.9319
   22.410    4.0548
   22.425    3.9494
   22.440    3.8617
   22.455    4.0899
   22.470    3.8968
   22.485    3.9670
   22.500    4.1074
   22.515    3.7739
   22.530    3.8968
   22.545    4.1250
   22.560    4.1776
   22.575    3.5633
   22.590    3.6862
   22.605    4.0372
   22.620    3.9670
   22.635    3.8441
   22.650    3.4580
   22.665    3.9143
   22.680    3.9494
   22.695    3.1947
   22.710    3.6686
   22.725    3.9494
   22.740    3.7037
   22.755    3.6510
   22.770    3.7739
   22.785    3.6862
   22.800    3.5106
   22.815    3.9494
   22.830    4.0021
   22.845    3.6335
   22.860    4.0372
   22.875    4.1250
   22.890    3.8266
   22.905    4.2127
   22.920    4.0372
   22.935    3.7388
   22.950    4.0723
   22.965    3.8441
   22.980    3.9143
   22.995    3.8090
   23.010    3.5984
   23.025    3.4053
   23.040    3.7564
   23.055    3.6862
   23.070    4.1601
   23.085    4.0372
   23.100    4.3356
   23.115    3.8617
   23.130    3.4931
   23.145    4.0197
   23.160    3.9494
   23.175    3.7564
   23.190    3.5808
   23.205    3.6686
   23.220    3.8090
   23.235    3.9494
   23.250    3.7037
   23.265    3.5984
   23.280    3.6862
   23.295    3.5457
   23.310    3.7213
   23.325    3.9143
   23.340    3.7915
   23.355    3.9670
   23.370    3.7915
   23.385    3.3526
   23.400    3.7037
   23.415    3.8792
   23.430    3.8792
   23.445    3.8090
   23.460    3.7037
   23.475    3.7037
   23.490    3.6862
   23.505    3.7037
   23.520    3.7564
   23.535    4.1074
   23.550    3.8441
   23.565    3.6159
   23.580    3.6335
   23.595    3.5808
   23.610    3.7739
   23.625    3.5457
   23.640    3.8266
   23.655    3.5808
   23.670    3.5457
   23.685    3.5282
   23.700    3.0893
   23.715    3.0542
   23.730    3.5282
   23.745    3.8441
   23.760    3.9494
   23.775    3.8266
   23.790    3.8617
   23.805    3.7037
   23.820    3.5457
   23.835    3.8968
   23.850    3.7213
   23.865    3.8968
   23.880    3.8266
   23.895    3.6686
   23.910    3.6686
   23.925    3.5633
   23.940    3.9494
   23.955    3.6159
   23.970    3.4229
   23.985    3.5808
   24.000    3.1245
   24.015    3.7915
   24.030    4.0723
   24.045    3.8968
   24.060    3.9319
   24.075    3.7388
   24.090    3.3877
   24.105    3.6159
   24.120    3.5984
   24.135    3.1420
   24.150    3.4229
   24.165    3.5457
   24.180    3.5106
   24.195    3.7739
   24.210    3.4931
   24.225    3.5633
   24.240    3.6335
   24.255    3.7388
   24.270    3.7564
   24.285    3.5282
   24.300    3.7213
   24.315    3.7037
   24.330    3.8090
   24.345    3.6686
   24.360    3.4053
   24.375    3.5106
   24.390    3.8266
   24.405    3.3526
   24.420    3.2473
   24.435    3.4931
   24.450    3.5984
   24.465    3.4229
   24.480    3.6335
   24.495    3.4404
   24.510    3.0542
   24.525    3.4580
   24.540    3.2473
   24.555    3.9670
   24.570    3.9846
   24.585    3.6335
   24.600    3.4404
   24.615    3.4931
   24.630    3.7213
   24.645    3.4755
   24.660    3.3877
   24.675    3.7739
   24.690    3.4755
   24.705    3.3526
   24.720    3.5633
   24.735    3.5984
   24.750    3.6510
   24.765    3.7213
   24.780    3.3526
   24.795    3.5457
   24.810    3.3526
   24.825    3.3000
   24.840    3.1420
   24.855    3.5282
   24.870    3.4580
   24.885    3.5282
   24.900    3.8792
   24.915    3.3877
   24.930    3.6159
   24.945    3.5457
   24.960    3.5282
   24.975    3.6510
   24.990    3.6159
   25.005    3.7213
   25.020    3.9846
   25.035    3.6510
   25.050    3.4931
   25.065    3.5106
   25.080    3.8792
   25.095    3.8090
   25.110    3.4580
   25.125    3.5457
   25.140    3.5106
   25.155    3.4931
   25.170    3.6159
   25.185    2.8787
   25.200    3.2122
   25.215    3.3877
   25.230    3.3526
   25.245    3.6510
   25.260    3.7037
   25.275    3.3877
   25.290    3.1947
   25.305    3.4580
   25.320    3.4755
   25.335    3.2473
   25.350    3.4404
   25.365    3.4404
   25.380    3.5808
   25.395    3.3702
   25.410    3.4053
   25.425    3.3351
   25.440    3.4931
   25.455    3.0718
   25.470    3.5106
   25.485    3.7037
   25.500    4.2127
   25.515    3.7739
   25.530    3.4580
   25.545    3.3175
   25.560    3.4404
   25.575    3.4404
   25.590    3.4931
   25.605    3.7037
   25.620    3.5106
   25.635    3.3526
   25.650    3.4931
   25.665    3.5457
   25.680    3.4229
   25.695    3.5106
   25.710    3.7915
   25.725    3.3351
   25.740    3.4755
   25.755    3.5457
   25.770    3.5633
   25.785    3.7564
   25.800    3.4053
   25.815    3.3526
   25.830    3.3702
   25.845    3.6335
   25.860    3.5808
   25.875    3.4053
   25.890    3.1596
   25.905    3.4755
   25.920    3.5633
   25.935    3.5808
   25.950    3.7037
   25.965    3.3877
   25.980    3.2298
   25.995    3.2824
   26.010    3.4580
   26.025    3.4580
   26.040    3.3000
   26.055    3.4755
   26.070    3.3351
   26.085    3.2824
   26.100    3.6335
   26.115    3.4404
   26.130    3.2649
   26.145    3.2473
   26.160    3.2649
   26.175    3.5984
   26.190    3.4229
   26.205    3.7037
   26.220    3.5282
   26.235    3.4580
   26.250    3.1245
   26.265    3.0718
   26.280    3.4931
   26.295    3.4229
   26.310    3.4931
   26.325    3.2298
   26.340    3.4931
   26.355    3.2824
   26.370    3.6686
   26.385    3.1596
   26.400    3.3000
   26.415    3.0718
   26.430    3.3000
   26.445    3.3877
   26.460    3.3526
   26.475    3.0542
   26.490    3.1069
   26.505    3.4580
   26.520    3.6159
   26.535    3.3877
   26.550    3.6159
   26.565    3.1947
   26.580    3.3877
   26.595    3.5457
   26.610    3.6159
   26.625    3.2824
   26.640    2.9138
   26.655    2.9840
   26.670    3.2824
   26.685    3.4404
   26.700    3.3877
   26.715    3.3000
   26.730    3.2298
   26.745    3.1947
   26.760    3.0367
   26.775    3.0542
   26.790    3.3175
   26.805    3.0718
   26.820    3.8441
   26.835    3.3702
   26.850    3.0893
   26.865    3.1420
   26.880    3.2824
   26.895    3.2473
   26.910    3.1596
   26.925    3.2824
   26.940    3.1420
   26.955    3.2649
   26.970    3.4580
   26.985    3.3175
   27.000    3.2824
   27.015    3.4755
   27.030    3.2824
   27.045    2.9489
   27.060    3.1245
   27.075    3.1947
   27.090    3.1947
   27.105    3.2122
   27.120    3.0893
   27.135    3.7037
   27.150    3.1069
   27.165    2.9314
   27.180    3.1596
   27.195    3.2824
   27.210    3.1420
   27.225    3.1245
   27.240    3.3526
   27.255    3.1069
   27.270    3.0542
   27.285    3.2824
   27.300    3.3351
   27.315    2.9489
   27.330    3.0367
   27.345    2.7734
   27.360    2.9138
   27.375    3.3877
   27.390    3.2298
   27.405    3.3702
   27.420    2.8612
   27.435    3.1069
   27.450    3.2122
   27.465    2.8787
   27.480    2.8436
   27.495    3.1245
   27.510    2.8787
   27.525    2.7909
   27.540    2.9314
   27.555    2.7909
   27.570    3.0191
   27.585    3.0542
   27.600    3.3000
   27.615    3.2473
   27.630    2.9665
   27.645    3.0016
   27.660    2.9314
   27.675    3.0893
   27.690    3.1245
   27.705    2.8787
   27.720    3.0191
   27.735    2.8612
   27.750    2.9138
   27.765    3.1069
   27.780    3.2824
   27.795    3.1069
   27.810    3.0893
   27.825    3.1420
   27.840    2.5452
   27.855    2.8085
   27.870    2.7032
   27.885    3.0893
   27.900    3.3351
   27.915    3.0893
   27.930    3.0542
   27.945    3.3351
   27.960    3.6159
   27.975    3.8617
   27.990    3.8090
   28.005    3.9319
   28.020    3.7388
   28.035    3.4580
   28.050    3.6335
   28.065    3.0191
   28.080    2.9840
   28.095    3.2122
   28.110    3.1420
   28.125    3.0367
   28.140    2.9314
   28.155    2.7383
   28.170    2.7383
   28.185    3.0542
   28.200    2.9138
   28.215    3.1947
   28.230    2.6154
   28.245    2.7558
   28.260    2.8085
   28.275    2.8260
   28.290    2.8787
   28.305    3.1420
   28.320    2.9138
   28.335    3.1947
   28.350    3.0191
   28.365    2.8260
   28.380    2.9665
   28.395    2.9314
   28.410    2.9314
   28.425    2.9665
   28.440    3.1069
   28.455    3.0542
   28.470    2.9489
   28.485    2.7558
   28.500    2.8963
   28.515    3.0367
   28.530    3.1420
   28.545    2.9665
   28.560    2.6505
   28.575    2.8963
   28.590    3.1245
   28.605    2.8963
   28.620    2.9489
   28.635    3.0367
   28.650    2.9840
   28.665    2.8963
   28.680    2.7558
   28.695    3.0893
   28.710    3.0718
   28.725    2.9314
   28.740    2.8085
   28.755    3.0542
   28.770    2.8963
   28.785    3.1596
   28.800    2.8787
   28.815    2.9665
   28.830    2.6154
   28.845    3.2298
   28.860    2.9665
   28.875    3.0718
   28.890    3.1420
   28.905    3.0016
   28.920    3.2122
   28.935    4.0021
   28.950    4.1601
   28.965    4.5287
   28.980    3.9143
   28.995    3.6686
   29.010    3.4931
   29.025    3.6510
   29.040    3.2298
   29.055    3.1245
   29.070    2.8260
   29.085    3.0016
   29.100    3.2473
   29.115    2.5628
   29.130    2.8436
   29.145    3.0191
   29.160    2.7558
   29.175    3.0191
   29.190    3.2298
   29.205    2.9138
   29.220    2.9840
   29.235    2.9138
   29.250    2.9314
   29.265    2.7909
   29.280    2.7558
   29.295    2.6681
   29.310    2.8260
   29.325    2.7734
   29.340    2.8612
   29.355    3.0191
   29.370    3.1771
   29.385    3.2298
   29.400    2.7558
   29.415    2.6856
   29.430    2.7734
   29.445    2.6330
   29.460    3.0191
   29.475    2.6330
   29.490    2.5628
   29.505    2.6681
   29.520    2.8612
   29.535    2.7558
   29.550    2.8787
   29.565    2.7734
   29.580    2.1941
   29.595    2.4223
   29.610    2.7032
   29.625    2.8085
   29.640    2.6154
   29.655    2.5452
   29.670    2.7558
   29.685    2.8787
   29.700    2.6505
   29.715    2.7207
   29.730    2.8260
   29.745    3.0893
   29.760    2.6681
   29.775    2.4750
   29.790    2.5803
   29.805    2.7909
   29.820    2.6681
   29.835    2.8436
   29.850    2.6681
   29.865    2.9665
   29.880    2.9138
   29.895    2.9314
   29.910    2.7909
   29.925    2.8436
   29.940    3.0191
   29.955    2.8085
   29.970    2.8612
   29.985    2.6330
   30.000    3.0367
   30.015    2.8260
   30.030    2.8260
   30.045    2.7032
   30.060    2.6154
   30.075    2.5979
   30.090    2.7909
   30.105    2.8963
   30.120    2.6681
   30.135    2.7207
   30.150    2.4223
   30.165    2.7909
   30.180    2.7207
   30.195    2.5452
   30.210    2.5979
   30.225    2.7032
   30.240    2.7207
   30.255    2.5452
   30.270    2.7558
   30.285    2.5276
   30.300    2.5101
   30.315    2.4750
   30.330    2.6330
   30.345    2.5979
   30.360    2.5803
   30.375    2.3170
   30.390    2.4574
   30.405    2.4574
   30.420    2.4574
   30.435    2.5979
   30.450    2.7558
   30.465    2.5101
   30.480    2.6154
   30.495    2.7383
   30.510    2.6505
   30.525    2.3521
   30.540    2.6505
   30.555    2.3872
   30.570    2.4574
   30.585    2.5452
   30.600    2.6330
   30.615    2.5101
   30.630    2.5979
   30.645    2.4574
   30.660    2.3346
   30.675    2.3872
   30.690    2.2643
   30.705    2.4223
   30.720    2.5803
   30.735    2.5803
   30.750    2.7909
   30.765    2.5276
   30.780    2.5628
   30.795    2.5101
   30.810    2.7558
   30.825    2.6330
   30.840    2.7207
   30.855    2.5276
   30.870    2.6505
   30.885    2.5803
   30.900    2.6681
   30.915    2.3521
   30.930    2.5979
   30.945    2.6330
   30.960    2.5101
   30.975    2.3872
   30.990    2.5276
   31.005    2.3521
   31.020    2.5628
   31.035    2.6505
   31.050    2.6856
   31.065    2.4574
   31.080    2.7032
   31.095    2.5979
   31.110    2.6154
   31.125    2.5803
   31.140    2.5452
   31.155    2.4750
   31.170    2.3697
   31.185    2.2819
   31.200    2.4750
   31.215    2.3872
   31.230    2.2468
   31.245    2.2292
   31.260    2.4399
   31.275    2.4574
   31.290    2.4750
   31.305    2.4399
   31.320    2.5628
   31.335    2.4223
   31.350    2.2643
   31.365    2.2995
   31.380    2.2117
   31.395    2.7558
   31.410    2.0713
   31.425    2.4399
   31.440    2.4223
   31.455    2.6856
   31.470    2.4399
   31.485    2.5101
   31.500    1.9835
   31.515    2.0362
   31.530    2.4399
   31.545    2.5101
   31.560    2.2819
   31.575    2.3872
   31.590    2.4399
   31.605    2.5452
   31.620    2.3170
   31.635    2.2643
   31.650    2.4048
   31.665    2.4223
   31.680    2.6154
   31.695    2.4574
   31.710    2.2819
   31.725    2.4223
   31.740    2.5803
   31.755    2.6330
   31.770    2.7032
   31.785    2.8787
   31.800    2.6330
   31.815    2.9489
   31.830    2.5101
   31.845    2.5452
   31.860    2.5101
   31.875    2.6505
   31.890    2.4223
   31.905    2.2117
   31.920    2.2292
   31.935    2.4223
   31.950    2.4223
   31.965    2.4399
   31.980    2.5101
   31.995    2.3521
   32.010    2.4750
   32.025    2.2819
   32.040    2.8787
   32.055    3.7388
   32.070    3.9494
   32.085    4.2830
   32.100    4.4936
   32.115    3.8617
   32.130    3.3877
   32.145    3.2473
   32.160    2.6154
   32.175    2.4925
   32.190    2.5452
   32.205    2.2995
   32.220    2.2468
   32.235    2.2468
   32.250    2.1064
   32.265    2.1239
   32.280    2.3697
   32.295    2.4574
   32.310    2.5628
   32.325    2.3521
   32.340    2.3170
   32.355    2.2117
   32.370    2.0888
   32.385    2.2117
   32.400    2.2995
   32.415    2.3697
   32.430    2.2819
   32.445    2.1590
   32.460    2.4399
   32.475    2.4750
   32.490    2.2468
   32.505    2.2292
   32.520    2.1766
   32.535    2.2468
   32.550    2.1064
   32.565    2.1239
   32.580    2.1766
   32.595    2.2819
   32.610    2.0888
   32.625    2.0362
   32.640    1.9659
   32.655    2.5979
   32.670    2.2995
   32.685    2.0713
   32.700    1.9659
   32.715    2.2643
   32.730    2.3170
   32.745    2.3170
   32.760    2.2292
   32.775    2.0362
   32.790    2.1766
   32.805    2.2819
   32.820    2.0186
   32.835    2.0186
   32.850    2.1239
   32.865    2.1941
   32.880    2.2819
   32.895    1.9133
   32.910    2.0362
   32.925    2.2292
   32.940    2.2643
   32.955    2.4223
   32.970    2.4574
   32.985    2.3697
   33.000    2.1590
   33.015    2.2643
   33.030    2.1766
   33.045    2.0362
   33.060    2.2995
   33.075    2.3346
   33.090    2.1766
   33.105    2.3697
   33.120    2.0888
   33.135    2.1766
   33.150    1.9835
   33.165    2.0186
   33.180    2.1239
   33.195    1.8606
   33.210    2.2117
   33.225    2.1590
   33.240    1.9835
   33.255    2.0537
   33.270    2.0186
   33.285    2.2468
   33.300    2.2468
   33.315    2.1239
   33.330    1.9133
   33.345    2.1239
   33.360    2.2468
   33.375    2.0888
   33.390    2.1941
   33.405    2.1590
   33.420    2.0186
   33.435    2.1064
   33.450    2.0537
   33.465    2.0011
   33.480    1.9659
   33.495    2.2819
   33.510    1.9484
   33.525    1.9133
   33.540    1.9835
   33.555    1.9133
   33.570    2.2117
   33.585    2.0011
   33.600    2.2995
   33.615    1.9133
   33.630    2.0362
   33.645    2.1415
   33.660    2.0186
   33.675    2.0537
   33.690    2.1590
   33.705    1.9835
   33.720    2.2468
   33.735    2.0362
   33.750    2.2643
   33.765    2.3521
   33.780    2.4750
   33.795    2.7207
   33.810    2.7383
   33.825    2.7207
   33.840    2.7734
   33.855    2.5101
   33.870    2.4574
   33.885    2.3521
   33.900    2.3521
   33.915    2.1941
   33.930    2.0537
   33.945    2.1766
   33.960    2.5803
   33.975    2.4925
   33.990    2.5979
   34.005    2.5628
   34.020    2.2643
   34.035    2.2819
   34.050    2.2292
   34.065    2.2819
   34.080    1.9659
   34.095    2.2292
   34.110    2.2995
   34.125    2.4574
   34.140    1.8080
   34.155    1.9835
   34.170    2.1941
   34.185    2.1239
   34.200    2.1941
   34.215    2.2995
   34.230    2.6330
   34.245    2.1064
   34.260    2.0011
   34.275    2.1239
   34.290    2.0888
   34.305    2.0713
   34.320    2.1064
   34.335    2.1766
   34.350    2.1941
   34.365    2.3170
   34.380    1.7904
   34.395    2.0362
   34.410    2.2643
   34.425    2.1415
   34.440    2.0186
   34.455    1.7553
   34.470    1.8606
   34.485    2.1766
   34.500    2.2819
   34.515    2.3170
   34.530    2.1239
   34.545    1.8782
   34.560    1.9133
   34.575    2.2292
   34.590    1.9835
   34.605    2.0011
   34.620    1.9835
   34.635    2.0362
   34.650    2.1415
   34.665    2.1239
   34.680    1.9484
   34.695    1.8080
   34.710    2.1415
   34.725    2.1941
   34.740    2.0011
   34.755    2.2292
   34.770    2.1590
   34.785    2.3872
   34.800    2.1064
   34.815    1.8782
   34.830    2.0713
   34.845    2.0888
   34.860    2.2468
   34.875    2.1239
   34.890    1.8782
   34.905    2.0362
   34.920    2.3697
   34.935    2.2117
   34.950    2.1941
   34.965    2.1590
   34.980    2.1590
   34.995    2.2117
   35.010    2.3697
   35.025    2.2292
   35.040    2.6681
   35.055    2.4223
   35.070    2.0011
   35.085    2.0537
   35.100    2.0537
   35.115    1.7378
   35.130    2.2643
   35.145    2.0537
   35.160    2.2292
   35.175    2.1590
   35.190    2.2643
   35.205    2.2292
   35.220    2.1590
   35.235    2.3697
   35.250    2.0888
   35.265    2.0888
   35.280    2.2819
   35.295    2.3697
   35.310    1.8782
   35.325    2.0362
   35.340    2.0011
   35.355    1.9308
   35.370    2.2819
   35.385    2.2117
   35.400    2.2117
   35.415    2.0362
   35.430    1.9133
   35.445    1.9835
   35.460    1.7378
   35.475    2.0186
   35.490    2.0362
   35.505    2.0011
   35.520    1.9659
   35.535    2.1941
   35.550    2.0537
   35.565    1.9308
   35.580    1.9484
   35.595    2.0186
   35.610    2.0537
   35.625    2.1766
   35.640    2.1766
   35.655    1.8431
   35.670    2.0011
   35.685    2.4048
   35.700    2.1766
   35.715    2.0888
   35.730    2.1590
   35.745    2.1590
   35.760    2.1239
   35.775    1.7378
   35.790    1.8606
   35.805    2.0011
   35.820    1.9484
   35.835    2.1064
   35.850    2.0011
   35.865    2.3346
   35.880    2.0011
   35.895    1.9835
   35.910    1.9659
   35.925    2.0537
   35.940    2.0186
   35.955    2.0537
   35.970    2.0713
   35.985    2.1766
   36.000    2.0186
   36.015    2.1064
   36.030    2.2643
   36.045    2.1590
   36.060    2.1239
   36.075    1.9835
   36.090    2.0713
   36.105    2.1064
   36.120    2.0362
   36.135    2.0011
   36.150    2.1766
   36.165    1.9133
   36.180    1.8782
   36.195    2.0011
   36.210    2.0888
   36.225    2.3170
   36.240    2.0362
   36.255    2.1590
   36.270    2.3521
   36.285    2.2117
   36.300    1.7553
   36.315    1.8255
   36.330    1.8255
   36.345    2.0362
   36.360    2.3346
   36.375    2.3521
   36.390    2.2117
   36.405    2.2117
   36.420    1.8431
   36.435    1.7202
   36.450    1.9835
   36.465    2.3697
   36.480    2.2819
   36.495    2.1590
   36.510    2.1064
   36.525    2.0537
   36.540    2.0537
   36.555    2.3170
   36.570    2.1941
   36.585    2.1590
   36.600    2.1239
   36.615    2.2819
   36.630    2.0186
   36.645    1.7027
   36.660    2.1064
   36.675    1.9835
   36.690    2.2117
   36.705    2.1415
   36.720    1.5973
   36.735    2.0362
   36.750    2.0186
   36.765    2.0011
   36.780    2.0713
   36.795    2.0362
   36.810    2.0362
   36.825    2.1590
   36.840    1.9133
   36.855    1.9659
   36.870    2.0537
   36.885    2.1941
   36.900    1.8782
   36.915    2.0888
   36.930    1.8606
   36.945    1.9308
   36.960    1.7904
   36.975    2.0011
   36.990    2.0011
   37.005    1.9308
   37.020    2.0011
   37.035    2.0362
   37.050    1.6851
   37.065    1.6851
   37.080    1.9659
   37.095    1.9308
   37.110    1.8782
   37.125    1.9308
   37.140    1.8782
   37.155    1.8782
   37.170    1.8080
   37.185    2.0537
   37.200    1.8431
   37.215    2.0011
   37.230    2.0362
   37.245    1.9308
   37.260    1.8431
   37.275    2.0011
   37.290    2.0186
   37.305    1.9484
   37.320    2.0362
   37.335    2.0537
   37.350    1.8606
   37.365    1.9835
   37.380    2.1239
   37.395    1.8782
   37.410    2.2468
   37.425    2.1239
   37.440    1.8606
   37.455    1.8782
   37.470    1.8606
   37.485    2.2292
   37.500    2.1941
   37.515    1.9835
   37.530    1.7378
   37.545    1.7378
   37.560    2.0537
   37.575    1.9308
   37.590    2.0362
   37.605    1.9659
   37.620    2.2117
   37.635    2.3346
   37.650    2.0186
   37.665    2.0186
   37.680    2.3170
   37.695    2.0888
   37.710    2.0537
   37.725    1.9835
   37.740    1.9308
   37.755    1.8255
   37.770    2.2468
   37.785    1.8431
   37.800    2.0713
   37.815    2.0537
   37.830    1.9484
   37.845    1.8782
   37.860    1.9133
   37.875    2.0537
   37.890    2.1590
   37.905    1.9133
   37.920    1.8606
   37.935    2.0186
   37.950    1.8255
   37.965    1.9308
   37.980    2.1064
   37.995    2.1766
   38.010    2.3521
   38.025    2.2468
   38.040    1.8080
   38.055    1.9484
   38.070    1.7904
   38.085    1.8080
   38.100    1.7904
   38.115    2.1239
   38.130    1.8080
   38.145    1.8080
   38.160    1.8255
   38.175    1.5096
   38.190    1.8606
   38.205    1.7904
   38.220    1.7378
   38.235    1.9308
   38.250    1.8782
   38.265    1.9659
   38.280    2.1239
   38.295    2.2117
   38.310    2.2292
   38.325    2.0537
   38.340    2.0362
   38.355    2.1415
   38.370    2.1590
   38.385    2.1590
   38.400    2.2819
   38.415    2.2643
   38.430    1.9308
   38.445    1.8606
   38.460    1.9835
   38.475    2.1415
   38.490    2.1941
   38.505    2.2643
   38.520    2.1064
   38.535    2.0186
   38.550    1.9308
   38.565    2.2643
   38.580    2.3170
   38.595    2.4925
   38.610    2.5979
   38.625    2.5979
   38.640    2.0537
   38.655    2.0713
   38.670    1.8782
   38.685    2.0362
   38.700    1.7378
   38.715    1.7904
   38.730    1.7202
   38.745    1.6149
   38.760    1.9484
   38.775    2.0713
   38.790    2.2819
   38.805    1.7904
   38.820    1.9835
   38.835    2.1064
   38.850    1.7027
   38.865    1.5447
   38.880    1.7202
   38.895    1.7202
   38.910    1.9484
   38.925    2.1590
   38.940    2.1941
   38.955    1.9484
   38.970    1.7904
   38.985    1.8606
   39.000    2.1415
   39.015    2.0888
   39.030    1.8782
   39.045    1.9484
   39.060    1.7904
   39.075    1.9835
   39.090    1.9308
   39.105    2.0888
   39.120    1.9308
   39.135    1.7378
   39.150    1.8431
   39.165    1.8957
   39.180    2.0537
   39.195    2.0362
   39.210    1.8431
   39.225    1.7729
   39.240    1.9659
   39.255    1.9835
   39.270    1.8782
   39.285    2.0888
   39.300    1.9308
   39.315    1.8606
   39.330    1.7904
   39.345    1.8782
   39.360    1.9484
   39.375    2.0362
   39.390    1.5447
   39.405    1.6149
   39.420    1.7202
   39.435    2.1064
   39.450    1.8606
   39.465    1.7904
   39.480    1.8957
   39.495    2.0537
   39.510    2.1239
   39.525    1.8606
   39.540    1.8606
   39.555    1.7202
   39.570    1.9308
   39.585    2.0011
   39.600    1.8606
   39.615    1.8080
   39.630    1.9659
   39.645    1.8606
   39.660    2.0362
   39.675    1.7027
   39.690    1.5447
   39.705    1.8957
   39.720    2.0186
   39.735    2.1239
   39.750    1.7729
   39.765    2.0186
   39.780    1.8431
   39.795    1.7027
   39.810    1.5973
   39.825    1.9308
   39.840    1.8606
   39.855    1.9308
   39.870    1.9133
   39.885    1.9484
   39.900    1.9835
   39.915    2.1766
   39.930    1.9133
   39.945    1.6324
   39.960    1.6324
   39.975    2.2117
   39.990    2.1590
