    1.500   21.2114
    1.515   21.3705
    1.530   21.0511
    1.545   21.0866
    1.560   20.7523
    1.575   20.9138
    1.590   20.6047
    1.605   20.3505
    1.620   20.5406
    1.635   20.3528
    1.650   20.0723
    1.665   19.9602
    1.680   19.7633
    1.695   19.8743
    1.710   19.7392
    1.725   19.4656
    1.740   19.3546
    1.755   19.3099
    1.770   19.2058
    1.785   19.1989
    1.800   19.1668
    1.815   19.0718
    1.830   18.9928
    1.845   18.7353
    1.860   18.7982
    1.875   18.7147
    1.890   18.5510
    1.905   18.6254
    1.920   18.6254
    1.935   18.5384
    1.950   18.2064
    1.965   18.2155
    1.980   18.1480
    1.995   18.4113
    2.010   18.3426
    2.025   17.9797
    2.040   17.7382
    2.055   17.7382
    2.070   17.9202
    2.085   17.7279
    2.100   17.6992
    2.115   17.6809
    2.130   17.5275
    2.145   17.7061
    2.160   17.7073
    2.175   17.6042
    2.190   17.5424
    2.205   17.6409
    2.220   17.5298
    2.235   17.5710
    2.250   17.5710
    2.265   17.5344
    2.280   17.4806
    2.295   17.3638
    2.310   17.3593
    2.325   17.5413
    2.340   17.6180
    2.355   17.6420
    2.370   17.4108
    2.385   17.4932
    2.400   17.8858
    2.415   17.4760
    2.430   17.4394
    2.445   17.3844
    2.460   17.4646
    2.475   17.7324
    2.490   17.8458
    2.505   17.8103
    2.520   17.8423
    2.535   17.7966
    2.550   18.0587
    2.565   17.9935
    2.580   18.1617
    2.595   18.2716
    2.610   18.4147
    2.625   18.5956
    2.640   18.5658
    2.655   18.7490
    2.670   18.9871
    2.685   18.8417
    2.700   19.2000
    2.715   19.3569
    2.730   19.2023
    2.745   19.7095
    2.760   19.6854
    2.775   19.7518
    2.790   20.1147
    2.805   20.2715
    2.820   20.6413
    2.835   20.8313
    2.850   20.9870
    2.865   20.9744
    2.880   21.3877
    2.895   21.5354
    2.910   21.9051
    2.925   22.1593
    2.940   22.2325
    2.955   22.6252
    2.970   23.0728
    2.985   23.4380
    3.000   23.9142
    3.015   24.2965
    3.030   24.8140
    3.045   25.1219
    3.060   25.4390
    3.075   25.7561
    3.090   26.5529
    3.105   26.9638
    3.120   27.1688
    3.135   27.8304
    3.150   28.3765
    3.165   28.8001
    3.180   29.5579
    3.195   30.3741
    3.210   31.0713
    3.225   31.6162
    3.240   32.5961
    3.255   33.0586
    3.270   34.2308
    3.285   35.2108
    3.300   35.7625
    3.315   36.7173
    3.330   37.5827
    3.345   39.1007
    3.360   40.0027
    3.375   41.1590
    3.390   42.4136
    3.405   43.6809
    3.420   45.1233
    3.435   46.3379
    3.450   47.9589
    3.465   50.0458
    3.480   51.5935
    3.495   53.7308
    3.510   55.6758
    3.525   57.5497
    3.540   60.1289
    3.555   61.8964
    3.570   64.1608
    3.585   67.0834
    3.600   70.3024
    3.615   73.1117
    3.630   76.1728
    3.645   79.5007
    3.660   83.4364
    3.675   88.1402
    3.690   93.0799
    3.705   98.1558
    3.720  103.5350
    3.735  110.0499
    3.750  116.3873
    3.765  124.7327
    3.780  134.1301
    3.795  144.6413
    3.810  157.9573
    3.825  174.5793
    3.840  195.3145
    3.855  224.6262
    3.870  262.3967
    3.885  301.4882
    3.900  324.4236
    3.915  323.4952
    3.930  294.9848
    3.945  234.7334
    3.960  149.1723
    3.975   71.3625
    3.990   31.9138
    4.005   19.5572
    4.020   15.9386
    4.035   14.0978
    4.050   12.8924
    4.065   12.2605
    4.080   11.8083
    4.095   11.4488
    4.110   11.2359
    4.125   10.8169
    4.140   10.7539
    4.155   10.5216
    4.170   10.4872
    4.185   10.5456
    4.200   10.3899
    4.215   10.4471
    4.230   10.2880
    4.245   10.1644
    4.260   10.1770
    4.275   10.0591
    4.290   10.0545
    4.305    9.9789
    4.320    9.9538
    4.335    9.9068
    4.350    9.9309
    4.365    9.8461
    4.380    9.9331
    4.395    9.9755
    4.410    9.9286
    4.425    9.9824
    4.440    9.9973
    4.455    9.8336
    4.470    9.9331
    4.485    9.9892
    4.500   10.0820
    4.515    9.9858
    4.530    9.9183
    4.545   10.0762
    4.560   10.1140
    4.575   10.1060
    4.590   10.1884
    4.605   10.2754
    4.620   10.3235
    4.635   10.2628
    4.650   10.2960
    4.665   10.5044
    4.680   10.4861
    4.695   10.7677
    4.710   10.8192
    4.725   10.6532
    4.740   10.9669
    4.755   11.0493
    4.770   11.0974
    4.785   11.2817
    4.800   11.5370
    4.815   11.5255
    4.830   11.6961
    4.845   11.8266
    4.860   11.7751
    4.875   11.9651
    4.890   12.0567
    4.905   12.4299
    4.920   12.5192
    4.935   12.8420
    4.950   13.0320
    4.965   13.1248
    4.980   13.2656
    4.995   13.7761
    5.010   14.1722
    5.025   14.4206
    5.040   14.6118
    5.055   14.9587
    5.070   15.3571
    5.085   15.6627
    5.100   16.0508
    5.115   16.6094
    5.130   17.1463
    5.145   17.7233
    5.160   18.2087
    5.175   18.8371
    5.190   19.5000
    5.205   20.1880
    5.220   21.0408
    5.235   21.7323
    5.250   22.8312
    5.265   23.6738
    5.280   24.7911
    5.295   25.8145
    5.310   27.0886
    5.325   28.5642
    5.340   30.0112
    5.355   31.9070
    5.370   33.8920
    5.385   36.2204
    5.400   38.7767
    5.415   41.9248
    5.430   45.6419
    5.445   49.9920
    5.460   55.8555
    5.475   64.4618
    5.490   75.0361
    5.505   85.4615
    5.520   92.2190
    5.535   92.8624
    5.550   85.7007
    5.565   70.3288
    5.580   48.3092
    5.595   27.0280
    5.610   15.3273
    5.625   11.2725
    5.640    9.8977
    5.655    9.2749
    5.670    9.2039
    5.685    9.0036
    5.700    8.6911
    5.715    8.5411
    5.730    8.4713
    5.745    8.4976
    5.760    8.5056
    5.775    8.4415
    5.790    8.4163
    5.805    8.2950
    5.820    8.2332
    5.835    8.1565
    5.850    8.1576
    5.865    8.2045
    5.880    8.2469
    5.895    8.2160
    5.910    8.0969
    5.925    8.0660
    5.940    8.0283
    5.955    8.0511
    5.970    8.2000
    5.985    8.2183
    6.000    8.0866
    6.015    8.2103
    6.030    8.0935
    6.045    8.1771
    6.060    8.3019
    6.075    8.2320
    6.090    8.1244
    6.105    8.1920
    6.120    8.2446
    6.135    8.1027
    6.150    8.2549
    6.165    8.2744
    6.180    8.1027
    6.195    8.2091
    6.210    8.2927
    6.225    8.2938
    6.240    8.2893
    6.255    8.2240
    6.270    8.3362
    6.285    8.3786
    6.300    8.4163
    6.315    8.3740
    6.330    8.5262
    6.345    8.5743
    6.360    8.7140
    6.375    8.6590
    6.390    8.9612
    6.405    8.9361
    6.420    8.9235
    6.435    8.9509
    6.450    9.0345
    6.465    9.1284
    6.480    9.5256
    6.495    9.4375
    6.510    9.4123
    6.525    9.5668
    6.540    9.9068
    6.555   10.1472
    6.570   10.3292
    6.585   10.6005
    6.600   10.8455
    6.615   11.0962
    6.630   11.4958
    6.645   11.8918
    6.660   12.2044
    6.675   12.7745
    6.690   13.6239
    6.705   14.7629
    6.720   16.0485
    6.735   17.7656
    6.750   19.2252
    6.765   20.1845
    6.780   20.3402
    6.795   19.2973
    6.810   16.9151
    6.825   13.5781
    6.840   10.8398
    6.855    9.0150
    6.870    8.0569
    6.885    7.7340
    6.900    7.6070
    6.915    7.5967
    6.930    7.6631
    6.945    7.5452
    6.960    7.5910
    6.975    7.6768
    6.990    7.6264
    7.005    7.6539
    7.020    7.5772
    7.035    7.5371
    7.050    7.5955
    7.065    7.5703
    7.080    7.6104
    7.095    7.4169
    7.110    7.6974
    7.125    7.7112
    7.140    7.6035
    7.155    7.6413
    7.170    7.6883
    7.185    7.7753
    7.200    7.6642
    7.215    7.7283
    7.230    7.6974
    7.245    7.9023
    7.260    7.9092
    7.275    7.8542
    7.290    7.8646
    7.305    7.9905
    7.320    8.0237
    7.335    8.0294
    7.350    8.1576
    7.365    8.1404
    7.380    8.2744
    7.395    8.4919
    7.410    8.4449
    7.425    8.6190
    7.440    8.8227
    7.455    8.9361
    7.470    9.0242
    7.485    9.0448
    7.500    9.2715
    7.515    9.4924
    7.530    9.6721
    7.545    9.8931
    7.560   10.2789
    7.575   10.7093
    7.590   10.8066
    7.605   11.2966
    7.620   11.7465
    7.635   12.0384
    7.650   12.7802
    7.665   13.2759
    7.680   13.9971
    7.695   14.4893
    7.710   15.7360
    7.725   16.7937
    7.740   18.2236
    7.755   20.0872
    7.770   22.4993
    7.785   25.5970
    7.800   28.9042
    7.815   30.7610
    7.830   30.8446
    7.845   29.2202
    7.860   24.5541
    7.875   18.7707
    7.890   13.1625
    7.905    9.6115
    7.920    8.0202
    7.935    7.5108
    7.950    7.2945
    7.965    7.3002
    7.980    7.3070
    7.995    7.1743
    8.010    7.2029
    8.025    7.1411
    8.040    7.0770
    8.055    7.0289
    8.070    7.0025
    8.085    7.1147
    8.100    7.1216
    8.115    7.0335
    8.130    6.9568
    8.145    6.9052
    8.160    6.8720
    8.175    7.0231
    8.190    6.9098
    8.205    6.9144
    8.220    7.0254
    8.235    6.8606
    8.250    6.9819
    8.265    7.0541
    8.280    7.0117
    8.295    7.1044
    8.310    7.0483
    8.325    7.0666
    8.340    7.0598
    8.355    7.0666
    8.370    6.9453
    8.385    7.1342
    8.400    7.0380
    8.415    7.2109
    8.430    7.2452
    8.445    7.0174
    8.460    6.9648
    8.475    7.0300
    8.490    7.1285
    8.505    7.1147
    8.520    7.2407
    8.535    7.2132
    8.550    7.2807
    8.565    7.3677
    8.580    7.3918
    8.595    7.4215
    8.610    7.4982
    8.625    7.6230
    8.640    7.8130
    8.655    7.9218
    8.670    8.0855
    8.685    8.1954
    8.700    8.5880
    8.715    9.0677
    8.730    9.3699
    8.745    9.4558
    8.760    9.4798
    8.775    9.4100
    8.790    8.7575
    8.805    8.0260
    8.820    7.4536
    8.835    7.0151
    8.850    6.9110
    8.865    6.9236
    8.880    6.8480
    8.895    6.8720
    8.910    6.7908
    8.925    7.0346
    8.940    6.9590
    8.955    7.0426
    8.970    7.1388
    8.985    7.0976
    9.000    7.1983
    9.015    7.1159
    9.030    7.1330
    9.045    7.2487
    9.060    7.3162
    9.075    7.3780
    9.090    7.3563
    9.105    7.6287
    9.120    7.6974
    9.135    7.7753
    9.150    7.9458
    9.165    8.0317
    9.180    8.2652
    9.195    8.4312
    9.210    8.6464
    9.225    8.6396
    9.240    9.0253
    9.255    9.1833
    9.270    9.6676
    9.285    9.9595
    9.300   10.2079
    9.315   10.7070
    9.330   11.2531
    9.345   11.7831
    9.360   12.4825
    9.375   13.0091
    9.390   14.0245
    9.405   14.8969
    9.420   15.8150
    9.435   16.7949
    9.450   18.4250
    9.465   19.8915
    9.480   21.8593
    9.495   23.9371
    9.510   27.1688
    9.525   31.2739
    9.540   36.4860
    9.555   42.4800
    9.570   47.6670
    9.585   50.4087
    9.600   49.2696
    9.615   43.5527
    9.630   34.9051
    9.645   24.5690
    9.660   15.5471
    9.675   10.2148
    9.690    7.9355
    9.705    7.4708
    9.720    7.1823
    9.735    7.0335
    9.750    6.8034
    9.765    6.7988
    9.780    6.9625
    9.795    6.8480
    9.810    6.8045
    9.825    6.8137
    9.840    6.8137
    9.855    6.8823
    9.870    6.9671
    9.885    6.6969
    9.900    6.7713
    9.915    6.7507
    9.930    6.7713
    9.945    6.8182
    9.960    6.8446
    9.975    6.9247
    9.990    6.9568
   10.005    7.1319
   10.020    7.0415
   10.035    7.1124
   10.050    7.1388
   10.065    7.1594
   10.080    7.3494
   10.095    7.5326
   10.110    7.4753
   10.125    7.5131
   10.140    7.7924
   10.155    8.1061
   10.170    8.3717
   10.185    8.6178
   10.200    8.6636
   10.215    8.8273
   10.230    9.2497
   10.245    9.7271
   10.260   10.2926
   10.275   11.0161
   10.290   11.9250
   10.305   12.9404
   10.320   14.2844
   10.335   15.7955
   10.350   16.5945
   10.365   16.3141
   10.380   15.5127
   10.395   13.7864
   10.410   11.5427
   10.425    9.2944
   10.440    7.8085
   10.455    6.8572
   10.470    6.6293
   10.485    6.6843
   10.500    6.6362
   10.515    6.4874
   10.530    6.4576
   10.545    6.6110
   10.560    6.5698
   10.575    6.3557
   10.590    6.5607
   10.605    6.6190
   10.620    6.6900
   10.635    6.6648
   10.650    6.7827
   10.665    6.9098
   10.680    6.7908
   10.695    6.7690
   10.710    6.8869
   10.725    6.8594
   10.740    6.9487
   10.755    6.9957
   10.770    6.9957
   10.785    7.1319
   10.800    7.3139
   10.815    7.5955
   10.830    7.5669
   10.845    7.8508
   10.860    7.9722
   10.875    8.1908
   10.890    8.3454
   10.905    8.7575
   10.920    9.1547
   10.935    9.4043
   10.950   10.0316
   10.965   10.6853
   10.980   11.3172
   10.995   12.2994
   11.010   13.5220
   11.025   15.3124
   11.040   17.1715
   11.055   18.4846
   11.070   19.5045
   11.085   19.4164
   11.100   18.1388
   11.115   15.7806
   11.130   12.6886
   11.145    9.8542
   11.160    7.9561
   11.175    7.0300
   11.190    6.5492
   11.205    6.4931
   11.220    6.4153
   11.235    6.4782
   11.250    6.4691
   11.265    6.5309
   11.280    6.5046
   11.295    6.4874
   11.310    6.4553
   11.325    6.6397
   11.340    6.6271
   11.355    6.6397
   11.370    6.5996
   11.385    6.5927
   11.400    6.6156
   11.415    6.7049
   11.430    6.7495
   11.445    6.8217
   11.460    6.8148
   11.475    6.7702
   11.490    7.0254
   11.505    7.2681
   11.520    7.3620
   11.535    7.4582
   11.550    7.6608
   11.565    7.9516
   11.580    8.0317
   11.595    8.2675
   11.610    8.5423
   11.625    9.0940
   11.640    9.5268
   11.655    9.9629
   11.670   10.8913
   11.685   12.1735
   11.700   13.3411
   11.715   15.0022
   11.730   16.1286
   11.745   16.9723
   11.760   16.7914
   11.775   15.4566
   11.790   13.6548
   11.805   11.3229
   11.820    9.1707
   11.835    7.5646
   11.850    6.7690
   11.865    6.4061
   11.880    6.3409
   11.895    6.2939
   11.910    6.2218
   11.925    6.2104
   11.940    6.2081
   11.955    6.3122
   11.970    6.2619
   11.985    6.2699
   12.000    6.2092
   12.015    6.1875
   12.030    6.2252
   12.045    6.2058
   12.060    6.2161
   12.075    6.3420
   12.090    6.2115
   12.105    6.1852
   12.120    6.2710
   12.135    6.3271
   12.150    6.2699
   12.165    6.3580
   12.180    6.2997
   12.195    6.2642
   12.210    6.4748
   12.225    6.4599
   12.240    6.4153
   12.255    6.5011
   12.270    6.6625
   12.285    6.6271
   12.300    6.7667
   12.315    6.8068
   12.330    7.0495
   12.345    7.1949
   12.360    7.3070
   12.375    7.5337
   12.390    7.5257
   12.405    7.5188
   12.420    7.2739
   12.435    7.0392
   12.450    6.7747
   12.465    6.5710
   12.480    6.3970
   12.495    6.2310
   12.510    6.1760
   12.525    6.2035
   12.540    6.2023
   12.555    6.1256
   12.570    6.2081
   12.585    6.2035
   12.600    6.2905
   12.615    6.2997
   12.630    6.1920
   12.645    6.1863
   12.660    6.3340
   12.675    6.3718
   12.690    6.4244
   12.705    6.4553
   12.720    6.5240
   12.735    6.4382
   12.750    6.6053
   12.765    6.5847
   12.780    6.7896
   12.795    6.8102
   12.810    6.9293
   12.825    7.0083
   12.840    7.2326
   12.855    7.4616
   12.870    7.5738
   12.885    7.9012
   12.900    8.3351
   12.915    8.7792
   12.930    9.4993
   12.945   10.3590
   12.960   11.0390
   12.975   11.7259
   12.990   12.1483
   13.005   12.2937
   13.020   11.4694
   13.035   10.4952
   13.050    9.1513
   13.065    7.9813
   13.080    7.0060
   13.095    6.4656
   13.110    6.2710
   13.125    6.2527
   13.140    6.0890
   13.155    6.0821
   13.170    6.2310
   13.185    6.0570
   13.200    6.1909
   13.215    6.2023
   13.230    6.1611
   13.245    6.1485
   13.260    6.1463
   13.275    6.1016
   13.290    6.1588
   13.305    6.2138
   13.320    6.1646
   13.335    6.2035
   13.350    6.4096
   13.365    6.3855
   13.380    6.5046
   13.395    6.4771
   13.410    6.5057
   13.425    6.5893
   13.440    6.7461
   13.455    6.8480
   13.470    7.2704
   13.485    7.3689
   13.500    7.6837
   13.515    7.9527
   13.530    8.3660
   13.545    8.8571
   13.560    9.3070
   13.575    9.5554
   13.590    9.2875
   13.605    8.8239
   13.620    8.2377
   13.635    7.6562
   13.650    7.0289
   13.665    6.5034
   13.680    6.1943
   13.695    6.2436
   13.710    6.0821
   13.725    6.1211
   13.740    6.2275
   13.755    6.2184
   13.770    6.1680
   13.785    6.1726
   13.800    6.1646
   13.815    6.3042
   13.830    6.2836
   13.845    6.4141
   13.860    6.3535
   13.875    6.4393
   13.890    6.6076
   13.905    6.7278
   13.920    6.8205
   13.935    6.6728
   13.950    6.8034
   13.965    7.0335
   13.980    7.1617
   13.995    7.4272
   14.010    7.6928
   14.025    7.8943
   14.040    8.4129
   14.055    8.9418
   14.070    9.6092
   14.085   10.4655
   14.100   11.3607
   14.115   11.9880
   14.130   12.3509
   14.145   12.2364
   14.160   11.6606
   14.175   10.3991
   14.190    9.2062
   14.205    7.9790
   14.220    7.1205
   14.235    6.4553
   14.250    6.1852
   14.265    6.1852
   14.280    5.9631
   14.295    6.1234
   14.310    6.1153
   14.325    6.1680
   14.340    6.0959
   14.355    6.1016
   14.370    6.0856
   14.385    6.0501
   14.400    6.0341
   14.415    5.9562
   14.430    5.8646
   14.445    6.1348
   14.460    6.0753
   14.475    6.0077
   14.490    5.9871
   14.505    5.9505
   14.520    6.0661
   14.535    5.9631
   14.550    6.0570
   14.565    6.1005
   14.580    6.0833
   14.595    5.9642
   14.610    5.9585
   14.625    5.9906
   14.640    6.1165
   14.655    6.0993
   14.670    6.0261
   14.685    6.0352
   14.700    5.9723
   14.715    5.9391
   14.730    6.1795
   14.745    6.2161
   14.760    6.0673
   14.775    6.0192
   14.790    6.0364
   14.805    6.1440
   14.820    6.0501
   14.835    6.0478
   14.850    6.0123
   14.865    6.0844
   14.880    5.9368
   14.895    6.0764
   14.910    5.9619
   14.925    5.9413
   14.940    6.0490
   14.955    6.2802
   14.970    6.1405
   14.985    6.1566
   15.000    6.3992
   15.015    6.2882
   15.030    6.2756
   15.045    6.2756
   15.060    6.4096
   15.075    6.4851
   15.090    6.5298
   15.105    6.6683
   15.120    6.7656
   15.135    7.1296
   15.150    7.4124
   15.165    7.4501
   15.180    7.5257
   15.195    7.5738
   15.210    7.5852
   15.225    7.3929
   15.240    6.9533
   15.255    6.6786
   15.270    6.3603
   15.285    6.1371
   15.300    6.2207
   15.315    5.9574
   15.330    5.9780
   15.345    6.0020
   15.360    6.0169
   15.375    5.9597
   15.390    5.9883
   15.405    5.9848
   15.420    6.0799
   15.435    5.9047
   15.450    6.0054
   15.465    6.0627
   15.480    6.0478
   15.495    6.0386
   15.510    6.0627
   15.525    6.0375
   15.540    6.0650
   15.555    6.0764
   15.570    6.0856
   15.585    6.0570
   15.600    6.0146
   15.615    6.0913
   15.630    6.0638
   15.645    5.9528
   15.660    5.9448
   15.675    5.8841
   15.690    5.9310
   15.705    5.9081
   15.720    6.0066
   15.735    6.0867
   15.750    6.0192
   15.765    6.0467
   15.780    6.0295
   15.795    5.9551
   15.810    6.0066
   15.825    5.9734
   15.840    6.0054
   15.855    5.9276
   15.870    6.0432
   15.885    6.1096
   15.900    6.0673
   15.915    6.1245
   15.930    6.2436
   15.945    6.1371
   15.960    6.1405
   15.975    6.2161
   15.990    6.3775
   16.005    6.2699
   16.020    6.3019
   16.035    6.4943
   16.050    6.6156
   16.065    6.6797
   16.080    6.8045
   16.095    7.0071
   16.110    7.2601
   16.125    7.6528
   16.140    7.7421
   16.155    7.8497
   16.170    8.2080
   16.185    8.3351
   16.200    7.9550
   16.215    7.5658
   16.230    7.4124
   16.245    6.8308
   16.260    6.5549
   16.275    6.3054
   16.290    6.1657
   16.305    6.0730
   16.320    6.0844
   16.335    5.9585
   16.350    5.9871
   16.365    5.9860
   16.380    5.9333
   16.395    6.1360
   16.410    6.1337
   16.425    6.2722
   16.440    6.1726
   16.455    6.2470
   16.470    6.1657
   16.485    6.2596
   16.500    6.3225
   16.515    6.2928
   16.530    6.3683
   16.545    6.4851
   16.560    6.6316
   16.575    6.7816
   16.590    6.8926
   16.605    6.9991
   16.620    7.1079
   16.635    7.3792
   16.650    7.3437
   16.665    7.2269
   16.680    7.0873
   16.695    6.8892
   16.710    6.6683
   16.725    6.5286
   16.740    6.3374
   16.755    6.0821
   16.770    6.1978
   16.785    6.1554
   16.800    6.2539
   16.815    6.2104
   16.830    6.1909
   16.845    6.3466
   16.860    6.4050
   16.875    6.4496
   16.890    6.5790
   16.905    6.5435
   16.920    6.5790
   16.935    6.8743
   16.950    7.1010
   16.965    7.3666
   16.980    7.6425
   16.995    7.9481
   17.010    8.4999
   17.025    8.9899
   17.040    9.9675
   17.055   10.9726
   17.070   11.8106
   17.085   12.3509
   17.100   12.7607
   17.115   13.0492
   17.130   12.5570
   17.145   11.3767
   17.160   10.2457
   17.175    9.0620
   17.190    7.9504
   17.205    6.9476
   17.220    6.5675
   17.235    6.4050
   17.250    6.2195
   17.265    6.1623
   17.280    6.1657
   17.295    6.1131
   17.310    6.1840
   17.325    6.2459
   17.340    6.1840
   17.355    6.2768
   17.370    6.1669
   17.385    6.1875
   17.400    6.2790
   17.415    6.2573
   17.430    6.3935
   17.445    6.3764
   17.460    6.3878
   17.475    6.4954
   17.490    6.7141
   17.505    6.9762
   17.520    7.1914
   17.535    7.2521
   17.550    7.3288
   17.565    7.3483
   17.580    7.1891
   17.595    6.8846
   17.610    6.8102
   17.625    6.6328
   17.640    6.4084
   17.655    6.2184
   17.670    6.1703
   17.685    6.1497
   17.700    6.0238
   17.715    6.1451
   17.730    6.1646
   17.745    6.1428
   17.760    6.1314
   17.775    6.2321
   17.790    6.2951
   17.805    6.1737
   17.820    6.3042
   17.835    6.3420
   17.850    6.2459
   17.865    6.3603
   17.880    6.3489
   17.895    6.4702
   17.910    6.5080
   17.925    6.5881
   17.940    6.7038
   17.955    6.8652
   17.970    7.0323
   17.985    7.0506
   18.000    7.0106
   18.015    6.9075
   18.030    6.7965
   18.045    6.7667
   18.060    6.6065
   18.075    6.5011
   18.090    6.2252
   18.105    6.2149
   18.120    6.1279
   18.135    6.2081
   18.150    6.2768
   18.165    6.1978
   18.180    6.1291
   18.195    6.1451
   18.210    6.1428
   18.225    6.3168
   18.240    6.3329
   18.255    6.2733
   18.270    6.2562
   18.285    6.3477
   18.300    6.5767
   18.315    6.4920
   18.330    6.6179
   18.345    6.7312
   18.360    6.9854
   18.375    7.1182
   18.390    7.1731
   18.405    7.2750
   18.420    7.2819
   18.435    7.4582
   18.450    7.3368
   18.465    7.0449
   18.480    6.8961
   18.495    6.6866
   18.510    6.4508
   18.525    6.2230
   18.540    6.1863
   18.555    6.0970
   18.570    6.1199
   18.585    6.0570
   18.600    6.1508
   18.615    6.1634
   18.630    6.2127
   18.645    6.0867
   18.660    6.1749
   18.675    6.1497
   18.690    6.0306
   18.705    5.9860
   18.720    6.2733
   18.735    6.1920
   18.750    6.3283
   18.765    6.4611
   18.780    6.5046
   18.795    6.4828
   18.810    6.7404
   18.825    6.7610
   18.840    6.7106
   18.855    6.8331
   18.870    6.6053
   18.885    6.5893
   18.900    6.5389
   18.915    6.2619
   18.930    6.2813
   18.945    6.1062
   18.960    6.0959
   18.975    6.1806
   18.990    6.2527
   19.005    6.2550
   19.020    6.2676
   19.035    6.2481
   19.050    6.1360
   19.065    6.0856
   19.080    6.0570
   19.095    6.0947
   19.110    5.9883
   19.125    6.0455
   19.140    6.0810
   19.155    6.1302
   19.170    6.2825
   19.185    6.1737
   19.200    6.1451
   19.215    6.2321
   19.230    6.2298
   19.245    6.1337
   19.260    6.1211
   19.275    6.1176
   19.290    6.1531
   19.305    6.2562
   19.320    6.1840
   19.335    6.1634
   19.350    6.1772
   19.365    6.1234
   19.380    6.0741
   19.395    6.1600
   19.410    6.2355
   19.425    6.1508
   19.440    6.2413
   19.455    6.2184
   19.470    6.4187
   19.485    6.3477
   19.500    6.4073
   19.515    6.4393
   19.530    6.6763
   19.545    6.7839
   19.560    6.9602
   19.575    7.0918
   19.590    7.4295
   19.605    7.7867
   19.620    7.9206
   19.635    8.0706
   19.650    8.2252
   19.665    8.1679
   19.680    7.6528
   19.695    7.3093
   19.710    7.2647
   19.725    6.7999
   19.740    6.5046
   19.755    6.2115
   19.770    6.2035
   19.785    6.1199
   19.800    6.1497
   19.815    6.0913
   19.830    6.1726
   19.845    6.1829
   19.860    6.1932
   19.875    6.1588
   19.890    6.1199
   19.905    6.1302
   19.920    6.2459
   19.935    6.2459
   19.950    6.2310
   19.965    6.2951
   19.980    6.3122
   19.995    6.3764
   20.010    6.4347
   20.025    6.4977
   20.040    6.5252
   20.055    6.3821
   20.070    6.3191
   20.085    6.3821
   20.100    6.3901
   20.115    6.2790
   20.130    6.2962
   20.145    6.1566
   20.160    6.3065
   20.175    6.2069
   20.190    6.1955
   20.205    6.5538
   20.220    6.4427
   20.235    6.4267
   20.250    6.5492
   20.265    6.4897
   20.280    6.5961
   20.295    6.8182
   20.310    7.2429
   20.325    7.3712
   20.340    7.6322
   20.355    8.1679
   20.370    8.5423
   20.385    9.2543
   20.400    9.6481
   20.415    9.9217
   20.430    9.9389
   20.445    9.8358
   20.460    9.2944
   20.475    8.7414
   20.490    8.1347
   20.505    7.4467
   20.520    6.9201
   20.535    6.6122
   20.550    6.3329
   20.565    6.2115
   20.580    6.2390
   20.595    6.2470
   20.610    6.1176
   20.625    6.0741
   20.640    6.1955
   20.655    6.1348
   20.670    6.1199
   20.685    6.1588
   20.700    6.1646
   20.715    6.1852
   20.730    6.1726
   20.745    6.2974
   20.760    6.2653
   20.775    6.2127
   20.790    6.3729
   20.805    6.3363
   20.820    6.3111
   20.835    6.2905
   20.850    6.3523
   20.865    6.2768
   20.880    6.1474
   20.895    6.0696
   20.910    6.2504
   20.925    6.1028
   20.940    6.0707
   20.955    6.1337
   20.970    6.0833
   20.985    6.1508
   21.000    6.1978
   21.015    6.2046
   21.030    6.1028
   21.045    6.1909
   21.060    6.1852
   21.075    6.1245
   21.090    6.2161
   21.105    6.2550
   21.120    6.2138
   21.135    6.3992
   21.150    6.2859
   21.165    6.3134
   21.180    6.2481
   21.195    6.3122
   21.210    6.2859
   21.225    6.3580
   21.240    6.3592
   21.255    6.1714
   21.270    6.1554
   21.285    6.1382
   21.300    6.2333
   21.315    6.2493
   21.330    6.2779
   21.345    6.1726
   21.360    6.1176
   21.375    6.1600
   21.390    6.0718
   21.405    6.1508
   21.420    6.2321
   21.435    6.0089
   21.450    6.1371
   21.465    6.1806
   21.480    6.0547
   21.495    6.1062
   21.510    6.1840
   21.525    6.1325
   21.540    6.2516
   21.555    6.1119
   21.570    6.2321
   21.585    6.2630
   21.600    6.0627
   21.615    6.1016
   21.630    6.2802
   21.645    6.4004
   21.660    6.2859
   21.675    6.2939
   21.690    6.3500
   21.705    6.2401
   21.720    6.3741
   21.735    6.3729
   21.750    6.2905
   21.765    6.3764
   21.780    6.4599
   21.795    6.6774
   21.810    6.7370
   21.825    6.8560
   21.840    7.1937
   21.855    7.4536
   21.870    7.4421
   21.885    7.6001
   21.900    7.8394
   21.915    8.0248
   21.930    7.7947
   21.945    7.5360
   21.960    7.3391
   21.975    6.9785
   21.990    6.8354
   22.005    6.5298
   22.020    6.4050
   22.035    6.2985
   22.050    6.4050
   22.065    6.4153
   22.080    6.3294
   22.095    6.3901
   22.110    6.3695
   22.125    6.3935
   22.140    6.5114
   22.155    6.5504
   22.170    6.7312
   22.185    6.8274
   22.200    7.0094
   22.215    7.1559
   22.230    7.3277
   22.245    7.3998
   22.260    7.2956
   22.275    7.2979
   22.290    7.3219
   22.305    7.2097
   22.320    6.9499
   22.335    6.8159
   22.350    6.7358
   22.365    6.5412
   22.380    6.4519
   22.395    6.4759
   22.410    6.4977
   22.425    6.5790
   22.440    6.7301
   22.455    6.9419
   22.470    7.1067
   22.485    7.3631
   22.500    7.6928
   22.515    8.2252
   22.530    8.8136
   22.545    9.4890
   22.560   10.2377
   22.575   10.9657
   22.590   11.3641
   22.605   11.6251
   22.620   11.5324
   22.635   11.3790
   22.650   10.7059
   22.665    9.9835
   22.680    9.2680
   22.695    8.4243
   22.710    7.6608
   22.725    7.1227
   22.740    6.7839
   22.755    6.6316
   22.770    6.7095
   22.785    6.6385
   22.800    6.7953
   22.815    7.1159
   22.830    7.3254
   22.845    7.4181
   22.860    7.9790
   22.875    8.6522
   22.890    9.1330
   22.905    9.6344
   22.920   10.3842
   22.935   10.8787
   22.950   11.0069
   22.965   10.9383
   22.980   10.7024
   22.995   10.2216
   23.010    9.5817
   23.025    8.8777
   23.040    8.0683
   23.055    7.3837
   23.070    6.9075
   23.085    6.6545
   23.100    6.4485
   23.115    6.4794
   23.130    6.4130
   23.145    6.5103
   23.160    6.5755
   23.175    6.6580
   23.190    6.7587
   23.205    6.8789
   23.220    7.0209
   23.235    7.2258
   23.250    7.4444
   23.265    7.5349
   23.280    7.7203
   23.295    7.6905
   23.310    7.6608
   23.325    7.5944
   23.340    7.3231
   23.355    7.1949
   23.370    6.9316
   23.385    6.8125
   23.400    6.6065
   23.415    6.3535
   23.430    6.4027
   23.445    6.2710
   23.460    6.2813
   23.475    6.2756
   23.490    6.2802
   23.505    6.3100
   23.520    6.2504
   23.535    6.3065
   23.550    6.4336
   23.565    6.5595
   23.580    6.5710
   23.595    6.5549
   23.610    6.6385
   23.625    6.6465
   23.640    6.6213
   23.655    6.6385
   23.670    6.6625
   23.685    6.4771
   23.700    6.4531
   23.715    6.3672
   23.730    6.2436
   23.745    6.2756
   23.760    6.2207
   23.775    6.3512
   23.790    6.3958
   23.805    6.4153
   23.820    6.4805
   23.835    6.6900
   23.850    6.7827
   23.865    6.9419
   23.880    7.1685
   23.895    7.1868
   23.910    7.4215
   23.925    7.7604
   23.940    7.8760
   23.955    7.9630
   23.970    8.0168
   23.985    7.9619
   24.000    7.7444
   24.015    7.5532
   24.030    7.2475
   24.045    6.9808
   24.060    6.6625
   24.075    6.4496
   24.090    6.3008
   24.105    6.2916
   24.120    6.2195
   24.135    6.1508
   24.150    6.1131
   24.165    6.1875
   24.180    6.3248
   24.195    6.3008
   24.210    6.1405
   24.225    6.3111
   24.240    6.3397
   24.255    6.3512
   24.270    6.3122
   24.285    6.3718
   24.300    6.4531
   24.315    6.4508
   24.330    6.2997
   24.345    6.3054
   24.360    6.3065
   24.375    6.3191
   24.390    6.1360
   24.405    6.2676
   24.420    6.2481
   24.435    6.1783
   24.450    6.0283
   24.465    6.1543
   24.480    6.1749
   24.495    6.1394
   24.510    6.2733
   24.525    6.3100
   24.540    6.3603
   24.555    6.5790
   24.570    6.5744
   24.585    6.6706
   24.600    6.4966
   24.615    6.5607
   24.630    6.6694
   24.645    6.7221
   24.660    6.5114
   24.675    6.3718
   24.690    6.4427
   24.705    6.2138
   24.720    6.1737
   24.735    6.1749
   24.750    6.1360
   24.765    6.2195
   24.780    6.2069
   24.795    6.1302
   24.810    6.0318
   24.825    6.2596
   24.840    6.3443
   24.855    6.3661
   24.870    6.4279
   24.885    6.3317
   24.900    6.2768
   24.915    6.4313
   24.930    6.3225
   24.945    6.2172
   24.960    6.4015
   24.975    6.2149
   24.990    6.2252
   25.005    6.2779
   25.020    6.2264
   25.035    6.1348
   25.050    6.0593
   25.065    6.0650
   25.080    6.1508
   25.095    6.2436
   25.110    6.0615
   25.125    6.1291
   25.140    6.2619
   25.155    6.4382
   25.170    6.4496
   25.185    6.4668
   25.200    6.5114
   25.215    6.6500
   25.230    6.8469
   25.245    6.8079
   25.260    6.7930
   25.275    6.6465
   25.290    6.6568
   25.305    6.5630
   25.320    6.4096
   25.335    6.2104
   25.350    6.2001
   25.365    6.2298
   25.380    6.1840
   25.395    6.1073
   25.410    6.0135
   25.425    6.1245
   25.440    6.1073
   25.455    6.1646
   25.470    6.2539
   25.485    6.1875
   25.500    6.3340
   25.515    6.4988
   25.530    6.4943
   25.545    6.6259
   25.560    6.5240
   25.575    6.5790
   25.590    6.4599
   25.605    6.4908
   25.620    6.4141
   25.635    6.3363
   25.650    6.3225
   25.665    6.2069
   25.680    6.3867
   25.695    6.3248
   25.710    6.4141
   25.725    6.5813
   25.740    6.6832
   25.755    7.0850
   25.770    7.3631
   25.785    7.7558
   25.800    8.3122
   25.815    8.7071
   25.830    9.3962
   25.845    9.5600
   25.860    9.7168
   25.875    9.7202
   25.890    9.4592
   25.905    9.2142
   25.920    8.6647
   25.935    8.1187
   25.950    7.7237
   25.965    7.1994
   25.980    6.6660
   25.995    6.3420
   26.010    6.1245
   26.025    6.1737
   26.040    6.1405
   26.055    6.0524
   26.070    6.0535
   26.085    6.1989
   26.100    6.2470
   26.115    6.2573
   26.130    6.2401
   26.145    6.2882
   26.160    6.2848
   26.175    6.1966
   26.190    6.2871
   26.205    6.3580
   26.220    6.2172
   26.235    6.0730
   26.250    5.9963
   26.265    6.0123
   26.280    6.0341
   26.295    5.9379
   26.310    6.1680
   26.325    6.0696
   26.340    6.0959
   26.355    6.1360
   26.370    6.3535
   26.385    6.2745
   26.400    6.4668
   26.415    6.7370
   26.430    6.9041
   26.445    6.9819
   26.460    7.0231
   26.475    6.9213
   26.490    6.8537
   26.505    6.8640
   26.520    6.6843
   26.535    6.6236
   26.550    6.5091
   26.565    6.2882
   26.580    6.1588
   26.595    6.0341
   26.610    5.8429
   26.625    5.7960
   26.640    5.8463
   26.655    5.8841
   26.670    5.8978
   26.685    5.8246
   26.700    5.8452
   26.715    5.7914
   26.730    5.8727
   26.745    5.8234
   26.760    5.7490
   26.775    5.8429
   26.790    5.8944
   26.805    5.9780
   26.820    5.9734
   26.835    5.8669
   26.850    6.0295
   26.865    5.9310
   26.880    5.9081
   26.895    6.0627
   26.910    6.0650
   26.925    6.1920
   26.940    6.1634
   26.955    6.3775
   26.970    6.5172
   26.985    6.7209
   27.000    6.9865
   27.015    7.1308
   27.030    7.1903
   27.045    7.4364
   27.060    7.5623
   27.075    7.4318
   27.090    7.2647
   27.105    7.2407
   27.120    6.9579
   27.135    6.6786
   27.150    6.4450
   27.165    6.4416
   27.180    6.3981
   27.195    6.1142
   27.210    5.9482
   27.225    5.7742
   27.240    5.7273
   27.255    5.8406
   27.270    5.8280
   27.285    5.8990
   27.300    5.7525
   27.315    5.8795
   27.330    5.8475
   27.345    5.9310
   27.360    5.7731
   27.375    5.6815
   27.390    5.8074
   27.405    5.8211
   27.420    5.8223
   27.435    5.8292
   27.450    5.7845
   27.465    5.8314
   27.480    5.8303
   27.495    5.9139
   27.510    5.9608
   27.525    5.9951
   27.540    6.1050
   27.555    6.3615
   27.570    6.3477
   27.585    6.4439
   27.600    6.4725
   27.615    6.4439
   27.630    6.5870
   27.645    6.6362
   27.660    6.6900
   27.675    6.7289
   27.690    6.5595
   27.705    6.4496
   27.720    6.3672
   27.735    6.1405
   27.750    6.0501
   27.765    6.0432
   27.780    6.0135
   27.795    5.9471
   27.810    5.8280
   27.825    5.9379
   27.840    5.9471
   27.855    6.0867
   27.870    6.3100
   27.885    6.3798
   27.900    6.2562
   27.915    6.1989
   27.930    6.3260
   27.945    6.2905
   27.960    6.2275
   27.975    6.2687
   27.990    6.2905
   28.005    6.1588
   28.020    6.2401
   28.035    6.1291
   28.050    6.1485
   28.065    6.3603
   28.080    6.3157
   28.095    6.1714
   28.110    6.2436
   28.125    6.5240
   28.140    6.6293
   28.155    6.8251
   28.170    6.8892
   28.185    7.1960
   28.200    7.1342
   28.215    7.2922
   28.230    7.3906
   28.245    7.0254
   28.260    7.0575
   28.275    6.9339
   28.290    6.7198
   28.305    6.4851
   28.320    6.3626
   28.335    6.0501
   28.350    6.0913
   28.365    6.0421
   28.380    6.0867
   28.395    6.2424
   28.410    6.3695
   28.425    6.4050
   28.440    6.6946
   28.455    6.9487
   28.470    6.9671
   28.485    6.9373
   28.500    6.9854
   28.515    7.0025
   28.530    6.9671
   28.545    6.9568
   28.560    6.7289
   28.575    6.5492
   28.590    6.4096
   28.605    6.2058
   28.620    5.9688
   28.635    5.7982
   28.650    5.7147
   28.665    5.8017
   28.680    5.7422
   28.695    5.7032
   28.710    5.7628
   28.725    5.9093
   28.740    6.0261
   28.755    5.9723
   28.770    5.8841
   28.785    5.7593
   28.800    5.8395
   28.815    5.8521
   28.830    5.7948
   28.845    5.7662
   28.860    5.7353
   28.875    5.8440
   28.890    5.6494
   28.905    5.7788
   28.920    5.7811
   28.935    5.8017
   28.950    5.8772
   28.965    5.7994
   28.980    5.9402
   28.995    5.9047
   29.010    6.0295
   29.025    5.9631
   29.040    6.0169
   29.055    5.8612
   29.070    5.9471
   29.085    5.9287
   29.100    5.9665
   29.115    5.8555
   29.130    5.8486
   29.145    5.8498
   29.160    5.8200
   29.175    5.7925
   29.190    5.8177
   29.205    5.8234
   29.220    6.0833
   29.235    6.1795
   29.250    6.2355
   29.265    6.3466
   29.280    6.4817
   29.295    6.6694
   29.310    6.7347
   29.325    6.6854
   29.340    6.6362
   29.355    6.6271
   29.370    6.4679
   29.385    6.4359
   29.400    6.2790
   29.415    6.0902
   29.430    6.0032
   29.445    5.8578
   29.460    5.7101
   29.475    5.5029
   29.490    5.5647
   29.505    5.6677
   29.520    5.5521
   29.535    5.5327
   29.550    5.5647
   29.565    5.6025
   29.580    5.6552
   29.595    5.5224
   29.610    5.5670
   29.625    5.5624
   29.640    5.5613
   29.655    5.4342
   29.670    5.5533
   29.685    5.5727
   29.700    5.6013
   29.715    5.6941
   29.730    5.6758
   29.745    5.6116
   29.760    5.6586
   29.775    5.7467
   29.790    5.7948
   29.805    5.9368
   29.820    5.9711
   29.835    6.0009
   29.850    5.9425
   29.865    5.9047
   29.880    5.9917
   29.895    6.0581
   29.910    6.0180
   29.925    5.8543
   29.940    5.6929
   29.955    5.7628
   29.970    5.7181
   29.985    5.7273
   30.000    5.6174
   30.015    5.6403
   30.030    5.5384
   30.045    5.5727
   30.060    5.6826
   30.075    5.6597
   30.090    5.6941
   30.105    5.7937
   30.120    5.8440
   30.135    5.8624
   30.150    5.8063
   30.165    5.8166
   30.180    5.8795
   30.195    5.8566
   30.210    5.6597
   30.225    5.6563
   30.240    5.7078
   30.255    5.5246
   30.270    5.5464
   30.285    5.5865
   30.300    5.6677
   30.315    5.5533
   30.330    5.6128
   30.345    5.7296
   30.360    5.8131
   30.375    5.6220
   30.390    5.7376
   30.405    5.6391
   30.420    5.6906
   30.435    5.6746
   30.450    5.6517
   30.465    5.6815
   30.480    5.6013
   30.495    5.6139
   30.510    5.6059
   30.525    5.5956
   30.540    5.5349
   30.555    5.5991
   30.570    5.6838
   30.585    5.7605
   30.600    5.9207
   30.615    5.8658
   30.630    5.9505
   30.645    6.0135
   30.660    6.0570
   30.675    6.0318
   30.690    5.9482
   30.705    6.0112
   30.720    5.9608
   30.735    5.8658
   30.750    5.7650
   30.765    5.6174
   30.780    5.5166
   30.795    5.5876
   30.810    5.4147
   30.825    5.4147
   30.840    5.4479
   30.855    5.4342
   30.870    5.5727
   30.885    5.5292
   30.900    5.5430
   30.915    5.6025
   30.930    5.5224
   30.945    5.6197
   30.960    5.5762
   30.975    5.5018
   30.990    5.5269
   31.005    5.5075
   31.020    5.3232
   31.035    5.5304
   31.050    5.3037
   31.065    5.3220
   31.080    5.3667
   31.095    5.3816
   31.110    5.3690
   31.125    5.5189
   31.140    5.4376
   31.155    5.2259
   31.170    5.2785
   31.185    5.3037
   31.200    5.3186
   31.215    5.1217
   31.230    5.3277
   31.245    5.4193
   31.260    5.4617
   31.275    5.4262
   31.290    5.3323
   31.305    5.3747
   31.320    5.5121
   31.335    5.4617
   31.350    5.5384
   31.365    5.6242
   31.380    5.8074
   31.395    5.8234
   31.410    5.9322
   31.425    5.9024
   31.440    5.8681
   31.455    5.8566
   31.470    5.8440
   31.485    5.8326
   31.500    5.9471
   31.515    5.8314
   31.530    5.6231
   31.545    5.5888
   31.560    5.4537
   31.575    5.4491
   31.590    5.5224
   31.605    5.6094
   31.620    5.5258
   31.635    5.5384
   31.650    5.5292
   31.665    5.4789
   31.680    5.6288
   31.695    5.5727
   31.710    5.5155
   31.725    5.4823
   31.740    5.5613
   31.755    5.5372
   31.770    5.4525
   31.785    5.5521
   31.800    5.5544
   31.815    5.4388
   31.830    5.3781
   31.845    5.4640
   31.860    5.3197
   31.875    5.5453
   31.890    5.5979
   31.905    5.5441
   31.920    5.5590
   31.935    5.5533
   31.950    5.5888
   31.965    5.4846
   31.980    5.5464
   31.995    5.5670
   32.010    5.5796
   32.025    5.5842
   32.040    5.6059
   32.055    5.4823
   32.070    5.4560
   32.085    5.4147
   32.100    5.4903
   32.115    5.5876
   32.130    5.5830
   32.145    5.7067
   32.160    5.5533
   32.175    5.5349
   32.190    5.5475
   32.205    5.4251
   32.220    5.5098
   32.235    5.5945
   32.250    5.4560
   32.265    5.5201
   32.280    5.2602
   32.295    5.2144
   32.310    5.2682
   32.325    5.2682
   32.340    5.2178
   32.355    5.1022
   32.370    5.2694
   32.385    5.3346
   32.400    5.2156
   32.415    5.2488
   32.430    5.1915
   32.445    5.3140
   32.460    5.3083
   32.475    5.2602
   32.490    5.3541
   32.505    5.1618
   32.520    5.1537
   32.535    5.1732
   32.550    5.2705
   32.565    5.1698
   32.580    5.1984
   32.595    5.2488
   32.610    5.0851
   32.625    5.0473
   32.640    5.1183
   32.655    5.2030
   32.670    5.1869
   32.685    5.0610
   32.700    5.1377
   32.715    5.1572
   32.730    5.0976
   32.745    5.1766
   32.760    5.1618
   32.775    5.1835
   32.790    5.2442
   32.805    5.1228
   32.820    5.2350
   32.835    5.2407
   32.850    5.3919
   32.865    5.3369
   32.880    5.4560
   32.895    5.6208
   32.910    5.5601
   32.925    5.6345
   32.940    5.6013
   32.955    5.5899
   32.970    5.4972
   32.985    5.5842
   33.000    5.6162
   33.015    5.5613
   33.030    5.4846
   33.045    5.3266
   33.060    5.1652
   33.075    5.1618
   33.090    5.0896
   33.105    5.0690
   33.120    5.0702
   33.135    4.9969
   33.150    5.0267
   33.165    4.9546
   33.180    4.8973
   33.195    4.9580
   33.210    5.0599
   33.225    5.0873
   33.240    5.0862
   33.255    5.0862
   33.270    4.9500
   33.285    5.1240
   33.300    4.9832
   33.315    5.0954
   33.330    5.0450
   33.345    5.0198
   33.360    5.0576
   33.375    5.0244
   33.390    5.0851
   33.405    5.0896
   33.420    4.9694
   33.435    5.0118
   33.450    5.0003
   33.465    5.1366
   33.480    5.0725
   33.495    5.0645
   33.510    4.9752
   33.525    4.8572
   33.540    5.0049
   33.555    5.1045
   33.570    5.1102
   33.585    5.1125
   33.600    5.2133
   33.615    5.2041
   33.630    5.2156
   33.645    5.1251
   33.660    5.2442
   33.675    5.2190
   33.690    5.2636
   33.705    5.3598
   33.720    5.2694
   33.735    5.2465
   33.750    5.1057
   33.765    5.2350
   33.780    5.3071
   33.795    5.4044
   33.810    5.4479
   33.825    5.4754
   33.840    5.4972
   33.855    5.6368
   33.870    5.8131
   33.885    5.6334
   33.900    5.6849
   33.915    5.7318
   33.930    5.6597
   33.945    5.6025
   33.960    5.5212
   33.975    5.5052
   33.990    5.5132
   34.005    5.4708
   34.020    5.2339
   34.035    5.2178
   34.050    5.2831
   34.065    5.2144
   34.080    5.1274
   34.095    5.0976
   34.110    5.2121
   34.125    5.2087
   34.140    5.2007
   34.155    5.1721
   34.170    5.2144
   34.185    5.1618
   34.200    5.0954
   34.215    5.1091
   34.230    5.0507
   34.245    5.0954
   34.260    5.0805
   34.275    5.0942
   34.290    5.1492
   34.305    5.0862
   34.320    4.9454
   34.335    5.0141
   34.350    5.0599
   34.365    4.9752
   34.380    5.0061
   34.395    5.0015
   34.410    5.0816
   34.425    5.0667
   34.440    4.9855
   34.455    4.9397
   34.470    5.0564
   34.485    4.9843
   34.500    4.8630
   34.515    4.8538
   34.530    4.9546
   34.545    4.9099
   34.560    4.9442
   34.575    4.9832
   34.590    4.9843
   34.605    4.9591
   34.620    4.9454
   34.635    4.8904
   34.650    4.8973
   34.665    4.8195
   34.680    4.9752
   34.695    4.8321
   34.710    4.9878
   34.725    5.0633
   34.740    4.9809
   34.755    4.8836
   34.770    4.9546
   34.785    5.0656
   34.800    5.1343
   34.815    5.1778
   34.830    5.2545
   34.845    5.2053
   34.860    5.2201
   34.875    5.1698
   34.890    5.1125
   34.905    5.1847
   34.920    5.1789
   34.935    5.0106
   34.950    4.9202
   34.965    4.9259
   34.980    4.9546
   34.995    4.8092
   35.010    4.7702
   35.025    4.8893
   35.040    4.8870
   35.055    4.9706
   35.070    4.7931
   35.085    4.6867
   35.100    4.7622
   35.115    4.7565
   35.130    4.6913
   35.145    4.7577
   35.160    4.7954
   35.175    4.8550
   35.190    4.8950
   35.205    4.8492
   35.220    4.7485
   35.235    4.8218
   35.250    4.8092
   35.265    4.7256
   35.280    4.8160
   35.295    4.9088
   35.310    4.8263
   35.325    4.8584
   35.340    4.8321
   35.355    4.8504
   35.370    4.8092
   35.385    4.8080
   35.400    4.8813
   35.415    4.9019
   35.430    4.8561
   35.445    4.8710
   35.460    4.8366
   35.475    4.8389
   35.490    4.8584
   35.505    4.8195
   35.520    4.7325
   35.535    4.6798
   35.550    4.7233
   35.565    4.6821
   35.580    4.7886
   35.595    4.8584
   35.610    4.6832
   35.625    4.8080
   35.640    4.7794
   35.655    4.8641
   35.670    4.7622
   35.685    4.7313
   35.700    4.7577
   35.715    4.7805
   35.730    4.8355
   35.745    4.9156
   35.760    4.9225
   35.775    4.7977
   35.790    4.7714
   35.805    4.8286
   35.820    4.8572
   35.835    4.8779
   35.850    4.9042
   35.865    4.9797
   35.880    5.0072
   35.895    4.8481
   35.910    4.8779
   35.925    4.9878
   35.940    4.9294
   35.955    4.9362
   35.970    4.9729
   35.985    4.9969
   36.000    4.9351
   36.015    4.8962
   36.030    4.9099
   36.045    4.9729
   36.060    4.8664
   36.075    4.9351
   36.090    4.8618
   36.105    4.8630
   36.120    4.8309
   36.135    4.9317
   36.150    4.7496
   36.165    4.8034
   36.180    4.7439
   36.195    4.7954
   36.210    4.8481
   36.225    4.7702
   36.240    4.8664
   36.255    4.8607
   36.270    4.8355
   36.285    4.7817
   36.300    4.8847
   36.315    4.8538
   36.330    4.8252
   36.345    4.8046
   36.360    4.7909
   36.375    4.6581
   36.390    4.6340
   36.405    4.5882
   36.420    4.5825
   36.435    4.7577
   36.450    4.7084
   36.465    4.6672
   36.480    4.7050
   36.495    4.6065
   36.510    4.5745
   36.525    4.6718
   36.540    4.7771
   36.555    4.7473
   36.570    4.8378
   36.585    4.8653
   36.600    4.7416
   36.615    4.8469
   36.630    4.8664
   36.645    4.8218
   36.660    4.8779
   36.675    4.9339
   36.690    5.0084
   36.705    4.8458
   36.720    4.7851
   36.735    4.7954
   36.750    4.8572
   36.765    4.8824
   36.780    4.8160
   36.795    4.8012
   36.810    4.6535
   36.825    4.7096
   36.840    4.6077
   36.855    4.5470
   36.870    4.6329
   36.885    4.5482
   36.900    4.4543
   36.915    4.5287
   36.930    4.5573
   36.945    4.5962
   36.960    4.7462
   36.975    4.7050
   36.990    4.5894
   37.005    4.6752
   37.020    4.6832
   37.035    4.8298
   37.050    5.0942
   37.065    5.0954
   37.080    5.1411
   37.095    5.2144
   37.110    5.1297
   37.125    5.1080
   37.140    5.1125
   37.155    5.1320
   37.170    5.1228
   37.185    5.1652
   37.200    5.0530
   37.215    4.8893
   37.230    4.7737
   37.245    4.8080
   37.260    4.7290
   37.275    4.6775
   37.290    4.5665
   37.305    4.5516
   37.320    4.5356
   37.335    4.4886
   37.350    4.5756
   37.365    4.4921
   37.380    4.5447
   37.395    4.5344
   37.410    4.5917
   37.425    4.6031
   37.440    4.5173
   37.455    4.6306
   37.470    4.6134
   37.485    4.6695
   37.500    4.7222
   37.515    4.7256
   37.530    4.5905
   37.545    4.6329
   37.560    4.7588
   37.575    4.7634
   37.590    4.7084
   37.605    4.6707
   37.620    4.6741
   37.635    4.7393
   37.650    4.7142
   37.665    4.7748
   37.680    4.6798
   37.695    4.7050
   37.710    4.6443
   37.725    4.6935
   37.740    4.6352
   37.755    4.6237
   37.770    4.7096
   37.785    4.6798
   37.800    4.7725
   37.815    4.6844
   37.830    4.7725
   37.845    4.7416
   37.860    4.7737
   37.875    4.7771
   37.890    4.6329
   37.905    4.7210
   37.920    4.6237
   37.935    4.6855
   37.950    4.7016
   37.965    4.7451
   37.980    4.7622
   37.995    4.8550
   38.010    4.7748
   38.025    4.7702
   38.040    4.6741
   38.055    4.6626
   38.070    4.7210
   38.085    4.7187
   38.100    4.6317
   38.115    4.5287
   38.130    4.5436
   38.145    4.6088
   38.160    4.5493
   38.175    4.5516
   38.190    4.5390
   38.205    4.5630
   38.220    4.5356
   38.235    4.6420
   38.250    4.5928
   38.265    4.5493
   38.280    4.4520
   38.295    4.5470
   38.310    4.5081
   38.325    4.5894
   38.340    4.5173
   38.355    4.5791
   38.370    4.6168
   38.385    4.5848
   38.400    4.6913
   38.415    4.7588
   38.430    4.6661
   38.445    4.5424
   38.460    4.5401
   38.475    4.6191
   38.490    4.6077
   38.505    4.5596
   38.520    4.6237
   38.535    4.5825
   38.550    4.5401
   38.565    4.5069
   38.580    4.6157
   38.595    4.5264
   38.610    4.4371
   38.625    4.5871
   38.640    4.4978
   38.655    4.5047
   38.670    4.4760
   38.685    4.4772
   38.700    4.4005
   38.715    4.4188
   38.730    4.5253
   38.745    4.5585
   38.760    4.4234
   38.775    4.5459
   38.790    4.5447
   38.805    4.4989
   38.820    4.4692
   38.835    4.4703
   38.850    4.6249
   38.865    4.5676
   38.880    4.5310
   38.895    4.5791
   38.910    4.4921
   38.925    4.4600
   38.940    4.4829
   38.955    4.5344
   38.970    4.6317
   38.985    4.5722
   39.000    4.6684
   39.015    4.5596
   39.030    4.4234
   39.045    4.4726
   39.060    4.4760
   39.075    4.5058
   39.090    4.4577
   39.105    4.5596
   39.120    4.5001
   39.135    4.6397
   39.150    4.5447
   39.165    4.4486
   39.180    4.5447
   39.195    4.5653
   39.210    4.6226
   39.225    4.6146
   39.240    4.6226
   39.255    4.6397
   39.270    4.6226
   39.285    4.5024
   39.300    4.6283
   39.315    4.6844
   39.330    4.6569
   39.345    4.6661
   39.360    4.6088
   39.375    4.6684
   39.390    4.5859
   39.405    4.6088
   39.420    4.6123
   39.435    4.5482
   39.450    4.5001
   39.465    4.4531
   39.480    4.4348
   39.495    4.4348
   39.510    4.5459
   39.525    4.4074
   39.540    4.4909
   39.555    4.5550
   39.570    4.5619
   39.585    4.5539
   39.600    4.6008
   39.615    4.6214
   39.630    4.5779
   39.645    4.6123
   39.660    4.6237
   39.675    4.7531
   39.690    4.6432
   39.705    4.6031
   39.720    4.5482
   39.735    4.6214
   39.750    4.6317
   39.765    4.5928
   39.780    4.5264
   39.795    4.5768
   39.810    4.6043
   39.825    4.5871
   39.840    4.5195
   39.855    4.5115
   39.870    4.5573
   39.885    4.5573
   39.900    4.5688
   39.915    4.6134
   39.930    4.5642
   39.945    4.5836
   39.960    4.6008
   39.975    4.4646
   39.990    4.5390
