    1.500   16.7667
    1.515   16.9774
    1.530   16.5666
    1.545   15.7873
    1.560   15.5872
    1.575   15.3870
    1.590   14.9974
    1.605   14.9236
    1.620   14.4181
    1.635   14.9342
    1.650   14.2707
    1.665   13.7651
    1.680   14.0706
    1.695   13.9231
    1.710   13.5229
    1.725   12.7962
    1.740   13.5334
    1.755   13.4808
    1.770   13.1016
    1.785   12.1011
    1.800   12.6488
    1.815   12.9647
    1.830   12.6066
    1.845   12.7014
    1.860   12.3749
    1.875   12.1222
    1.890   12.1011
    1.905   12.0484
    1.920   11.5113
    1.935   11.0900
    1.950   11.0795
    1.965   11.8905
    1.980   11.0163
    1.995   11.0479
    2.010   11.3744
    2.025   11.0585
    2.040   10.3844
    2.055   10.7109
    2.070   11.0163
    2.085   11.0479
    2.100   10.8268
    2.115   10.7109
    2.130   10.1001
    2.145   10.3212
    2.160   10.1632
    2.175   10.2264
    2.190    9.9737
    2.205   10.1001
    2.220    9.9947
    2.235    9.7525
    2.250   10.1527
    2.265    9.8894
    2.280   10.1738
    2.295    9.7630
    2.310   10.1106
    2.325    9.7946
    2.340    9.8368
    2.355    9.3839
    2.370    9.2996
    2.385    9.2470
    2.400    9.9421
    2.415    9.9210
    2.430    9.5419
    2.445    9.5103
    2.460    9.5103
    2.475    9.7630
    2.490    9.7946
    2.505    9.0153
    2.520    9.8894
    2.535    9.4681
    2.550    9.1522
    2.565    9.6472
    2.580    9.2470
    2.595    9.4681
    2.610    9.2154
    2.625    9.3312
    2.640    9.0679
    2.655    8.9415
    2.670    8.6045
    2.685    8.7836
    2.700    8.9731
    2.715    8.7836
    2.730    8.8889
    2.745    9.2259
    2.760    9.0574
    2.775    9.3734
    2.790    9.1627
    2.805    9.3523
    2.820    9.4260
    2.835    9.6156
    2.850    9.3207
    2.865    9.2364
    2.880    9.4787
    2.895    9.7104
    2.910    9.4050
    2.925    9.4050
    2.940    9.5524
    2.955    9.4155
    2.970    9.4576
    2.985    9.1311
    3.000    9.3944
    3.015    9.0785
    3.030    9.3207
    3.045    9.3839
    3.060    9.6051
    3.075    9.6051
    3.090    9.3207
    3.105    9.8262
    3.120    9.1311
    3.135    9.0047
    3.150    9.7420
    3.165    9.6577
    3.180   10.0053
    3.195    9.9105
    3.210    9.7736
    3.225    9.3523
    3.240    9.9105
    3.255   10.1001
    3.270    9.8157
    3.285    9.7314
    3.300   10.4581
    3.315   10.4371
    3.330   10.0790
    3.345   10.3528
    3.360   10.1948
    3.375   10.8794
    3.390   11.3533
    3.405   11.3849
    3.420   10.9426
    3.435   11.3744
    3.450   10.9742
    3.465   11.6272
    3.480   11.4692
    3.495   11.3428
    3.510   12.0590
    3.525   11.9747
    3.540   12.2064
    3.555   12.8699
    3.570   12.9437
    3.585   13.2807
    3.600   13.4071
    3.615   13.4281
    3.630   13.9547
    3.645   14.3655
    3.660   14.3023
    3.675   15.1343
    3.690   15.4397
    3.705   15.8715
    3.720   16.2507
    3.735   16.8510
    3.750   17.4197
    3.765   17.8515
    3.780   19.0732
    3.795   19.7683
    3.810   20.9057
    3.825   21.8852
    3.840   22.9068
    3.855   23.6967
    3.870   23.6440
    3.885   22.7909
    3.900   21.9168
    3.915   20.5371
    3.930   17.7567
    3.945   15.1132
    3.960   13.4071
    3.975   11.8483
    3.990   11.2059
    4.005   10.3423
    4.020    9.5313
    4.035    9.2786
    4.050    8.6677
    4.065    9.0785
    4.080    8.6467
    4.095    7.9516
    4.110    8.3202
    4.125    8.3623
    4.140    8.4255
    4.155    8.8468
    4.170    8.3202
    4.185    8.2780
    4.200    8.2570
    4.215    8.2780
    4.230    7.5724
    4.245    8.1833
    4.260    7.9726
    4.275    8.2359
    4.290    8.2570
    4.305    8.0463
    4.320    8.0042
    4.335    8.1622
    4.350    8.3728
    4.365    8.1833
    4.380    7.8462
    4.395    8.2359
    4.410    8.0674
    4.425    7.8568
    4.440    7.5829
    4.455    7.6356
    4.470    8.1411
    4.485    8.2991
    4.500    7.6356
    4.515    7.6777
    4.530    7.8673
    4.545    7.6777
    4.560    7.9305
    4.575    7.6777
    4.590    7.5619
    4.605    7.8252
    4.620    8.1517
    4.635    7.9516
    4.650    8.0358
    4.665    7.8989
    4.680    7.1301
    4.695    8.0990
    4.710    7.9410
    4.725    7.6883
    4.740    7.9410
    4.755    7.7725
    4.770    8.0674
    4.785    7.6988
    4.800    7.6145
    4.815    7.8568
    4.830    7.8357
    4.845    7.8778
    4.860    7.6672
    4.875    7.5092
    4.890    8.1306
    4.905    7.7304
    4.920    8.0463
    4.935    7.9937
    4.950    7.6251
    4.965    8.2043
    4.980    8.2359
    4.995    7.7093
    5.010    7.9410
    5.025    7.9831
    5.040    8.0674
    5.055    8.3518
    5.070    8.2254
    5.085    8.1727
    5.100    8.4044
    5.115    8.2464
    5.130    8.3096
    5.145    8.2359
    5.160    8.1938
    5.175    8.2991
    5.190    8.8573
    5.205    8.8046
    5.220    8.6256
    5.235    8.6993
    5.250    9.2259
    5.265    9.2259
    5.280    9.1311
    5.295    9.0995
    5.310    8.9626
    5.325    9.2470
    5.340    9.4260
    5.355    9.8368
    5.370   10.3318
    5.385   10.5424
    5.400   10.5635
    5.415   10.5951
    5.430   10.8689
    5.445   10.7846
    5.460   11.2586
    5.475   11.6588
    5.490   12.1222
    5.505   11.9010
    5.520   11.6061
    5.535   10.8057
    5.550   10.2159
    5.565    9.4576
    5.580    8.4887
    5.595    8.6256
    5.610    8.1201
    5.625    7.7514
    5.640    7.8884
    5.655    8.2570
    5.670    7.8041
    5.685    7.7514
    5.700    7.7409
    5.715    7.4566
    5.730    7.5724
    5.745    7.3618
    5.760    7.5724
    5.775    7.7725
    5.790    7.9410
    5.805    7.9305
    5.820    7.5092
    5.835    7.9937
    5.850    7.3828
    5.865    7.1617
    5.880    7.5408
    5.895    7.6145
    5.910    7.7620
    5.925    7.1195
    5.940    7.5619
    5.955    7.5829
    5.970    7.9410
    5.985    7.7093
    6.000    7.6883
    6.015    7.4355
    6.030    7.4987
    6.045    7.5935
    6.060    7.5408
    6.075    7.3302
    6.090    7.3934
    6.105    7.5303
    6.120    7.7304
    6.135    7.2459
    6.150    7.1511
    6.165    7.2143
    6.180    7.8673
    6.195    7.2986
    6.210    7.3618
    6.225    7.4671
    6.240    7.2670
    6.255    7.2775
    6.270    7.1090
    6.285    7.2354
    6.300    7.4987
    6.315    7.5619
    6.330    8.0147
    6.345    7.7304
    6.360    7.3512
    6.375    7.6145
    6.390    7.6461
    6.405    7.3407
    6.420    7.5829
    6.435    7.8568
    6.450    7.7093
    6.465    7.6040
    6.480    7.9200
    6.495    7.7409
    6.510    7.8884
    6.525    7.9200
    6.540    7.7304
    6.555    7.9305
    6.570    7.8041
    6.585    7.9200
    6.600    7.9200
    6.615    7.8357
    6.630    8.0779
    6.645    7.9937
    6.660    8.1517
    6.675    7.9200
    6.690    8.2254
    6.705    8.2149
    6.720    8.1727
    6.735    8.1833
    6.750    8.5729
    6.765    8.8784
    6.780    8.2675
    6.795    8.1306
    6.810    8.5835
    6.825    7.8568
    6.840    7.9621
    6.855    7.7514
    6.870    7.6356
    6.885    7.5197
    6.900    7.6356
    6.915    7.2143
    6.930    7.4355
    6.945    7.8146
    6.960    7.4882
    6.975    7.4566
    6.990    7.3196
    7.005    7.5619
    7.020    7.4987
    7.035    7.2459
    7.050    7.3091
    7.065    7.8884
    7.080    7.9410
    7.095    7.6883
    7.110    7.4566
    7.125    7.5724
    7.140    7.6461
    7.155    7.5829
    7.170    7.6883
    7.185    7.3302
    7.200    7.4776
    7.215    7.5724
    7.230    7.4566
    7.245    7.0353
    7.260    7.2565
    7.275    7.2986
    7.290    7.5829
    7.305    7.6883
    7.320    7.5935
    7.335    7.3196
    7.350    7.5619
    7.365    7.4987
    7.380    7.7620
    7.395    7.8041
    7.410    7.7093
    7.425    7.8041
    7.440    7.6251
    7.455    7.8568
    7.470    7.6988
    7.485    7.6145
    7.500    7.4776
    7.515    7.8673
    7.530    7.9937
    7.545    7.4987
    7.560    8.0885
    7.575    8.1622
    7.590    7.9305
    7.605    8.0885
    7.620    8.0885
    7.635    7.8146
    7.650    7.9726
    7.665    8.0569
    7.680    8.1306
    7.695    8.7520
    7.710    8.2359
    7.725    8.2149
    7.740    8.4676
    7.755    8.7941
    7.770    8.2675
    7.785    8.6993
    7.800    8.5097
    7.815    8.3202
    7.830    8.3518
    7.845    8.2570
    7.860    7.8989
    7.875    7.8462
    7.890    8.2254
    7.905    8.1622
    7.920    7.9621
    7.935    8.0147
    7.950    8.0990
    7.965    8.3623
    7.980    7.7514
    7.995    7.8778
    8.010    8.1306
    8.025    7.6567
    8.040    8.0147
    8.055    7.7620
    8.070    7.8462
    8.085    8.2464
    8.100    7.7409
    8.115    7.4460
    8.130    7.5408
    8.145    7.6988
    8.160    7.9621
    8.175    7.6777
    8.190    8.0147
    8.205    8.0253
    8.220    7.6461
    8.235    7.6883
    8.250    8.2886
    8.265    8.2043
    8.280    7.5303
    8.295    7.3723
    8.310    7.6145
    8.325    8.0042
    8.340    8.0042
    8.355    7.8989
    8.370    7.8989
    8.385    7.8989
    8.400    7.8462
    8.415    7.7830
    8.430    7.4882
    8.445    7.6883
    8.460    7.5619
    8.475    7.9831
    8.490    7.7725
    8.505    7.8146
    8.520    8.0885
    8.535    7.4671
    8.550    8.0674
    8.565    7.8673
    8.580    7.7199
    8.595    7.9726
    8.610    8.0358
    8.625    7.7199
    8.640    7.6040
    8.655    8.1201
    8.670    8.5203
    8.685    8.4044
    8.700    8.0674
    8.715    8.1201
    8.730    8.2359
    8.745    8.3518
    8.760    8.2570
    8.775    8.2043
    8.790    7.6672
    8.805    7.9200
    8.820    8.0253
    8.835    7.9831
    8.850    7.8989
    8.865    7.9305
    8.880    7.6988
    8.895    8.0569
    8.910    7.9831
    8.925    7.6988
    8.940    7.7514
    8.955    7.9937
    8.970    7.6777
    8.985    7.4882
    9.000    8.1833
    9.015    8.0990
    9.030    7.8673
    9.045    7.9831
    9.060    8.4150
    9.075    8.3518
    9.090    8.2886
    9.105    8.3412
    9.120    7.7304
    9.135    7.4671
    9.150    7.7620
    9.165    7.9516
    9.180    8.2780
    9.195    8.0042
    9.210    7.9726
    9.225    8.1095
    9.240    8.2675
    9.255    8.5308
    9.270    8.7625
    9.285    8.8784
    9.300    8.5940
    9.315    7.8673
    9.330    8.2886
    9.345    8.8889
    9.360    8.5940
    9.375    8.7625
    9.390    8.4255
    9.405    8.7625
    9.420    9.0153
    9.435    8.7204
    9.450    9.1943
    9.465    9.4892
    9.480    9.6156
    9.495    9.4365
    9.510    9.3207
    9.525    9.9631
    9.540   10.1106
    9.555    9.9421
    9.570    9.5945
    9.585    9.4576
    9.600    9.1732
    9.615    8.8784
    9.630    9.1732
    9.645    8.9521
    9.660    8.9205
    9.675    9.0890
    9.690    8.4887
    9.705    8.2675
    9.720    8.1833
    9.735    8.1201
    9.750    8.1622
    9.765    8.0779
    9.780    8.0042
    9.795    8.2991
    9.810    8.3728
    9.825    8.0463
    9.840    8.2043
    9.855    8.4255
    9.870    7.8357
    9.885    8.4466
    9.900    8.1411
    9.915    7.9516
    9.930    8.3307
    9.945    8.2886
    9.960    8.1306
    9.975    8.3096
    9.990    8.0990
   10.005    8.1622
   10.020    8.3728
   10.035    8.2991
   10.050    7.9831
   10.065    8.3939
   10.080    8.2254
   10.095    8.3834
   10.110    8.2149
   10.125    8.4571
   10.140    8.7941
   10.155    8.7204
   10.170    8.5729
   10.185    8.5940
   10.200    8.4676
   10.215    8.2886
   10.230    8.2886
   10.245    8.5729
   10.260    8.0569
   10.275    7.8989
   10.290    8.4887
   10.305    8.6256
   10.320    8.8468
   10.335    8.7520
   10.350    8.6361
   10.365    8.3834
   10.380    8.7625
   10.395    8.2464
   10.410    8.2570
   10.425    8.4571
   10.440    8.1201
   10.455    8.5308
   10.470    8.0674
   10.485    8.4571
   10.500    7.9200
   10.515    8.0358
   10.530    8.1201
   10.545    7.9200
   10.560    8.2043
   10.575    8.6151
   10.590    7.9726
   10.605    7.3091
   10.620    8.0990
   10.635    7.9937
   10.650    7.5935
   10.665    7.7936
   10.680    8.3834
   10.695    8.1517
   10.710    8.2991
   10.725    8.1727
   10.740    8.2464
   10.755    8.2149
   10.770    8.3202
   10.785    7.6777
   10.800    7.6040
   10.815    8.1201
   10.830    8.0147
   10.845    8.2043
   10.860    8.3202
   10.875    8.0990
   10.890    8.1517
   10.905    7.7830
   10.920    8.3202
   10.935    8.3096
   10.950    7.8146
   10.965    7.8884
   10.980    8.0885
   10.995    8.4466
   11.010    8.4150
   11.025    8.2359
   11.040    8.4044
   11.055    8.3834
   11.070    8.1517
   11.085    8.6467
   11.100    8.2675
   11.115    8.3623
   11.130    7.9200
   11.145    7.8462
   11.160    7.8252
   11.175    7.9621
   11.190    7.6883
   11.205    7.6356
   11.220    7.5197
   11.235    7.9726
   11.250    7.6883
   11.265    7.7304
   11.280    8.0253
   11.295    8.3518
   11.310    8.0463
   11.325    7.5724
   11.340    7.5829
   11.355    7.7304
   11.370    8.0569
   11.385    7.9305
   11.400    7.8462
   11.415    7.6672
   11.430    7.7304
   11.445    8.0042
   11.460    7.7514
   11.475    7.8041
   11.490    7.9726
   11.505    7.4882
   11.520    7.8568
   11.535    7.9516
   11.550    7.9831
   11.565    7.8357
   11.580    7.9621
   11.595    7.7514
   11.610    7.8884
   11.625    8.1411
   11.640    7.7830
   11.655    8.3096
   11.670    8.1517
   11.685    8.2780
   11.700    7.7199
   11.715    7.8884
   11.730    7.9305
   11.745    8.0358
   11.760    8.2675
   11.775    7.8778
   11.790    8.3307
   11.805    7.8041
   11.820    7.5619
   11.835    7.7936
   11.850    7.7725
   11.865    7.5724
   11.880    7.3091
   11.895    7.4250
   11.910    7.7620
   11.925    7.7830
   11.940    7.4566
   11.955    7.6672
   11.970    7.3196
   11.985    7.2775
   12.000    7.3196
   12.015    7.4566
   12.030    7.8778
   12.045    7.4776
   12.060    7.6356
   12.075    7.5513
   12.090    7.2038
   12.105    6.9616
   12.120    7.1617
   12.135    7.2354
   12.150    7.0774
   12.165    7.4250
   12.180    7.6251
   12.195    7.3196
   12.210    7.3618
   12.225    7.5092
   12.240    7.4250
   12.255    7.2249
   12.270    7.1090
   12.285    7.7830
   12.300    7.3196
   12.315    7.1617
   12.330    7.4882
   12.345    7.3196
   12.360    7.3302
   12.375    7.7093
   12.390    7.2038
   12.405    7.1617
   12.420    7.5619
   12.435    7.2354
   12.450    7.1827
   12.465    7.1617
   12.480    7.0774
   12.495    6.9510
   12.510    6.9932
   12.525    7.0142
   12.540    7.3302
   12.555    7.0458
   12.570    6.8141
   12.585    6.9300
   12.600    7.1511
   12.615    7.3618
   12.630    7.4460
   12.645    7.1406
   12.660    6.9932
   12.675    7.1195
   12.690    7.4566
   12.705    7.2459
   12.720    7.0037
   12.735    7.2775
   12.750    6.9089
   12.765    7.5092
   12.780    7.2249
   12.795    7.4987
   12.810    6.9932
   12.825    7.4355
   12.840    7.4671
   12.855    7.4882
   12.870    7.3302
   12.885    7.5935
   12.900    7.5303
   12.915    7.3196
   12.930    7.3723
   12.945    7.7725
   12.960    7.5935
   12.975    7.5935
   12.990    7.0563
   13.005    7.4460
   13.020    7.1722
   13.035    7.1722
   13.050    7.3934
   13.065    7.2880
   13.080    7.2459
   13.095    7.1090
   13.110    7.1301
   13.125    7.1406
   13.140    7.2354
   13.155    7.6461
   13.170    7.0774
   13.185    6.8668
   13.200    7.3302
   13.215    6.8562
   13.230    7.2038
   13.245    7.3302
   13.260    6.9721
   13.275    7.2880
   13.290    7.0774
   13.305    7.4776
   13.320    7.5619
   13.335    7.5829
   13.350    6.7615
   13.365    7.1406
   13.380    7.2249
   13.395    7.3618
   13.410    7.4566
   13.425    6.7509
   13.440    6.8352
   13.455    7.4882
   13.470    7.1511
   13.485    6.9826
   13.500    7.2880
   13.515    7.1722
   13.530    7.1406
   13.545    7.5619
   13.560    7.6251
   13.575    7.5092
   13.590    7.3091
   13.605    7.1617
   13.620    7.2249
   13.635    7.0879
   13.650    7.0353
   13.665    6.9510
   13.680    6.9932
   13.695    7.1722
   13.710    7.0563
   13.725    6.9405
   13.740    7.0353
   13.755    7.3934
   13.770    7.1195
   13.785    6.6456
   13.800    6.9932
   13.815    7.0142
   13.830    7.2775
   13.845    6.9405
   13.860    6.9300
   13.875    7.1301
   13.890    7.0458
   13.905    7.0563
   13.920    6.7930
   13.935    6.6351
   13.950    6.8562
   13.965    6.7825
   13.980    7.2880
   13.995    7.0563
   14.010    7.1301
   14.025    6.9089
   14.040    6.9721
   14.055    7.3196
   14.070    7.3302
   14.085    7.1511
   14.100    7.1722
   14.115    7.3302
   14.130    7.3723
   14.145    7.2143
   14.160    6.9932
   14.175    6.9616
   14.190    6.6351
   14.205    6.9089
   14.220    7.0353
   14.235    7.0248
   14.250    6.5508
   14.265    6.9826
   14.280    6.9300
   14.295    6.9721
   14.310    6.8246
   14.325    6.8457
   14.340    6.7930
   14.355    6.5929
   14.370    6.9194
   14.385    7.2986
   14.400    7.1195
   14.415    7.4355
   14.430    7.3512
   14.445    6.8457
   14.460    6.5403
   14.475    6.4771
   14.490    6.6667
   14.505    6.9932
   14.520    6.7825
   14.535    6.7930
   14.550    6.8562
   14.565    6.6772
   14.580    6.5929
   14.595    7.0037
   14.610    6.9826
   14.625    6.9300
   14.640    6.6667
   14.655    6.9826
   14.670    7.3302
   14.685    6.9300
   14.700    6.6035
   14.715    6.9932
   14.730    6.9721
   14.745    7.0563
   14.760    7.2565
   14.775    6.9300
   14.790    6.7930
   14.805    7.0458
   14.820    7.2670
   14.835    7.1617
   14.850    7.4250
   14.865    7.0037
   14.880    6.8352
   14.895    6.6035
   14.910    6.8984
   14.925    7.1827
   14.940    7.1301
   14.955    7.0985
   14.970    7.0774
   14.985    6.9194
   15.000    6.7088
   15.015    6.6456
   15.030    6.9721
   15.045    7.2249
   15.060    7.3512
   15.075    7.1827
   15.090    6.9826
   15.105    6.9616
   15.120    7.2880
   15.135    7.2565
   15.150    7.1722
   15.165    7.2038
   15.180    6.8562
   15.195    6.8036
   15.210    6.8878
   15.225    7.1933
   15.240    7.1617
   15.255    7.2670
   15.270    7.0458
   15.285    7.3196
   15.300    7.0774
   15.315    7.1090
   15.330    7.0353
   15.345    7.2038
   15.360    7.1301
   15.375    7.0879
   15.390    6.7299
   15.405    6.8457
   15.420    6.7930
   15.435    6.8562
   15.450    7.6461
   15.465    7.1827
   15.480    7.0458
   15.495    6.7193
   15.510    6.7825
   15.525    7.3302
   15.540    6.5403
   15.555    6.9405
   15.570    7.3618
   15.585    7.0248
   15.600    7.0353
   15.615    6.6456
   15.630    7.3407
   15.645    6.9300
   15.660    6.9616
   15.675    7.0458
   15.690    7.0353
   15.705    7.2143
   15.720    7.2354
   15.735    7.0669
   15.750    6.9616
   15.765    7.1195
   15.780    7.3407
   15.795    7.1511
   15.810    7.0353
   15.825    6.8984
   15.840    6.6877
   15.855    6.7720
   15.870    7.0879
   15.885    6.8457
   15.900    7.0669
   15.915    6.8036
   15.930    6.8141
   15.945    7.1090
   15.960    7.2670
   15.975    7.0142
   15.990    7.4355
   16.005    6.9616
   16.020    7.0669
   16.035    7.2038
   16.050    7.2143
   16.065    6.7825
   16.080    6.9300
   16.095    7.1933
   16.110    6.9089
   16.125    7.4144
   16.140    7.1090
   16.155    7.0353
   16.170    6.8036
   16.185    7.3723
   16.200    7.5935
   16.215    7.3091
   16.230    7.1301
   16.245    7.4039
   16.260    7.2565
   16.275    6.9721
   16.290    6.9721
   16.305    6.8668
   16.320    7.0669
   16.335    6.8773
   16.350    7.1090
   16.365    7.2670
   16.380    6.8457
   16.395    7.0353
   16.410    7.4566
   16.425    6.9510
   16.440    7.2670
   16.455    7.3512
   16.470    6.7720
   16.485    7.1195
   16.500    7.1301
   16.515    7.0563
   16.530    6.9194
   16.545    7.2038
   16.560    7.1511
   16.575    7.2354
   16.590    7.6988
   16.605    7.4671
   16.620    6.9932
   16.635    7.1406
   16.650    6.8562
   16.665    7.2986
   16.680    7.4355
   16.695    7.3512
   16.710    7.0879
   16.725    6.8246
   16.740    7.4355
   16.755    7.1301
   16.770    6.9616
   16.785    6.8773
   16.800    6.5929
   16.815    7.1090
   16.830    7.0985
   16.845    6.7930
   16.860    7.1722
   16.875    7.3723
   16.890    7.4460
   16.905    6.8457
   16.920    7.2986
   16.935    6.9721
   16.950    7.2249
   16.965    6.7720
   16.980    7.3618
   16.995    7.3723
   17.010    6.8246
   17.025    7.2565
   17.040    7.2354
   17.055    7.5197
   17.070    7.1617
   17.085    7.1406
   17.100    7.4039
   17.115    7.2143
   17.130    7.5303
   17.145    7.3723
   17.160    7.2459
   17.175    7.1722
   17.190    7.0879
   17.205    7.2986
   17.220    7.4039
   17.235    7.1195
   17.250    6.9826
   17.265    7.0248
   17.280    6.8141
   17.295    6.6877
   17.310    7.2459
   17.325    7.6251
   17.340    7.4882
   17.355    7.2565
   17.370    7.2775
   17.385    7.2143
   17.400    7.2143
   17.415    7.1301
   17.430    7.4039
   17.445    7.3196
   17.460    6.8984
   17.475    7.0037
   17.490    7.0142
   17.505    7.4987
   17.520    7.4987
   17.535    6.9721
   17.550    7.2880
   17.565    6.8562
   17.580    7.0037
   17.595    7.1511
   17.610    6.7299
   17.625    6.9932
   17.640    7.1090
   17.655    7.4671
   17.670    7.0563
   17.685    7.0353
   17.700    7.3723
   17.715    7.5303
   17.730    7.0353
   17.745    6.8668
   17.760    6.4455
   17.775    7.2670
   17.790    6.8036
   17.805    6.8773
   17.820    7.3091
   17.835    7.0458
   17.850    7.0353
   17.865    6.8457
   17.880    7.0985
   17.895    7.5197
   17.910    7.2038
   17.925    6.9510
   17.940    7.6251
   17.955    7.1301
   17.970    7.0774
   17.985    6.8878
   18.000    6.9300
   18.015    7.0142
   18.030    7.1511
   18.045    7.3828
   18.060    7.4460
   18.075    7.1617
   18.090    7.0037
   18.105    7.2565
   18.120    7.2354
   18.135    7.3618
   18.150    7.1827
   18.165    7.3091
   18.180    7.2565
   18.195    7.3618
   18.210    7.0353
   18.225    6.8141
   18.240    7.0037
   18.255    6.8668
   18.270    7.1406
   18.285    7.0774
   18.300    7.0774
   18.315    6.8878
   18.330    7.2354
   18.345    7.3934
   18.360    6.9932
   18.375    7.1090
   18.390    7.3091
   18.405    6.9932
   18.420    6.7299
   18.435    7.0353
   18.450    6.9721
   18.465    6.9932
   18.480    7.1406
   18.495    7.1090
   18.510    7.4039
   18.525    6.9616
   18.540    7.3828
   18.555    7.4671
   18.570    6.8352
   18.585    6.9194
   18.600    7.3407
   18.615    7.1933
   18.630    7.1722
   18.645    6.7088
   18.660    6.5298
   18.675    7.1511
   18.690    7.0669
   18.705    7.2038
   18.720    7.2038
   18.735    7.4987
   18.750    7.4776
   18.765    7.2354
   18.780    7.2880
   18.795    7.4987
   18.810    6.8668
   18.825    6.9405
   18.840    7.0774
   18.855    7.0037
   18.870    7.2880
   18.885    7.1406
   18.900    6.8562
   18.915    7.2249
   18.930    7.3934
   18.945    7.8778
   18.960    7.9305
   18.975    8.0674
   18.990    7.7936
   19.005    7.9305
   19.020    8.0885
   19.035    7.7514
   19.050    7.5829
   19.065    7.5303
   19.080    7.2986
   19.095    7.0879
   19.110    7.0248
   19.125    6.7825
   19.140    6.9194
   19.155    7.2565
   19.170    7.2038
   19.185    7.0774
   19.200    6.9616
   19.215    7.3091
   19.230    6.9721
   19.245    7.1617
   19.260    6.8562
   19.275    6.8246
   19.290    7.6777
   19.305    7.5408
   19.320    7.5408
   19.335    7.3091
   19.350    6.7615
   19.365    7.0037
   19.380    6.9194
   19.395    7.4671
   19.410    7.3407
   19.425    7.2775
   19.440    7.3196
   19.455    7.6672
   19.470    6.8984
   19.485    7.2986
   19.500    7.5829
   19.515    6.9405
   19.530    7.1301
   19.545    7.4460
   19.560    7.2775
   19.575    7.3934
   19.590    7.2880
   19.605    7.2038
   19.620    7.5092
   19.635    7.5513
   19.650    7.6777
   19.665    7.5092
   19.680    7.1511
   19.695    7.2038
   19.710    7.0985
   19.725    7.4355
   19.740    7.6461
   19.755    6.9932
   19.770    7.2038
   19.785    7.3302
   19.800    6.9405
   19.815    6.8984
   19.830    6.9616
   19.845    7.5724
   19.860    7.3302
   19.875    7.0774
   19.890    7.3618
   19.905    7.6251
   19.920    7.1617
   19.935    7.1090
   19.950    7.0774
   19.965    6.9300
   19.980    7.3512
   19.995    7.4144
   20.010    6.8141
   20.025    7.1722
   20.040    7.6251
   20.055    7.6145
   20.070    7.2249
   20.085    7.1617
   20.100    7.4144
   20.115    7.3934
   20.130    7.1511
   20.145    7.5724
   20.160    6.8457
   20.175    7.0879
   20.190    7.2038
   20.205    7.0563
   20.220    7.3196
   20.235    7.0879
   20.250    7.2459
   20.265    7.3196
   20.280    7.2775
   20.295    7.6040
   20.310    7.4039
   20.325    7.1511
   20.340    7.0353
   20.355    6.8984
   20.370    7.2880
   20.385    7.5724
   20.400    7.8041
   20.415    7.2354
   20.430    7.4460
   20.445    7.4776
   20.460    7.4144
   20.475    7.4882
   20.490    6.9300
   20.505    7.2143
   20.520    7.2986
   20.535    7.9094
   20.550    7.3828
   20.565    7.0353
   20.580    6.9932
   20.595    7.5619
   20.610    7.6040
   20.625    7.9621
   20.640    7.5197
   20.655    6.7930
   20.670    7.1301
   20.685    6.5824
   20.700    7.6461
   20.715    7.3828
   20.730    7.3618
   20.745    7.5408
   20.760    7.1406
   20.775    7.2880
   20.790    7.0248
   20.805    7.1511
   20.820    7.4566
   20.835    7.2775
   20.850    7.1511
   20.865    7.2459
   20.880    7.3302
   20.895    7.2143
   20.910    7.0142
   20.925    7.4250
   20.940    7.6145
   20.955    7.3196
   20.970    6.8878
   20.985    7.3618
   21.000    7.2775
   21.015    7.2565
   21.030    7.1090
   21.045    7.0353
   21.060    7.4039
   21.075    7.2880
   21.090    6.9510
   21.105    7.3934
   21.120    7.1406
   21.135    7.3512
   21.150    7.3618
   21.165    7.4460
   21.180    7.4987
   21.195    7.7409
   21.210    7.0353
   21.225    7.4039
   21.240    7.3723
   21.255    7.2775
   21.270    7.3407
   21.285    7.0774
   21.300    7.6040
   21.315    7.3091
   21.330    7.7936
   21.345    7.3091
   21.360    7.4460
   21.375    7.3723
   21.390    7.2880
   21.405    7.1511
   21.420    7.0248
   21.435    7.4776
   21.450    7.0774
   21.465    7.2565
   21.480    6.9089
   21.495    7.1827
   21.510    7.1827
   21.525    6.9089
   21.540    7.4355
   21.555    7.1933
   21.570    7.0669
   21.585    7.3407
   21.600    7.4776
   21.615    7.6567
   21.630    7.0985
   21.645    7.3934
   21.660    7.4039
   21.675    7.5724
   21.690    7.8041
   21.705    6.9932
   21.720    7.1827
   21.735    7.3512
   21.750    7.2459
   21.765    7.1511
   21.780    7.5408
   21.795    7.6040
   21.810    7.6777
   21.825    7.4039
   21.840    7.4460
   21.855    7.1933
   21.870    7.5092
   21.885    7.7199
   21.900    7.5619
   21.915    7.8778
   21.930    7.7620
   21.945    7.9305
   21.960    7.2354
   21.975    7.2775
   21.990    6.8773
   22.005    7.3512
   22.020    7.2459
   22.035    7.7304
   22.050    7.4776
   22.065    7.6988
   22.080    7.5513
   22.095    7.5092
   22.110    7.0774
   22.125    7.1406
   22.140    7.3723
   22.155    7.7409
   22.170    7.2249
   22.185    7.1617
   22.200    7.4250
   22.215    7.2038
   22.230    7.0563
   22.245    7.3091
   22.260    7.3407
   22.275    7.2038
   22.290    7.4250
   22.305    7.5513
   22.320    7.6672
   22.335    7.4144
   22.350    7.5197
   22.365    7.2565
   22.380    7.4987
   22.395    7.5408
   22.410    7.4882
   22.425    7.6356
   22.440    7.7725
   22.455    7.9831
   22.470    7.3934
   22.485    8.0358
   22.500    7.7725
   22.515    7.8884
   22.530    7.6883
   22.545    7.7199
   22.560    7.9726
   22.575    7.7304
   22.590    8.0147
   22.605    7.6988
   22.620    8.2780
   22.635    7.6251
   22.650    7.8146
   22.665    7.5303
   22.680    7.7936
   22.695    7.8252
   22.710    7.4987
   22.725    7.2354
   22.740    7.0669
   22.755    7.3091
   22.770    7.7409
   22.785    7.7936
   22.800    7.6040
   22.815    7.6461
   22.830    7.3302
   22.845    7.3196
   22.860    7.5197
   22.875    7.6567
   22.890    7.6461
   22.905    7.6145
   22.920    7.4671
   22.935    7.8884
   22.950    7.6988
   22.965    7.6777
   22.980    7.3934
   22.995    7.3196
   23.010    7.3723
   23.025    7.8041
   23.040    7.6777
   23.055    7.8673
   23.070    7.7514
   23.085    7.7725
   23.100    7.5092
   23.115    7.3512
   23.130    7.5829
   23.145    7.9305
   23.160    7.5724
   23.175    7.5197
   23.190    7.2986
   23.205    7.8041
   23.220    7.7936
   23.235    7.5935
   23.250    7.5829
   23.265    7.5092
   23.280    7.4987
   23.295    7.7514
   23.310    7.4250
   23.325    7.8146
   23.340    7.8252
   23.355    7.3091
   23.370    7.2249
   23.385    7.3512
   23.400    7.3828
   23.415    7.5303
   23.430    7.2670
   23.445    7.0563
   23.460    7.1617
   23.475    7.2986
   23.490    7.1511
   23.505    7.5092
   23.520    7.4776
   23.535    7.5303
   23.550    7.6777
   23.565    7.4882
   23.580    7.4987
   23.595    7.3407
   23.610    7.4671
   23.625    7.7304
   23.640    7.2775
   23.655    7.6040
   23.670    6.9721
   23.685    7.3091
   23.700    7.7093
   23.715    7.8041
   23.730    7.1827
   23.745    7.3512
   23.760    7.0879
   23.775    7.4566
   23.790    7.5092
   23.805    7.7304
   23.820    7.4776
   23.835    7.0879
   23.850    7.0985
   23.865    7.2670
   23.880    7.3196
   23.895    7.3196
   23.910    7.4987
   23.925    7.4460
   23.940    7.4144
   23.955    7.3302
   23.970    7.0774
   23.985    6.9932
   24.000    6.9932
   24.015    6.6772
   24.030    7.3512
   24.045    7.2775
   24.060    7.3407
   24.075    7.1090
   24.090    7.0985
   24.105    7.3618
   24.120    7.1301
   24.135    7.2775
   24.150    7.4882
   24.165    7.4987
   24.180    7.3407
   24.195    7.3934
   24.210    7.0985
   24.225    7.7830
   24.240    7.4144
   24.255    7.0248
   24.270    7.1301
   24.285    7.2354
   24.300    7.7620
   24.315    7.2038
   24.330    7.2143
   24.345    7.2880
   24.360    7.3934
   24.375    7.2565
   24.390    7.1617
   24.405    7.1722
   24.420    7.5303
   24.435    7.1090
   24.450    7.2354
   24.465    7.7093
   24.480    7.3934
   24.495    7.6251
   24.510    7.2565
   24.525    7.2565
   24.540    6.9932
   24.555    6.7825
   24.570    7.3196
   24.585    7.5513
   24.600    7.1617
   24.615    7.0774
   24.630    7.1722
   24.645    6.7509
   24.660    7.2038
   24.675    7.1301
   24.690    6.9932
   24.705    7.3407
   24.720    7.2143
   24.735    7.2775
   24.750    7.0563
   24.765    7.1301
   24.780    6.9721
   24.795    7.4987
   24.810    7.0037
   24.825    6.9932
   24.840    7.0669
   24.855    7.1406
   24.870    7.1195
   24.885    7.0669
   24.900    7.1722
   24.915    7.0774
   24.930    6.9826
   24.945    7.0985
   24.960    7.0142
   24.975    7.1722
   24.990    7.3407
   25.005    6.8352
   25.020    7.1827
   25.035    6.9721
   25.050    7.2775
   25.065    7.3196
   25.080    7.1090
   25.095    7.0142
   25.110    7.3512
   25.125    7.5513
   25.140    7.1511
   25.155    7.5303
   25.170    7.5303
   25.185    7.4355
   25.200    7.1195
   25.215    6.8352
   25.230    6.9510
   25.245    6.8457
   25.260    6.6983
   25.275    6.7404
   25.290    6.5824
   25.305    6.7615
   25.320    6.7193
   25.335    6.9616
   25.350    6.8668
   25.365    7.0563
   25.380    6.9721
   25.395    7.1617
   25.410    6.8246
   25.425    6.9300
   25.440    7.3723
   25.455    7.5092
   25.470    7.5513
   25.485    7.3828
   25.500    7.5092
   25.515    7.5724
   25.530    7.1090
   25.545    7.2880
   25.560    7.2670
   25.575    7.1722
   25.590    7.0353
   25.605    7.1933
   25.620    7.3091
   25.635    7.0353
   25.650    7.2249
   25.665    7.3512
   25.680    7.0879
   25.695    6.8878
   25.710    6.9194
   25.725    6.9616
   25.740    6.5719
   25.755    6.8773
   25.770    6.9721
   25.785    7.1827
   25.800    7.1933
   25.815    7.1406
   25.830    7.2038
   25.845    7.4987
   25.860    7.1301
   25.875    7.3302
   25.890    7.3196
   25.905    7.3723
   25.920    7.0879
   25.935    6.9826
   25.950    7.0879
   25.965    7.0985
   25.980    6.6667
   25.995    7.1722
   26.010    7.0774
   26.025    6.9826
   26.040    7.1511
   26.055    7.1301
   26.070    6.7720
   26.085    6.8457
   26.100    6.9616
   26.115    6.8773
   26.130    7.0563
   26.145    6.8352
   26.160    7.0037
   26.175    6.8878
   26.190    7.0563
   26.205    6.8246
   26.220    6.9721
   26.235    6.8668
   26.250    7.1933
   26.265    7.0353
   26.280    7.1301
   26.295    6.8457
   26.310    6.8773
   26.325    7.0142
   26.340    6.8562
   26.355    7.1933
   26.370    6.8878
   26.385    6.9300
   26.400    6.7088
   26.415    6.8246
   26.430    7.0985
   26.445    6.9300
   26.460    6.9405
   26.475    7.0037
   26.490    7.1301
   26.505    6.8141
   26.520    6.6351
   26.535    6.7193
   26.550    7.0669
   26.565    6.8246
   26.580    6.7404
   26.595    6.9194
   26.610    7.1827
   26.625    6.6667
   26.640    6.6877
   26.655    7.2565
   26.670    7.1406
   26.685    7.3196
   26.700    7.0142
   26.715    6.8036
   26.730    6.7299
   26.745    6.6561
   26.760    6.9405
   26.775    6.8562
   26.790    7.0879
   26.805    7.0985
   26.820    6.8457
   26.835    6.6561
   26.850    6.8141
   26.865    7.4250
   26.880    7.3091
   26.895    6.8984
   26.910    7.0563
   26.925    6.9510
   26.940    6.7299
   26.955    6.7615
   26.970    7.2354
   26.985    6.9300
   27.000    6.6877
   27.015    6.8668
   27.030    7.2354
   27.045    6.6245
   27.060    7.0142
   27.075    6.8562
   27.090    7.1511
   27.105    7.1090
   27.120    7.0458
   27.135    7.0985
   27.150    7.1195
   27.165    6.9194
   27.180    7.1722
   27.195    6.6140
   27.210    6.8878
   27.225    6.6561
   27.240    6.9932
   27.255    6.6983
   27.270    6.7720
   27.285    6.8352
   27.300    6.6140
   27.315    6.6667
   27.330    6.9510
   27.345    7.0248
   27.360    6.5403
   27.375    6.4455
   27.390    6.4034
   27.405    6.9194
   27.420    6.6561
   27.435    6.2559
   27.450    6.6561
   27.465    6.5613
   27.480    6.7509
   27.495    6.6561
   27.510    6.4771
   27.525    6.9300
   27.540    6.4982
   27.555    6.6140
   27.570    6.6035
   27.585    6.7509
   27.600    6.9089
   27.615    6.6456
   27.630    6.7509
   27.645    6.6035
   27.660    6.4771
   27.675    6.7088
   27.690    6.7720
   27.705    6.5508
   27.720    6.7825
   27.735    7.1090
   27.750    7.0248
   27.765    6.2454
   27.780    6.5298
   27.795    6.6667
   27.810    6.8246
   27.825    6.9194
   27.840    6.7193
   27.855    6.3718
   27.870    6.5824
   27.885    6.6772
   27.900    6.8141
   27.915    6.8773
   27.930    6.9405
   27.945    7.6672
   27.960    7.2775
   27.975    7.2670
   27.990    7.2038
   28.005    7.3407
   28.020    7.2459
   28.035    7.1301
   28.050    7.3512
   28.065    6.7509
   28.080    6.8036
   28.095    6.7509
   28.110    6.6877
   28.125    6.9721
   28.140    6.8457
   28.155    6.4666
   28.170    6.4350
   28.185    6.5719
   28.200    6.6772
   28.215    7.0142
   28.230    6.9510
   28.245    6.6877
   28.260    6.7193
   28.275    6.8668
   28.290    6.5613
   28.305    6.5192
   28.320    6.4982
   28.335    6.6351
   28.350    6.4982
   28.365    6.5508
   28.380    7.1617
   28.395    6.7193
   28.410    6.4982
   28.425    6.6035
   28.440    6.4771
   28.455    6.5613
   28.470    6.7193
   28.485    6.6035
   28.500    6.7930
   28.515    6.5929
   28.530    6.4982
   28.545    6.4455
   28.560    6.4982
   28.575    6.4350
   28.590    6.6983
   28.605    6.5719
   28.620    6.6983
   28.635    6.8036
   28.650    6.1506
   28.665    6.4876
   28.680    6.3191
   28.695    6.3507
   28.710    6.6561
   28.725    6.7930
   28.740    7.1617
   28.755    6.4350
   28.770    6.8352
   28.785    6.6561
   28.800    6.5298
   28.815    6.7509
   28.830    6.6877
   28.845    7.0985
   28.860    6.6983
   28.875    7.0142
   28.890    6.9616
   28.905    7.3828
   28.920    7.1090
   28.935    7.3934
   28.950    6.9826
   28.965    7.0985
   28.980    7.2249
   28.995    7.2354
   29.010    6.8141
   29.025    6.7088
   29.040    6.4771
   29.055    6.7193
   29.070    6.6983
   29.085    6.5298
   29.100    6.7930
   29.115    6.5508
   29.130    6.6983
   29.145    6.5298
   29.160    6.1611
   29.175    6.4560
   29.190    6.3296
   29.205    6.3718
   29.220    6.6772
   29.235    6.7825
   29.250    6.6877
   29.265    6.7299
   29.280    6.1822
   29.295    6.3086
   29.310    6.5508
   29.325    6.4455
   29.340    6.4455
   29.355    6.2349
   29.370    6.5403
   29.385    6.4350
   29.400    6.4455
   29.415    6.7615
   29.430    6.6667
   29.445    6.6772
   29.460    6.4771
   29.475    6.3191
   29.490    6.2454
   29.505    6.2875
   29.520    6.3507
   29.535    5.9189
   29.550    6.5508
   29.565    6.3296
   29.580    6.3191
   29.595    6.3823
   29.610    6.4666
   29.625    6.3086
   29.640    6.1401
   29.655    6.0979
   29.670    6.1927
   29.685    6.5508
   29.700    6.5298
   29.715    6.1822
   29.730    6.4666
   29.745    6.3191
   29.760    6.2770
   29.775    6.4139
   29.790    6.3086
   29.805    6.5192
   29.820    6.5087
   29.835    6.4876
   29.850    6.1927
   29.865    6.0874
   29.880    6.1506
   29.895    6.1611
   29.910    6.3086
   29.925    6.1927
   29.940    6.1717
   29.955    6.2033
   29.970    6.1927
   29.985    6.4771
   30.000    6.4560
   30.015    6.4876
   30.030    6.5087
   30.045    6.3191
   30.060    6.2981
   30.075    6.2770
   30.090    6.2243
   30.105    6.3086
   30.120    6.4560
   30.135    6.5087
   30.150    6.1401
   30.165    6.2454
   30.180    6.3191
   30.195    6.6351
   30.210    6.5613
   30.225    6.3191
   30.240    6.3402
   30.255    6.2033
   30.270    6.3718
   30.285    6.4244
   30.300    6.3823
   30.315    6.4876
   30.330    6.1611
   30.345    6.3823
   30.360    6.1295
   30.375    6.2770
   30.390    6.3402
   30.405    6.7088
   30.420    6.2454
   30.435    6.1506
   30.450    5.8347
   30.465    6.2665
   30.480    6.6351
   30.495    6.5087
   30.510    6.5087
   30.525    6.2559
   30.540    6.3612
   30.555    6.6877
   30.570    6.1190
   30.585    6.4034
   30.600    6.1401
   30.615    6.2243
   30.630    6.0137
   30.645    6.1506
   30.660    6.5298
   30.675    6.3191
   30.690    6.3296
   30.705    5.9610
   30.720    6.2665
   30.735    6.1401
   30.750    6.0242
   30.765    6.2454
   30.780    5.7820
   30.795    5.5714
   30.810    6.5719
   30.825    6.6035
   30.840    6.3191
   30.855    6.6456
   30.870    6.6667
   30.885    6.5824
   30.900    6.3507
   30.915    6.5719
   30.930    6.6456
   30.945    6.4666
   30.960    6.6456
   30.975    6.6877
   30.990    6.3402
   31.005    6.5298
   31.020    6.5087
   31.035    6.0137
   31.050    6.3612
   31.065    6.0242
   31.080    6.6561
   31.095    6.3823
   31.110    6.3612
   31.125    6.2665
   31.140    5.8347
   31.155    5.8978
   31.170    5.9716
   31.185    6.1717
   31.200    6.1822
   31.215    6.1611
   31.230    6.3612
   31.245    6.5824
   31.260    5.7925
   31.275    5.7715
   31.290    6.1085
   31.305    6.2454
   31.320    6.3086
   31.335    5.8031
   31.350    6.5192
   31.365    6.5824
   31.380    6.1506
   31.395    6.4771
   31.410    6.0979
   31.425    6.2559
   31.440    5.8031
   31.455    5.9821
   31.470    6.1927
   31.485    6.2559
   31.500    6.1611
   31.515    6.3928
   31.530    6.4455
   31.545    6.3507
   31.560    6.6140
   31.575    5.8452
   31.590    5.8978
   31.605    5.9716
   31.620    6.2665
   31.635    6.8457
   31.650    6.6351
   31.665    6.4350
   31.680    6.4139
   31.695    6.2033
   31.710    6.2770
   31.725    6.1611
   31.740    6.4560
   31.755    6.2454
   31.770    6.4034
   31.785    6.4560
   31.800    6.4455
   31.815    6.6456
   31.830    6.5403
   31.845    6.8668
   31.860    6.5192
   31.875    6.5929
   31.890    5.9821
   31.905    6.2033
   31.920    6.0137
   31.935    6.5929
   31.950    6.1190
   31.965    6.2559
   31.980    6.6667
   31.995    6.6983
   32.010    6.9510
   32.025    6.6351
   32.040    6.5719
   32.055    7.6988
   32.070    7.4250
   32.085    7.5619
   32.100    7.4566
   32.115    7.3302
   32.130    7.4250
   32.145    7.6040
   32.160    6.9194
   32.175    6.8668
   32.190    6.4876
   32.205    6.1822
   32.220    6.5298
   32.235    6.2349
   32.250    6.1822
   32.265    6.1822
   32.280    6.2349
   32.295    5.9716
   32.310    5.9400
   32.325    6.3928
   32.340    6.0979
   32.355    5.8347
   32.370    5.8557
   32.385    5.9400
   32.400    6.2665
   32.415    6.3823
   32.430    5.8557
   32.445    5.8873
   32.460    5.9926
   32.475    6.0453
   32.490    5.7925
   32.505    5.9926
   32.520    5.7399
   32.535    5.8031
   32.550    6.2033
   32.565    6.2138
   32.580    6.1717
   32.595    6.3928
   32.610    5.9084
   32.625    6.0769
   32.640    6.1190
   32.655    6.1822
   32.670    6.2770
   32.685    6.2138
   32.700    6.0558
   32.715    6.2033
   32.730    5.8978
   32.745    6.1085
   32.760    6.2559
   32.775    6.0242
   32.790    6.0032
   32.805    5.7609
   32.820    5.8557
   32.835    5.6767
   32.850    5.9400
   32.865    6.0874
   32.880    5.9400
   32.895    5.8978
   32.910    6.1927
   32.925    5.6240
   32.940    5.6345
   32.955    5.7293
   32.970    5.7715
   32.985    5.7609
   33.000    5.7293
   33.015    5.7820
   33.030    5.7820
   33.045    6.0874
   33.060    5.7925
   33.075    6.2243
   33.090    5.5924
   33.105    5.6556
   33.120    5.9716
   33.135    5.6451
   33.150    5.8873
   33.165    6.1190
   33.180    6.2454
   33.195    5.8978
   33.210    5.7925
   33.225    6.0453
   33.240    5.8031
   33.255    5.7504
   33.270    6.0558
   33.285    5.9189
   33.300    5.8136
   33.315    5.6977
   33.330    5.6767
   33.345    6.0558
   33.360    6.0032
   33.375    5.7083
   33.390    5.6135
   33.405    5.8662
   33.420    6.0137
   33.435    5.6767
   33.450    6.0769
   33.465    5.8768
   33.480    5.7715
   33.495    6.1085
   33.510    5.5292
   33.525    6.3402
   33.540    5.8978
   33.555    5.6345
   33.570    5.6345
   33.585    5.4976
   33.600    5.7715
   33.615    6.2559
   33.630    6.0558
   33.645    5.7715
   33.660    6.0453
   33.675    5.8768
   33.690    6.1506
   33.705    6.2243
   33.720    6.1927
   33.735    6.0032
   33.750    5.9294
   33.765    6.0348
   33.780    6.1401
   33.795    6.7404
   33.810    6.7088
   33.825    6.4139
   33.840    6.0242
   33.855    6.6035
   33.870    6.3823
   33.885    6.1927
   33.900    6.0664
   33.915    6.1717
   33.930    6.0979
   33.945    6.2875
   33.960    5.9821
   33.975    6.2770
   33.990    6.1611
   34.005    5.7504
   34.020    5.6135
   34.035    5.7504
   34.050    5.6661
   34.065    6.0769
   34.080    6.2981
   34.095    6.1085
   34.110    5.6977
   34.125    5.7715
   34.140    5.9821
   34.155    6.0348
   34.170    6.1190
   34.185    5.5924
   34.200    5.4871
   34.215    5.7188
   34.230    6.1611
   34.245    6.2243
   34.260    5.8241
   34.275    5.8452
   34.290    5.5187
   34.305    6.0032
   34.320    5.6135
   34.335    5.6135
   34.350    5.8662
   34.365    5.7399
   34.380    5.6872
   34.395    5.9505
   34.410    6.1085
   34.425    5.8557
   34.440    5.8978
   34.455    5.6135
   34.470    5.8557
   34.485    5.5714
   34.500    5.6451
   34.515    5.9505
   34.530    5.6240
   34.545    5.6029
   34.560    5.4028
   34.575    5.7399
   34.590    5.8031
   34.605    5.3081
   34.620    5.5924
   34.635    5.5608
   34.650    5.4028
   34.665    5.7504
   34.680    5.7609
   34.695    5.5398
   34.710    5.5819
   34.725    5.7609
   34.740    5.9716
   34.755    5.6240
   34.770    5.8662
   34.785    6.0874
   34.800    5.6872
   34.815    5.5292
   34.830    5.8978
   34.845    5.7925
   34.860    5.6977
   34.875    5.5187
   34.890    5.5714
   34.905    5.5608
   34.920    5.6767
   34.935    5.6451
   34.950    6.0032
   34.965    6.0348
   34.980    5.6977
   34.995    5.6345
   35.010    5.5924
   35.025    5.7399
   35.040    5.4976
   35.055    5.7820
   35.070    5.5398
   35.085    6.1295
   35.100    5.6135
   35.115    6.1611
   35.130    5.9926
   35.145    5.5819
   35.160    5.7609
   35.175    5.6029
   35.190    5.8031
   35.205    5.4660
   35.220    5.6345
   35.235    6.0242
   35.250    5.7293
   35.265    5.9400
   35.280    5.8136
   35.295    5.6240
   35.310    5.4239
   35.325    5.6240
   35.340    5.6029
   35.355    5.6767
   35.370    5.7083
   35.385    5.7504
   35.400    5.8031
   35.415    5.5082
   35.430    5.4976
   35.445    5.4660
   35.460    5.6135
   35.475    5.6240
   35.490    5.3712
   35.505    5.4766
   35.520    5.3502
   35.535    5.5187
   35.550    5.5819
   35.565    6.0769
   35.580    5.6661
   35.595    5.6345
   35.610    5.4976
   35.625    5.3397
   35.640    5.4028
   35.655    5.1711
   35.670    5.5187
   35.685    5.3502
   35.700    5.6977
   35.715    5.2554
   35.730    5.8031
   35.745    5.6029
   35.760    5.8873
   35.775    5.8241
   35.790    5.4766
   35.805    5.4976
   35.820    5.6767
   35.835    5.8347
   35.850    5.7609
   35.865    5.6451
   35.880    5.5292
   35.895    5.3291
   35.910    5.7820
   35.925    5.6135
   35.940    5.3291
   35.955    5.4660
   35.970    5.6029
   35.985    5.7293
   36.000    5.6029
   36.015    5.5924
   36.030    5.6872
   36.045    5.6135
   36.060    5.5398
   36.075    5.6767
   36.090    5.7399
   36.105    5.4450
   36.120    5.6767
   36.135    5.5714
   36.150    5.3607
   36.165    5.6029
   36.180    5.5187
   36.195    5.4344
   36.210    5.6240
   36.225    5.8873
   36.240    5.7399
   36.255    5.7715
   36.270    5.1711
   36.285    5.5187
   36.300    5.6451
   36.315    5.5292
   36.330    5.8031
   36.345    5.4239
   36.360    5.7293
   36.375    5.4660
   36.390    5.5398
   36.405    5.6556
   36.420    5.3291
   36.435    5.3291
   36.450    5.3397
   36.465    5.5082
   36.480    5.5292
   36.495    5.4028
   36.510    5.3923
   36.525    5.1606
   36.540    5.3291
   36.555    5.4344
   36.570    5.4871
   36.585    5.7925
   36.600    5.2659
   36.615    5.0448
   36.630    5.3607
   36.645    5.3081
   36.660    5.6135
   36.675    5.5503
   36.690    5.6977
   36.705    5.4871
   36.720    5.7504
   36.735    5.5503
   36.750    5.7925
   36.765    5.9716
   36.780    5.9716
   36.795    5.8031
   36.810    5.6451
   36.825    5.6345
   36.840    5.6240
   36.855    5.5398
   36.870    5.2554
   36.885    5.2554
   36.900    5.3397
   36.915    5.5398
   36.930    5.6451
   36.945    5.4344
   36.960    5.6977
   36.975    5.9189
   36.990    5.6661
   37.005    5.3712
   37.020    5.6872
   37.035    5.6240
   37.050    5.6661
   37.065    5.4660
   37.080    5.6661
   37.095    5.5503
   37.110    5.7083
   37.125    5.6451
   37.140    5.3502
   37.155    5.2554
   37.170    5.6556
   37.185    5.1290
   37.200    5.2238
   37.215    5.6029
   37.230    5.4239
   37.245    5.6029
   37.260    5.7293
   37.275    5.3291
   37.290    5.6345
   37.305    5.4976
   37.320    5.5924
   37.335    5.5398
   37.350    5.5819
   37.365    5.5187
   37.380    5.7715
   37.395    5.3818
   37.410    5.8241
   37.425    5.4976
   37.440    5.9505
   37.455    5.6556
   37.470    5.2027
   37.485    5.2343
   37.500    5.5292
   37.515    5.7504
   37.530    5.1711
   37.545    5.5398
   37.560    5.3818
   37.575    5.3186
   37.590    5.2870
   37.605    5.7399
   37.620    5.7609
   37.635    5.5292
   37.650    5.4871
   37.665    5.7083
   37.680    5.3607
   37.695    5.6767
   37.710    5.5398
   37.725    5.4871
   37.740    5.2975
   37.755    5.3923
   37.770    5.5398
   37.785    5.4028
   37.800    5.5503
   37.815    5.5398
   37.830    5.4134
   37.845    5.2343
   37.860    5.5608
   37.875    5.4344
   37.890    5.3186
   37.905    5.1606
   37.920    5.3712
   37.935    5.6240
   37.950    5.4555
   37.965    5.6767
   37.980    5.8978
   37.995    5.7820
   38.010    5.4344
   38.025    5.7083
   38.040    5.4871
   38.055    5.2554
   38.070    5.4239
   38.085    5.6872
   38.100    5.4239
   38.115    5.6556
   38.130    5.3291
   38.145    5.3923
   38.160    5.9294
   38.175    5.5503
   38.190    5.2343
   38.205    5.1501
   38.220    5.6977
   38.235    5.5924
   38.250    5.6556
   38.265    5.5924
   38.280    5.5608
   38.295    5.4450
   38.310    5.5819
   38.325    5.6661
   38.340    5.4660
   38.355    5.2870
   38.370    5.5187
   38.385    5.4660
   38.400    5.4028
   38.415    5.5714
   38.430    5.4766
   38.445    5.4871
   38.460    5.5608
   38.475    5.3397
   38.490    5.5187
   38.505    5.6345
   38.520    5.9294
   38.535    6.0242
   38.550    5.9505
   38.565    5.5714
   38.580    5.6977
   38.595    5.9926
   38.610    5.9610
   38.625    5.9189
   38.640    5.9505
   38.655    5.3818
   38.670    5.6661
   38.685    5.7925
   38.700    5.5924
   38.715    5.5292
   38.730    5.2765
   38.745    5.8347
   38.760    5.1922
   38.775    5.1080
   38.790    5.5398
   38.805    5.6029
   38.820    5.8347
   38.835    5.6451
   38.850    5.2027
   38.865    5.4344
   38.880    5.3712
   38.895    5.4766
   38.910    5.8557
   38.925    5.5187
   38.940    5.5819
   38.955    5.9400
   38.970    5.4555
   38.985    5.4450
   39.000    5.5819
   39.015    5.3923
   39.030    5.6451
   39.045    5.7083
   39.060    5.4766
   39.075    5.5819
   39.090    5.8136
   39.105    5.7820
   39.120    5.1501
   39.135    5.4028
   39.150    5.4450
   39.165    5.6872
   39.180    5.6661
   39.195    5.6977
   39.210    5.3081
   39.225    5.2765
   39.240    5.4660
   39.255    5.6767
   39.270    5.7188
   39.285    5.5608
   39.300    5.3818
   39.315    5.6345
   39.330    5.6135
   39.345    5.2133
   39.360    5.5398
   39.375    5.6345
   39.390    5.3607
   39.405    5.7820
   39.420    5.6661
   39.435    5.7083
   39.450    4.9921
   39.465    5.4028
   39.480    5.3502
   39.495    5.3818
   39.510    5.3397
   39.525    5.6661
   39.540    5.4239
   39.555    5.3712
   39.570    5.4344
   39.585    5.3712
   39.600    5.4344
   39.615    5.6451
   39.630    5.1185
   39.645    5.0132
   39.660    5.6345
   39.675    5.2027
   39.690    5.3923
   39.705    5.4660
   39.720    5.7293
   39.735    5.6872
   39.750    5.5819
   39.765    5.3291
   39.780    5.3291
   39.795    5.2870
   39.810    5.4450
   39.825    5.6556
   39.840    5.8031
   39.855    5.7188
   39.870    5.3186
   39.885    5.0448
   39.900    5.3923
   39.915    5.5398
   39.930    5.4028
   39.945    5.5292
   39.960    5.3502
   39.975    5.4871
   39.990    5.4555
