    1.500   19.3892
    1.515   19.6314
    1.530   19.1575
    1.545   18.7888
    1.560   18.2306
    1.575   18.6414
    1.590   18.1464
    1.605   17.5461
    1.620   17.6093
    1.635   16.8404
    1.650   16.9142
    1.665   16.7878
    1.680   16.7667
    1.695   16.3244
    1.710   16.1243
    1.725   15.7978
    1.740   16.0821
    1.755   16.1137
    1.770   15.4081
    1.785   15.3765
    1.800   15.2080
    1.815   15.4292
    1.830   14.5866
    1.845   14.5445
    1.860   14.5234
    1.875   14.5866
    1.890   14.7130
    1.905   13.9863
    1.920   13.1754
    1.935   13.3649
    1.950   14.2601
    1.965   13.5861
    1.980   12.8383
    1.995   13.1859
    2.010   13.3123
    2.025   12.8699
    2.040   13.2070
    2.055   13.0595
    2.070   12.6804
    2.085   12.4803
    2.100   12.3012
    2.115   12.1643
    2.130   12.1748
    2.145   12.3749
    2.160   12.3117
    2.175   12.0800
    2.190   12.1854
    2.205   11.8905
    2.220   11.9642
    2.235   11.3533
    2.250   11.4797
    2.265   11.1006
    2.280   11.6377
    2.295   11.7114
    2.310   11.9221
    2.325   11.1216
    2.340   10.9847
    2.355   11.1111
    2.370   11.1532
    2.385   11.4797
    2.400   11.3849
    2.415   11.1954
    2.430   11.3639
    2.445   11.0795
    2.460   11.2375
    2.475   10.9110
    2.490   10.6056
    2.505   10.5108
    2.520   11.2164
    2.535   10.8373
    2.550   11.0058
    2.565   11.1006
    2.580   10.9426
    2.595   11.0163
    2.610   11.9221
    2.625   11.4587
    2.640   11.4060
    2.655   10.6266
    2.670   10.9742
    2.685   11.2902
    2.700   11.3217
    2.715   11.3744
    2.730   11.0690
    2.745   10.6372
    2.760   11.4797
    2.775   11.4376
    2.790   11.9853
    2.805   12.0169
    2.820   11.8694
    2.835   12.3749
    2.850   12.7436
    2.865   12.8489
    2.880   12.7857
    2.895   13.0174
    2.910   13.7335
    2.925   13.5229
    2.940   13.9231
    2.955   14.3655
    2.970   13.9652
    2.985   14.9763
    3.000   15.2501
    3.015   15.5134
    3.030   16.0506
    3.045   15.9768
    3.060   17.2512
    3.075   17.1143
    3.090   18.5150
    3.105   18.5782
    3.120   19.0521
    3.135   20.0211
    3.150   20.8320
    3.165   21.9800
    3.180   23.4755
    3.195   23.8231
    3.210   25.1817
    3.225   25.4871
    3.240   27.4671
    3.255   28.4255
    3.270   30.8583
    3.285   32.4381
    3.300   35.0290
    3.315   37.3354
    3.330   39.6946
    3.345   42.2012
    3.360   43.9284
    3.375   47.0142
    3.390   49.2996
    3.405   52.5645
    3.420   55.5134
    3.435   58.3886
    3.450   60.9268
    3.465   61.9379
    3.480   60.4002
    3.495   58.0621
    3.510   54.8499
    3.525   48.9626
    3.540   44.9921
    3.555   39.0943
    3.570   34.2285
    3.585   32.2801
    3.600   28.2675
    3.615   25.9400
    3.630   23.9179
    3.645   22.9279
    3.660   21.4639
    3.675   20.8004
    3.690   20.8741
    3.705   20.6951
    3.720   20.8741
    3.735   20.5161
    3.750   20.3265
    3.765   20.4107
    3.780   20.7794
    3.795   21.4007
    3.810   21.4218
    3.825   21.5271
    3.840   22.7383
    3.855   22.8541
    3.870   23.5282
    3.885   22.6014
    3.900   24.2654
    3.915   24.5708
    3.930   24.8025
    3.945   25.7820
    3.960   26.5298
    3.975   26.5192
    3.990   26.7404
    4.005   27.9726
    4.020   27.5092
    4.035   27.2038
    4.050   28.0990
    4.065   27.6461
    4.080   27.5303
    4.095   28.2464
    4.110   26.7825
    4.125   26.9405
    4.140   25.9926
    4.155   25.3923
    4.170   25.2133
    4.185   24.8025
    4.200   23.9494
    4.215   23.3702
    4.230   22.9595
    4.245   22.0748
    4.260   20.2844
    4.275   19.6209
    4.290   19.4313
    4.305   18.7994
    4.320   18.3465
    4.335   16.9879
    4.350   15.5977
    4.365   14.8289
    4.380   13.9126
    4.395   13.3860
    4.410   13.6914
    4.425   12.6698
    4.440   12.4065
    4.455   11.4060
    4.470   11.7536
    4.485   11.3639
    4.500   10.5635
    4.515   10.0369
    4.530   10.0790
    4.545    9.6788
    4.560    9.3418
    4.575    8.9942
    4.590    9.3523
    4.605    9.2680
    4.620    8.7414
    4.635    8.4992
    4.650    8.5729
    4.665    8.6888
    4.680    8.7836
    4.695    8.8362
    4.710    8.3623
    4.725    7.9200
    4.740    8.4992
    4.755    8.1938
    4.770    8.0569
    4.785    7.8673
    4.800    8.2464
    4.815    8.4044
    4.830    7.7936
    4.845    7.7725
    4.860    8.0358
    4.875    7.6356
    4.890    7.7304
    4.905    8.2254
    4.920    8.0990
    4.935    7.8146
    4.950    8.1306
    4.965    7.9621
    4.980    7.5197
    4.995    7.1511
    5.010    7.4987
    5.025    7.5408
    5.040    7.5724
    5.055    7.8252
    5.070    7.9410
    5.085    8.0147
    5.100    7.9937
    5.115    8.4992
    5.130    8.2254
    5.145    7.9621
    5.160    7.5303
    5.175    7.7199
    5.190    7.9726
    5.205    7.9200
    5.220    8.4781
    5.235    8.5940
    5.250    8.0042
    5.265    7.9831
    5.280    8.2359
    5.295    7.9305
    5.310    8.1517
    5.325    8.4044
    5.340    8.6783
    5.355    8.9205
    5.370    8.3412
    5.385    8.3307
    5.400    8.2359
    5.415    8.2886
    5.430    8.2359
    5.445    8.0147
    5.460    8.2254
    5.475    8.6783
    5.490    8.5413
    5.505    8.3096
    5.520    7.9094
    5.535    8.2149
    5.550    8.3834
    5.565    8.5413
    5.580    8.8046
    5.595    8.5519
    5.610    8.0253
    5.625    7.8041
    5.640    7.8146
    5.655    7.7936
    5.670    7.6567
    5.685    7.8357
    5.700    7.5513
    5.715    7.5829
    5.730    7.7620
    5.745    7.7304
    5.760    8.0779
    5.775    7.3934
    5.790    7.3828
    5.805    7.6356
    5.820    7.5619
    5.835    7.5724
    5.850    7.5092
    5.865    7.0248
    5.880    7.2565
    5.895    7.4144
    5.910    7.4671
    5.925    7.1090
    5.940    7.0248
    5.955    7.0879
    5.970    7.1722
    5.985    6.5613
    6.000    6.8457
    6.015    6.7509
    6.030    6.8984
    6.045    7.0985
    6.060    6.9300
    6.075    6.8352
    6.090    6.9932
    6.105    6.9405
    6.120    6.7404
    6.135    6.7088
    6.150    6.9510
    6.165    6.7404
    6.180    6.6877
    6.195    6.7404
    6.210    6.7088
    6.225    6.8562
    6.240    6.8036
    6.255    6.5403
    6.270    6.6667
    6.285    6.6667
    6.300    6.5403
    6.315    6.5824
    6.330    6.6245
    6.345    6.8036
    6.360    6.7088
    6.375    5.7609
    6.390    5.9821
    6.405    6.2349
    6.420    6.2243
    6.435    6.6561
    6.450    6.3507
    6.465    6.2033
    6.480    6.4244
    6.495    6.2559
    6.510    6.2981
    6.525    6.4666
    6.540    6.7193
    6.555    6.6667
    6.570    6.5929
    6.585    6.5824
    6.600    6.3402
    6.615    6.7088
    6.630    6.9510
    6.645    6.4350
    6.660    6.3296
    6.675    6.9300
    6.690    7.0353
    6.705    7.6883
    6.720    7.4882
    6.735    7.1195
    6.750    6.8246
    6.765    7.5935
    6.780    7.4987
    6.795    7.7514
    6.810    8.0253
    6.825    8.2359
    6.840    8.1622
    6.855    8.1938
    6.870    9.0995
    6.885    9.2364
    6.900    9.5629
    6.915   10.2370
    6.930   10.5845
    6.945   10.6372
    6.960   10.3318
    6.975   10.9215
    6.990   10.8689
    7.005   10.3739
    7.020    9.6788
    7.035    9.6261
    7.050    8.8573
    7.065    8.2359
    7.080    8.2675
    7.095    7.6988
    7.110    7.3512
    7.125    6.8878
    7.140    6.9089
    7.155    6.8457
    7.170    6.6667
    7.185    6.4771
    7.200    6.3086
    7.215    6.0032
    7.230    6.1927
    7.245    6.4350
    7.260    6.3191
    7.275    6.1611
    7.290    5.9505
    7.305    6.2665
    7.320    6.3507
    7.335    6.1822
    7.350    5.8557
    7.365    5.5187
    7.380    6.0558
    7.395    6.1717
    7.410    6.2243
    7.425    5.7399
    7.440    5.8241
    7.455    5.7925
    7.470    5.4555
    7.485    5.5608
    7.500    5.7925
    7.515    5.8452
    7.530    5.9294
    7.545    5.8557
    7.560    5.9400
    7.575    6.0874
    7.590    6.0664
    7.605    5.8136
    7.620    5.9610
    7.635    5.9400
    7.650    6.1506
    7.665    5.8768
    7.680    5.9926
    7.695    5.5503
    7.710    5.6661
    7.725    5.7293
    7.740    5.8978
    7.755    5.9505
    7.770    5.8873
    7.785    6.1190
    7.800    5.9189
    7.815    5.7925
    7.830    5.8136
    7.845    6.1190
    7.860    6.2559
    7.875    6.1295
    7.890    6.6035
    7.905    6.6140
    7.920    6.1085
    7.935    6.1085
    7.950    5.8978
    7.965    6.3612
    7.980    6.2559
    7.995    6.0348
    8.010    6.0769
    8.025    6.2875
    8.040    6.4876
    8.055    6.2454
    8.070    6.4876
    8.085    6.3928
    8.100    6.7404
    8.115    6.5824
    8.130    6.7720
    8.145    6.5403
    8.160    6.3718
    8.175    6.3718
    8.190    6.3823
    8.205    6.5403
    8.220    6.4455
    8.235    6.3086
    8.250    6.3612
    8.265    6.5929
    8.280    6.2138
    8.295    6.7088
    8.310    6.4982
    8.325    6.5719
    8.340    6.4244
    8.355    6.2981
    8.370    6.2138
    8.385    6.3928
    8.400    6.0874
    8.415    6.1506
    8.430    6.2033
    8.445    6.1506
    8.460    6.3612
    8.475    6.0979
    8.490    6.1506
    8.505    6.2875
    8.520    6.2033
    8.535    6.0242
    8.550    6.3612
    8.565    5.8873
    8.580    5.7820
    8.595    5.6556
    8.610    5.8873
    8.625    6.3928
    8.640    6.0558
    8.655    5.7609
    8.670    6.0664
    8.685    6.0137
    8.700    5.7609
    8.715    5.5608
    8.730    5.8136
    8.745    6.0242
    8.760    5.7083
    8.775    5.3712
    8.790    5.3818
    8.805    5.6451
    8.820    5.2765
    8.835    5.0658
    8.850    5.2659
    8.865    5.2238
    8.880    5.3502
    8.895    5.0658
    8.910    5.0132
    8.925    5.3923
    8.940    5.4028
    8.955    5.0448
    8.970    5.4028
    8.985    5.4344
    9.000    5.3923
    9.015    4.8763
    9.030    5.1501
    9.045    5.1290
    9.060    5.0448
    9.075    4.8763
    9.090    4.8973
    9.105    5.4134
    9.120    5.0869
    9.135    4.8025
    9.150    5.0448
    9.165    5.2554
    9.180    5.0026
    9.195    4.8973
    9.210    4.8236
    9.225    5.0553
    9.240    5.0342
    9.255    5.0553
    9.270    4.6445
    9.285    4.9184
    9.300    4.8131
    9.315    4.8763
    9.330    4.9289
    9.345    5.1817
    9.360    4.9605
    9.375    4.5287
    9.390    5.1290
    9.405    5.2238
    9.420    4.8973
    9.435    4.7393
    9.450    5.1711
    9.465    4.9289
    9.480    5.0869
    9.495    4.9289
    9.510    4.6340
    9.525    4.9921
    9.540    5.0974
    9.555    5.2870
    9.570    5.0026
    9.585    4.7920
    9.600    4.7288
    9.615    4.7920
    9.630    4.9394
    9.645    4.8552
    9.660    4.7077
    9.675    4.7183
    9.690    4.7288
    9.705    4.6867
    9.720    4.7077
    9.735    4.5919
    9.750    4.7288
    9.765    4.5708
    9.780    4.8236
    9.795    4.8552
    9.810    4.6130
    9.825    4.7499
    9.840    4.7393
    9.855    4.7604
    9.870    4.9184
    9.885    5.0764
    9.900    4.9289
    9.915    4.7709
    9.930    4.7499
    9.945    4.7077
    9.960    5.0342
    9.975    4.6761
    9.990    5.1711
   10.005    4.7077
   10.020    4.7815
   10.035    4.6972
   10.050    4.6972
   10.065    4.6867
   10.080    4.5392
   10.095    4.8552
   10.110    4.7077
   10.125    4.8447
   10.140    4.7815
   10.155    4.7604
   10.170    4.8447
   10.185    5.1080
   10.200    4.6761
   10.215    5.1606
   10.230    4.5076
   10.245    4.4655
   10.260    4.7815
   10.275    4.9605
   10.290    4.7920
   10.305    4.8341
   10.320    5.0764
   10.335    4.9394
   10.350    4.8973
   10.365    4.9605
   10.380    4.8236
   10.395    4.8657
   10.410    5.0448
   10.425    4.8657
   10.440    4.8973
   10.455    5.1817
   10.470    4.8447
   10.485    5.1817
   10.500    5.5187
   10.515    5.4344
   10.530    5.1395
   10.545    4.9289
   10.560    4.8657
   10.575    4.9394
   10.590    4.8868
   10.605    4.7709
   10.620    5.0237
   10.635    4.8973
   10.650    4.8657
   10.665    5.1817
   10.680    4.7183
   10.695    4.9184
   10.710    4.7920
   10.725    4.8552
   10.740    4.9500
   10.755    5.0974
   10.770    4.9605
   10.785    5.3291
   10.800    5.1606
   10.815    4.9184
   10.830    5.1185
   10.845    4.9184
   10.860    4.6656
   10.875    4.7709
   10.890    4.9605
   10.905    4.9394
   10.920    5.0869
   10.935    5.2238
   10.950    5.1290
   10.965    4.9710
   10.980    5.0342
   10.995    5.1080
   11.010    5.0869
   11.025    4.7393
   11.040    4.6867
   11.055    4.6445
   11.070    4.9921
   11.085    5.0132
   11.100    5.0974
   11.115    4.8552
   11.130    4.6761
   11.145    5.1395
   11.160    4.8025
   11.175    5.0869
   11.190    4.6445
   11.205    4.8131
   11.220    4.8131
   11.235    4.7288
   11.250    4.8763
   11.265    5.0132
   11.280    4.7604
   11.295    4.8657
   11.310    4.9921
   11.325    5.0342
   11.340    4.6340
   11.355    4.8763
   11.370    4.8025
   11.385    4.9500
   11.400    5.0764
   11.415    4.8973
   11.430    4.6867
   11.445    4.9500
   11.460    4.8973
   11.475    4.8025
   11.490    4.7183
   11.505    4.5708
   11.520    5.0869
   11.535    5.1290
   11.550    4.5919
   11.565    4.6235
   11.580    5.0026
   11.595    5.1395
   11.610    5.2343
   11.625    4.6235
   11.640    4.6867
   11.655    4.7815
   11.670    4.8236
   11.685    4.7499
   11.700    4.6340
   11.715    4.5919
   11.730    4.5287
   11.745    5.0448
   11.760    4.8657
   11.775    4.7920
   11.790    5.0869
   11.805    4.8447
   11.820    5.0342
   11.835    4.8131
   11.850    4.6551
   11.865    4.7288
   11.880    5.0869
   11.895    4.8868
   11.910    4.7499
   11.925    4.6340
   11.940    4.6972
   11.955    4.8763
   11.970    5.1080
   11.985    5.0132
   12.000    5.3291
   12.015    4.8552
   12.030    4.8657
   12.045    4.8763
   12.060    4.9921
   12.075    4.9184
   12.090    4.8657
   12.105    4.7815
   12.120    4.7393
   12.135    4.9184
   12.150    5.0658
   12.165    5.2449
   12.180    5.1711
   12.195    4.7393
   12.210    4.8552
   12.225    4.8973
   12.240    4.7288
   12.255    4.7393
   12.270    4.6972
   12.285    4.4760
   12.300    4.9500
   12.315    5.0658
   12.330    4.9184
   12.345    5.0764
   12.360    4.9605
   12.375    4.8341
   12.390    5.0658
   12.405    5.1080
   12.420    4.7077
   12.435    4.8973
   12.450    5.0237
   12.465    5.0026
   12.480    4.8552
   12.495    4.7815
   12.510    4.8447
   12.525    5.0553
   12.540    4.9500
   12.555    5.1922
   12.570    4.8552
   12.585    4.8552
   12.600    4.8025
   12.615    4.8552
   12.630    4.8236
   12.645    4.8973
   12.660    4.9078
   12.675    5.0448
   12.690    5.2870
   12.705    4.9394
   12.720    4.8973
   12.735    4.9710
   12.750    5.1711
   12.765    5.4450
   12.780    5.0658
   12.795    4.7183
   12.810    5.0237
   12.825    5.0974
   12.840    5.0026
   12.855    4.6445
   12.870    4.7499
   12.885    4.8131
   12.900    4.7183
   12.915    4.7815
   12.930    4.8341
   12.945    4.5814
   12.960    4.6972
   12.975    4.7183
   12.990    4.9605
   13.005    4.9605
   13.020    4.9921
   13.035    4.9394
   13.050    4.7709
   13.065    4.8131
   13.080    4.8447
   13.095    4.6972
   13.110    4.8131
   13.125    4.8025
   13.140    4.6130
   13.155    4.8236
   13.170    4.4128
   13.185    4.3497
   13.200    4.8447
   13.215    4.7920
   13.230    4.6340
   13.245    4.6340
   13.260    4.6656
   13.275    4.4971
   13.290    4.9184
   13.305    4.7920
   13.320    4.6656
   13.335    4.6867
   13.350    4.3918
   13.365    4.5392
   13.380    4.5603
   13.395    4.9184
   13.410    4.6340
   13.425    4.5498
   13.440    4.9605
   13.455    4.5392
   13.470    4.6551
   13.485    4.7499
   13.500    4.4444
   13.515    4.2127
   13.530    4.3181
   13.545    4.5708
   13.560    4.4760
   13.575    4.7183
   13.590    5.1080
   13.605    4.5498
   13.620    4.6445
   13.635    4.5392
   13.650    4.4971
   13.665    4.7604
   13.680    4.7393
   13.695    4.6445
   13.710    4.7815
   13.725    4.9605
   13.740    4.7183
   13.755    4.9921
   13.770    4.6656
   13.785    4.6656
   13.800    4.8447
   13.815    4.6656
   13.830    4.7815
   13.845    4.6235
   13.860    4.5287
   13.875    5.0132
   13.890    4.9184
   13.905    4.4971
   13.920    4.8131
   13.935    4.8973
   13.950    4.9394
   13.965    4.8236
   13.980    4.7183
   13.995    5.1817
   14.010    4.6340
   14.025    4.6551
   14.040    4.5498
   14.055    4.7920
   14.070    4.5076
   14.085    4.7499
   14.100    4.6972
   14.115    4.5182
   14.130    4.6972
   14.145    4.7709
   14.160    4.7920
   14.175    5.0553
   14.190    5.0132
   14.205    4.8763
   14.220    5.1080
   14.235    5.1080
   14.250    4.8341
   14.265    4.7288
   14.280    4.6972
   14.295    4.9921
   14.310    4.8763
   14.325    5.0342
   14.340    4.7815
   14.355    4.8868
   14.370    4.8973
   14.385    5.1922
   14.400    4.8341
   14.415    4.8657
   14.430    5.1501
   14.445    5.1080
   14.460    4.8341
   14.475    4.9710
   14.490    4.8341
   14.505    4.9710
   14.520    5.1711
   14.535    5.0553
   14.550    4.6761
   14.565    4.8447
   14.580    5.0132
   14.595    4.8341
   14.610    4.7920
   14.625    4.7815
   14.640    5.0869
   14.655    5.0026
   14.670    4.9289
   14.685    4.7709
   14.700    4.6551
   14.715    4.7709
   14.730    4.3602
   14.745    4.6024
   14.760    4.3813
   14.775    4.4550
   14.790    4.7288
   14.805    4.8973
   14.820    4.7077
   14.835    4.5287
   14.850    4.7393
   14.865    4.5814
   14.880    4.7183
   14.895    4.5392
   14.910    4.5708
   14.925    4.7183
   14.940    4.8973
   14.955    4.5919
   14.970    4.8868
   14.985    4.5919
   15.000    4.8341
   15.015    4.6551
   15.030    4.6445
   15.045    4.6551
   15.060    4.7920
   15.075    4.9289
   15.090    4.5708
   15.105    4.6551
   15.120    4.7709
   15.135    4.8131
   15.150    4.8131
   15.165    4.5919
   15.180    4.4760
   15.195    4.6867
   15.210    4.4971
   15.225    4.1917
   15.240    4.5076
   15.255    4.6551
   15.270    4.7499
   15.285    4.6656
   15.300    4.4760
   15.315    4.6656
   15.330    4.6024
   15.345    4.5814
   15.360    4.6656
   15.375    4.5392
   15.390    4.3075
   15.405    4.4339
   15.420    4.4550
   15.435    4.4971
   15.450    4.4760
   15.465    4.5182
   15.480    4.5708
   15.495    4.5919
   15.510    4.3497
   15.525    4.2022
   15.540    4.4550
   15.555    4.8973
   15.570    4.7815
   15.585    4.7183
   15.600    4.2233
   15.615    4.4655
   15.630    4.4550
   15.645    4.6024
   15.660    4.3707
   15.675    4.4339
   15.690    4.8552
   15.705    4.6235
   15.720    4.4866
   15.735    4.4444
   15.750    4.4339
   15.765    4.5076
   15.780    4.4339
   15.795    4.4866
   15.810    4.4971
   15.825    4.3602
   15.840    4.5603
   15.855    4.5708
   15.870    4.5076
   15.885    4.6340
   15.900    4.4971
   15.915    4.4444
   15.930    4.5603
   15.945    4.6761
   15.960    4.4655
   15.975    4.1496
   15.990    4.5814
   16.005    4.5392
   16.020    4.3813
   16.035    4.9605
   16.050    4.5708
   16.065    4.4760
   16.080    4.6024
   16.095    5.1395
   16.110    4.7815
   16.125    4.4971
   16.140    4.6656
   16.155    4.4655
   16.170    4.2970
   16.185    4.5919
   16.200    4.6656
   16.215    4.6867
   16.230    4.3391
   16.245    4.7183
   16.260    4.5498
   16.275    4.5392
   16.290    4.4339
   16.305    4.6972
   16.320    4.7499
   16.335    4.6130
   16.350    4.5287
   16.365    4.7077
   16.380    4.6024
   16.395    4.8763
   16.410    4.4234
   16.425    4.6445
   16.440    4.7393
   16.455    4.5182
   16.470    4.7077
   16.485    4.2759
   16.500    4.5708
   16.515    4.7077
   16.530    4.8447
   16.545    4.6024
   16.560    4.8552
   16.575    4.4550
   16.590    4.4760
   16.605    4.5498
   16.620    4.6340
   16.635    4.6761
   16.650    4.4550
   16.665    4.5708
   16.680    4.6235
   16.695    4.4023
   16.710    4.6445
   16.725    4.7815
   16.740    4.6761
   16.755    4.4655
   16.770    4.6761
   16.785    4.6761
   16.800    4.4760
   16.815    4.6972
   16.830    4.7499
   16.845    4.6551
   16.860    4.6867
   16.875    4.4444
   16.890    4.3918
   16.905    4.4655
   16.920    4.4866
   16.935    4.7077
   16.950    4.2549
   16.965    4.8236
   16.980    4.4444
   16.995    4.5814
   17.010    4.6340
   17.025    4.7604
   17.040    4.2865
   17.055    4.3181
   17.070    4.2654
   17.085    4.6656
   17.100    4.7077
   17.115    4.5498
   17.130    4.7288
   17.145    4.6340
   17.160    4.4971
   17.175    4.6867
   17.190    4.7077
   17.205    4.5287
   17.220    4.4234
   17.235    4.2233
   17.250    4.4339
   17.265    4.5076
   17.280    4.6024
   17.295    4.6235
   17.310    4.2865
   17.325    4.4234
   17.340    4.4128
   17.355    4.4444
   17.370    4.5603
   17.385    4.5287
   17.400    4.2654
   17.415    4.5919
   17.430    4.6656
   17.445    4.4339
   17.460    4.6024
   17.475    4.5814
   17.490    4.2970
   17.505    4.5076
   17.520    4.6445
   17.535    4.6972
   17.550    4.6972
   17.565    4.6235
   17.580    4.4339
   17.595    4.6656
   17.610    4.3602
   17.625    4.2970
   17.640    4.3497
   17.655    4.5814
   17.670    4.5182
   17.685    4.3391
   17.700    4.5182
   17.715    4.6024
   17.730    4.2233
   17.745    4.4655
   17.760    4.6024
   17.775    4.5814
   17.790    4.6340
   17.805    4.4866
   17.820    4.6761
   17.835    4.6130
   17.850    4.2549
   17.865    4.4339
   17.880    4.3391
   17.895    4.7077
   17.910    4.3813
   17.925    4.4128
   17.940    4.3813
   17.955    4.9078
   17.970    4.5498
   17.985    4.4128
   18.000    4.3391
   18.015    4.4760
   18.030    4.6235
   18.045    4.6867
   18.060    4.6445
   18.075    4.6024
   18.090    4.3813
   18.105    4.2970
   18.120    4.5498
   18.135    4.6761
   18.150    4.1601
   18.165    4.2338
   18.180    4.6340
   18.195    4.7288
   18.210    4.4866
   18.225    4.4023
   18.240    4.5708
   18.255    4.3602
   18.270    4.4234
   18.285    4.4023
   18.300    4.3286
   18.315    4.8131
   18.330    4.6445
   18.345    4.5076
   18.360    4.5287
   18.375    4.3286
   18.390    4.5392
   18.405    4.7499
   18.420    4.6340
   18.435    4.6130
   18.450    4.4128
   18.465    4.5603
   18.480    4.4339
   18.495    4.7077
   18.510    4.3497
   18.525    4.5919
   18.540    4.5814
   18.555    4.4866
   18.570    4.8236
   18.585    4.2443
   18.600    4.4550
   18.615    4.4655
   18.630    4.6024
   18.645    4.2654
   18.660    4.4444
   18.675    4.4023
   18.690    4.5182
   18.705    4.8131
   18.720    4.3181
   18.735    4.2127
   18.750    4.4760
   18.765    4.2549
   18.780    4.3497
   18.795    4.6445
   18.810    4.7288
   18.825    4.6761
   18.840    4.4550
   18.855    4.3391
   18.870    4.4023
   18.885    4.5182
   18.900    4.5182
   18.915    4.4971
   18.930    4.6551
   18.945    4.4339
   18.960    4.3497
   18.975    4.3918
   18.990    4.7393
   19.005    4.8025
   19.020    4.7604
   19.035    4.7920
   19.050    4.5498
   19.065    4.4971
   19.080    4.4444
   19.095    4.6445
   19.110    4.7393
   19.125    4.7183
   19.140    4.8763
   19.155    4.6551
   19.170    4.5603
   19.185    4.5182
   19.200    4.6130
   19.215    4.6235
   19.230    4.3286
   19.245    4.3813
   19.260    4.7288
   19.275    4.2022
   19.290    4.5287
   19.305    4.7815
   19.320    4.4339
   19.335    4.5603
   19.350    4.4128
   19.365    4.5392
   19.380    4.6867
   19.395    4.5919
   19.410    4.7077
   19.425    4.7604
   19.440    4.3707
   19.455    4.2970
   19.470    4.5708
   19.485    4.7499
   19.500    4.7183
   19.515    4.5287
   19.530    4.4128
   19.545    4.4971
   19.560    4.5392
   19.575    4.6340
   19.590    4.4866
   19.605    4.5498
   19.620    4.4444
   19.635    4.7499
   19.650    4.6130
   19.665    4.5708
   19.680    4.5287
   19.695    4.6445
   19.710    4.4971
   19.725    4.4234
   19.740    4.4234
   19.755    4.4655
   19.770    4.7499
   19.785    4.6761
   19.800    4.6445
   19.815    4.5708
   19.830    4.6130
   19.845    4.6445
   19.860    4.4234
   19.875    4.6130
   19.890    4.5603
   19.905    4.6340
   19.920    4.6656
   19.935    4.5392
   19.950    4.4128
   19.965    4.6445
   19.980    4.5919
   19.995    4.2865
   20.010    4.6867
   20.025    4.3918
   20.040    4.4339
   20.055    4.5603
   20.070    4.4339
   20.085    4.7499
   20.100    4.3602
   20.115    4.6130
   20.130    4.6235
   20.145    4.5287
   20.160    4.3813
   20.175    4.5392
   20.190    4.4971
   20.205    4.2970
   20.220    4.4971
   20.235    4.5392
   20.250    4.3075
   20.265    4.7183
   20.280    4.4550
   20.295    4.5498
   20.310    4.5287
   20.325    4.8868
   20.340    4.7288
   20.355    4.8868
   20.370    4.8341
   20.385    4.6445
   20.400    4.3602
   20.415    4.5392
   20.430    4.5076
   20.445    4.3918
   20.460    4.5919
   20.475    4.1706
   20.490    4.2022
   20.505    4.1496
   20.520    4.3813
   20.535    4.5603
   20.550    4.4866
   20.565    4.2549
   20.580    4.4866
   20.595    4.8341
   20.610    4.7183
   20.625    4.8868
   20.640    4.7499
   20.655    4.8131
   20.670    4.4760
   20.685    4.8236
   20.700    4.3075
   20.715    4.5392
   20.730    4.4234
   20.745    4.3707
   20.760    4.2970
   20.775    4.1601
   20.790    4.2233
   20.805    4.3918
   20.820    4.5603
   20.835    4.5182
   20.850    4.3497
   20.865    4.4234
   20.880    4.5498
   20.895    4.5076
   20.910    4.7393
   20.925    4.8025
   20.940    4.6551
   20.955    4.5603
   20.970    4.2443
   20.985    4.4128
   21.000    4.3391
   21.015    4.5498
   21.030    4.5498
   21.045    4.5919
   21.060    4.4866
   21.075    4.6130
   21.090    4.5182
   21.105    4.2970
   21.120    4.4971
   21.135    4.5498
   21.150    4.4128
   21.165    4.5076
   21.180    4.6340
   21.195    4.4128
   21.210    4.5287
   21.225    4.3602
   21.240    4.1601
   21.255    4.7183
   21.270    4.4866
   21.285    4.4971
   21.300    4.4971
   21.315    4.6024
   21.330    4.5287
   21.345    4.4023
   21.360    4.5498
   21.375    4.7183
   21.390    4.4550
   21.405    4.6867
   21.420    4.5287
   21.435    4.0969
   21.450    4.6130
   21.465    4.7183
   21.480    4.5076
   21.495    4.3181
   21.510    4.5603
   21.525    4.4234
   21.540    4.8025
   21.555    4.4550
   21.570    4.4128
   21.585    4.3813
   21.600    4.4339
   21.615    4.6024
   21.630    4.5708
   21.645    4.6130
   21.660    4.3707
   21.675    4.5287
   21.690    4.3286
   21.705    4.2022
   21.720    4.2654
   21.735    4.2127
   21.750    4.5182
   21.765    4.3075
   21.780    4.2443
   21.795    4.2759
   21.810    4.6130
   21.825    4.6340
   21.840    4.1917
   21.855    4.2759
   21.870    4.4444
   21.885    4.3813
   21.900    4.4550
   21.915    4.3602
   21.930    4.3918
   21.945    4.2022
   21.960    4.2022
   21.975    4.4866
   21.990    4.6867
   22.005    4.4760
   22.020    4.5498
   22.035    4.9394
   22.050    4.3813
   22.065    4.4339
   22.080    4.4655
   22.095    4.5182
   22.110    4.6656
   22.125    4.0442
   22.140    4.1601
   22.155    4.1390
   22.170    4.1811
   22.185    4.4550
   22.200    4.5076
   22.215    4.3918
   22.230    4.4234
   22.245    4.1390
   22.260    4.1180
   22.275    4.4128
   22.290    4.3075
   22.305    4.1601
   22.320    4.2759
   22.335    4.4655
   22.350    4.4655
   22.365    4.1285
   22.380    4.2443
   22.395    4.6867
   22.410    4.4866
   22.425    4.1285
   22.440    4.1285
   22.455    4.4550
   22.470    4.3813
   22.485    4.5498
   22.500    4.4866
   22.515    4.3181
   22.530    4.3918
   22.545    4.3391
   22.560    4.1074
   22.575    4.0969
   22.590    4.3497
   22.605    4.2443
   22.620    4.0126
   22.635    4.2127
   22.650    4.0126
   22.665    4.3918
   22.680    4.3075
   22.695    3.9073
   22.710    4.0021
   22.725    4.1390
   22.740    4.1811
   22.755    4.1285
   22.770    4.3602
   22.785    4.0442
   22.800    4.4655
   22.815    4.4971
   22.830    4.3075
   22.845    4.1601
   22.860    4.0337
   22.875    4.2338
   22.890    4.0337
   22.905    4.1390
   22.920    4.0232
   22.935    4.2549
   22.950    4.2654
   22.965    4.4550
   22.980    4.2338
   22.995    4.1285
   23.010    3.8125
   23.025    4.3391
   23.040    4.7393
   23.055    4.2233
   23.070    3.8547
   23.085    4.1706
   23.100    4.3075
   23.115    4.3707
   23.130    4.1601
   23.145    4.0126
   23.160    3.8441
   23.175    3.9600
   23.190    4.2233
   23.205    3.8968
   23.220    4.2338
   23.235    4.2338
   23.250    4.2338
   23.265    4.0337
   23.280    4.0758
   23.295    4.0758
   23.310    4.0864
   23.325    4.0548
   23.340    3.9810
   23.355    3.9600
   23.370    4.2338
   23.385    4.2338
   23.400    4.1917
   23.415    3.9179
   23.430    4.1496
   23.445    4.0758
   23.460    4.0548
   23.475    4.1811
   23.490    4.3391
   23.505    4.3918
   23.520    4.0653
   23.535    3.9284
   23.550    3.9916
   23.565    4.2865
   23.580    4.3918
   23.595    4.2759
   23.610    4.1917
   23.625    3.9600
   23.640    3.7704
   23.655    4.2338
   23.670    4.0653
   23.685    4.2338
   23.700    4.3181
   23.715    4.0337
   23.730    4.3075
   23.745    4.1285
   23.760    3.8652
   23.775    3.8125
   23.790    4.0232
   23.805    3.9389
   23.820    3.9705
   23.835    4.2549
   23.850    4.0969
   23.865    4.1390
   23.880    3.9179
   23.895    3.8547
   23.910    3.8652
   23.925    3.9389
   23.940    3.8336
   23.955    4.1180
   23.970    4.4128
   23.985    3.8441
   24.000    4.2022
   24.015    4.2549
   24.030    3.9810
   24.045    4.0337
   24.060    4.0232
   24.075    4.0548
   24.090    3.7599
   24.105    3.9389
   24.120    4.1180
   24.135    3.9916
   24.150    3.8863
   24.165    4.0232
   24.180    4.2759
   24.195    4.0442
   24.210    4.1706
   24.225    3.9284
   24.240    3.9916
   24.255    4.0126
   24.270    4.1180
   24.285    3.9600
   24.300    3.6546
   24.315    3.9916
   24.330    4.0126
   24.345    3.9389
   24.360    3.9073
   24.375    3.8968
   24.390    4.1285
   24.405    4.0126
   24.420    3.9916
   24.435    4.0864
   24.450    3.9705
   24.465    3.8863
   24.480    4.1390
   24.495    4.0232
   24.510    4.0758
   24.525    4.0864
   24.540    4.1180
   24.555    4.1285
   24.570    4.0442
   24.585    3.9916
   24.600    4.1496
   24.615    4.0864
   24.630    4.0969
   24.645    3.9073
   24.660    3.8125
   24.675    3.8757
   24.690    4.2127
   24.705    3.9705
   24.720    4.1811
   24.735    3.9179
   24.750    3.8863
   24.765    4.0232
   24.780    4.1811
   24.795    4.1285
   24.810    3.8863
   24.825    3.8652
   24.840    3.8863
   24.855    3.8757
   24.870    4.0232
   24.885    4.1917
   24.900    3.9494
   24.915    3.8231
   24.930    3.6546
   24.945    4.0969
   24.960    3.7388
   24.975    3.9810
   24.990    3.9073
   25.005    3.9600
   25.020    4.1811
   25.035    4.0232
   25.050    3.9179
   25.065    3.9810
   25.080    3.7493
   25.095    3.8336
   25.110    4.0442
   25.125    4.0969
   25.140    3.9073
   25.155    3.7915
   25.170    3.7283
   25.185    3.8441
   25.200    3.9073
   25.215    3.8863
   25.230    3.7072
   25.245    3.7809
   25.260    3.9284
   25.275    3.6335
   25.290    3.6967
   25.305    4.0653
   25.320    3.8757
   25.335    3.8020
   25.350    3.8757
   25.365    3.8652
   25.380    3.9073
   25.395    3.9179
   25.410    3.6651
   25.425    3.6651
   25.440    3.6230
   25.455    3.7809
   25.470    3.6019
   25.485    3.5703
   25.500    3.9284
   25.515    4.0442
   25.530    3.9389
   25.545    3.6440
   25.560    3.7704
   25.575    3.7809
   25.590    3.7809
   25.605    3.9284
   25.620    3.9284
   25.635    3.6651
   25.650    3.6335
   25.665    3.8441
   25.680    3.7493
   25.695    3.7704
   25.710    3.7072
   25.725    3.7915
   25.740    3.6756
   25.755    3.6546
   25.770    3.8863
   25.785    3.6546
   25.800    3.8863
   25.815    4.0337
   25.830    3.7283
   25.845    3.8863
   25.860    3.7388
   25.875    3.8863
   25.890    3.9389
   25.905    3.9494
   25.920    3.8336
   25.935    4.1285
   25.950    3.7915
   25.965    3.5176
   25.980    3.5176
   25.995    3.5176
   26.010    3.6335
   26.025    3.8863
   26.040    3.8757
   26.055    3.7388
   26.070    3.9810
   26.085    3.9179
   26.100    3.8547
   26.115    3.4755
   26.130    3.6756
   26.145    3.8441
   26.160    3.5176
   26.175    3.6440
   26.190    3.6862
   26.205    3.6124
   26.220    3.6335
   26.235    3.7283
   26.250    3.6335
   26.265    3.4018
   26.280    3.8231
   26.295    3.9810
   26.310    3.8863
   26.325    3.9494
   26.340    3.5071
   26.355    3.6019
   26.370    3.7177
   26.385    3.5808
   26.400    3.4018
   26.415    3.4334
   26.430    3.6862
   26.445    3.6967
   26.460    3.4544
   26.475    3.8441
   26.490    3.7599
   26.505    3.6546
   26.520    3.2438
   26.535    3.3175
   26.550    3.4018
   26.565    3.8757
   26.580    3.7915
   26.595    3.4439
   26.610    3.7704
   26.625    3.5387
   26.640    3.7599
   26.655    3.6546
   26.670    3.5914
   26.685    3.7809
   26.700    3.6651
   26.715    3.4650
   26.730    3.5492
   26.745    3.5598
   26.760    3.5387
   26.775    3.4966
   26.790    3.7599
   26.805    3.4966
   26.820    3.6124
   26.835    3.4966
   26.850    3.6546
   26.865    3.6651
   26.880    3.6335
   26.895    3.2754
   26.910    3.5492
   26.925    3.6335
   26.940    3.5387
   26.955    3.5492
   26.970    3.4018
   26.985    3.6862
   27.000    3.7599
   27.015    3.6019
   27.030    3.4860
   27.045    3.8020
   27.060    3.4966
   27.075    3.6124
   27.090    3.5176
   27.105    3.2122
   27.120    3.4755
   27.135    3.3913
   27.150    3.6124
   27.165    3.6651
   27.180    3.3070
   27.195    3.4966
   27.210    3.8757
   27.225    3.2543
   27.240    3.2333
   27.255    3.4544
   27.270    3.7177
   27.285    3.4334
   27.300    3.5282
   27.315    3.6335
   27.330    3.5703
   27.345    3.5492
   27.360    3.4544
   27.375    3.6019
   27.390    3.5492
   27.405    3.4966
   27.420    3.5071
   27.435    3.0226
   27.450    3.5492
   27.465    3.8757
   27.480    3.4755
   27.495    3.6862
   27.510    3.2965
   27.525    3.5176
   27.540    3.6230
   27.555    3.6651
   27.570    3.4334
   27.585    3.7493
   27.600    3.7072
   27.615    3.3281
   27.630    3.6440
   27.645    3.4860
   27.660    3.5703
   27.675    3.6862
   27.690    3.4439
   27.705    3.3913
   27.720    3.2017
   27.735    3.4650
   27.750    3.5914
   27.765    3.4650
   27.780    3.3070
   27.795    3.1596
   27.810    3.3491
   27.825    3.4018
   27.840    3.4229
   27.855    3.8652
   27.870    3.2333
   27.885    3.2754
   27.900    3.5387
   27.915    3.4439
   27.930    3.3597
   27.945    3.3913
   27.960    3.5071
   27.975    3.2333
   27.990    3.1912
   28.005    3.6862
   28.020    3.8020
   28.035    3.5808
   28.050    3.4229
   28.065    3.4018
   28.080    3.6019
   28.095    3.6019
   28.110    3.6967
   28.125    3.4544
   28.140    3.6335
   28.155    3.5071
   28.170    3.4334
   28.185    3.6756
   28.200    3.6967
   28.215    3.4860
   28.230    3.3913
   28.245    3.3070
   28.260    3.4755
   28.275    3.3702
   28.290    3.5176
   28.305    3.7809
   28.320    3.6124
   28.335    3.5387
   28.350    3.4229
   28.365    3.2438
   28.380    3.3386
   28.395    3.2859
   28.410    3.4439
   28.425    3.6124
   28.440    3.4123
   28.455    3.5808
   28.470    3.5914
   28.485    3.3597
   28.500    3.2754
   28.515    3.3281
   28.530    3.4755
   28.545    3.1385
   28.560    2.9595
   28.575    3.4544
   28.590    3.6019
   28.605    3.4544
   28.620    3.5703
   28.635    3.5071
   28.650    3.4018
   28.665    3.3386
   28.680    3.3913
   28.695    3.5808
   28.710    3.1701
   28.725    3.2017
   28.740    3.6124
   28.755    3.3491
   28.770    3.4334
   28.785    3.7915
   28.800    3.6335
   28.815    3.5071
   28.830    3.3281
   28.845    3.4966
   28.860    3.4018
   28.875    3.3807
   28.890    3.1806
   28.905    3.1912
   28.920    3.4229
   28.935    3.2649
   28.950    3.6230
   28.965    3.2965
   28.980    3.4966
   28.995    3.1385
   29.010    3.4123
   29.025    3.3386
   29.040    3.3702
   29.055    3.2859
   29.070    3.3281
   29.085    3.3070
   29.100    3.3597
   29.115    3.1174
   29.130    3.2543
   29.145    3.2122
   29.160    3.5492
   29.175    3.3702
   29.190    3.0964
   29.205    3.0964
   29.220    3.0332
   29.235    3.2649
   29.250    3.3491
   29.265    3.4755
   29.280    3.4755
   29.295    3.4229
   29.310    3.3491
   29.325    3.3386
   29.340    3.4966
   29.355    3.5071
   29.370    3.3281
   29.385    3.6230
   29.400    3.3597
   29.415    3.1490
   29.430    2.9700
   29.445    3.3386
   29.460    3.3491
   29.475    2.8963
   29.490    3.2543
   29.505    3.2333
   29.520    3.4334
   29.535    3.2122
   29.550    3.0332
   29.565    3.2754
   29.580    3.3491
   29.595    3.1701
   29.610    3.1490
   29.625    3.1174
   29.640    3.1912
   29.655    2.9173
   29.670    3.0437
   29.685    3.4334
   29.700    3.5914
   29.715    3.3070
   29.730    3.1701
   29.745    3.0542
   29.760    3.3491
   29.775    3.1596
   29.790    3.0542
   29.805    3.1806
   29.820    3.2543
   29.835    3.0753
   29.850    3.0542
   29.865    3.1701
   29.880    2.8225
   29.895    3.0332
   29.910    3.2754
   29.925    3.0964
   29.940    3.0648
   29.955    2.9805
   29.970    2.9595
   29.985    2.7593
   30.000    2.9910
   30.015    2.9068
   30.030    3.1701
   30.045    3.1701
   30.060    3.2438
   30.075    3.4229
   30.090    3.3281
   30.105    2.9384
   30.120    2.4961
   30.135    2.8963
   30.150    3.2965
   30.165    3.1069
   30.180    3.1701
   30.195    3.2333
   30.210    2.9068
   30.225    2.8331
   30.240    3.0016
   30.255    3.1385
   30.270    2.9489
   30.285    3.0753
   30.300    3.0542
   30.315    3.2859
   30.330    3.0542
   30.345    3.2227
   30.360    3.0858
   30.375    3.0437
   30.390    3.0648
   30.405    3.1806
   30.420    3.3070
   30.435    3.2017
   30.450    3.3702
   30.465    3.2017
   30.480    3.2438
   30.495    3.0121
   30.510    3.2649
   30.525    3.2754
   30.540    3.2754
   30.555    3.1596
   30.570    3.0437
   30.585    3.0226
   30.600    3.1174
   30.615    3.2649
   30.630    3.0648
   30.645    2.9700
   30.660    3.1174
   30.675    3.0858
   30.690    3.0648
   30.705    2.8857
   30.720    3.1069
   30.735    3.0542
   30.750    3.1912
   30.765    3.0437
   30.780    2.8120
   30.795    3.0437
   30.810    3.1069
   30.825    3.1912
   30.840    3.0964
   30.855    2.9910
   30.870    3.1385
   30.885    3.0753
   30.900    3.1596
   30.915    3.1280
   30.930    2.8541
   30.945    3.2649
   30.960    3.0226
   30.975    2.9489
   30.990    2.9700
   31.005    2.9910
   31.020    3.3597
   31.035    3.2122
   31.050    3.3597
   31.065    3.1385
   31.080    3.0121
   31.095    3.0332
   31.110    2.9384
   31.125    3.0332
   31.140    3.0332
   31.155    2.8331
   31.170    3.0016
   31.185    2.9910
   31.200    2.8436
   31.215    3.0016
   31.230    3.1069
   31.245    3.0858
   31.260    3.3597
   31.275    3.1174
   31.290    2.9068
   31.305    2.8331
   31.320    2.8857
   31.335    3.2122
   31.350    2.8541
   31.365    3.1280
   31.380    3.0858
   31.395    2.8647
   31.410    2.8752
   31.425    2.8857
   31.440    2.9068
   31.455    2.8541
   31.470    3.1596
   31.485    3.1069
   31.500    2.9805
   31.515    3.1701
   31.530    3.1806
   31.545    3.3175
   31.560    3.0648
   31.575    3.0437
   31.590    2.9279
   31.605    2.9068
   31.620    2.9910
   31.635    3.0121
   31.650    3.0542
   31.665    2.9805
   31.680    2.8015
   31.695    2.9279
   31.710    2.7172
   31.725    2.6224
   31.740    3.0858
   31.755    3.1596
   31.770    3.0753
   31.785    2.8647
   31.800    2.8436
   31.815    2.7067
   31.830    3.0332
   31.845    2.8752
   31.860    2.9173
   31.875    3.0016
   31.890    3.1174
   31.905    3.0121
   31.920    2.9595
   31.935    3.2017
   31.950    3.0226
   31.965    2.8647
   31.980    3.0016
   31.995    2.9489
   32.010    2.9805
   32.025    3.0226
   32.040    3.2122
   32.055    2.8857
   32.070    3.1280
   32.085    3.2859
   32.100    3.0542
   32.115    3.0016
   32.130    2.8120
   32.145    2.9384
   32.160    2.9173
   32.175    2.9805
   32.190    2.8436
   32.205    2.9805
   32.220    2.9805
   32.235    2.8541
   32.250    2.8436
   32.265    3.1069
   32.280    2.7699
   32.295    3.0437
   32.310    2.9910
   32.325    2.9279
   32.340    2.7909
   32.355    2.8541
   32.370    2.8120
   32.385    2.8331
   32.400    2.8436
   32.415    3.0753
   32.430    3.0964
   32.445    2.9595
   32.460    2.8225
   32.475    2.7278
   32.490    2.8225
   32.505    2.8857
   32.520    2.6435
   32.535    2.8015
   32.550    2.7699
   32.565    2.7172
   32.580    3.1490
   32.595    3.0648
   32.610    2.8225
   32.625    2.8225
   32.640    2.9700
   32.655    3.1806
   32.670    3.1280
   32.685    2.8541
   32.700    2.6014
   32.715    2.9384
   32.730    2.7383
   32.745    2.6330
   32.760    2.7488
   32.775    2.9173
   32.790    2.7383
   32.805    2.8647
   32.820    2.8752
   32.835    2.8647
   32.850    2.8120
   32.865    3.1701
   32.880    2.8015
   32.895    2.7278
   32.910    2.6856
   32.925    2.8225
   32.940    2.9173
   32.955    2.6330
   32.970    2.8120
   32.985    2.7278
   33.000    2.6856
   33.015    2.9595
   33.030    2.9595
   33.045    2.8436
   33.060    2.7804
   33.075    3.2122
   33.090    2.8752
   33.105    2.8963
   33.120    2.6646
   33.135    2.7699
   33.150    2.7804
   33.165    2.7278
   33.180    2.8541
   33.195    3.0437
   33.210    2.9805
   33.225    3.0648
   33.240    2.7172
   33.255    2.6751
   33.270    2.6751
   33.285    3.0332
   33.300    2.7804
   33.315    2.7699
   33.330    3.1280
   33.345    2.9700
   33.360    2.7909
   33.375    2.7488
   33.390    2.8120
   33.405    2.8331
   33.420    2.6856
   33.435    2.9489
   33.450    2.8225
   33.465    2.9279
   33.480    2.7699
   33.495    2.5592
   33.510    2.8015
   33.525    2.8015
   33.540    2.7804
   33.555    2.8331
   33.570    2.9068
   33.585    3.0226
   33.600    2.6435
   33.615    2.6962
   33.630    2.8541
   33.645    3.2438
   33.660    2.7593
   33.675    2.5382
   33.690    2.5276
   33.705    2.6435
   33.720    2.8541
   33.735    2.6962
   33.750    2.7804
   33.765    2.8647
   33.780    2.7278
   33.795    2.7488
   33.810    2.6224
   33.825    2.8541
   33.840    2.9805
   33.855    2.7593
   33.870    2.9910
   33.885    2.6435
   33.900    2.6962
   33.915    2.8225
   33.930    2.9595
   33.945    2.8963
   33.960    2.9279
   33.975    2.8436
   33.990    2.5276
   34.005    2.6856
   34.020    2.7488
   34.035    2.8752
   34.050    2.8331
   34.065    2.9700
   34.080    2.8963
   34.095    2.6646
   34.110    2.7067
   34.125    2.9068
   34.140    2.7488
   34.155    2.5382
   34.170    2.8647
   34.185    2.8225
   34.200    2.7593
   34.215    2.7172
   34.230    2.7278
   34.245    2.6119
   34.260    2.9384
   34.275    2.7699
   34.290    2.6540
   34.305    2.8436
   34.320    3.1174
   34.335    2.7593
   34.350    2.6224
   34.365    2.8120
   34.380    2.5698
   34.395    2.7699
   34.410    2.5382
   34.425    2.7172
   34.440    2.8436
   34.455    2.9595
   34.470    2.9910
   34.485    3.0016
   34.500    2.9910
   34.515    2.8436
   34.530    2.8857
   34.545    2.8225
   34.560    2.8225
   34.575    2.8436
   34.590    2.7699
   34.605    2.7804
   34.620    2.9173
   34.635    2.9384
   34.650    2.6646
   34.665    2.6540
   34.680    2.8541
   34.695    2.6751
   34.710    2.6962
   34.725    2.6751
   34.740    2.8436
   34.755    2.6751
   34.770    2.8436
   34.785    2.8647
   34.800    2.6856
   34.815    3.0964
   34.830    2.8120
   34.845    2.8225
   34.860    2.8436
   34.875    2.8857
   34.890    2.7067
   34.905    2.7699
   34.920    2.7383
   34.935    2.8225
   34.950    2.7909
   34.965    2.7593
   34.980    2.7278
   34.995    2.8436
   35.010    2.7278
   35.025    2.5908
   35.040    2.8436
   35.055    2.8331
   35.070    2.8752
   35.085    2.7699
   35.100    2.8331
   35.115    2.7278
   35.130    2.8015
   35.145    3.0858
   35.160    2.9489
   35.175    2.8541
   35.190    2.6856
   35.205    2.6330
   35.220    2.8647
   35.235    2.9384
   35.250    2.7278
   35.265    2.8331
   35.280    2.9068
   35.295    3.2333
   35.310    2.7909
   35.325    2.4855
   35.340    2.7909
   35.355    2.7172
   35.370    2.6751
   35.385    2.7488
   35.400    2.6540
   35.415    2.3907
   35.430    2.5171
   35.445    2.8120
   35.460    2.9068
   35.475    2.6224
   35.490    2.6646
   35.505    2.7067
   35.520    2.7804
   35.535    2.7172
   35.550    2.6224
   35.565    2.5592
   35.580    2.7488
   35.595    2.5908
   35.610    2.5803
   35.625    2.6224
   35.640    2.6119
   35.655    2.4118
   35.670    2.4855
   35.685    2.8541
   35.700    2.8436
   35.715    2.7593
   35.730    2.7593
   35.745    2.8225
   35.760    2.4539
   35.775    2.4855
   35.790    2.6224
   35.805    2.6224
   35.820    2.8963
   35.835    2.6751
   35.850    2.6014
   35.865    2.6751
   35.880    2.6856
   35.895    2.7804
   35.910    2.6435
   35.925    2.6856
   35.940    2.8015
   35.955    2.8120
   35.970    2.6224
   35.985    2.9384
   36.000    2.5066
   36.015    2.8225
   36.030    3.0332
   36.045    2.5698
   36.060    2.9173
   36.075    2.7593
   36.090    3.0437
   36.105    2.8857
   36.120    2.8541
   36.135    2.9805
   36.150    2.8752
   36.165    2.5908
   36.180    2.5698
   36.195    2.4223
   36.210    2.5803
   36.225    2.6330
   36.240    2.6856
   36.255    2.4434
   36.270    2.6330
   36.285    2.6224
   36.300    2.6646
   36.315    2.8647
   36.330    2.8541
   36.345    2.6224
   36.360    2.7804
   36.375    2.7488
   36.390    2.5592
   36.405    2.4539
   36.420    2.6962
   36.435    2.6119
   36.450    2.6751
   36.465    2.7804
   36.480    2.9595
   36.495    2.7383
   36.510    2.6856
   36.525    2.5066
   36.540    2.7699
   36.555    2.8225
   36.570    2.6435
   36.585    2.7383
   36.600    2.6119
   36.615    2.7383
   36.630    2.9700
   36.645    2.7172
   36.660    2.7488
   36.675    2.7699
   36.690    2.7909
   36.705    2.8331
   36.720    2.6540
   36.735    2.7278
   36.750    2.4855
   36.765    2.7278
   36.780    2.8331
   36.795    2.7488
   36.810    2.4223
   36.825    2.5276
   36.840    2.7172
   36.855    2.8120
   36.870    2.8752
   36.885    2.7699
   36.900    2.6751
   36.915    2.9279
   36.930    2.6014
   36.945    2.6751
   36.960    2.8331
   36.975    2.6646
   36.990    2.5171
   37.005    2.6646
   37.020    2.6330
   37.035    2.7804
   37.050    2.7909
   37.065    2.5908
   37.080    2.7804
   37.095    2.7278
   37.110    2.6014
   37.125    2.7067
   37.140    2.7699
   37.155    2.4750
   37.170    2.5908
   37.185    2.3591
   37.200    2.4855
   37.215    2.7172
   37.230    2.4539
   37.245    2.4645
   37.260    2.6119
   37.275    2.7278
   37.290    2.5592
   37.305    2.7172
   37.320    2.5592
   37.335    2.5276
   37.350    2.6330
   37.365    2.5908
   37.380    2.7593
   37.395    2.6646
   37.410    2.6224
   37.425    2.6224
   37.440    2.7488
   37.455    2.6540
   37.470    2.7278
   37.485    2.7172
   37.500    2.7488
   37.515    2.7172
   37.530    2.7699
   37.545    2.6646
   37.560    2.8120
   37.575    2.7383
   37.590    2.7172
   37.605    2.5276
   37.620    2.6330
   37.635    2.5698
   37.650    2.6856
   37.665    2.8225
   37.680    2.7593
   37.695    2.7593
   37.710    2.8436
   37.725    2.7804
   37.740    2.6224
   37.755    2.2854
   37.770    2.3907
   37.785    2.4645
   37.800    2.5382
   37.815    2.5803
   37.830    2.5487
   37.845    2.7804
   37.860    2.6540
   37.875    2.7909
   37.890    2.5382
   37.905    2.7804
   37.920    2.6119
   37.935    2.7593
   37.950    2.8225
   37.965    2.7278
   37.980    2.9805
   37.995    2.5803
   38.010    2.6962
   38.025    2.7909
   38.040    2.5698
   38.055    2.6330
   38.070    2.8120
   38.085    2.3697
   38.100    2.5487
   38.115    2.6014
   38.130    2.5171
   38.145    2.7699
   38.160    2.4434
   38.175    2.4750
   38.190    2.6330
   38.205    2.5487
   38.220    2.6224
   38.235    2.6540
   38.250    2.6646
   38.265    2.6646
   38.280    2.6856
   38.295    2.6014
   38.310    2.7383
   38.325    2.5698
   38.340    2.7488
   38.355    2.5592
   38.370    2.4645
   38.385    2.5487
   38.400    2.3486
   38.415    2.4329
   38.430    2.5698
   38.445    2.6014
   38.460    2.9910
   38.475    2.7488
   38.490    2.4961
   38.505    2.3381
   38.520    2.6224
   38.535    2.7172
   38.550    2.7699
   38.565    2.6119
   38.580    2.6435
   38.595    2.7909
   38.610    2.6751
   38.625    2.6962
   38.640    2.8541
   38.655    2.8436
   38.670    2.8120
   38.685    2.7488
   38.700    2.5803
   38.715    2.7699
   38.730    2.5592
   38.745    2.5382
   38.760    2.4855
   38.775    2.6751
   38.790    2.6856
   38.805    2.5171
   38.820    2.7067
   38.835    2.5592
   38.850    2.5698
   38.865    2.4855
   38.880    2.4961
   38.895    2.4750
   38.910    2.6224
   38.925    2.9489
   38.940    2.7909
   38.955    2.6119
   38.970    2.7172
   38.985    2.6224
   39.000    2.4329
   39.015    2.6119
   39.030    2.6646
   39.045    2.9068
   39.060    2.5803
   39.075    2.6646
   39.090    2.5698
   39.105    2.6435
   39.120    2.7172
   39.135    2.4750
   39.150    2.7067
   39.165    2.4961
   39.180    2.5592
   39.195    2.4961
   39.210    2.6119
   39.225    2.6224
   39.240    2.3486
   39.255    2.3065
   39.270    2.4013
   39.285    2.5803
   39.300    2.4855
   39.315    2.8331
   39.330    2.7804
   39.345    2.7909
   39.360    2.6962
   39.375    2.7593
   39.390    2.6856
   39.405    2.7699
   39.420    2.6856
   39.435    2.6646
   39.450    2.6435
   39.465    2.5487
   39.480    2.6014
   39.495    2.6751
   39.510    2.6646
   39.525    2.7278
   39.540    2.6330
   39.555    2.6962
   39.570    2.7909
   39.585    2.4645
   39.600    2.2538
   39.615    2.4750
   39.630    2.6014
   39.645    2.5276
   39.660    2.9279
   39.675    2.7172
   39.690    2.6856
   39.705    2.7172
   39.720    2.6540
   39.735    2.9279
   39.750    2.5908
   39.765    2.7067
   39.780    2.5382
   39.795    2.6751
   39.810    2.6014
   39.825    2.7488
   39.840    2.3697
   39.855    2.2854
   39.870    2.4329
   39.885    2.5382
   39.900    2.7909
   39.915    2.7383
   39.930    2.3907
   39.945    2.6014
   39.960    2.8225
   39.975    2.7067
   39.990    2.7278
