    1.500    8.2504
    1.515    8.4644
    1.530    8.0364
    1.545    7.8224
    1.560    7.8331
    1.575    8.0257
    1.590    7.8973
    1.605    7.6726
    1.620    7.1161
    1.635    7.2659
    1.650    7.3515
    1.665    7.1696
    1.680    7.2338
    1.695    6.8165
    1.710    6.8058
    1.725    6.3456
    1.740    6.6881
    1.755    6.1316
    1.770    6.4205
    1.785    6.2600
    1.800    5.9497
    1.815    6.3028
    1.830    6.1851
    1.845    5.8427
    1.860    5.7036
    1.875    5.4468
    1.890    5.3719
    1.905    5.4040
    1.920    5.2327
    1.935    4.9759
    1.950    5.2327
    1.965    5.6287
    1.980    5.1685
    1.995    5.1685
    2.010    4.8047
    2.025    5.1043
    2.040    4.9973
    2.055    4.6228
    2.070    4.6442
    2.085    4.7084
    2.100    4.2804
    2.115    4.8154
    2.130    4.7298
    2.145    4.6977
    2.160    4.3660
    2.175    4.6014
    2.190    4.5693
    2.205    4.3874
    2.220    4.3553
    2.235    4.2697
    2.250    4.2055
    2.265    4.2483
    2.280    4.3874
    2.295    4.2055
    2.310    4.2590
    2.325    4.1734
    2.340    4.2269
    2.355    3.8523
    2.370    3.7881
    2.385    3.6597
    2.400    3.8951
    2.415    3.7774
    2.430    3.8523
    2.445    4.2590
    2.460    4.0984
    2.475    4.0128
    2.490    4.0663
    2.505    3.7988
    2.520    3.6704
    2.535    3.9379
    2.550    3.5313
    2.565    3.5634
    2.580    3.5313
    2.595    3.7025
    2.610    3.3708
    2.625    3.3815
    2.640    3.5955
    2.655    3.5741
    2.670    3.4457
    2.685    3.6597
    2.700    3.7667
    2.715    3.5848
    2.730    3.6704
    2.745    3.1568
    2.760    3.3387
    2.775    3.5099
    2.790    3.7025
    2.805    3.7881
    2.820    3.5634
    2.835    3.5955
    2.850    3.6704
    2.865    3.4457
    2.880    3.5634
    2.895    3.6062
    2.910    3.8737
    2.925    3.7988
    2.940    3.8202
    2.955    3.9058
    2.970    3.7132
    2.985    3.6704
    3.000    3.8523
    3.015    3.8844
    3.030    3.9593
    3.045    3.7239
    3.060    3.7560
    3.075    4.1091
    3.090    4.1948
    3.105    3.7667
    3.120    3.9486
    3.135    4.2697
    3.150    3.7560
    3.165    3.9700
    3.180    3.8630
    3.195    3.9165
    3.210    4.2269
    3.225    4.1413
    3.240    3.9700
    3.255    4.1841
    3.270    4.4302
    3.285    4.0556
    3.300    4.3446
    3.315    4.3446
    3.330    4.5051
    3.345    4.4623
    3.360    4.9010
    3.375    4.9973
    3.390    5.0722
    3.405    5.1899
    3.420    5.3505
    3.435    5.4575
    3.450    5.4254
    3.465    5.5538
    3.480    5.8641
    3.495    5.8748
    3.510    5.3719
    3.525    6.1102
    3.540    6.3670
    3.555    6.5383
    3.570    6.5597
    3.585    7.2017
    3.600    7.0519
    3.615    7.3515
    3.630    7.4371
    3.645    7.8010
    3.660    7.5976
    3.675    8.5393
    3.690    8.9460
    3.705    8.8925
    3.720    9.6094
    3.735    9.5773
    3.750   10.2301
    3.765   10.4120
    3.780   10.9898
    3.795   11.6105
    3.810   11.9957
    3.825   12.9053
    3.840   13.3119
    3.855   14.0610
    3.870   14.8422
    3.885   15.3451
    3.900   16.2654
    3.915   17.3355
    3.930   19.2937
    3.945   19.3044
    3.960   20.4387
    3.975   21.7764
    3.990   23.1568
    4.005   23.4136
    4.020   24.4195
    4.035   23.7881
    4.050   23.1568
    4.065   21.7228
    4.080   19.7004
    4.095   18.0417
    4.110   15.8802
    4.125   14.0824
    4.140   13.7186
    4.155   13.4082
    4.170   12.8090
    4.185   12.3489
    4.200   13.1407
    4.215   13.2370
    4.230   12.8411
    4.245   13.6330
    4.260   14.0503
    4.275   14.4997
    4.290   15.4628
    4.305   15.1204
    4.320   15.8909
    4.335   16.2975
    4.350   17.7314
    4.365   18.9727
    4.380   19.9251
    4.395   22.0225
    4.410   23.9914
    4.425   25.0936
    4.440   27.4692
    4.455   30.4441
    4.470   32.2632
    4.485   38.1059
    4.500   44.4302
    4.515   51.7496
    4.530   56.3403
    4.545   47.9615
    4.560   28.4323
    4.575   15.2916
    4.590   10.3264
    4.605    9.3954
    4.620    7.7796
    4.635    7.6726
    4.650    7.7796
    4.665    7.4799
    4.680    7.6083
    4.695    7.7154
    4.710    7.7475
    4.725    7.3301
    4.740    8.2290
    4.755    7.8438
    4.770    7.5548
    4.785    7.9615
    4.800    7.9722
    4.815    8.0043
    4.830    7.8117
    4.845    7.9401
    4.860    7.5762
    4.875    7.5655
    4.890    7.3515
    4.905    7.6619
    4.920    7.4478
    4.935    6.6881
    4.950    6.5383
    4.965    6.6239
    4.980    6.0995
    4.995    5.8213
    5.010    5.3933
    5.025    5.0401
    5.040    5.0187
    5.055    4.2483
    5.070    4.2483
    5.085    4.2055
    5.100    3.8523
    5.115    4.0021
    5.130    3.4778
    5.145    3.4136
    5.160    3.1568
    5.175    2.8785
    5.190    3.0391
    5.205    2.5682
    5.220    2.6217
    5.235    2.4826
    5.250    2.3970
    5.265    2.2686
    5.280    2.4398
    5.295    2.2044
    5.310    1.9797
    5.325    2.1830
    5.340    1.8513
    5.355    1.8299
    5.370    2.0546
    5.385    1.7871
    5.400    1.7764
    5.415    1.8513
    5.430    1.9797
    5.445    1.7871
    5.460    1.6051
    5.475    1.7764
    5.490    1.7121
    5.505    1.5623
    5.520    1.6479
    5.535    1.5623
    5.550    1.7442
    5.565    1.5837
    5.580    1.5516
    5.595    1.5088
    5.610    1.6479
    5.625    1.6907
    5.640    1.5302
    5.655    1.5088
    5.670    1.6586
    5.685    1.7228
    5.700    1.6051
    5.715    1.3162
    5.730    1.3483
    5.745    1.4339
    5.760    1.5730
    5.775    1.5195
    5.790    1.4981
    5.805    1.6372
    5.820    1.8406
    5.835    1.6907
    5.850    1.5516
    5.865    1.5623
    5.880    1.6265
    5.895    1.6693
    5.910    1.8513
    5.925    1.7764
    5.940    1.8192
    5.955    1.7871
    5.970    1.7549
    5.985    1.8299
    6.000    1.9583
    6.015    1.8834
    6.030    1.9690
    6.045    2.2258
    6.060    2.2579
    6.075    2.1616
    6.090    2.4505
    6.105    2.3970
    6.120    2.3114
    6.135    2.3221
    6.150    2.4184
    6.165    2.3756
    6.180    2.7822
    6.195    2.7822
    6.210    2.8785
    6.225    3.0926
    6.240    3.3173
    6.255    3.2424
    6.270    3.5634
    6.285    3.7239
    6.300    4.1199
    6.315    4.2911
    6.330    4.5586
    6.345    5.5538
    6.360    6.2600
    6.375    7.2980
    6.390    8.7105
    6.405    9.6094
    6.420   10.0910
    6.435    7.6297
    6.450    4.3767
    6.465    2.6538
    6.480    1.7764
    6.495    1.4553
    6.510    1.2841
    6.525    1.4018
    6.540    1.1450
    6.555    1.1878
    6.570    1.1022
    6.585    1.0594
    6.600    1.1771
    6.615    1.1236
    6.630    1.1878
    6.645    1.0915
    6.660    0.9952
    6.675    1.1878
    6.690    1.1771
    6.705    1.1343
    6.720    1.1557
    6.735    1.0059
    6.750    1.1129
    6.765    1.0808
    6.780    0.9524
    6.795    0.9845
    6.810    1.0059
    6.825    1.1022
    6.840    0.9845
    6.855    1.1022
    6.870    1.1022
    6.885    1.0166
    6.900    1.1022
    6.915    0.9738
    6.930    0.9952
    6.945    0.9631
    6.960    0.9417
    6.975    1.0166
    6.990    0.9631
    7.005    0.9203
    7.020    1.0273
    7.035    1.1343
    7.050    1.1022
    7.065    1.0808
    7.080    1.1129
    7.095    1.0701
    7.110    1.0594
    7.125    1.0059
    7.140    1.0487
    7.155    1.0594
    7.170    1.0594
    7.185    1.0701
    7.200    1.1343
    7.215    1.0059
    7.230    1.1236
    7.245    1.1022
    7.260    1.0380
    7.275    1.1236
    7.290    0.9738
    7.305    0.9738
    7.320    0.9096
    7.335    0.9845
    7.350    0.9524
    7.365    0.9845
    7.380    0.9524
    7.395    1.0487
    7.410    1.2627
    7.425    1.1236
    7.440    0.9310
    7.455    0.9096
    7.470    1.1557
    7.485    1.2092
    7.500    0.9417
    7.515    0.9310
    7.530    1.1664
    7.545    1.1664
    7.560    1.0915
    7.575    0.9096
    7.590    1.0273
    7.605    1.2520
    7.620    1.2841
    7.635    1.1557
    7.650    1.3269
    7.665    1.1450
    7.680    1.4874
    7.695    1.2734
    7.710    1.2199
    7.725    1.2627
    7.740    1.2734
    7.755    1.4874
    7.770    1.5516
    7.785    1.5302
    7.800    1.6907
    7.815    1.7121
    7.830    2.0225
    7.845    2.0867
    7.860    2.3007
    7.875    2.0867
    7.890    2.1509
    7.905    1.8299
    7.920    1.7871
    7.935    1.8727
    7.950    1.9262
    7.965    2.0118
    7.980    2.3007
    7.995    2.4505
    8.010    2.3542
    8.025    2.2472
    8.040    2.4612
    8.055    2.8571
    8.070    2.8892
    8.085    2.8036
    8.100    2.6110
    8.115    2.5682
    8.130    2.3649
    8.145    2.2258
    8.160    2.0332
    8.175    1.8085
    8.190    1.6693
    8.205    1.6051
    8.220    1.3590
    8.235    1.5623
    8.250    1.1236
    8.265    1.1557
    8.280    1.1022
    8.295    1.0915
    8.310    1.1022
    8.325    0.9203
    8.340    1.0166
    8.355    1.1450
    8.370    0.9524
    8.385    0.9417
    8.400    1.0059
    8.415    1.0594
    8.430    1.0701
    8.445    0.9203
    8.460    1.0380
    8.475    1.0380
    8.490    1.0808
    8.505    1.1129
    8.520    1.0808
    8.535    0.8989
    8.550    1.1129
    8.565    1.0915
    8.580    1.2520
    8.595    1.0915
    8.610    0.9310
    8.625    1.2092
    8.640    1.0380
    8.655    1.1343
    8.670    0.9417
    8.685    0.9952
    8.700    0.9738
    8.715    0.9845
    8.730    1.0487
    8.745    1.1236
    8.760    1.0273
    8.775    1.0166
    8.790    1.1664
    8.805    1.1771
    8.820    1.0915
    8.835    1.2734
    8.850    1.4018
    8.865    1.3697
    8.880    1.3162
    8.895    1.5623
    8.910    1.4339
    8.925    1.4446
    8.940    1.7442
    8.955    1.7121
    8.970    1.8299
    8.985    1.9369
    9.000    2.1402
    9.015    2.2579
    9.030    2.5040
    9.045    3.0070
    9.060    3.4671
    9.075    4.1627
    9.090    3.7346
    9.105    3.1033
    9.120    2.2793
    9.135    1.5088
    9.150    1.3162
    9.165    1.2092
    9.180    1.1985
    9.195    1.0273
    9.210    1.0166
    9.225    1.1450
    9.240    1.0915
    9.255    0.9952
    9.270    1.1236
    9.285    1.1664
    9.300    0.9845
    9.315    1.0594
    9.330    1.0915
    9.345    1.2413
    9.360    1.2413
    9.375    1.2734
    9.390    1.4018
    9.405    1.2199
    9.420    1.1343
    9.435    1.1771
    9.450    1.3697
    9.465    1.3269
    9.480    1.2306
    9.495    1.3804
    9.510    1.2199
    9.525    1.0487
    9.540    1.1557
    9.555    1.3804
    9.570    1.4446
    9.585    1.1771
    9.600    1.2520
    9.615    1.3697
    9.630    1.4232
    9.645    1.3804
    9.660    1.1985
    9.675    1.2520
    9.690    1.1450
    9.705    1.2734
    9.720    1.3376
    9.735    1.3055
    9.750    1.3911
    9.765    1.3376
    9.780    1.1985
    9.795    1.3483
    9.810    1.2734
    9.825    1.3483
    9.840    1.4018
    9.855    1.4767
    9.870    1.5088
    9.885    1.3697
    9.900    1.2948
    9.915    1.4553
    9.930    1.4767
    9.945    1.6158
    9.960    1.3590
    9.975    1.3804
    9.990    1.3590
   10.005    1.4767
   10.020    1.2948
   10.035    1.4339
   10.050    1.5944
   10.065    1.4232
   10.080    1.3055
   10.095    1.5195
   10.110    1.5195
   10.125    1.5623
   10.140    1.5623
   10.155    1.7871
   10.170    1.5302
   10.185    1.3055
   10.200    1.1664
   10.215    1.1771
   10.230    1.0594
   10.245    1.1236
   10.260    1.0166
   10.275    1.0701
   10.290    1.2199
   10.305    1.1878
   10.320    1.0915
   10.335    0.8133
   10.350    1.0487
   10.365    0.8882
   10.380    0.9310
   10.395    0.9738
   10.410    0.9524
   10.425    0.7919
   10.440    0.8561
   10.455    1.0059
   10.470    0.8989
   10.485    0.8775
   10.500    0.9203
   10.515    0.7384
   10.530    0.8240
   10.545    0.9096
   10.560    0.9310
   10.575    0.8240
   10.590    0.8989
   10.605    0.9631
   10.620    1.0380
   10.635    0.7384
   10.650    0.8561
   10.665    0.9203
   10.680    0.8026
   10.695    0.8454
   10.710    0.9952
   10.725    0.8882
   10.740    0.8668
   10.755    0.9738
   10.770    0.8989
   10.785    0.9524
   10.800    0.9310
   10.815    0.9524
   10.830    1.1343
   10.845    1.0273
   10.860    0.9417
   10.875    0.8668
   10.890    1.0701
   10.905    1.1664
   10.920    1.3483
   10.935    1.1878
   10.950    1.3376
   10.965    1.3804
   10.980    1.5944
   10.995    1.7764
   11.010    1.8513
   11.025    2.0332
   11.040    2.1295
   11.055    2.3863
   11.070    2.4826
   11.085    2.9749
   11.100    3.7774
   11.115    4.3339
   11.130    5.0080
   11.145    4.1199
   11.160    3.3387
   11.175    2.4933
   11.190    1.7549
   11.205    1.1343
   11.220    0.8989
   11.235    0.9631
   11.250    0.9631
   11.265    0.8882
   11.280    0.6956
   11.295    0.6635
   11.310    0.7491
   11.325    0.8454
   11.340    0.8240
   11.355    0.9096
   11.370    0.7277
   11.385    0.7063
   11.400    0.8989
   11.415    0.7919
   11.430    0.8026
   11.445    0.8668
   11.460    0.7598
   11.475    0.9417
   11.490    0.7598
   11.505    0.7063
   11.520    0.8775
   11.535    0.9096
   11.550    0.8882
   11.565    0.8454
   11.580    0.9310
   11.595    0.7491
   11.610    0.7919
   11.625    0.7812
   11.640    0.8989
   11.655    0.8454
   11.670    0.8240
   11.685    0.8775
   11.700    0.7491
   11.715    0.8026
   11.730    0.7919
   11.745    0.8347
   11.760    0.9631
   11.775    0.8989
   11.790    0.9203
   11.805    0.9096
   11.820    0.7812
   11.835    0.9845
   11.850    0.9417
   11.865    0.9310
   11.880    1.0059
   11.895    0.9631
   11.910    1.0166
   11.925    1.1129
   11.940    1.1236
   11.955    1.2948
   11.970    1.5195
   11.985    1.6265
   12.000    1.9155
   12.015    1.9797
   12.030    2.0546
   12.045    1.9583
   12.060    1.6051
   12.075    1.2627
   12.090    1.0166
   12.105    0.8561
   12.120    0.7598
   12.135    0.8454
   12.150    1.1022
   12.165    0.9845
   12.180    1.0380
   12.195    0.9631
   12.210    0.8561
   12.225    0.8347
   12.240    0.9524
   12.255    0.8775
   12.270    0.7812
   12.285    0.6742
   12.300    0.6742
   12.315    0.8668
   12.330    0.6849
   12.345    0.7063
   12.360    0.7063
   12.375    0.7812
   12.390    0.6314
   12.405    0.7812
   12.420    0.8561
   12.435    0.7277
   12.450    0.6314
   12.465    0.6849
   12.480    0.8561
   12.495    0.7384
   12.510    0.8989
   12.525    0.8133
   12.540    0.8668
   12.555    0.8668
   12.570    0.7812
   12.585    0.8347
   12.600    0.9310
   12.615    0.8561
   12.630    0.8347
   12.645    0.7919
   12.660    0.7063
   12.675    0.8240
   12.690    0.8026
   12.705    0.8561
   12.720    0.9096
   12.735    1.0273
   12.750    0.9417
   12.765    1.2199
   12.780    1.2306
   12.795    1.3055
   12.810    1.1985
   12.825    1.4981
   12.840    1.7764
   12.855    1.8192
   12.870    1.8727
   12.885    1.7335
   12.900    1.4446
   12.915    1.0380
   12.930    0.8026
   12.945    0.8454
   12.960    0.8026
   12.975    0.7598
   12.990    0.7170
   13.005    0.7705
   13.020    0.7812
   13.035    0.7384
   13.050    0.7277
   13.065    0.5993
   13.080    0.6742
   13.095    0.8347
   13.110    0.7063
   13.125    0.8240
   13.140    0.6635
   13.155    0.6635
   13.170    0.8989
   13.185    0.8026
   13.200    0.7705
   13.215    0.7384
   13.230    0.8026
   13.245    0.8133
   13.260    0.7170
   13.275    0.6956
   13.290    0.6421
   13.305    0.7384
   13.320    0.7384
   13.335    0.7491
   13.350    0.5993
   13.365    0.9952
   13.380    0.9631
   13.395    0.8775
   13.410    0.8347
   13.425    0.8240
   13.440    0.9738
   13.455    0.8454
   13.470    0.9096
   13.485    0.8454
   13.500    0.9845
   13.515    1.0380
   13.530    0.9952
   13.545    1.3911
   13.560    1.3269
   13.575    1.2199
   13.590    1.1557
   13.605    1.6265
   13.620    1.9904
   13.635    1.9583
   13.650    2.0546
   13.665    2.0332
   13.680    1.5730
   13.695    1.2413
   13.710    0.9952
   13.725    0.8347
   13.740    0.7277
   13.755    0.7491
   13.770    0.6314
   13.785    0.6849
   13.800    0.7598
   13.815    0.8026
   13.830    0.7812
   13.845    0.6528
   13.860    0.5778
   13.875    0.7491
   13.890    0.7705
   13.905    0.7063
   13.920    0.7277
   13.935    0.8882
   13.950    0.8454
   13.965    0.7491
   13.980    0.7705
   13.995    0.7812
   14.010    0.7812
   14.025    0.6635
   14.040    0.6421
   14.055    0.6849
   14.070    0.6849
   14.085    0.7919
   14.100    0.6528
   14.115    0.8561
   14.130    0.9417
   14.145    0.8347
   14.160    0.7919
   14.175    0.8240
   14.190    0.7170
   14.205    0.7277
   14.220    0.7919
   14.235    0.8989
   14.250    0.8775
   14.265    0.8026
   14.280    0.7277
   14.295    0.8133
   14.310    0.9096
   14.325    0.9310
   14.340    0.9524
   14.355    1.0487
   14.370    1.0808
   14.385    1.1343
   14.400    1.0487
   14.415    1.0915
   14.430    0.9524
   14.445    0.9310
   14.460    0.9203
   14.475    0.8026
   14.490    0.8133
   14.505    0.8454
   14.520    0.8561
   14.535    0.8347
   14.550    0.8240
   14.565    0.8454
   14.580    0.7277
   14.595    0.7705
   14.610    0.7705
   14.625    0.8882
   14.640    0.7919
   14.655    0.8026
   14.670    0.6849
   14.685    0.7063
   14.700    0.7063
   14.715    0.7384
   14.730    0.7812
   14.745    0.9524
   14.760    0.8668
   14.775    0.8561
   14.790    0.8133
   14.805    0.6956
   14.820    0.8561
   14.835    0.7919
   14.850    0.7277
   14.865    0.8882
   14.880    0.9310
   14.895    0.9203
   14.910    0.8240
   14.925    0.8882
   14.940    0.8882
   14.955    1.0273
   14.970    1.0594
   14.985    0.9524
   15.000    0.8561
   15.015    1.1022
   15.030    1.3055
   15.045    1.3162
   15.060    1.3697
   15.075    1.6907
   15.090    1.7657
   15.105    1.8299
   15.120    1.5837
   15.135    1.4874
   15.150    0.9845
   15.165    1.0273
   15.180    1.0166
   15.195    0.9310
   15.210    0.8240
   15.225    0.8347
   15.240    0.8775
   15.255    0.7812
   15.270    0.8026
   15.285    0.7491
   15.300    0.7491
   15.315    0.7705
   15.330    0.8133
   15.345    0.6528
   15.360    0.7277
   15.375    0.8026
   15.390    0.7705
   15.405    0.7812
   15.420    0.7598
   15.435    0.7063
   15.450    0.8133
   15.465    0.6635
   15.480    0.6635
   15.495    0.7598
   15.510    0.7705
   15.525    0.8026
   15.540    0.7063
   15.555    0.7812
   15.570    0.7705
   15.585    0.6742
   15.600    0.6635
   15.615    0.6421
   15.630    0.7277
   15.645    0.7277
   15.660    0.7919
   15.675    0.8240
   15.690    0.9524
   15.705    0.8454
   15.720    0.8989
   15.735    1.0915
   15.750    0.9096
   15.765    1.1450
   15.780    1.1771
   15.795    1.0915
   15.810    1.0166
   15.825    1.0487
   15.840    0.7705
   15.855    0.8989
   15.870    0.8026
   15.885    0.6207
   15.900    0.8240
   15.915    0.6742
   15.930    0.7170
   15.945    0.7170
   15.960    0.8133
   15.975    0.6207
   15.990    0.7812
   16.005    0.7491
   16.020    0.9096
   16.035    0.8133
   16.050    0.6635
   16.065    0.7063
   16.080    0.7384
   16.095    0.8133
   16.110    0.8454
   16.125    0.7598
   16.140    0.5993
   16.155    0.6956
   16.170    0.7705
   16.185    0.7491
   16.200    0.6849
   16.215    0.6635
   16.230    0.8882
   16.245    0.7491
   16.260    0.8454
   16.275    0.9096
   16.290    0.8775
   16.305    0.8668
   16.320    0.9524
   16.335    0.9631
   16.350    1.1557
   16.365    1.1129
   16.380    1.2413
   16.395    1.6693
   16.410    1.5516
   16.425    1.5730
   16.440    1.5409
   16.455    1.1985
   16.470    1.2948
   16.485    1.0166
   16.500    0.8240
   16.515    0.7919
   16.530    0.8347
   16.545    0.7063
   16.560    0.7384
   16.575    0.7491
   16.590    0.7919
   16.605    0.6207
   16.620    0.7598
   16.635    0.7384
   16.650    0.7812
   16.665    0.6849
   16.680    0.6314
   16.695    0.7063
   16.710    0.6956
   16.725    0.6849
   16.740    0.7170
   16.755    0.6849
   16.770    0.6100
   16.785    0.6849
   16.800    0.6207
   16.815    0.5993
   16.830    0.5778
   16.845    0.7491
   16.860    0.7598
   16.875    0.6314
   16.890    0.6421
   16.905    0.7277
   16.920    0.6421
   16.935    0.5886
   16.950    0.8561
   16.965    0.8454
   16.980    0.7919
   16.995    0.7491
   17.010    0.7598
   17.025    0.6849
   17.040    0.6421
   17.055    0.6528
   17.070    0.5671
   17.085    0.7063
   17.100    0.7063
   17.115    0.7598
   17.130    0.6635
   17.145    0.6635
   17.160    0.7491
   17.175    0.6849
   17.190    0.7063
   17.205    0.6849
   17.220    0.6635
   17.235    0.6956
   17.250    0.5778
   17.265    0.6421
   17.280    0.6314
   17.295    0.6635
   17.310    0.6528
   17.325    0.5778
   17.340    0.6742
   17.355    0.7170
   17.370    0.7491
   17.385    0.7170
   17.400    0.6207
   17.415    0.6742
   17.430    0.6528
   17.445    0.8240
   17.460    0.6635
   17.475    0.8561
   17.490    0.6314
   17.505    0.6849
   17.520    0.6956
   17.535    0.7705
   17.550    0.8240
   17.565    0.6314
   17.580    0.6849
   17.595    0.8454
   17.610    0.8454
   17.625    0.9203
   17.640    0.8454
   17.655    0.9310
   17.670    0.8882
   17.685    0.6849
   17.700    0.9203
   17.715    0.7598
   17.730    0.6956
   17.745    0.6849
   17.760    0.6207
   17.775    0.6421
   17.790    0.6528
   17.805    0.6956
   17.820    0.7277
   17.835    0.5993
   17.850    0.6314
   17.865    0.6742
   17.880    0.7170
   17.895    0.7170
   17.910    0.6100
   17.925    0.5778
   17.940    0.7705
   17.955    0.5778
   17.970    0.5993
   17.985    0.6849
   18.000    0.5671
   18.015    0.6528
   18.030    0.6421
   18.045    0.5993
   18.060    0.8775
   18.075    0.8454
   18.090    0.7384
   18.105    0.7063
   18.120    0.7598
   18.135    0.7277
   18.150    0.7277
   18.165    0.5671
   18.180    0.5993
   18.195    0.6742
   18.210    0.6207
   18.225    0.6635
   18.240    0.6421
   18.255    0.8989
   18.270    0.6956
   18.285    0.5886
   18.300    0.6742
   18.315    0.7384
   18.330    0.5886
   18.345    0.5457
   18.360    0.6742
   18.375    0.7170
   18.390    0.6742
   18.405    0.7170
   18.420    0.6849
   18.435    0.7491
   18.450    0.7170
   18.465    0.6635
   18.480    0.6207
   18.495    0.6314
   18.510    0.6421
   18.525    0.6956
   18.540    0.7277
   18.555    0.7491
   18.570    0.7277
   18.585    0.8668
   18.600    0.8561
   18.615    0.5993
   18.630    0.7277
   18.645    0.7812
   18.660    0.6528
   18.675    0.7705
   18.690    0.8240
   18.705    0.7384
   18.720    0.7598
   18.735    0.8347
   18.750    0.8454
   18.765    0.7812
   18.780    0.8026
   18.795    0.8026
   18.810    0.9310
   18.825    0.8989
   18.840    0.7919
   18.855    0.8347
   18.870    0.9417
   18.885    0.8026
   18.900    0.8882
   18.915    0.7812
   18.930    0.5778
   18.945    0.7063
   18.960    0.6635
   18.975    0.5671
   18.990    0.6207
   19.005    0.5993
   19.020    0.6528
   19.035    0.5671
   19.050    0.7277
   19.065    0.6635
   19.080    0.6528
   19.095    0.6528
   19.110    0.6956
   19.125    0.6635
   19.140    0.6207
   19.155    0.6956
   19.170    0.7705
   19.185    0.6635
   19.200    0.6742
   19.215    0.6742
   19.230    0.7277
   19.245    0.7812
   19.260    0.8240
   19.275    0.8775
   19.290    0.8133
   19.305    0.7812
   19.320    0.7170
   19.335    0.9203
   19.350    0.9417
   19.365    0.8240
   19.380    0.8133
   19.395    0.7384
   19.410    0.8561
   19.425    0.7170
   19.440    0.7598
   19.455    0.7170
   19.470    0.7705
   19.485    0.6742
   19.500    0.7919
   19.515    0.4815
   19.530    0.6100
   19.545    0.6314
   19.560    0.6421
   19.575    0.7063
   19.590    0.6635
   19.605    0.7063
   19.620    0.6742
   19.635    0.6421
   19.650    0.7598
   19.665    0.8882
   19.680    0.6742
   19.695    0.7384
   19.710    0.8026
   19.725    0.7919
   19.740    0.7598
   19.755    0.7598
   19.770    0.7919
   19.785    0.8775
   19.800    1.0380
   19.815    0.8668
   19.830    0.9631
   19.845    0.9524
   19.860    0.9952
   19.875    1.1985
   19.890    1.1557
   19.905    1.3376
   19.920    1.1985
   19.935    1.2199
   19.950    0.9203
   19.965    0.8668
   19.980    0.8133
   19.995    0.6742
   20.010    0.7491
   20.025    0.8347
   20.040    0.7919
   20.055    0.6742
   20.070    0.7063
   20.085    0.6528
   20.100    0.6421
   20.115    0.7384
   20.130    0.7491
   20.145    0.7598
   20.160    0.8347
   20.175    0.7170
   20.190    0.6956
   20.205    0.7491
   20.220    0.5671
   20.235    0.6207
   20.250    0.5136
   20.265    0.6421
   20.280    0.6528
   20.295    0.6100
   20.310    0.8347
   20.325    0.8240
   20.340    0.6956
   20.355    0.7598
   20.370    0.6635
   20.385    0.7491
   20.400    0.8989
   20.415    0.8882
   20.430    0.7705
   20.445    0.6635
   20.460    0.7491
   20.475    0.6849
   20.490    0.5886
   20.505    0.6100
   20.520    0.5564
   20.535    0.6421
   20.550    0.5993
   20.565    0.6742
   20.580    0.7170
   20.595    0.5886
   20.610    0.6635
   20.625    0.7170
   20.640    0.7598
   20.655    0.6100
   20.670    0.6100
   20.685    0.6849
   20.700    0.6314
   20.715    0.6742
   20.730    0.8775
   20.745    0.6742
   20.760    0.7063
   20.775    0.6528
   20.790    0.7598
   20.805    0.7170
   20.820    0.7705
   20.835    0.8133
   20.850    0.6956
   20.865    0.7384
   20.880    0.8668
   20.895    0.8026
   20.910    0.8775
   20.925    0.8454
   20.940    0.8240
   20.955    0.8454
   20.970    0.7491
   20.985    0.6849
   21.000    0.6100
   21.015    0.6528
   21.030    0.7170
   21.045    0.9203
   21.060    0.6421
   21.075    0.6742
   21.090    0.7598
   21.105    0.6956
   21.120    0.6528
   21.135    0.6421
   21.150    0.8133
   21.165    0.5778
   21.180    0.6100
   21.195    0.5457
   21.210    0.6635
   21.225    0.6742
   21.240    0.6742
   21.255    0.6528
   21.270    0.8668
   21.285    0.8668
   21.300    0.8026
   21.315    0.8240
   21.330    0.8668
   21.345    0.6849
   21.360    0.8989
   21.375    0.9096
   21.390    0.8240
   21.405    0.7705
   21.420    0.8668
   21.435    0.9631
   21.450    0.8026
   21.465    0.7384
   21.480    0.6421
   21.495    0.6635
   21.510    0.6635
   21.525    0.7705
   21.540    0.6956
   21.555    0.6314
   21.570    0.6207
   21.585    0.8347
   21.600    0.8240
   21.615    0.7277
   21.630    0.7170
   21.645    0.6742
   21.660    0.6100
   21.675    0.6314
   21.690    0.7491
   21.705    0.7063
   21.720    0.7063
   21.735    0.7063
   21.750    0.8026
   21.765    0.6635
   21.780    0.6207
   21.795    0.7384
   21.810    0.7705
   21.825    0.6528
   21.840    0.5993
   21.855    0.6421
   21.870    0.6421
   21.885    0.7384
   21.900    0.7598
   21.915    0.7919
   21.930    0.6314
   21.945    0.7063
   21.960    0.6742
   21.975    0.7598
   21.990    0.7705
   22.005    0.7277
   22.020    0.6742
   22.035    0.6421
   22.050    0.6100
   22.065    0.6849
   22.080    0.7170
   22.095    0.6207
   22.110    0.5886
   22.125    0.6635
   22.140    0.6100
   22.155    0.6421
   22.170    0.6849
   22.185    0.6956
   22.200    0.6849
   22.215    0.6742
   22.230    0.6528
   22.245    0.7812
   22.260    0.6849
   22.275    0.7063
   22.290    0.6635
   22.305    0.6849
   22.320    0.6100
   22.335    0.7384
   22.350    0.6100
   22.365    0.6100
   22.380    0.6849
   22.395    0.7491
   22.410    0.6314
   22.425    0.7384
   22.440    0.7705
   22.455    0.5993
   22.470    0.6207
   22.485    0.7277
   22.500    0.7919
   22.515    0.7170
   22.530    0.7170
   22.545    0.7170
   22.560    0.6421
   22.575    0.5886
   22.590    0.8133
   22.605    0.8133
   22.620    0.8561
   22.635    0.8989
   22.650    0.7919
   22.665    0.7384
   22.680    0.5993
   22.695    0.6528
   22.710    0.5564
   22.725    0.8026
   22.740    0.8775
   22.755    0.7491
   22.770    0.7812
   22.785    0.8775
   22.800    0.8775
   22.815    0.9524
   22.830    1.0594
   22.845    1.0273
   22.860    0.9203
   22.875    0.9203
   22.890    0.9096
   22.905    0.9310
   22.920    0.8775
   22.935    0.7384
   22.950    0.8454
   22.965    0.8240
   22.980    0.7491
   22.995    0.6207
   23.010    0.5993
   23.025    0.7170
   23.040    0.7170
   23.055    0.9096
   23.070    0.9845
   23.085    0.9738
   23.100    0.7491
   23.115    0.6635
   23.130    0.6849
   23.145    0.7170
   23.160    0.8882
   23.175    0.8240
   23.190    0.6956
   23.205    0.7170
   23.220    0.8240
   23.235    0.6742
   23.250    0.7491
   23.265    0.7277
   23.280    0.8775
   23.295    0.8775
   23.310    0.7598
   23.325    0.6207
   23.340    0.8026
   23.355    0.7812
   23.370    0.7277
   23.385    0.7384
   23.400    0.8668
   23.415    0.7277
   23.430    0.7384
   23.445    0.8561
   23.460    0.8775
   23.475    0.7491
   23.490    0.7705
   23.505    0.7063
   23.520    0.7598
   23.535    0.7598
   23.550    0.7491
   23.565    0.6100
   23.580    0.7705
   23.595    0.6635
   23.610    1.0594
   23.625    0.9096
   23.640    0.7170
   23.655    0.8240
   23.670    1.0059
   23.685    0.8882
   23.700    1.0059
   23.715    1.0166
   23.730    1.0273
   23.745    1.3376
   23.760    1.3376
   23.775    1.2199
   23.790    1.1878
   23.805    1.1557
   23.820    1.1771
   23.835    1.1985
   23.850    0.8454
   23.865    0.9096
   23.880    0.7277
   23.895    0.8454
   23.910    0.7812
   23.925    0.8775
   23.940    0.7170
   23.955    0.6956
   23.970    0.5886
   23.985    0.7277
   24.000    0.8454
   24.015    0.8668
   24.030    0.5993
   24.045    0.7384
   24.060    0.7491
   24.075    0.7598
   24.090    0.7170
   24.105    0.8026
   24.120    0.8133
   24.135    0.8775
   24.150    0.7384
   24.165    0.6742
   24.180    0.7705
   24.195    0.7170
   24.210    0.7170
   24.225    0.8668
   24.240    0.7491
   24.255    0.6956
   24.270    0.7598
   24.285    0.7491
   24.300    0.7170
   24.315    0.8989
   24.330    0.7598
   24.345    0.7063
   24.360    0.7277
   24.375    0.6742
   24.390    0.6635
   24.405    0.7384
   24.420    0.8347
   24.435    0.7491
   24.450    0.7277
   24.465    0.7812
   24.480    0.9524
   24.495    0.8347
   24.510    0.8668
   24.525    0.6849
   24.540    0.7170
   24.555    0.7812
   24.570    0.8347
   24.585    0.6314
   24.600    0.8240
   24.615    0.7812
   24.630    0.8454
   24.645    0.7384
   24.660    0.6421
   24.675    0.6314
   24.690    0.7491
   24.705    0.8240
   24.720    0.7919
   24.735    0.8026
   24.750    0.6635
   24.765    0.8026
   24.780    0.8454
   24.795    0.6742
   24.810    0.6421
   24.825    0.7063
   24.840    0.7812
   24.855    0.6528
   24.870    0.6956
   24.885    0.8347
   24.900    0.7705
   24.915    0.6421
   24.930    0.8989
   24.945    0.7170
   24.960    0.7705
   24.975    0.7491
   24.990    0.7277
   25.005    0.7384
   25.020    0.7170
   25.035    0.6421
   25.050    0.6421
   25.065    0.6956
   25.080    0.7170
   25.095    0.7705
   25.110    0.8775
   25.125    0.9310
   25.140    0.7491
   25.155    0.7919
   25.170    0.7170
   25.185    0.6314
   25.200    0.7919
   25.215    0.7705
   25.230    0.7598
   25.245    0.7170
   25.260    0.6849
   25.275    0.6528
   25.290    0.7063
   25.305    0.8347
   25.320    0.7919
   25.335    0.8240
   25.350    0.8561
   25.365    0.8133
   25.380    0.8561
   25.395    0.8989
   25.410    0.8775
   25.425    0.9096
   25.440    0.8989
   25.455    0.9310
   25.470    0.9203
   25.485    0.8775
   25.500    0.9952
   25.515    0.9631
   25.530    0.9203
   25.545    0.9417
   25.560    0.9631
   25.575    0.7598
   25.590    0.8240
   25.605    0.8026
   25.620    0.7170
   25.635    0.6528
   25.650    0.7598
   25.665    0.6100
   25.680    0.6849
   25.695    0.6742
   25.710    0.7384
   25.725    0.7491
   25.740    0.7491
   25.755    0.8133
   25.770    0.7277
   25.785    0.8882
   25.800    0.9203
   25.815    0.7491
   25.830    0.7384
   25.845    0.8561
   25.860    0.7919
   25.875    0.8775
   25.890    0.8668
   25.905    0.9417
   25.920    1.0273
   25.935    0.9096
   25.950    0.9738
   25.965    0.7812
   25.980    0.7277
   25.995    0.7384
   26.010    0.8882
   26.025    0.6849
   26.040    0.7384
   26.055    0.9096
   26.070    0.8133
   26.085    0.7063
   26.100    0.7170
   26.115    0.7063
   26.130    0.7491
   26.145    0.7063
   26.160    0.8347
   26.175    0.8775
   26.190    0.8561
   26.205    0.7598
   26.220    0.9096
   26.235    0.8347
   26.250    0.8882
   26.265    1.2092
   26.280    1.2948
   26.295    1.1878
   26.310    1.2306
   26.325    1.2413
   26.340    1.2627
   26.355    1.1343
   26.370    1.1129
   26.385    1.1129
   26.400    0.8668
   26.415    0.7919
   26.430    0.7491
   26.445    0.7919
   26.460    0.7705
   26.475    0.7705
   26.490    0.8454
   26.505    0.8561
   26.520    0.7170
   26.535    0.8240
   26.550    0.8454
   26.565    0.8240
   26.580    0.7919
   26.595    0.8989
   26.610    0.9738
   26.625    0.8882
   26.640    0.9524
   26.655    0.9952
   26.670    1.0915
   26.685    1.1771
   26.700    1.3055
   26.715    1.2734
   26.730    1.2627
   26.745    1.2306
   26.760    1.3697
   26.775    1.1557
   26.790    1.0808
   26.805    1.0701
   26.820    0.9310
   26.835    0.8775
   26.850    0.7919
   26.865    0.7598
   26.880    0.6207
   26.895    0.8240
   26.910    0.7063
   26.925    0.8561
   26.940    0.8026
   26.955    0.6956
   26.970    0.6956
   26.985    0.7170
   27.000    0.8775
   27.015    0.7063
   27.030    0.7491
   27.045    0.7170
   27.060    0.8026
   27.075    0.8454
   27.090    0.8133
   27.105    0.7277
   27.120    0.8989
   27.135    0.9096
   27.150    0.8026
   27.165    0.8561
   27.180    0.8347
   27.195    0.8240
   27.210    0.6421
   27.225    0.6100
   27.240    0.8133
   27.255    0.8240
   27.270    0.7812
   27.285    0.7705
   27.300    0.6742
   27.315    0.8026
   27.330    0.7919
   27.345    0.6421
   27.360    0.8133
   27.375    0.5993
   27.390    0.8133
   27.405    0.6956
   27.420    0.7491
   27.435    0.6421
   27.450    0.7491
   27.465    0.8668
   27.480    0.7598
   27.495    0.8026
   27.510    0.8561
   27.525    0.6742
   27.540    0.7705
   27.555    0.7384
   27.570    0.5350
   27.585    0.6314
   27.600    0.6742
   27.615    0.6528
   27.630    0.6207
   27.645    0.6207
   27.660    0.6207
   27.675    0.5457
   27.690    0.6314
   27.705    0.6742
   27.720    0.7491
   27.735    0.7063
   27.750    0.7170
   27.765    0.6421
   27.780    0.8026
   27.795    0.7384
   27.810    0.6100
   27.825    0.8026
   27.840    0.7812
   27.855    0.8347
   27.870    0.7384
   27.885    0.8668
   27.900    0.8989
   27.915    0.8347
   27.930    0.8347
   27.945    0.9417
   27.960    0.7598
   27.975    0.8133
   27.990    0.8668
   28.005    0.6100
   28.020    0.7063
   28.035    0.6421
   28.050    0.6421
   28.065    0.7063
   28.080    0.7170
   28.095    0.7277
   28.110    0.6635
   28.125    0.6421
   28.140    0.7598
   28.155    0.7384
   28.170    0.8133
   28.185    0.6742
   28.200    0.7705
   28.215    0.7705
   28.230    0.7491
   28.245    0.8240
   28.260    0.6956
   28.275    0.7384
   28.290    0.7170
   28.305    0.6207
   28.320    0.6635
   28.335    0.7705
   28.350    0.7384
   28.365    0.6314
   28.380    0.7919
   28.395    0.6742
   28.410    0.7812
   28.425    0.6314
   28.440    0.6635
   28.455    0.6421
   28.470    0.5457
   28.485    0.6635
   28.500    0.7598
   28.515    0.7170
   28.530    0.6421
   28.545    0.5993
   28.560    0.6635
   28.575    0.8133
   28.590    0.6956
   28.605    0.7812
   28.620    0.7812
   28.635    0.6849
   28.650    0.8240
   28.665    0.7812
   28.680    0.7491
   28.695    0.8668
   28.710    0.7384
   28.725    0.7491
   28.740    0.7598
   28.755    0.6314
   28.770    0.7705
   28.785    0.7598
   28.800    0.6528
   28.815    0.7170
   28.830    0.7384
   28.845    0.6635
   28.860    0.7170
   28.875    0.7277
   28.890    0.7705
   28.905    0.6742
   28.920    0.7812
   28.935    0.7705
   28.950    0.6742
   28.965    0.6742
   28.980    0.5993
   28.995    0.7170
   29.010    0.6849
   29.025    0.6207
   29.040    0.6100
   29.055    0.6635
   29.070    0.8454
   29.085    0.6528
   29.100    0.7063
   29.115    0.6849
   29.130    0.6100
   29.145    0.6314
   29.160    0.6528
   29.175    0.5350
   29.190    0.6528
   29.205    0.6314
   29.220    0.7277
   29.235    0.6421
   29.250    0.6956
   29.265    0.6528
   29.280    0.6635
   29.295    0.6314
   29.310    0.5243
   29.325    0.6528
   29.340    0.7063
   29.355    0.6742
   29.370    0.7277
   29.385    0.7598
   29.400    0.6849
   29.415    0.8133
   29.430    0.7384
   29.445    0.6635
   29.460    0.8454
   29.475    0.7491
   29.490    0.6100
   29.505    0.5993
   29.520    0.5564
   29.535    0.7598
   29.550    0.7491
   29.565    0.6421
   29.580    0.6207
   29.595    0.6528
   29.610    0.5993
   29.625    0.7812
   29.640    0.6956
   29.655    0.5993
   29.670    0.6207
   29.685    0.7170
   29.700    0.6849
   29.715    0.7063
   29.730    0.7063
   29.745    0.7170
   29.760    0.6314
   29.775    0.6956
   29.790    0.7384
   29.805    0.7598
   29.820    0.7919
   29.835    0.6742
   29.850    0.6849
   29.865    0.5778
   29.880    0.6528
   29.895    0.6528
   29.910    0.7705
   29.925    0.8240
   29.940    0.5993
   29.955    0.5457
   29.970    0.7063
   29.985    0.6100
   30.000    0.6100
   30.015    0.7491
   30.030    0.5457
   30.045    0.7277
   30.060    0.8026
   30.075    0.9203
   30.090    0.9310
   30.105    0.9096
   30.120    1.1022
   30.135    1.0273
   30.150    0.9845
   30.165    0.9631
   30.180    0.9417
   30.195    0.9845
   30.210    0.9524
   30.225    0.7277
   30.240    0.7063
   30.255    0.7491
   30.270    0.5993
   30.285    0.7277
   30.300    0.6421
   30.315    0.6956
   30.330    0.5993
   30.345    0.6528
   30.360    0.6635
   30.375    0.5993
   30.390    0.7491
   30.405    0.6100
   30.420    0.4922
   30.435    0.5778
   30.450    0.6528
   30.465    0.6314
   30.480    0.7705
   30.495    0.5886
   30.510    0.5136
   30.525    0.6100
   30.540    0.6956
   30.555    0.6528
   30.570    0.6635
   30.585    0.5886
   30.600    0.5671
   30.615    0.5886
   30.630    0.6421
   30.645    0.5778
   30.660    0.5136
   30.675    0.5243
   30.690    0.6100
   30.705    0.5564
   30.720    0.6956
   30.735    0.5778
   30.750    0.6635
   30.765    0.7919
   30.780    0.7063
   30.795    0.5778
   30.810    0.7705
   30.825    0.6956
   30.840    0.6635
   30.855    0.6849
   30.870    0.6421
   30.885    0.7277
   30.900    0.7598
   30.915    0.7598
   30.930    0.6207
   30.945    0.5993
   30.960    0.5457
   30.975    0.6528
   30.990    0.5778
   31.005    0.5350
   31.020    0.6207
   31.035    0.6635
   31.050    0.5886
   31.065    0.6635
   31.080    0.6849
   31.095    0.6314
   31.110    0.7598
   31.125    0.6956
   31.140    0.5350
   31.155    0.6635
   31.170    0.5671
   31.185    0.4815
   31.200    0.5778
   31.215    0.5993
   31.230    0.6207
   31.245    0.5778
   31.260    0.5029
   31.275    0.5457
   31.290    0.6207
   31.305    0.5136
   31.320    0.4066
   31.335    0.5350
   31.350    0.6314
   31.365    0.6100
   31.380    0.6314
   31.395    0.6100
   31.410    0.6528
   31.425    0.5778
   31.440    0.6635
   31.455    0.7277
   31.470    0.6100
   31.485    0.6635
   31.500    0.8454
   31.515    0.7170
   31.530    0.8775
   31.545    0.7384
   31.560    0.8454
   31.575    0.7063
   31.590    0.8454
   31.605    0.7812
   31.620    0.6207
   31.635    0.6742
   31.650    0.6100
   31.665    0.5457
   31.680    0.5778
   31.695    0.5993
   31.710    0.5778
   31.725    0.6528
   31.740    0.5886
   31.755    0.5778
   31.770    0.5778
   31.785    0.5886
   31.800    0.6528
   31.815    0.5564
   31.830    0.4922
   31.845    0.6314
   31.860    0.5993
   31.875    0.5457
   31.890    0.6849
   31.905    0.5671
   31.920    0.4708
   31.935    0.5886
   31.950    0.6207
   31.965    0.5778
   31.980    0.5778
   31.995    0.5671
   32.010    0.4387
   32.025    0.5350
   32.040    0.5564
   32.055    0.5243
   32.070    0.6421
   32.085    0.5350
   32.100    0.5564
   32.115    0.5886
   32.130    0.6849
   32.145    0.5350
   32.160    0.6635
   32.175    0.7170
   32.190    0.6635
   32.205    0.6100
   32.220    0.6421
   32.235    0.6314
   32.250    0.5564
   32.265    0.6207
   32.280    0.6849
   32.295    0.5457
   32.310    0.7384
   32.325    0.6528
   32.340    0.7277
   32.355    0.5457
   32.370    0.5778
   32.385    0.5457
   32.400    0.4815
   32.415    0.6100
   32.430    0.5350
   32.445    0.6100
   32.460    0.5243
   32.475    0.6207
   32.490    0.4708
   32.505    0.5243
   32.520    0.6742
   32.535    0.6849
   32.550    0.7705
   32.565    0.6956
   32.580    0.6956
   32.595    0.6314
   32.610    0.6635
   32.625    0.6635
   32.640    0.5564
   32.655    0.6528
   32.670    0.6314
   32.685    0.7063
   32.700    0.5778
   32.715    0.7491
   32.730    0.5993
   32.745    0.5886
   32.760    0.5778
   32.775    0.5136
   32.790    0.6207
   32.805    0.6528
   32.820    0.6635
   32.835    0.7063
   32.850    0.7384
   32.865    0.6635
   32.880    0.6100
   32.895    0.7170
   32.910    0.7812
   32.925    0.8775
   32.940    0.8561
   32.955    0.6849
   32.970    0.6314
   32.985    0.6314
   33.000    0.7919
   33.015    0.7063
   33.030    0.6314
   33.045    0.6100
   33.060    0.6849
   33.075    0.5350
   33.090    0.5993
   33.105    0.7170
   33.120    0.6207
   33.135    0.6635
   33.150    0.7170
   33.165    0.5993
   33.180    0.7812
   33.195    0.7063
   33.210    0.6742
   33.225    0.6207
   33.240    0.5350
   33.255    0.8240
   33.270    0.6742
   33.285    0.7598
   33.300    0.7277
   33.315    0.6207
   33.330    0.5778
   33.345    0.5993
   33.360    0.5993
   33.375    0.4708
   33.390    0.4494
   33.405    0.4494
   33.420    0.6314
   33.435    0.6528
   33.450    0.5671
   33.465    0.5350
   33.480    0.5778
   33.495    0.5136
   33.510    0.5029
   33.525    0.5029
   33.540    0.4494
   33.555    0.5350
   33.570    0.5029
   33.585    0.5243
   33.600    0.5136
   33.615    0.6100
   33.630    0.4280
   33.645    0.5671
   33.660    0.5886
   33.675    0.5350
   33.690    0.6421
   33.705    0.5671
   33.720    0.5136
   33.735    0.4601
   33.750    0.5029
   33.765    0.5993
   33.780    0.5564
   33.795    0.5457
   33.810    0.5671
   33.825    0.5029
   33.840    0.5564
   33.855    0.6207
   33.870    0.5564
   33.885    0.5029
   33.900    0.6314
   33.915    0.5778
   33.930    0.5671
   33.945    0.5243
   33.960    0.6207
   33.975    0.5350
   33.990    0.5350
   34.005    0.4815
   34.020    0.6100
   34.035    0.5136
   34.050    0.4066
   34.065    0.5243
   34.080    0.5029
   34.095    0.6314
   34.110    0.6528
   34.125    0.6421
   34.140    0.5886
   34.155    0.5671
   34.170    0.6421
   34.185    0.8026
   34.200    0.6849
   34.215    0.7598
   34.230    0.6742
   34.245    0.6528
   34.260    0.5457
   34.275    0.5886
   34.290    0.4708
   34.305    0.5671
   34.320    0.5136
   34.335    0.4173
   34.350    0.4922
   34.365    0.4601
   34.380    0.5136
   34.395    0.6314
   34.410    0.6207
   34.425    0.4601
   34.440    0.4601
   34.455    0.5778
   34.470    0.5993
   34.485    0.5350
   34.500    0.6421
   34.515    0.5993
   34.530    0.6849
   34.545    0.5778
   34.560    0.4922
   34.575    0.5564
   34.590    0.4922
   34.605    0.5136
   34.620    0.4601
   34.635    0.6100
   34.650    0.5350
   34.665    0.5671
   34.680    0.5886
   34.695    0.4815
   34.710    0.4494
   34.725    0.6100
   34.740    0.6207
   34.755    0.6207
   34.770    0.6956
   34.785    0.5564
   34.800    0.5671
   34.815    0.6421
   34.830    0.5671
   34.845    0.6849
   34.860    0.5457
   34.875    0.6314
   34.890    0.5350
   34.905    0.5457
   34.920    0.6100
   34.935    0.5243
   34.950    0.5564
   34.965    0.5993
   34.980    0.5564
   34.995    0.4922
   35.010    0.6314
   35.025    0.5457
   35.040    0.5671
   35.055    0.5564
   35.070    0.4708
   35.085    0.4815
   35.100    0.6207
   35.115    0.5993
   35.130    0.4708
   35.145    0.5886
   35.160    0.5243
   35.175    0.4815
   35.190    0.4922
   35.205    0.4387
   35.220    0.5029
   35.235    0.6100
   35.250    0.5243
   35.265    0.4708
   35.280    0.6100
   35.295    0.6635
   35.310    0.5778
   35.325    0.5457
   35.340    0.4815
   35.355    0.6100
   35.370    0.5993
   35.385    0.6100
   35.400    0.6528
   35.415    0.6635
   35.430    0.5457
   35.445    0.5457
   35.460    0.5564
   35.475    0.6100
   35.490    0.5564
   35.505    0.3638
   35.520    0.6207
   35.535    0.5350
   35.550    0.5243
   35.565    0.4922
   35.580    0.5029
   35.595    0.4708
   35.610    0.3531
   35.625    0.4601
   35.640    0.3959
   35.655    0.5350
   35.670    0.5243
   35.685    0.4066
   35.700    0.4601
   35.715    0.5778
   35.730    0.4708
   35.745    0.5564
   35.760    0.5564
   35.775    0.5243
   35.790    0.6314
   35.805    0.5136
   35.820    0.5457
   35.835    0.4922
   35.850    0.4601
   35.865    0.5457
   35.880    0.4922
   35.895    0.4387
   35.910    0.4708
   35.925    0.4387
   35.940    0.4815
   35.955    0.4280
   35.970    0.4601
   35.985    0.4173
   36.000    0.4066
   36.015    0.5564
   36.030    0.4601
   36.045    0.4387
   36.060    0.5564
   36.075    0.5993
   36.090    0.5671
   36.105    0.5029
   36.120    0.4173
   36.135    0.4280
   36.150    0.3959
   36.165    0.3638
   36.180    0.5350
   36.195    0.4280
   36.210    0.4280
   36.225    0.4494
   36.240    0.3745
   36.255    0.4601
   36.270    0.5564
   36.285    0.5671
   36.300    0.3852
   36.315    0.4280
   36.330    0.4494
   36.345    0.5564
   36.360    0.4387
   36.375    0.5457
   36.390    0.4708
   36.405    0.5029
   36.420    0.4066
   36.435    0.4922
   36.450    0.4922
   36.465    0.5993
   36.480    0.6207
   36.495    0.4601
   36.510    0.5457
   36.525    0.5457
   36.540    0.5350
   36.555    0.6207
   36.570    0.4708
   36.585    0.4494
   36.600    0.7277
   36.615    0.5671
   36.630    0.6100
   36.645    0.5671
   36.660    0.5886
   36.675    0.6100
   36.690    0.6207
   36.705    0.5243
   36.720    0.5778
   36.735    0.5564
   36.750    0.5886
   36.765    0.5136
   36.780    0.5564
   36.795    0.6635
   36.810    0.4387
   36.825    0.6207
   36.840    0.5350
   36.855    0.6314
   36.870    0.5671
   36.885    0.4922
   36.900    0.4601
   36.915    0.3852
   36.930    0.4280
   36.945    0.5350
   36.960    0.4601
   36.975    0.5350
   36.990    0.6849
   37.005    0.4922
   37.020    0.5350
   37.035    0.4815
   37.050    0.4922
   37.065    0.4922
   37.080    0.5993
   37.095    0.4066
   37.110    0.5886
   37.125    0.5243
   37.140    0.5886
   37.155    0.5671
   37.170    0.4708
   37.185    0.4601
   37.200    0.4601
   37.215    0.5993
   37.230    0.4815
   37.245    0.4387
   37.260    0.5350
   37.275    0.5671
   37.290    0.5136
   37.305    0.4066
   37.320    0.5350
   37.335    0.5564
   37.350    0.5136
   37.365    0.4708
   37.380    0.4708
   37.395    0.4708
   37.410    0.4494
   37.425    0.4708
   37.440    0.4815
   37.455    0.4173
   37.470    0.4601
   37.485    0.4601
   37.500    0.4815
   37.515    0.4708
   37.530    0.3745
   37.545    0.4601
   37.560    0.5029
   37.575    0.4708
   37.590    0.4922
   37.605    0.5029
   37.620    0.4601
   37.635    0.4494
   37.650    0.5136
   37.665    0.3531
   37.680    0.4815
   37.695    0.4173
   37.710    0.4601
   37.725    0.3317
   37.740    0.3959
   37.755    0.3959
   37.770    0.4173
   37.785    0.4494
   37.800    0.3531
   37.815    0.3852
   37.830    0.3531
   37.845    0.5029
   37.860    0.4173
   37.875    0.4601
   37.890    0.4494
   37.905    0.4601
   37.920    0.5457
   37.935    0.4387
   37.950    0.3638
   37.965    0.4494
   37.980    0.3959
   37.995    0.4601
   38.010    0.4815
   38.025    0.4387
   38.040    0.3959
   38.055    0.4387
   38.070    0.3959
   38.085    0.4922
   38.100    0.4601
   38.115    0.3638
   38.130    0.2996
   38.145    0.3638
   38.160    0.3531
   38.175    0.4494
   38.190    0.4066
   38.205    0.4815
   38.220    0.4601
   38.235    0.4708
   38.250    0.4601
   38.265    0.4601
   38.280    0.4173
   38.295    0.4387
   38.310    0.5029
   38.325    0.3745
   38.340    0.3531
   38.355    0.5029
   38.370    0.3638
   38.385    0.4815
   38.400    0.4494
   38.415    0.4280
   38.430    0.3531
   38.445    0.4601
   38.460    0.5029
   38.475    0.5029
   38.490    0.4601
   38.505    0.3745
   38.520    0.5457
   38.535    0.4601
   38.550    0.5350
   38.565    0.4494
   38.580    0.4387
   38.595    0.5136
   38.610    0.4066
   38.625    0.4280
   38.640    0.5029
   38.655    0.3852
   38.670    0.3745
   38.685    0.3531
   38.700    0.4708
   38.715    0.4066
   38.730    0.3745
   38.745    0.4066
   38.760    0.4173
   38.775    0.3745
   38.790    0.4387
   38.805    0.3959
   38.820    0.4280
   38.835    0.4601
   38.850    0.3852
   38.865    0.3959
   38.880    0.3959
   38.895    0.3638
   38.910    0.3852
   38.925    0.3852
   38.940    0.3745
   38.955    0.4280
   38.970    0.3317
   38.985    0.3531
   39.000    0.3959
   39.015    0.4494
   39.030    0.2889
   39.045    0.4601
   39.060    0.4601
   39.075    0.3745
   39.090    0.4494
   39.105    0.4815
   39.120    0.3103
   39.135    0.4494
   39.150    0.4280
   39.165    0.4173
   39.180    0.3210
   39.195    0.3210
   39.210    0.4387
   39.225    0.3317
   39.240    0.4280
   39.255    0.3852
   39.270    0.4173
   39.285    0.3638
   39.300    0.3745
   39.315    0.4066
   39.330    0.4280
   39.345    0.3424
   39.360    0.4066
   39.375    0.4280
   39.390    0.3638
   39.405    0.3531
   39.420    0.3745
   39.435    0.3745
   39.450    0.3210
   39.465    0.3210
   39.480    0.3638
   39.495    0.3745
   39.510    0.4066
   39.525    0.3852
   39.540    0.3745
   39.555    0.3210
   39.570    0.4494
   39.585    0.4173
   39.600    0.4922
   39.615    0.4066
   39.630    0.4173
   39.645    0.4280
   39.660    0.4494
   39.675    0.4708
   39.690    0.4494
   39.705    0.4601
   39.720    0.4173
   39.735    0.3531
   39.750    0.3210
   39.765    0.4494
   39.780    0.4066
   39.795    0.3317
   39.810    0.3531
   39.825    0.3638
   39.840    0.4815
   39.855    0.3959
   39.870    0.5350
   39.885    0.4173
   39.900    0.4708
   39.915    0.4494
   39.930    0.4815
   39.945    0.4173
   39.960    0.2996
   39.975    0.3531
   39.990    0.3852
