    1.500   14.9447
    1.515   15.1132
    1.530   14.7762
    1.545   15.0290
    1.560   14.9658
    1.575   14.7657
    1.590   14.7130
    1.605   14.3339
    1.620   14.3444
    1.635   14.0600
    1.650   14.3760
    1.665   14.3023
    1.680   13.8810
    1.695   13.6598
    1.710   13.7125
    1.725   13.8178
    1.740   13.7862
    1.755   13.6809
    1.770   13.3544
    1.785   13.1122
    1.800   13.0068
    1.815   12.7962
    1.830   13.4176
    1.845   13.1122
    1.860   12.6593
    1.875   12.4381
    1.890   12.8278
    1.905   12.3644
    1.920   12.6488
    1.935   12.8278
    1.950   12.4697
    1.965   12.6593
    1.980   12.2170
    1.995   12.2064
    2.010   12.3539
    2.025   11.8062
    2.040   11.8589
    2.055   11.9853
    2.070   11.8905
    2.085   12.6382
    2.100   12.1748
    2.115   12.3644
    2.130   11.9958
    2.145   12.1116
    2.160   12.1327
    2.175   11.9431
    2.190   12.4697
    2.205   12.3012
    2.220   11.9326
    2.235   12.3539
    2.250   11.7641
    2.265   11.5956
    2.280   11.3744
    2.295   11.3639
    2.310   11.0058
    2.325   11.2586
    2.340   11.7430
    2.355   11.5219
    2.370   11.6061
    2.385   11.6904
    2.400   11.3639
    2.415   11.0585
    2.430   11.0795
    2.445   11.2691
    2.460   11.6061
    2.475   11.9537
    2.490   11.6061
    2.505   12.0274
    2.520   12.0590
    2.535   11.5956
    2.550   12.0169
    2.565   11.7009
    2.580   11.6904
    2.595   12.0484
    2.610   12.1538
    2.625   11.9853
    2.640   12.0063
    2.655   11.7009
    2.670   11.7220
    2.685   11.6482
    2.700   11.3323
    2.715   11.4692
    2.730   12.1854
    2.745   12.1432
    2.760   11.6693
    2.775   12.2380
    2.790   12.4908
    2.805   11.9853
    2.820   12.2907
    2.835   12.1643
    2.850   12.4592
    2.865   12.6593
    2.880   12.5013
    2.895   12.5645
    2.910   12.3749
    2.925   12.4276
    2.940   12.8489
    2.955   13.1332
    2.970   13.1016
    2.985   13.4071
    3.000   13.6914
    3.015   13.6072
    3.030   13.2070
    3.045   13.4281
    3.060   13.7230
    3.075   14.3655
    3.090   14.2812
    3.105   14.0179
    3.120   14.6498
    3.135   14.8078
    3.150   15.7030
    3.165   15.8399
    3.180   15.4713
    3.195   15.6187
    3.210   16.2823
    3.225   16.5140
    3.240   16.5034
    3.255   16.7457
    3.270   17.1985
    3.285   17.6725
    3.300   17.6303
    3.315   18.3781
    3.330   18.9889
    3.345   19.3892
    3.360   20.2001
    3.375   20.3370
    3.390   20.0843
    3.405   20.7478
    3.420   21.2533
    3.435   22.2538
    3.450   23.0753
    3.465   23.9810
    3.480   23.0648
    3.495   23.8231
    3.510   23.8336
    3.525   24.5287
    3.540   25.0764
    3.555   24.3813
    3.570   25.9189
    3.585   26.6245
    3.600   26.3718
    3.615   27.2459
    3.630   28.0885
    3.645   28.9942
    3.660   30.9005
    3.675   30.7214
    3.690   33.7441
    3.705   34.3760
    3.720   35.4924
    3.735   37.7672
    3.750   40.4107
    3.765   43.2859
    3.780   44.8868
    3.795   48.2991
    3.810   52.9647
    3.825   57.3670
    3.840   62.8436
    3.855   67.8357
    3.870   71.2691
    3.885   70.5951
    3.900   65.2449
    3.915   57.9042
    3.930   44.8236
    3.945   33.0490
    3.960   25.1080
    3.975   20.1369
    3.990   17.8515
    4.005   16.2507
    4.020   15.1237
    4.035   13.8389
    4.050   13.5650
    4.065   13.2912
    4.080   11.9431
    4.095   10.9215
    4.110   11.3323
    4.125   11.4903
    4.140   10.7636
    4.155   10.4371
    4.170   10.0369
    4.185   10.4897
    4.200   10.5108
    4.215    9.6998
    4.230    9.7209
    4.245   10.4476
    4.260   10.1632
    4.275    9.5945
    4.290    9.1943
    4.305    9.2259
    4.320    8.6361
    4.335    9.5103
    4.350    9.4997
    4.365    9.4892
    4.380    9.2891
    4.395    9.0047
    4.410    8.6993
    4.425    8.7309
    4.440    9.0785
    4.455    8.7098
    4.470    8.6888
    4.485    8.4044
    4.500    8.6572
    4.515    8.3412
    4.530    8.8046
    4.545    8.7204
    4.560    8.6993
    4.575    8.4781
    4.590    8.5519
    4.605    8.8257
    4.620    8.4887
    4.635    8.5624
    4.650    8.9205
    4.665    9.2470
    4.680    8.8573
    4.695    8.6572
    4.710    8.8152
    4.725    8.4150
    4.740    8.3518
    4.755    8.4887
    4.770    8.5729
    4.785    8.2149
    4.800    8.4571
    4.815    8.8889
    4.830    8.6467
    4.845    8.4466
    4.860    8.7730
    4.875    8.6888
    4.890    8.6993
    4.905    8.5413
    4.920    8.4466
    4.935    8.5203
    4.950    8.3834
    4.965    9.4365
    4.980    9.0047
    4.995    9.1101
    5.010    8.8889
    5.025    8.9310
    5.040    9.1311
    5.055    8.6993
    5.070    9.1311
    5.085    9.8789
    5.100    9.4681
    5.115    9.6367
    5.130    9.2154
    5.145    9.4681
    5.160    9.4365
    5.175    9.2259
    5.190    9.9421
    5.205   10.1316
    5.220    9.8999
    5.235    9.3628
    5.250   10.2159
    5.265   10.1106
    5.280   10.0369
    5.295   10.6688
    5.310   10.6372
    5.325   11.1322
    5.340   11.5008
    5.355   11.7641
    5.370   11.6904
    5.385   12.0379
    5.400   12.1538
    5.415   12.9331
    5.430   13.2385
    5.445   13.8073
    5.460   14.9026
    5.475   15.3660
    5.490   15.9663
    5.505   16.6298
    5.520   15.5766
    5.535   13.8283
    5.550   13.2280
    5.565   11.6693
    5.580   10.2686
    5.595    9.2364
    5.610    8.9310
    5.625    8.4992
    5.640    8.3307
    5.655    8.6677
    5.670    8.5308
    5.685    8.1095
    5.700    8.2359
    5.715    8.3623
    5.730    8.2254
    5.745    7.6567
    5.760    8.0253
    5.775    8.0990
    5.790    7.8462
    5.805    7.8568
    5.820    8.1306
    5.835    8.3096
    5.850    8.1727
    5.865    8.0569
    5.880    8.4044
    5.895    8.3412
    5.910    8.1517
    5.925    7.9200
    5.940    8.3307
    5.955    8.3307
    5.970    7.6672
    5.985    7.8673
    6.000    8.0569
    6.015    7.8884
    6.030    7.9410
    6.045    8.3307
    6.060    8.2464
    6.075    7.9305
    6.090    7.9726
    6.105    7.8146
    6.120    7.6672
    6.135    7.4882
    6.150    7.7725
    6.165    8.2675
    6.180    8.0990
    6.195    7.9831
    6.210    7.7409
    6.225    7.6883
    6.240    7.7093
    6.255    7.9831
    6.270    7.8989
    6.285    7.8989
    6.300    7.6356
    6.315    7.9516
    6.330    7.9726
    6.345    7.5829
    6.360    7.5724
    6.375    7.6356
    6.390    7.8778
    6.405    7.8673
    6.420    7.7830
    6.435    7.9831
    6.450    7.8462
    6.465    8.0674
    6.480    7.9094
    6.495    7.6040
    6.510    8.1833
    6.525    8.4466
    6.540    8.2886
    6.555    8.2675
    6.570    8.4781
    6.585    8.9415
    6.600    8.1833
    6.615    8.3307
    6.630    8.0358
    6.645    8.1622
    6.660    8.4781
    6.675    8.3096
    6.690    8.7625
    6.705    8.5308
    6.720    8.7625
    6.735    9.0258
    6.750    9.2364
    6.765    8.7625
    6.780    8.5308
    6.795    8.5835
    6.810    9.1311
    6.825    8.3728
    6.840    8.6256
    6.855    8.7941
    6.870    8.4255
    6.885    8.4571
    6.900    8.2254
    6.915    8.1517
    6.930    8.3412
    6.945    8.4992
    6.960    8.4781
    6.975    8.0990
    6.990    8.5308
    7.005    7.9516
    7.020    8.0042
    7.035    7.9831
    7.050    8.1727
    7.065    8.4044
    7.080    8.4044
    7.095    8.2359
    7.110    8.1201
    7.125    7.9516
    7.140    8.0042
    7.155    8.0463
    7.170    7.8357
    7.185    8.2886
    7.200    7.7936
    7.215    8.1517
    7.230    8.0042
    7.245    7.6777
    7.260    7.7725
    7.275    8.1517
    7.290    8.4044
    7.305    8.3096
    7.320    7.6988
    7.335    8.1938
    7.350    8.0463
    7.365    8.4676
    7.380    7.7725
    7.395    7.9937
    7.410    8.3939
    7.425    8.1833
    7.440    8.0358
    7.455    8.5519
    7.470    8.5203
    7.485    8.3307
    7.500    8.5519
    7.515    8.6783
    7.530    8.9100
    7.545    8.4466
    7.560    8.3202
    7.575    8.7730
    7.590    8.3202
    7.605    8.3307
    7.620    8.7204
    7.635    8.9415
    7.650    8.7098
    7.665    8.9837
    7.680    8.9415
    7.695    9.1732
    7.710    9.0469
    7.725    9.8052
    7.740   10.1422
    7.755   10.4581
    7.770   10.1422
    7.785   11.0374
    7.800   10.5635
    7.815   10.6582
    7.830   10.0474
    7.845    9.9526
    7.860    9.2259
    7.875    8.8257
    7.890    8.6783
    7.905    8.7941
    7.920    8.6361
    7.935    8.4887
    7.950    8.7204
    7.965    8.3518
    7.980    8.4044
    7.995    8.3939
    8.010    8.1095
    8.025    8.4887
    8.040    8.3518
    8.055    8.2991
    8.070    8.2991
    8.085    8.5097
    8.100    8.0042
    8.115    8.2780
    8.130    8.1727
    8.145    8.3728
    8.160    8.0569
    8.175    7.7620
    8.190    7.9516
    8.205    8.7520
    8.220    8.1411
    8.235    8.0463
    8.250    8.6572
    8.265    8.4360
    8.280    8.6361
    8.295    8.4992
    8.310    8.1938
    8.325    8.3623
    8.340    8.3834
    8.355    8.6888
    8.370    8.5835
    8.385    8.5624
    8.400    8.7520
    8.415    8.8573
    8.430    8.7098
    8.445    8.4150
    8.460    8.3412
    8.475    8.4887
    8.490    8.5203
    8.505    8.4887
    8.520    8.3202
    8.535    8.4044
    8.550    8.4466
    8.565    8.1411
    8.580    8.4887
    8.595    8.4571
    8.610    8.7730
    8.625    8.7098
    8.640    8.6783
    8.655    8.7625
    8.670    8.8678
    8.685    9.0258
    8.700    8.6045
    8.715    9.1627
    8.730    8.3412
    8.745    8.3939
    8.760    8.3623
    8.775    8.2675
    8.790    8.4676
    8.805    8.6256
    8.820    8.6783
    8.835    8.7836
    8.850    8.7730
    8.865    8.8678
    8.880    8.8152
    8.895    8.5835
    8.910    8.6256
    8.925    8.4255
    8.940    8.7520
    8.955    8.4255
    8.970    8.5940
    8.985    8.7836
    9.000    8.6572
    9.015    9.1522
    9.030    8.8889
    9.045    8.7414
    9.060    9.0785
    9.075    8.4887
    9.090    8.7098
    9.105    8.5940
    9.120    9.1522
    9.135    8.9942
    9.150    8.9100
    9.165    8.9205
    9.180    8.6783
    9.195    8.6572
    9.210    8.6677
    9.225    8.7836
    9.240    9.4260
    9.255    9.2680
    9.270    9.0995
    9.285    8.8468
    9.300    9.3102
    9.315    8.7941
    9.330    9.2048
    9.345    9.0890
    9.360    9.2154
    9.375    9.8157
    9.390    9.4997
    9.405    9.7420
    9.420   10.4581
    9.435   10.3423
    9.450   10.1843
    9.465   10.6898
    9.480   11.2059
    9.495   11.4165
    9.510   11.4903
    9.525   12.2486
    9.540   13.4387
    9.555   13.1859
    9.570   12.9753
    9.585   12.9015
    9.600   12.6277
    9.615   11.7852
    9.630   11.7009
    9.645   10.4687
    9.660    9.6367
    9.675    9.3312
    9.690    9.4260
    9.705    9.1417
    9.720    8.7941
    9.735    9.0679
    9.750    8.5203
    9.765    8.8046
    9.780    8.8362
    9.795    8.6993
    9.810    9.0047
    9.825    9.2470
    9.840    9.1417
    9.855    9.0363
    9.870    8.8362
    9.885    9.0469
    9.900    8.9521
    9.915    9.4892
    9.930    8.7309
    9.945    8.9521
    9.960    9.1101
    9.975    8.8257
    9.990    9.3207
   10.005    8.8257
   10.020    9.0363
   10.035    8.4887
   10.050    8.8573
   10.065    9.1522
   10.080    9.0469
   10.095    8.8994
   10.110    9.1732
   10.125    8.8152
   10.140    9.1732
   10.155    8.6783
   10.170    9.1417
   10.185    9.4892
   10.200    9.5840
   10.215    9.7525
   10.230    9.4997
   10.245    9.3944
   10.260    9.5524
   10.275    9.6893
   10.290    9.3523
   10.305    9.7946
   10.320   10.0053
   10.335   10.2791
   10.350   10.1632
   10.365   10.2580
   10.380   10.3739
   10.395    9.7525
   10.410    8.9100
   10.425    8.7309
   10.440    8.7204
   10.455    8.6888
   10.470    8.9942
   10.485    9.1627
   10.500    8.8468
   10.515    8.9837
   10.530    8.4676
   10.545    8.7836
   10.560    8.7098
   10.575    8.4571
   10.590    9.1627
   10.605    8.4150
   10.620    8.2254
   10.635    8.2570
   10.650    8.5413
   10.665    8.9942
   10.680    9.2259
   10.695    8.8889
   10.710    8.3939
   10.725    8.7204
   10.740    8.5203
   10.755    9.1417
   10.770    8.8784
   10.785    8.7414
   10.800    8.5413
   10.815    9.0258
   10.830    8.7625
   10.845    8.4676
   10.860    8.7098
   10.875    8.5097
   10.890    8.9521
   10.905    9.1417
   10.920    8.6993
   10.935    9.2048
   10.950    9.1101
   10.965    9.3418
   10.980    9.2259
   10.995    9.4892
   11.010    9.3628
   11.025    9.3839
   11.040    9.4050
   11.055    9.7209
   11.070    9.6156
   11.085    9.6472
   11.100    9.1417
   11.115    9.1206
   11.130    9.0047
   11.145    8.6151
   11.160    8.8468
   11.175    8.0885
   11.190    8.0990
   11.205    8.2886
   11.220    8.6467
   11.235    8.5413
   11.250    8.4676
   11.265    8.2780
   11.280    8.3202
   11.295    8.3096
   11.310    8.1517
   11.325    8.2149
   11.340    7.9937
   11.355    8.0042
   11.370    7.9305
   11.385    7.9516
   11.400    8.2359
   11.415    8.0147
   11.430    8.7625
   11.445    8.8362
   11.460    8.3518
   11.475    8.5308
   11.490    8.5308
   11.505    8.1622
   11.520    8.3307
   11.535    8.2254
   11.550    8.5413
   11.565    8.3518
   11.580    8.4255
   11.595    8.4571
   11.610    8.4150
   11.625    8.5940
   11.640    8.9626
   11.655    8.9415
   11.670    9.3628
   11.685    8.9100
   11.700    9.1101
   11.715    9.4997
   11.730    9.4892
   11.745    9.0679
   11.760    9.0153
   11.775    9.4681
   11.790    9.2048
   11.805    8.5308
   11.820    8.2043
   11.835    8.4992
   11.850    7.9410
   11.865    7.9516
   11.880    7.8041
   11.895    7.7830
   11.910    7.8146
   11.925    7.6777
   11.940    7.8252
   11.955    7.8778
   11.970    8.2886
   11.985    8.0253
   12.000    7.9200
   12.015    7.5619
   12.030    8.0358
   12.045    8.0674
   12.060    7.9937
   12.075    7.8146
   12.090    8.0042
   12.105    7.7620
   12.120    7.5724
   12.135    7.2775
   12.150    7.8146
   12.165    7.6145
   12.180    7.8884
   12.195    7.7830
   12.210    7.8673
   12.225    7.5829
   12.240    8.1201
   12.255    7.8778
   12.270    7.7830
   12.285    7.9831
   12.300    8.0042
   12.315    7.4355
   12.330    7.7093
   12.345    7.8884
   12.360    7.9621
   12.375    7.4882
   12.390    7.4250
   12.405    8.0358
   12.420    7.6461
   12.435    7.6461
   12.450    7.5513
   12.465    7.5092
   12.480    7.6672
   12.495    7.5197
   12.510    7.5724
   12.525    7.4776
   12.540    7.4355
   12.555    7.6251
   12.570    7.9726
   12.585    7.4566
   12.600    7.4882
   12.615    7.4039
   12.630    7.8041
   12.645    7.7936
   12.660    7.2775
   12.675    7.7093
   12.690    7.6883
   12.705    7.4776
   12.720    7.4776
   12.735    7.8252
   12.750    8.0463
   12.765    7.8252
   12.780    8.0147
   12.795    7.7199
   12.810    7.2670
   12.825    7.6777
   12.840    7.7199
   12.855    7.5197
   12.870    7.8146
   12.885    8.2886
   12.900    8.1622
   12.915    8.3518
   12.930    8.1938
   12.945    8.1411
   12.960    8.4781
   12.975    8.5097
   12.990    8.4571
   13.005    8.3307
   13.020    7.7936
   13.035    8.1622
   13.050    8.0042
   13.065    7.7936
   13.080    7.4566
   13.095    7.7725
   13.110    7.7093
   13.125    7.5513
   13.140    7.2986
   13.155    7.2986
   13.170    7.4776
   13.185    7.4250
   13.200    7.4671
   13.215    7.3512
   13.230    7.5513
   13.245    7.1195
   13.260    7.5724
   13.275    7.1933
   13.290    7.0669
   13.305    7.4355
   13.320    7.4250
   13.335    7.1195
   13.350    6.9826
   13.365    7.2354
   13.380    7.4144
   13.395    7.2986
   13.410    7.2880
   13.425    7.4776
   13.440    7.5935
   13.455    7.9094
   13.470    7.7304
   13.485    7.5092
   13.500    7.0985
   13.515    7.3828
   13.530    7.8673
   13.545    7.8778
   13.560    7.7725
   13.575    7.9831
   13.590    7.8884
   13.605    7.8252
   13.620    7.5935
   13.635    7.2565
   13.650    7.2670
   13.665    7.5197
   13.680    7.3723
   13.695    7.4882
   13.710    6.9932
   13.725    7.3828
   13.740    7.2880
   13.755    7.1406
   13.770    6.9089
   13.785    7.0248
   13.800    6.5508
   13.815    6.7615
   13.830    7.2986
   13.845    7.2775
   13.860    7.4460
   13.875    7.1827
   13.890    7.0353
   13.905    7.5513
   13.920    7.6040
   13.935    7.5829
   13.950    7.5724
   13.965    7.2986
   13.980    6.9932
   13.995    7.7409
   14.010    7.7830
   14.025    7.9516
   14.040    8.0885
   14.055    7.8252
   14.070    7.2249
   14.085    7.4671
   14.100    8.0885
   14.115    8.1517
   14.130    8.2254
   14.145    7.6040
   14.160    7.7936
   14.175    8.0885
   14.190    7.8041
   14.205    7.2670
   14.220    7.1511
   14.235    7.7199
   14.250    7.5092
   14.265    7.3828
   14.280    7.0353
   14.295    6.8668
   14.310    7.0458
   14.325    7.5619
   14.340    7.1195
   14.355    7.0458
   14.370    6.8246
   14.385    6.9616
   14.400    7.0248
   14.415    6.9300
   14.430    7.2249
   14.445    7.2038
   14.460    7.2249
   14.475    7.3302
   14.490    7.2038
   14.505    7.1617
   14.520    7.4250
   14.535    7.0563
   14.550    7.1617
   14.565    7.4250
   14.580    7.4039
   14.595    7.7620
   14.610    7.2354
   14.625    7.1933
   14.640    6.9089
   14.655    7.3512
   14.670    7.3934
   14.685    6.9300
   14.700    7.0879
   14.715    7.6672
   14.730    7.4776
   14.745    7.0458
   14.760    7.2354
   14.775    7.2880
   14.790    7.3407
   14.805    7.2354
   14.820    7.4882
   14.835    7.1406
   14.850    7.2143
   14.865    7.0669
   14.880    7.0774
   14.895    7.1406
   14.910    7.3723
   14.925    7.4671
   14.940    7.0142
   14.955    6.9089
   14.970    6.8984
   14.985    7.0774
   15.000    7.5408
   15.015    7.4882
   15.030    7.6988
   15.045    7.2143
   15.060    7.4144
   15.075    8.0569
   15.090    7.1933
   15.105    7.1827
   15.120    7.6461
   15.135    7.2775
   15.150    7.5513
   15.165    7.6040
   15.180    7.7199
   15.195    7.7936
   15.210    7.7620
   15.225    7.5724
   15.240    7.1617
   15.255    7.7093
   15.270    7.3618
   15.285    7.2986
   15.300    7.5829
   15.315    7.6251
   15.330    7.3618
   15.345    6.7088
   15.360    7.0353
   15.375    6.8036
   15.390    6.7193
   15.405    6.9510
   15.420    7.1301
   15.435    7.1827
   15.450    7.3723
   15.465    7.8041
   15.480    7.4460
   15.495    6.9089
   15.510    7.0458
   15.525    7.0458
   15.540    7.2459
   15.555    7.2143
   15.570    7.2670
   15.585    7.4355
   15.600    7.3512
   15.615    7.1827
   15.630    7.2986
   15.645    7.2249
   15.660    7.3828
   15.675    7.2565
   15.690    6.8141
   15.705    7.1722
   15.720    7.1511
   15.735    7.0879
   15.750    7.3934
   15.765    7.1090
   15.780    7.1090
   15.795    7.3196
   15.810    7.4355
   15.825    7.3196
   15.840    7.4144
   15.855    7.4987
   15.870    7.2354
   15.885    7.5092
   15.900    6.8984
   15.915    7.6777
   15.930    7.2354
   15.945    7.2670
   15.960    7.2775
   15.975    7.5935
   15.990    7.5092
   16.005    7.1511
   16.020    6.8562
   16.035    7.5092
   16.050    7.7620
   16.065    7.6883
   16.080    7.6461
   16.095    7.6988
   16.110    7.6883
   16.125    7.8462
   16.140    7.8357
   16.155    7.6988
   16.170    8.0042
   16.185    7.8989
   16.200    7.3934
   16.215    7.8462
   16.230    7.7409
   16.245    7.2459
   16.260    7.6251
   16.275    7.5408
   16.290    7.7830
   16.305    7.1511
   16.320    7.3723
   16.335    7.3091
   16.350    7.7620
   16.365    7.5724
   16.380    7.7725
   16.395    7.4776
   16.410    7.4460
   16.425    8.0779
   16.440    8.1833
   16.455    8.0779
   16.470    7.8778
   16.485    7.8462
   16.500    7.3828
   16.515    7.6251
   16.530    7.3512
   16.545    7.6883
   16.560    7.3934
   16.575    7.4776
   16.590    7.7409
   16.605    7.4566
   16.620    7.3723
   16.635    7.7620
   16.650    7.3196
   16.665    7.8146
   16.680    7.5619
   16.695    7.7304
   16.710    7.4882
   16.725    7.2459
   16.740    7.2775
   16.755    7.4460
   16.770    7.2143
   16.785    7.3407
   16.800    7.9516
   16.815    7.6145
   16.830    7.2880
   16.845    7.7199
   16.860    7.5092
   16.875    7.0985
   16.890    7.2986
   16.905    7.3934
   16.920    7.8884
   16.935    7.4039
   16.950    7.4460
   16.965    7.9726
   16.980    7.8357
   16.995    7.8252
   17.010    7.7725
   17.025    7.5092
   17.040    7.9937
   17.055    7.9726
   17.070    8.0042
   17.085    8.3834
   17.100    8.1622
   17.115    7.9937
   17.130    8.0779
   17.145    7.6777
   17.160    7.9937
   17.175    8.3307
   17.190    8.1306
   17.205    7.6567
   17.220    7.7409
   17.235    7.3512
   17.250    7.3512
   17.265    7.2775
   17.280    7.0879
   17.295    7.1195
   17.310    7.4987
   17.325    7.0985
   17.340    7.4460
   17.355    7.4776
   17.370    7.3934
   17.385    7.0669
   17.400    7.6461
   17.415    7.4144
   17.430    7.3091
   17.445    7.1406
   17.460    7.5092
   17.475    7.5408
   17.490    7.3407
   17.505    7.9410
   17.520    7.5197
   17.535    7.6672
   17.550    7.4460
   17.565    7.1195
   17.580    7.3196
   17.595    7.3618
   17.610    7.4144
   17.625    7.1617
   17.640    7.6461
   17.655    7.7093
   17.670    7.1301
   17.685    7.0669
   17.700    6.9826
   17.715    7.6356
   17.730    7.4987
   17.745    7.2880
   17.760    7.6040
   17.775    7.9094
   17.790    7.2143
   17.805    7.0879
   17.820    7.1406
   17.835    6.8984
   17.850    7.3091
   17.865    7.5408
   17.880    7.4671
   17.895    7.7830
   17.910    7.7093
   17.925    7.4882
   17.940    7.7093
   17.955    7.5619
   17.970    7.5513
   17.985    7.3302
   18.000    7.4144
   18.015    7.0458
   18.030    7.5829
   18.045    7.4566
   18.060    7.4039
   18.075    7.5092
   18.090    7.6356
   18.105    7.6145
   18.120    7.1722
   18.135    7.2038
   18.150    7.2354
   18.165    7.0774
   18.180    7.3091
   18.195    7.4460
   18.210    7.2880
   18.225    7.2880
   18.240    7.2880
   18.255    7.6356
   18.270    7.6988
   18.285    7.6145
   18.300    7.5619
   18.315    7.8989
   18.330    7.2143
   18.345    7.2986
   18.360    7.0458
   18.375    7.1301
   18.390    7.8989
   18.405    7.4355
   18.420    7.7093
   18.435    7.7830
   18.450    7.5935
   18.465    7.7409
   18.480    7.5724
   18.495    7.6040
   18.510    7.4776
   18.525    7.4460
   18.540    7.4882
   18.555    7.6777
   18.570    7.4882
   18.585    7.1195
   18.600    7.5408
   18.615    7.6672
   18.630    7.5619
   18.645    7.2670
   18.660    7.6356
   18.675    7.3512
   18.690    7.7093
   18.705    7.5513
   18.720    7.2670
   18.735    7.3618
   18.750    7.4039
   18.765    7.3723
   18.780    7.5724
   18.795    7.5092
   18.810    7.7514
   18.825    7.7093
   18.840    7.4566
   18.855    7.6251
   18.870    7.4460
   18.885    7.4250
   18.900    7.5513
   18.915    7.5829
   18.930    8.4676
   18.945    8.0779
   18.960    7.8462
   18.975    8.1095
   18.990    8.3518
   19.005    8.2570
   19.020    8.1411
   19.035    7.6988
   19.050    7.3618
   19.065    7.2565
   19.080    7.5935
   19.095    7.6040
   19.110    7.4566
   19.125    7.6251
   19.140    7.2143
   19.155    7.3723
   19.170    7.8884
   19.185    7.7830
   19.200    7.5197
   19.215    7.7199
   19.230    7.2459
   19.245    7.0879
   19.260    7.2775
   19.275    7.3828
   19.290    7.1195
   19.305    7.2249
   19.320    7.5303
   19.335    7.4882
   19.350    7.5829
   19.365    7.3302
   19.380    7.3934
   19.395    7.5303
   19.410    7.2986
   19.425    7.0248
   19.440    7.4039
   19.455    7.8146
   19.470    7.9516
   19.485    7.5619
   19.500    7.4039
   19.515    7.4355
   19.530    7.5408
   19.545    7.9726
   19.560    8.0358
   19.575    7.8252
   19.590    7.8884
   19.605    7.8884
   19.620    8.0885
   19.635    7.6251
   19.650    7.4355
   19.665    7.4882
   19.680    7.5092
   19.695    8.2149
   19.710    7.7093
   19.725    7.5829
   19.740    6.9616
   19.755    7.2986
   19.770    7.6988
   19.785    7.4882
   19.800    7.7725
   19.815    7.2565
   19.830    8.0990
   19.845    8.2570
   19.860    7.8568
   19.875    7.5829
   19.890    7.7830
   19.905    7.8041
   19.920    7.8673
   19.935    7.6883
   19.950    7.4566
   19.965    7.4882
   19.980    7.7199
   19.995    7.8673
   20.010    7.5513
   20.025    7.6883
   20.040    7.7514
   20.055    7.5724
   20.070    7.4144
   20.085    7.7936
   20.100    7.4882
   20.115    7.4882
   20.130    8.0779
   20.145    7.7514
   20.160    7.6461
   20.175    7.3196
   20.190    7.5408
   20.205    7.5197
   20.220    7.6883
   20.235    8.3202
   20.250    8.1095
   20.265    8.3096
   20.280    7.7830
   20.295    7.8146
   20.310    7.8989
   20.325    7.8252
   20.340    8.2043
   20.355    8.6151
   20.370    8.1201
   20.385    8.2780
   20.400    8.3096
   20.415    8.1833
   20.430    8.1517
   20.445    8.1938
   20.460    7.8989
   20.475    7.8673
   20.490    8.1411
   20.505    7.9831
   20.520    7.6672
   20.535    7.7199
   20.550    7.7830
   20.565    7.6145
   20.580    7.7304
   20.595    7.6251
   20.610    7.4250
   20.625    8.0779
   20.640    7.8462
   20.655    8.1517
   20.670    7.7304
   20.685    7.7093
   20.700    8.1727
   20.715    8.0569
   20.730    7.4987
   20.745    7.3091
   20.760    7.4355
   20.775    8.1938
   20.790    7.8989
   20.805    7.9305
   20.820    7.7304
   20.835    7.7409
   20.850    8.0779
   20.865    7.8041
   20.880    7.4566
   20.895    7.3828
   20.910    7.6461
   20.925    7.9094
   20.940    7.8884
   20.955    7.9094
   20.970    7.6672
   20.985    7.6988
   21.000    7.6251
   21.015    7.6461
   21.030    7.7620
   21.045    7.6988
   21.060    7.5408
   21.075    7.5619
   21.090    7.5197
   21.105    7.6356
   21.120    7.7093
   21.135    7.6461
   21.150    7.7725
   21.165    7.9410
   21.180    7.5724
   21.195    7.7093
   21.210    7.9726
   21.225    7.6777
   21.240    7.7093
   21.255    8.1201
   21.270    7.8462
   21.285    7.6883
   21.300    7.7304
   21.315    7.4882
   21.330    7.2565
   21.345    7.9200
   21.360    7.7620
   21.375    7.8041
   21.390    7.5513
   21.405    8.1095
   21.420    7.9305
   21.435    7.4566
   21.450    7.4882
   21.465    7.8357
   21.480    8.2464
   21.495    8.0885
   21.510    7.6356
   21.525    8.3096
   21.540    7.8146
   21.555    7.6461
   21.570    7.5935
   21.585    7.8884
   21.600    7.9200
   21.615    8.0674
   21.630    8.1095
   21.645    7.8568
   21.660    7.6251
   21.675    7.6356
   21.690    7.9094
   21.705    7.6672
   21.720    7.9305
   21.735    7.9726
   21.750    7.6777
   21.765    8.0674
   21.780    7.6356
   21.795    7.7830
   21.810    8.2464
   21.825    8.0147
   21.840    8.3412
   21.855    8.3096
   21.870    7.8778
   21.885    8.2780
   21.900    8.1622
   21.915    8.3202
   21.930    8.2780
   21.945    8.1201
   21.960    7.7199
   21.975    7.8357
   21.990    8.0463
   22.005    7.9726
   22.020    7.9831
   22.035    7.8146
   22.050    7.6988
   22.065    7.9621
   22.080    8.0463
   22.095    7.8778
   22.110    8.3202
   22.125    8.0042
   22.140    7.8884
   22.155    8.3623
   22.170    8.2149
   22.185    7.6988
   22.200    8.2149
   22.215    7.6672
   22.230    8.3518
   22.245    8.6467
   22.260    8.1517
   22.275    7.8462
   22.290    7.8357
   22.305    8.1938
   22.320    8.1938
   22.335    8.2464
   22.350    7.9831
   22.365    7.8252
   22.380    8.2780
   22.395    8.3307
   22.410    8.3412
   22.425    7.6251
   22.440    7.7830
   22.455    8.2043
   22.470    8.6256
   22.485    8.2149
   22.500    8.1201
   22.515    8.1306
   22.530    8.3096
   22.545    8.1517
   22.560    8.1833
   22.575    8.8784
   22.590    8.4571
   22.605    8.4466
   22.620    8.5729
   22.635    8.6151
   22.650    8.3518
   22.665    8.0569
   22.680    8.4150
   22.695    8.4571
   22.710    8.0042
   22.725    7.4355
   22.740    7.7620
   22.755    7.9621
   22.770    7.8568
   22.785    7.8041
   22.800    7.9937
   22.815    7.9516
   22.830    8.3518
   22.845    8.2043
   22.860    8.2780
   22.875    8.5729
   22.890    8.6677
   22.905    8.5519
   22.920    8.4781
   22.935    8.7836
   22.950    9.1838
   22.965    9.0574
   22.980    8.9415
   22.995    8.3728
   23.010    8.7204
   23.025    8.3939
   23.040    8.1095
   23.055    8.4044
   23.070    8.2359
   23.085    8.4255
   23.100    8.1727
   23.115    7.9410
   23.130    8.0147
   23.145    8.3728
   23.160    8.4887
   23.175    8.0147
   23.190    8.2675
   23.205    7.8673
   23.220    8.2464
   23.235    8.2570
   23.250    8.2780
   23.265    7.9937
   23.280    7.5619
   23.295    7.4460
   23.310    8.0674
   23.325    7.7725
   23.340    7.9831
   23.355    7.9410
   23.370    7.7620
   23.385    7.7620
   23.400    7.6251
   23.415    7.8146
   23.430    7.7514
   23.445    7.4144
   23.460    7.8778
   23.475    7.9516
   23.490    8.2149
   23.505    8.6361
   23.520    8.1411
   23.535    7.9094
   23.550    7.6988
   23.565    7.8146
   23.580    7.7409
   23.595    8.2043
   23.610    7.9410
   23.625    7.6251
   23.640    7.7514
   23.655    8.1517
   23.670    8.1306
   23.685    8.2570
   23.700    8.2149
   23.715    8.2991
   23.730    8.0358
   23.745    8.0147
   23.760    7.7725
   23.775    7.4355
   23.790    7.5513
   23.805    7.5935
   23.820    7.7199
   23.835    7.8146
   23.850    7.6461
   23.865    7.7199
   23.880    7.6040
   23.895    8.2359
   23.910    7.9410
   23.925    7.7199
   23.940    7.8778
   23.955    8.0990
   23.970    7.9305
   23.985    7.8252
   24.000    8.1306
   24.015    8.0042
   24.030    8.0253
   24.045    7.8673
   24.060    7.6145
   24.075    7.9305
   24.090    8.3412
   24.105    7.6461
   24.120    7.7514
   24.135    7.9410
   24.150    8.3728
   24.165    7.4460
   24.180    7.6461
   24.195    7.8146
   24.210    8.0990
   24.225    7.4882
   24.240    7.4250
   24.255    7.4355
   24.270    7.6672
   24.285    7.6672
   24.300    7.9516
   24.315    8.0779
   24.330    7.5619
   24.345    7.5092
   24.360    7.7830
   24.375    7.8252
   24.390    7.5829
   24.405    7.4355
   24.420    7.4776
   24.435    7.9200
   24.450    7.7514
   24.465    8.0569
   24.480    8.2359
   24.495    7.6145
   24.510    8.0463
   24.525    7.8462
   24.540    7.9200
   24.555    7.8462
   24.570    7.8884
   24.585    7.9726
   24.600    7.6356
   24.615    7.6777
   24.630    7.6145
   24.645    7.9621
   24.660    8.0147
   24.675    8.2780
   24.690    7.7304
   24.705    7.5197
   24.720    7.4671
   24.735    7.1406
   24.750    7.3302
   24.765    7.5513
   24.780    7.5619
   24.795    7.2986
   24.810    7.7725
   24.825    7.6461
   24.840    7.7514
   24.855    7.8252
   24.870    7.5829
   24.885    7.5092
   24.900    7.5303
   24.915    7.6251
   24.930    7.5092
   24.945    7.6251
   24.960    7.5619
   24.975    7.9516
   24.990    7.4460
   25.005    8.0674
   25.020    7.7830
   25.035    7.4671
   25.050    7.4250
   25.065    7.2880
   25.080    7.4987
   25.095    7.5619
   25.110    7.8673
   25.125    7.6356
   25.140    7.6567
   25.155    7.8462
   25.170    7.5935
   25.185    7.6145
   25.200    7.5724
   25.215    7.6883
   25.230    7.5619
   25.245    7.3512
   25.260    7.4882
   25.275    7.6040
   25.290    8.1201
   25.305    7.5408
   25.320    7.6567
   25.335    7.7620
   25.350    7.5829
   25.365    7.2986
   25.380    7.6251
   25.395    7.6988
   25.410    7.5408
   25.425    7.4355
   25.440    7.6777
   25.455    7.4460
   25.470    7.5935
   25.485    7.6567
   25.500    7.5408
   25.515    7.6567
   25.530    7.5724
   25.545    7.8041
   25.560    7.6356
   25.575    7.6145
   25.590    7.5619
   25.605    7.8252
   25.620    7.6356
   25.635    7.6251
   25.650    7.2565
   25.665    7.6145
   25.680    7.5408
   25.695    7.4882
   25.710    7.4882
   25.725    7.8462
   25.740    7.6461
   25.755    7.7199
   25.770    7.5829
   25.785    7.7514
   25.800    7.9937
   25.815    7.8146
   25.830    7.8357
   25.845    8.4255
   25.860    8.3939
   25.875    7.8252
   25.890    7.9516
   25.905    7.8146
   25.920    7.7620
   25.935    8.2149
   25.950    7.8041
   25.965    7.8146
   25.980    7.5935
   25.995    7.3407
   26.010    7.3091
   26.025    7.1406
   26.040    7.2038
   26.055    7.3828
   26.070    7.4776
   26.085    7.8041
   26.100    7.3302
   26.115    7.4250
   26.130    7.6040
   26.145    7.4882
   26.160    6.9721
   26.175    7.6251
   26.190    7.6567
   26.205    7.0458
   26.220    7.3618
   26.235    7.6988
   26.250    7.7514
   26.265    7.1617
   26.280    7.3618
   26.295    7.5092
   26.310    6.9089
   26.325    7.2459
   26.340    7.5092
   26.355    7.3828
   26.370    7.2670
   26.385    7.5724
   26.400    7.1195
   26.415    7.0774
   26.430    7.0142
   26.445    7.7304
   26.460    7.4355
   26.475    7.2459
   26.490    7.2565
   26.505    7.3723
   26.520    7.4776
   26.535    7.5197
   26.550    7.2143
   26.565    7.6040
   26.580    7.4039
   26.595    7.0037
   26.610    7.0879
   26.625    7.5092
   26.640    7.1406
   26.655    7.1511
   26.670    7.2986
   26.685    7.2775
   26.700    7.5935
   26.715    7.2459
   26.730    7.4355
   26.745    7.3302
   26.760    7.0353
   26.775    7.1933
   26.790    7.2459
   26.805    7.6251
   26.820    7.4460
   26.835    7.5092
   26.850    7.2354
   26.865    7.2354
   26.880    7.1511
   26.895    7.4039
   26.910    7.7725
   26.925    7.4355
   26.940    7.8041
   26.955    7.5197
   26.970    7.3828
   26.985    6.8668
   27.000    7.4039
   27.015    7.7620
   27.030    7.6988
   27.045    7.5408
   27.060    7.6461
   27.075    7.4566
   27.090    7.2986
   27.105    7.1406
   27.120    7.3828
   27.135    7.4882
   27.150    7.6672
   27.165    6.9510
   27.180    7.2986
   27.195    7.5829
   27.210    6.9510
   27.225    7.0563
   27.240    7.4250
   27.255    7.0142
   27.270    7.2880
   27.285    7.4776
   27.300    7.4250
   27.315    7.3091
   27.330    6.9089
   27.345    6.9089
   27.360    7.0458
   27.375    6.9616
   27.390    7.1301
   27.405    7.1090
   27.420    7.4250
   27.435    6.9089
   27.450    6.9510
   27.465    6.8984
   27.480    7.2249
   27.495    7.3828
   27.510    7.0879
   27.525    7.2670
   27.540    7.1406
   27.555    7.2670
   27.570    7.4987
   27.585    6.8878
   27.600    7.1511
   27.615    7.3196
   27.630    7.1090
   27.645    7.1933
   27.660    7.2249
   27.675    7.6672
   27.690    7.4355
   27.705    7.1090
   27.720    7.1090
   27.735    7.3091
   27.750    7.4144
   27.765    7.0563
   27.780    7.4039
   27.795    7.4039
   27.810    7.0458
   27.825    6.7720
   27.840    7.1301
   27.855    7.1301
   27.870    7.3407
   27.885    7.6672
   27.900    7.1722
   27.915    7.4566
   27.930    6.9089
   27.945    7.3196
   27.960    7.2880
   27.975    7.3934
   27.990    7.3512
   28.005    7.5829
   28.020    7.8146
   28.035    7.5829
   28.050    7.5513
   28.065    7.6672
   28.080    7.4144
   28.095    7.1511
   28.110    7.1090
   28.125    6.6667
   28.140    7.2775
   28.155    7.1722
   28.170    7.3407
   28.185    7.6040
   28.200    7.1722
   28.215    7.3302
   28.230    7.5303
   28.245    7.6461
   28.260    6.9089
   28.275    7.0879
   28.290    7.1511
   28.305    7.1406
   28.320    7.2143
   28.335    7.1933
   28.350    7.3723
   28.365    7.6356
   28.380    6.8036
   28.395    6.6561
   28.410    7.0774
   28.425    7.0879
   28.440    7.2670
   28.455    6.9721
   28.470    6.8457
   28.485    7.1617
   28.500    7.2986
   28.515    7.2038
   28.530    7.2143
   28.545    6.8457
   28.560    7.1090
   28.575    7.2249
   28.590    7.1511
   28.605    6.9932
   28.620    6.6877
   28.635    6.7404
   28.650    7.1827
   28.665    7.2565
   28.680    6.7088
   28.695    6.9721
   28.710    7.1406
   28.725    7.1617
   28.740    6.9932
   28.755    6.8246
   28.770    7.2038
   28.785    6.9616
   28.800    6.7720
   28.815    6.8036
   28.830    7.0879
   28.845    6.9721
   28.860    6.8352
   28.875    7.0248
   28.890    7.2143
   28.905    7.4671
   28.920    7.4250
   28.935    7.5619
   28.950    7.5197
   28.965    7.1195
   28.980    6.7509
   28.995    6.7720
   29.010    7.0563
   29.025    6.8668
   29.040    7.3723
   29.055    7.3828
   29.070    7.1301
   29.085    7.0669
   29.100    7.0669
   29.115    7.0669
   29.130    7.1090
   29.145    6.4982
   29.160    7.0248
   29.175    6.8141
   29.190    6.7615
   29.205    6.7825
   29.220    6.7299
   29.235    7.0985
   29.250    6.4666
   29.265    6.5087
   29.280    6.7720
   29.295    6.8457
   29.310    6.8457
   29.325    6.6983
   29.340    7.1827
   29.355    7.0353
   29.370    6.9089
   29.385    7.0985
   29.400    7.3723
   29.415    6.9616
   29.430    7.0774
   29.445    6.8773
   29.460    6.7404
   29.475    7.0458
   29.490    7.2354
   29.505    7.0774
   29.520    7.0879
   29.535    6.6877
   29.550    6.6351
   29.565    6.9826
   29.580    7.0037
   29.595    6.5087
   29.610    6.4139
   29.625    6.5929
   29.640    6.8352
   29.655    7.2354
   29.670    7.1722
   29.685    6.9510
   29.700    6.9721
   29.715    6.7404
   29.730    6.4244
   29.745    6.5719
   29.760    6.7615
   29.775    7.1827
   29.790    6.6561
   29.805    6.8352
   29.820    6.7509
   29.835    6.9089
   29.850    6.8773
   29.865    7.0563
   29.880    6.7193
   29.895    6.9616
   29.910    7.1617
   29.925    6.8773
   29.940    6.6456
   29.955    6.9405
   29.970    6.7299
   29.985    6.5192
   30.000    6.6035
   30.015    6.5719
   30.030    6.8984
   30.045    6.9932
   30.060    7.0985
   30.075    6.7930
   30.090    6.9089
   30.105    7.1090
   30.120    6.8562
   30.135    6.8246
   30.150    7.0142
   30.165    7.0248
   30.180    6.9932
   30.195    6.6667
   30.210    6.5298
   30.225    6.5192
   30.240    6.5508
   30.255    6.9089
   30.270    6.8036
   30.285    6.6561
   30.300    6.5824
   30.315    6.8773
   30.330    6.9721
   30.345    6.3928
   30.360    6.6456
   30.375    6.5298
   30.390    6.3191
   30.405    6.4139
   30.420    6.4560
   30.435    6.7509
   30.450    6.6877
   30.465    6.5824
   30.480    6.9089
   30.495    6.7930
   30.510    6.5508
   30.525    6.5719
   30.540    6.7509
   30.555    6.6351
   30.570    6.8141
   30.585    6.3507
   30.600    6.3823
   30.615    6.9405
   30.630    6.8246
   30.645    6.5719
   30.660    6.4034
   30.675    6.6983
   30.690    6.3296
   30.705    6.5192
   30.720    6.1506
   30.735    6.5719
   30.750    6.7193
   30.765    6.5719
   30.780    6.6667
   30.795    6.4139
   30.810    6.2665
   30.825    6.2033
   30.840    6.2243
   30.855    6.5508
   30.870    6.4034
   30.885    6.5719
   30.900    6.6772
   30.915    6.4771
   30.930    6.6140
   30.945    6.5087
   30.960    6.6140
   30.975    6.3823
   30.990    6.2243
   31.005    6.1190
   31.020    6.3402
   31.035    6.5403
   31.050    6.5087
   31.065    6.4771
   31.080    6.1717
   31.095    6.5298
   31.110    6.6561
   31.125    6.4455
   31.140    6.4455
   31.155    6.4244
   31.170    6.3928
   31.185    6.0242
   31.200    6.0453
   31.215    6.2349
   31.230    6.8668
   31.245    6.6877
   31.260    6.7404
   31.275    6.5298
   31.290    6.0769
   31.305    6.3296
   31.320    6.0664
   31.335    6.6035
   31.350    6.2559
   31.365    6.5719
   31.380    6.4244
   31.395    6.4560
   31.410    6.4244
   31.425    6.5192
   31.440    6.6877
   31.455    6.2138
   31.470    6.2349
   31.485    6.5192
   31.500    6.6983
   31.515    6.5087
   31.530    6.4876
   31.545    6.7615
   31.560    6.3296
   31.575    6.3612
   31.590    6.6561
   31.605    6.8773
   31.620    6.6456
   31.635    6.8878
   31.650    6.6456
   31.665    6.8773
   31.680    6.4876
   31.695    6.4139
   31.710    6.5403
   31.725    6.0664
   31.740    6.4876
   31.755    6.5192
   31.770    6.5087
   31.785    6.4876
   31.800    6.8141
   31.815    6.4560
   31.830    6.3191
   31.845    6.3928
   31.860    6.6983
   31.875    6.9405
   31.890    6.8984
   31.905    6.4771
   31.920    6.4771
   31.935    6.6456
   31.950    6.8984
   31.965    6.5298
   31.980    7.1827
   31.995    6.9510
   32.010    6.7193
   32.025    6.5929
   32.040    7.2670
   32.055    7.2986
   32.070    7.2143
   32.085    7.2775
   32.100    7.1301
   32.115    7.3196
   32.130    6.8878
   32.145    7.0142
   32.160    6.7930
   32.175    6.5403
   32.190    7.0248
   32.205    6.7404
   32.220    6.5087
   32.235    6.5929
   32.250    6.4455
   32.265    6.3612
   32.280    6.4244
   32.295    6.4771
   32.310    6.7404
   32.325    6.2665
   32.340    6.0769
   32.355    6.2138
   32.370    6.2665
   32.385    6.6140
   32.400    5.9610
   32.415    6.2033
   32.430    6.3086
   32.445    6.4350
   32.460    6.5403
   32.475    6.5613
   32.490    6.5824
   32.505    6.2033
   32.520    6.3823
   32.535    6.1506
   32.550    6.5719
   32.565    6.2559
   32.580    6.4455
   32.595    5.9716
   32.610    5.7504
   32.625    5.8557
   32.640    6.0664
   32.655    6.2875
   32.670    5.8557
   32.685    6.0979
   32.700    6.2349
   32.715    6.1822
   32.730    6.7088
   32.745    6.4876
   32.760    6.1401
   32.775    5.8768
   32.790    6.4455
   32.805    6.0979
   32.820    6.1822
   32.835    6.4244
   32.850    5.8873
   32.865    5.9400
   32.880    5.9926
   32.895    6.0453
   32.910    5.9505
   32.925    6.5298
   32.940    6.4982
   32.955    6.2243
   32.970    6.4982
   32.985    6.5087
   33.000    6.4350
   33.015    6.1611
   33.030    6.5613
   33.045    6.2033
   33.060    5.7715
   33.075    6.1401
   33.090    6.5613
   33.105    5.9505
   33.120    6.4244
   33.135    6.4350
   33.150    6.0874
   33.165    5.9189
   33.180    6.3086
   33.195    6.2033
   33.210    6.4455
   33.225    6.3086
   33.240    6.3718
   33.255    6.4666
   33.270    6.3191
   33.285    6.1717
   33.300    6.2033
   33.315    6.2033
   33.330    6.3086
   33.345    5.8978
   33.360    5.8452
   33.375    6.0664
   33.390    5.8031
   33.405    5.4660
   33.420    5.8662
   33.435    5.8978
   33.450    5.9505
   33.465    5.8662
   33.480    6.2981
   33.495    6.4771
   33.510    6.2454
   33.525    6.3296
   33.540    6.0453
   33.555    5.9084
   33.570    6.2243
   33.585    6.2665
   33.600    6.1190
   33.615    6.3928
   33.630    6.4666
   33.645    6.1190
   33.660    5.9084
   33.675    6.1506
   33.690    6.1822
   33.705    6.1506
   33.720    6.4560
   33.735    6.2349
   33.750    6.5613
   33.765    6.4034
   33.780    6.5192
   33.795    6.7509
   33.810    6.9089
   33.825    6.8141
   33.840    6.9194
   33.855    6.5298
   33.870    6.1190
   33.885    6.3718
   33.900    5.8873
   33.915    6.1190
   33.930    6.5508
   33.945    6.1295
   33.960    6.2559
   33.975    6.4139
   33.990    6.5508
   34.005    6.2138
   34.020    6.4244
   34.035    6.3296
   34.050    5.8241
   34.065    5.8347
   34.080    6.2033
   34.095    5.9189
   34.110    6.0242
   34.125    6.0664
   34.140    6.0137
   34.155    6.5192
   34.170    6.2138
   34.185    6.0032
   34.200    6.1295
   34.215    5.6556
   34.230    5.8452
   34.245    5.8347
   34.260    5.9505
   34.275    6.0979
   34.290    6.1717
   34.305    6.2454
   34.320    6.3191
   34.335    6.2243
   34.350    6.0874
   34.365    5.8031
   34.380    6.0348
   34.395    6.4876
   34.410    6.2033
   34.425    5.9821
   34.440    5.8452
   34.455    5.7820
   34.470    5.9821
   34.485    5.6661
   34.500    5.8241
   34.515    5.9716
   34.530    5.9189
   34.545    5.9716
   34.560    6.0348
   34.575    5.7504
   34.590    6.4034
   34.605    6.0664
   34.620    6.1611
   34.635    6.2349
   34.650    6.0558
   34.665    5.8136
   34.680    5.5398
   34.695    5.8768
   34.710    5.6767
   34.725    5.6977
   34.740    6.0979
   34.755    6.2559
   34.770    5.6556
   34.785    5.8662
   34.800    5.6872
   34.815    5.8347
   34.830    5.6451
   34.845    5.6345
   34.860    6.0032
   34.875    6.1506
   34.890    5.9610
   34.905    6.1401
   34.920    5.7820
   34.935    6.0453
   34.950    6.5087
   34.965    6.1506
   34.980    5.8136
   34.995    5.6556
   35.010    5.4871
   35.025    5.9294
   35.040    6.0874
   35.055    6.1611
   35.070    6.1190
   35.085    5.9400
   35.100    5.8241
   35.115    5.6451
   35.130    5.6977
   35.145    6.1611
   35.160    6.2665
   35.175    6.0242
   35.190    6.0453
   35.205    5.6556
   35.220    5.8873
   35.235    5.8347
   35.250    5.8768
   35.265    5.9400
   35.280    5.9294
   35.295    6.3191
   35.310    6.0979
   35.325    6.0558
   35.340    5.7820
   35.355    5.7293
   35.370    6.0453
   35.385    6.1611
   35.400    6.0979
   35.415    5.6977
   35.430    5.4239
   35.445    5.5187
   35.460    6.0348
   35.475    5.6872
   35.490    5.7715
   35.505    5.9084
   35.520    6.0558
   35.535    5.8347
   35.550    5.4871
   35.565    5.6345
   35.580    5.6767
   35.595    5.7609
   35.610    5.7609
   35.625    5.9716
   35.640    5.6135
   35.655    5.5714
   35.670    6.0453
   35.685    6.1611
   35.700    6.1295
   35.715    6.0242
   35.730    6.1295
   35.745    6.0137
   35.760    5.9716
   35.775    5.7399
   35.790    5.9084
   35.805    5.9716
   35.820    5.9189
   35.835    5.7609
   35.850    5.7925
   35.865    5.7293
   35.880    5.8768
   35.895    6.0979
   35.910    5.9294
   35.925    5.9926
   35.940    6.1927
   35.955    5.9926
   35.970    6.0242
   35.985    5.5292
   36.000    5.6767
   36.015    5.9294
   36.030    6.0137
   36.045    5.8873
   36.060    5.8031
   36.075    6.1717
   36.090    5.8452
   36.105    5.7399
   36.120    6.0664
   36.135    5.6451
   36.150    5.3291
   36.165    5.7820
   36.180    5.8978
   36.195    6.0664
   36.210    5.7609
   36.225    5.8241
   36.240    5.8768
   36.255    5.9294
   36.270    5.7083
   36.285    5.9505
   36.300    5.6135
   36.315    5.9084
   36.330    5.5503
   36.345    5.6345
   36.360    5.6451
   36.375    5.7609
   36.390    5.8136
   36.405    5.5714
   36.420    5.5292
   36.435    5.8136
   36.450    6.0032
   36.465    5.7820
   36.480    5.7083
   36.495    5.9400
   36.510    6.0874
   36.525    6.1717
   36.540    5.9821
   36.555    5.8557
   36.570    5.5608
   36.585    5.5924
   36.600    5.7399
   36.615    6.0032
   36.630    5.9610
   36.645    5.6872
   36.660    5.9084
   36.675    6.0032
   36.690    5.9084
   36.705    5.8136
   36.720    6.0242
   36.735    5.8241
   36.750    5.5503
   36.765    5.5924
   36.780    5.8978
   36.795    5.8768
   36.810    5.6451
   36.825    5.5714
   36.840    5.7715
   36.855    5.6556
   36.870    5.5503
   36.885    5.5608
   36.900    5.9400
   36.915    5.7715
   36.930    5.6977
   36.945    5.6451
   36.960    5.7504
   36.975    5.6029
   36.990    5.8031
   37.005    5.6029
   37.020    5.2133
   37.035    5.3291
   37.050    5.9610
   37.065    5.9821
   37.080    6.2770
   37.095    6.4455
   37.110    5.9505
   37.125    5.8662
   37.140    5.8768
   37.155    5.7715
   37.170    5.6661
   37.185    5.3502
   37.200    5.6240
   37.215    5.8136
   37.230    5.8136
   37.245    5.9610
   37.260    5.3818
   37.275    5.3397
   37.290    5.8978
   37.305    5.9505
   37.320    5.8031
   37.335    5.7399
   37.350    5.9610
   37.365    5.7399
   37.380    5.5503
   37.395    5.8452
   37.410    5.7715
   37.425    5.6767
   37.440    6.0769
   37.455    5.4976
   37.470    5.6767
   37.485    5.6661
   37.500    5.6661
   37.515    5.9505
   37.530    5.8347
   37.545    5.8662
   37.560    5.5608
   37.575    5.5819
   37.590    5.9084
   37.605    5.9189
   37.620    6.0979
   37.635    5.6345
   37.650    5.7399
   37.665    5.6661
   37.680    6.0137
   37.695    5.8662
   37.710    5.6661
   37.725    5.6029
   37.740    5.8241
   37.755    6.0137
   37.770    6.0874
   37.785    5.8768
   37.800    5.8873
   37.815    5.8978
   37.830    5.7820
   37.845    5.6977
   37.860    5.9189
   37.875    5.7715
   37.890    5.7925
   37.905    5.6240
   37.920    5.4450
   37.935    5.9294
   37.950    5.8873
   37.965    5.7083
   37.980    5.9610
   37.995    6.4455
   38.010    5.9505
   38.025    5.9821
   38.040    5.7609
   38.055    5.4976
   38.070    5.6661
   38.085    5.8031
   38.100    5.5187
   38.115    5.5819
   38.130    5.4134
   38.145    5.5187
   38.160    5.9400
   38.175    5.8241
   38.190    5.9400
   38.205    5.5819
   38.220    5.6556
   38.235    5.8136
   38.250    5.8347
   38.265    5.4871
   38.280    5.5398
   38.295    6.1295
   38.310    6.0664
   38.325    5.7925
   38.340    5.9084
   38.355    5.6556
   38.370    5.5924
   38.385    5.5924
   38.400    5.4555
   38.415    5.9505
   38.430    5.9189
   38.445    5.6556
   38.460    5.8768
   38.475    6.0769
   38.490    5.6029
   38.505    5.6661
   38.520    6.2454
   38.535    5.6135
   38.550    6.0664
   38.565    5.9821
   38.580    5.8347
   38.595    5.8241
   38.610    6.0137
   38.625    5.5398
   38.640    5.9926
   38.655    5.8662
   38.670    5.7609
   38.685    5.6767
   38.700    5.7609
   38.715    5.9610
   38.730    5.8662
   38.745    5.3291
   38.760    5.4871
   38.775    5.9610
   38.790    5.6977
   38.805    5.7188
   38.820    5.6661
   38.835    5.5819
   38.850    5.5503
   38.865    5.5082
   38.880    5.5819
   38.895    5.9505
   38.910    6.0137
   38.925    5.8768
   38.940    5.3607
   38.955    5.5714
   38.970    5.5924
   38.985    5.7293
   39.000    5.8241
   39.015    5.6977
   39.030    5.9294
   39.045    6.0769
   39.060    5.7925
   39.075    5.4871
   39.090    5.9400
   39.105    5.8031
   39.120    6.0032
   39.135    5.8347
   39.150    5.7399
   39.165    5.5082
   39.180    5.2765
   39.195    5.6661
   39.210    5.7293
   39.225    5.6451
   39.240    5.7504
   39.255    5.9084
   39.270    5.6977
   39.285    5.7083
   39.300    5.5819
   39.315    5.7188
   39.330    5.8768
   39.345    5.9821
   39.360    5.9189
   39.375    5.8241
   39.390    5.5503
   39.405    5.6767
   39.420    5.8136
   39.435    5.8347
   39.450    5.6767
   39.465    5.7609
   39.480    5.4976
   39.495    6.0032
   39.510    6.1717
   39.525    5.7293
   39.540    5.5819
   39.555    5.8241
   39.570    5.6135
   39.585    5.6135
   39.600    5.5292
   39.615    5.8031
   39.630    5.6661
   39.645    5.2449
   39.660    5.1501
   39.675    5.6135
   39.690    5.5608
   39.705    5.4028
   39.720    5.6977
   39.735    5.9294
   39.750    5.5398
   39.765    5.4555
   39.780    5.5292
   39.795    5.7188
   39.810    5.6872
   39.825    5.4134
   39.840    5.4134
   39.855    5.5924
   39.870    5.4134
   39.885    5.3923
   39.900    5.4134
   39.915    5.5924
   39.930    5.4976
   39.945    5.4660
   39.960    5.8031
   39.975    5.5398
   39.990    5.5398
