    1.500    1.6675
    1.515    1.6675
    1.530    1.6500
    1.545    2.1064
    1.560    2.0186
    1.575    1.8606
    1.590    1.9835
    1.605    1.9484
    1.620    2.0362
    1.635    2.0186
    1.650    1.9308
    1.665    2.0537
    1.680    1.7729
    1.695    1.5096
    1.710    1.7202
    1.725    1.8080
    1.740    1.8080
    1.755    1.7202
    1.770    1.8255
    1.785    1.7729
    1.800    1.7729
    1.815    1.5271
    1.830    1.8080
    1.845    1.7729
    1.860    1.5096
    1.875    1.6675
    1.890    1.9308
    1.905    1.7378
    1.920    1.4042
    1.935    1.6500
    1.950    1.3516
    1.965    1.6675
    1.980    1.7729
    1.995    1.8080
    2.010    1.4569
    2.025    1.5798
    2.040    1.6500
    2.055    1.5798
    2.070    1.5096
    2.085    1.5096
    2.100    1.4745
    2.115    1.4569
    2.130    1.6675
    2.145    1.5973
    2.160    1.6324
    2.175    1.4394
    2.190    1.2989
    2.205    1.5447
    2.220    1.4569
    2.235    1.4745
    2.250    1.3340
    2.265    1.3867
    2.280    1.3165
    2.295    1.4920
    2.310    1.4218
    2.325    1.6149
    2.340    1.4218
    2.355    1.2638
    2.370    1.4394
    2.385    1.4745
    2.400    1.6675
    2.415    1.5096
    2.430    1.5096
    2.445    1.6324
    2.460    1.5096
    2.475    1.7553
    2.490    1.3691
    2.505    1.5622
    2.520    1.5271
    2.535    1.2814
    2.550    1.5096
    2.565    1.5271
    2.580    1.4920
    2.595    1.4920
    2.610    1.6324
    2.625    1.5447
    2.640    1.4042
    2.655    1.3340
    2.670    1.2989
    2.685    1.3867
    2.700    1.1585
    2.715    1.3691
    2.730    1.4218
    2.745    1.3165
    2.760    1.1936
    2.775    1.2814
    2.790    1.5973
    2.805    1.4745
    2.820    1.3691
    2.835    1.2463
    2.850    1.2638
    2.865    1.3340
    2.880    1.5447
    2.895    1.5447
    2.910    1.4218
    2.925    1.3867
    2.940    1.4920
    2.955    1.4569
    2.970    1.5271
    2.985    1.7027
    3.000    1.7729
    3.015    1.7378
    3.030    1.4569
    3.045    1.4042
    3.060    1.5271
    3.075    1.5798
    3.090    1.7729
    3.105    1.7553
    3.120    2.0713
    3.135    2.0713
    3.150    1.8957
    3.165    1.7378
    3.180    1.6324
    3.195    1.9308
    3.210    2.0713
    3.225    2.3346
    3.240    1.9835
    3.255    2.0713
    3.270    2.3170
    3.285    2.2468
    3.300    2.4048
    3.315    2.5276
    3.330    3.1069
    3.345    3.2473
    3.360    2.9314
    3.375    3.0191
    3.390    3.0542
    3.405    3.8968
    3.420    3.8968
    3.435    4.0197
    3.450    4.3707
    3.465    4.3181
    3.480    4.6691
    3.495    4.5989
    3.510    4.6867
    3.525    5.0904
    3.540    5.3186
    3.555    5.8101
    3.570    6.1436
    3.585    6.5649
    3.600    6.7404
    3.615    7.3372
    3.630    8.0920
    3.645    8.5659
    3.660    9.4787
    3.675    9.3558
    3.690   11.1462
    3.705   11.5324
    3.720   12.9542
    3.735   14.3760
    3.750   15.6749
    3.765   17.4653
    3.780   19.5190
    3.795   23.3456
    3.810   26.6280
    3.825   32.2099
    3.840   34.3339
    3.855   32.7190
    3.870   25.8908
    3.885   18.5185
    3.900   11.9712
    3.915    7.1441
    3.930    4.0723
    3.945    2.8085
    3.960    2.3521
    3.975    1.9133
    3.990    1.7378
    4.005    1.5096
    4.020    1.6324
    4.035    1.2989
    4.050    1.4920
    4.065    1.2989
    4.080    1.1234
    4.095    1.3867
    4.110    1.4042
    4.125    1.3867
    4.140    1.1936
    4.155    1.0005
    4.170    1.0883
    4.185    1.0883
    4.200    1.2463
    4.215    1.4042
    4.230    1.1585
    4.245    1.1234
    4.260    1.1936
    4.275    1.2112
    4.290    1.0532
    4.305    1.0532
    4.320    1.1936
    4.335    1.1058
    4.350    1.2112
    4.365    1.3165
    4.380    1.3340
    4.395    1.2287
    4.410    1.1761
    4.425    1.3516
    4.440    1.2112
    4.455    1.0005
    4.470    1.0707
    4.485    1.1410
    4.500    1.1936
    4.515    1.1234
    4.530    1.0883
    4.545    1.2112
    4.560    1.3516
    4.575    1.0883
    4.590    1.3516
    4.605    1.4042
    4.620    1.2287
    4.635    1.3165
    4.650    1.2112
    4.665    1.2287
    4.680    1.1410
    4.695    1.1058
    4.710    0.9303
    4.725    1.0707
    4.740    1.2463
    4.755    1.2112
    4.770    1.2814
    4.785    1.2814
    4.800    1.1058
    4.815    1.1410
    4.830    1.1936
    4.845    1.0356
    4.860    0.9654
    4.875    1.1410
    4.890    1.2638
    4.905    1.2463
    4.920    1.1058
    4.935    1.0005
    4.950    1.0707
    4.965    1.1234
    4.980    1.0707
    4.995    1.0532
    5.010    1.3340
    5.025    1.6149
    5.040    1.4218
    5.055    1.0707
    5.070    1.3516
    5.085    1.2989
    5.100    1.4218
    5.115    1.4920
    5.130    1.3867
    5.145    1.5622
    5.160    1.6500
    5.175    1.7027
    5.190    1.9835
    5.205    1.8606
    5.220    1.8782
    5.235    1.9133
    5.250    2.2292
    5.265    2.4750
    5.280    2.3697
    5.295    2.6505
    5.310    2.9489
    5.325    3.1596
    5.340    3.1420
    5.355    3.5808
    5.370    3.3877
    5.385    3.7213
    5.400    4.3532
    5.415    5.4766
    5.430    6.6351
    5.445    7.6883
    5.460    7.5654
    5.475    7.7936
    5.490    6.8633
    5.505    5.3186
    5.520    4.0548
    5.535    2.7558
    5.550    1.8255
    5.565    1.4394
    5.580    1.1936
    5.595    1.4042
    5.610    1.4920
    5.625    1.2112
    5.640    1.1585
    5.655    1.1234
    5.670    1.2112
    5.685    1.2112
    5.700    1.1058
    5.715    1.0707
    5.730    1.0181
    5.745    1.2638
    5.760    1.1585
    5.775    1.0707
    5.790    1.0707
    5.805    0.9830
    5.820    1.0356
    5.835    1.1410
    5.850    1.2463
    5.865    1.2287
    5.880    1.3691
    5.895    1.1761
    5.910    1.0005
    5.925    0.9128
    5.940    1.1936
    5.955    1.1058
    5.970    1.1234
    5.985    1.1585
    6.000    1.0707
    6.015    0.8601
    6.030    0.8777
    6.045    1.1936
    6.060    1.1234
    6.075    1.1761
    6.090    1.1058
    6.105    1.2989
    6.120    1.1234
    6.135    1.1585
    6.150    1.1234
    6.165    1.1234
    6.180    1.1058
    6.195    1.2814
    6.210    0.9830
    6.225    0.9479
    6.240    1.2287
    6.255    1.0005
    6.270    1.0356
    6.285    0.7723
    6.300    1.0883
    6.315    1.0181
    6.330    1.1936
    6.345    1.1761
    6.360    1.0005
    6.375    1.0532
    6.390    1.2112
    6.405    1.0356
    6.420    1.1234
    6.435    1.2112
    6.450    1.1058
    6.465    1.0356
    6.480    1.0005
    6.495    1.0005
    6.510    1.1410
    6.525    1.1058
    6.540    1.3165
    6.555    1.3340
    6.570    1.5096
    6.585    1.2814
    6.600    1.4218
    6.615    1.1936
    6.630    1.2638
    6.645    1.4042
    6.660    1.5622
    6.675    1.8255
    6.690    2.1064
    6.705    2.0713
    6.720    1.8080
    6.735    1.8782
    6.750    1.5973
    6.765    1.3691
    6.780    1.1761
    6.795    1.1410
    6.810    1.0883
    6.825    1.0707
    6.840    1.2638
    6.855    1.1585
    6.870    1.1585
    6.885    1.0005
    6.900    0.8425
    6.915    1.0181
    6.930    1.2463
    6.945    0.9303
    6.960    1.1410
    6.975    1.0707
    6.990    1.1585
    7.005    1.2463
    7.020    0.9303
    7.035    1.0356
    7.050    1.0005
    7.065    0.8952
    7.080    1.0356
    7.095    1.0532
    7.110    1.0707
    7.125    1.1234
    7.140    1.0005
    7.155    0.9303
    7.170    0.9128
    7.185    0.9654
    7.200    1.0181
    7.215    0.9654
    7.230    1.0883
    7.245    1.1234
    7.260    1.1410
    7.275    1.1058
    7.290    0.9654
    7.305    1.0181
    7.320    1.1410
    7.335    1.2112
    7.350    1.1936
    7.365    1.0181
    7.380    1.0707
    7.395    1.1234
    7.410    1.0707
    7.425    1.0532
    7.440    1.0883
    7.455    1.1585
    7.470    1.1761
    7.485    1.1761
    7.500    1.2989
    7.515    1.3165
    7.530    1.3165
    7.545    1.4569
    7.560    1.2463
    7.575    1.0883
    7.590    1.3340
    7.605    1.3165
    7.620    1.3867
    7.635    1.2989
    7.650    1.8431
    7.665    2.1064
    7.680    1.8080
    7.695    1.8080
    7.710    2.1766
    7.725    2.5452
    7.740    3.2473
    7.755    3.5808
    7.770    3.1947
    7.785    2.7207
    7.800    2.4925
    7.815    1.8431
    7.830    1.6500
    7.845    1.1761
    7.860    1.0883
    7.875    0.9654
    7.890    1.0005
    7.905    1.0005
    7.920    1.2463
    7.935    1.1585
    7.950    0.9654
    7.965    1.1234
    7.980    1.1936
    7.995    1.1585
    8.010    1.0707
    8.025    1.1585
    8.040    1.2638
    8.055    1.1058
    8.070    0.9479
    8.085    1.0181
    8.100    1.0707
    8.115    1.0532
    8.130    1.0181
    8.145    1.0532
    8.160    0.9128
    8.175    0.9303
    8.190    1.1234
    8.205    0.8425
    8.220    0.8952
    8.235    0.9830
    8.250    1.1936
    8.265    0.8250
    8.280    1.0883
    8.295    1.1936
    8.310    0.7723
    8.325    0.8250
    8.340    1.1410
    8.355    1.0356
    8.370    0.9830
    8.385    1.2112
    8.400    0.8425
    8.415    0.8952
    8.430    1.0005
    8.445    1.0707
    8.460    1.0356
    8.475    0.8777
    8.490    1.0356
    8.505    1.0181
    8.520    0.9479
    8.535    1.1058
    8.550    1.1585
    8.565    1.1761
    8.580    0.9303
    8.595    1.1585
    8.610    1.1234
    8.625    1.1585
    8.640    1.1234
    8.655    1.3516
    8.670    1.3691
    8.685    1.5447
    8.700    1.5622
    8.715    1.7027
    8.730    1.3340
    8.745    1.1234
    8.760    1.1058
    8.775    1.1410
    8.790    1.0883
    8.805    1.0707
    8.820    0.8777
    8.835    0.9654
    8.850    1.0532
    8.865    0.9303
    8.880    0.9830
    8.895    1.1234
    8.910    0.8952
    8.925    0.8777
    8.940    0.9303
    8.955    0.9830
    8.970    0.9128
    8.985    1.0356
    9.000    1.0707
    9.015    1.0005
    9.030    0.9128
    9.045    1.0356
    9.060    0.8425
    9.075    1.0181
    9.090    0.9654
    9.105    0.9479
    9.120    0.9479
    9.135    1.0181
    9.150    0.8601
    9.165    1.0707
    9.180    1.0532
    9.195    1.0005
    9.210    1.0005
    9.225    1.1410
    9.240    1.2112
    9.255    1.2287
    9.270    1.1761
    9.285    1.1936
    9.300    1.1761
    9.315    1.1585
    9.330    1.2287
    9.345    1.4745
    9.360    1.4569
    9.375    1.4569
    9.390    1.3867
    9.405    1.5798
    9.420    1.4569
    9.435    1.7027
    9.450    1.8255
    9.465    2.1064
    9.480    2.5628
    9.495    3.0542
    9.510    3.5633
    9.525    3.6862
    9.540    3.5457
    9.555    2.9489
    9.570    2.5452
    9.585    2.0186
    9.600    1.7027
    9.615    1.2112
    9.630    1.2814
    9.645    0.9479
    9.660    0.8777
    9.675    0.9303
    9.690    0.8250
    9.705    0.9128
    9.720    0.9479
    9.735    1.0005
    9.750    1.1234
    9.765    1.0181
    9.780    0.8425
    9.795    1.0005
    9.810    0.8777
    9.825    1.2112
    9.840    1.0356
    9.855    0.8074
    9.870    1.1234
    9.885    1.0356
    9.900    1.1761
    9.915    1.1058
    9.930    1.2287
    9.945    1.1410
    9.960    1.1234
    9.975    1.2287
    9.990    0.9479
   10.005    0.9654
   10.020    1.1234
   10.035    1.0005
   10.050    0.9654
   10.065    0.8601
   10.080    0.7021
   10.095    0.8601
   10.110    1.0532
   10.125    0.9128
   10.140    1.0005
   10.155    1.0005
   10.170    1.1058
   10.185    1.0532
   10.200    1.1936
   10.215    1.1058
   10.230    1.3867
   10.245    1.5447
   10.260    1.2814
   10.275    1.7027
   10.290    1.6149
   10.305    1.8255
   10.320    1.5447
   10.335    1.5096
   10.350    1.4042
   10.365    1.2638
   10.380    1.2112
   10.395    1.0532
   10.410    1.1936
   10.425    1.0356
   10.440    1.0707
   10.455    1.0005
   10.470    0.9128
   10.485    1.0005
   10.500    1.0532
   10.515    0.9303
   10.530    0.8250
   10.545    0.8952
   10.560    0.9303
   10.575    1.0005
   10.590    0.9830
   10.605    1.0005
   10.620    1.1234
   10.635    1.0181
   10.650    1.0356
   10.665    1.0005
   10.680    0.9654
   10.695    1.0532
   10.710    1.0181
   10.725    1.0005
   10.740    0.8952
   10.755    0.9128
   10.770    1.0532
   10.785    0.8074
   10.800    0.9128
   10.815    1.0883
   10.830    0.9479
   10.845    1.1585
   10.860    1.0883
   10.875    1.1234
   10.890    1.1410
   10.905    1.0883
   10.920    1.3867
   10.935    1.4042
   10.950    1.4218
   10.965    1.5447
   10.980    1.7202
   10.995    1.8957
   11.010    1.9308
   11.025    2.1415
   11.040    1.9484
   11.055    1.8606
   11.070    1.4218
   11.085    1.2638
   11.100    1.1585
   11.115    1.1058
   11.130    1.0356
   11.145    1.0005
   11.160    1.0181
   11.175    1.1234
   11.190    1.0883
   11.205    0.8250
   11.220    1.0532
   11.235    1.1058
   11.250    0.8425
   11.265    0.8425
   11.280    0.9479
   11.295    0.8601
   11.310    0.9654
   11.325    0.9830
   11.340    0.9479
   11.355    0.8074
   11.370    0.8425
   11.385    1.0181
   11.400    0.8074
   11.415    0.9654
   11.430    1.0181
   11.445    1.1234
   11.460    1.1761
   11.475    1.1410
   11.490    1.0532
   11.505    0.7899
   11.520    1.1234
   11.535    1.0532
   11.550    1.2112
   11.565    1.0005
   11.580    0.9830
   11.595    1.0707
   11.610    1.3691
   11.625    1.3691
   11.640    1.6149
   11.655    1.9133
   11.670    1.8255
   11.685    2.1766
   11.700    2.3697
   11.715    2.1064
   11.730    1.9484
   11.745    1.6675
   11.760    1.2112
   11.775    1.2112
   11.790    0.9479
   11.805    0.9479
   11.820    1.0005
   11.835    1.0356
   11.850    0.9830
   11.865    0.9654
   11.880    0.9128
   11.895    0.8250
   11.910    0.8952
   11.925    1.0181
   11.940    1.0356
   11.955    0.8777
   11.970    0.7197
   11.985    0.8952
   12.000    1.0356
   12.015    0.8250
   12.030    0.8601
   12.045    0.9303
   12.060    1.0005
   12.075    0.8601
   12.090    0.9128
   12.105    0.8601
   12.120    0.9654
   12.135    0.9830
   12.150    0.8777
   12.165    0.9654
   12.180    0.9830
   12.195    1.0356
   12.210    1.0181
   12.225    0.9128
   12.240    1.0532
   12.255    1.1058
   12.270    1.0181
   12.285    1.1058
   12.300    1.0883
   12.315    1.2112
   12.330    1.0356
   12.345    1.0181
   12.360    1.0356
   12.375    1.0883
   12.390    1.4394
   12.405    1.0532
   12.420    0.9128
   12.435    0.8250
   12.450    0.9303
   12.465    0.8601
   12.480    0.9128
   12.495    0.8425
   12.510    0.9654
   12.525    1.1761
   12.540    1.0356
   12.555    0.9654
   12.570    0.9128
   12.585    0.9830
   12.600    0.9128
   12.615    0.9479
   12.630    0.9479
   12.645    0.8777
   12.660    0.8074
   12.675    0.8777
   12.690    0.7899
   12.705    1.1410
   12.720    0.9479
   12.735    1.0005
   12.750    0.8250
   12.765    1.0356
   12.780    1.0883
   12.795    0.9654
   12.810    0.7899
   12.825    0.9830
   12.840    0.9479
   12.855    1.0883
   12.870    1.0005
   12.885    1.2814
   12.900    1.4569
   12.915    1.4745
   12.930    1.4920
   12.945    1.5973
   12.960    1.5271
   12.975    1.3691
   12.990    1.4394
   13.005    1.5447
   13.020    1.0883
   13.035    0.8601
   13.050    0.7021
   13.065    0.9303
   13.080    0.9479
   13.095    1.0356
   13.110    1.0005
   13.125    1.0356
   13.140    0.9830
   13.155    1.2287
   13.170    1.1058
   13.185    0.8250
   13.200    0.8250
   13.215    0.9654
   13.230    0.9303
   13.245    0.8601
   13.260    0.8425
   13.275    1.0181
   13.290    1.0356
   13.305    1.0532
   13.320    1.1410
   13.335    0.7548
   13.350    0.8425
   13.365    1.1410
   13.380    1.1410
   13.395    1.0005
   13.410    1.1058
   13.425    0.9654
   13.440    0.8250
   13.455    1.0181
   13.470    1.0707
   13.485    1.0356
   13.500    1.2638
   13.515    1.1234
   13.530    1.1058
   13.545    1.4042
   13.560    1.1761
   13.575    1.1761
   13.590    0.8425
   13.605    1.0532
   13.620    1.0005
   13.635    1.1234
   13.650    1.0181
   13.665    0.8601
   13.680    1.0181
   13.695    1.1410
   13.710    0.8425
   13.725    0.9654
   13.740    0.8952
   13.755    0.9479
   13.770    1.0356
   13.785    0.8250
   13.800    0.8777
   13.815    0.9479
   13.830    0.9654
   13.845    0.7723
   13.860    1.0356
   13.875    0.8952
   13.890    1.0883
   13.905    1.1234
   13.920    1.0005
   13.935    1.1234
   13.950    1.0181
   13.965    0.9479
   13.980    0.8952
   13.995    1.1761
   14.010    1.1585
   14.025    1.2112
   14.040    1.1234
   14.055    1.2463
   14.070    1.5096
   14.085    1.7027
   14.100    1.3516
   14.115    1.1761
   14.130    1.1058
   14.145    1.0005
   14.160    0.8425
   14.175    0.9479
   14.190    0.8425
   14.205    0.8425
   14.220    0.7372
   14.235    0.9303
   14.250    0.7899
   14.265    0.9654
   14.280    0.9654
   14.295    0.7548
   14.310    0.8250
   14.325    0.8777
   14.340    0.9654
   14.355    0.8777
   14.370    0.9654
   14.385    1.0356
   14.400    0.8952
   14.415    0.6846
   14.430    0.7723
   14.445    0.8425
   14.460    0.9830
   14.475    0.9303
   14.490    1.0005
   14.505    0.8601
   14.520    1.0883
   14.535    1.0532
   14.550    0.9830
   14.565    0.9128
   14.580    0.8074
   14.595    0.7548
   14.610    0.9830
   14.625    0.8425
   14.640    0.8952
   14.655    0.9654
   14.670    0.9128
   14.685    1.0181
   14.700    0.9303
   14.715    1.0532
   14.730    0.9654
   14.745    0.8425
   14.760    0.8250
   14.775    0.9303
   14.790    0.9303
   14.805    1.0005
   14.820    0.9479
   14.835    1.0005
   14.850    0.9654
   14.865    1.0005
   14.880    0.9303
   14.895    0.8074
   14.910    0.9128
   14.925    0.8777
   14.940    0.7899
   14.955    1.0356
   14.970    0.8601
   14.985    0.8777
   15.000    1.0181
   15.015    1.0707
   15.030    1.0883
   15.045    1.1058
   15.060    0.9479
   15.075    1.0181
   15.090    0.8952
   15.105    1.0005
   15.120    1.2463
   15.135    1.2112
   15.150    1.0181
   15.165    1.0883
   15.180    1.0532
   15.195    1.0005
   15.210    1.0005
   15.225    0.9654
   15.240    0.9479
   15.255    0.9128
   15.270    0.9479
   15.285    0.8777
   15.300    0.7021
   15.315    0.9830
   15.330    0.6670
   15.345    0.8074
   15.360    0.7548
   15.375    0.7723
   15.390    1.0356
   15.405    0.9479
   15.420    0.8601
   15.435    0.8601
   15.450    0.8601
   15.465    0.9303
   15.480    1.0005
   15.495    1.0181
   15.510    0.8074
   15.525    0.8601
   15.540    0.8074
   15.555    0.9479
   15.570    1.1761
   15.585    0.9479
   15.600    1.0005
   15.615    0.8952
   15.630    1.0356
   15.645    0.8601
   15.660    0.8250
   15.675    0.8777
   15.690    0.8952
   15.705    1.1585
   15.720    1.0532
   15.735    0.9479
   15.750    0.8777
   15.765    0.8601
   15.780    1.0181
   15.795    1.0356
   15.810    0.8425
   15.825    0.9654
   15.840    1.1058
   15.855    1.0005
   15.870    0.8425
   15.885    0.7548
   15.900    1.0707
   15.915    0.9479
   15.930    0.9654
   15.945    0.8777
   15.960    0.9830
   15.975    0.8952
   15.990    1.0181
   16.005    0.9479
   16.020    1.0181
   16.035    0.9830
   16.050    1.0707
   16.065    1.0532
   16.080    1.1585
   16.095    1.1058
   16.110    1.0883
   16.125    1.0356
   16.140    0.8952
   16.155    0.9128
   16.170    0.8250
   16.185    0.8425
   16.200    1.0181
   16.215    0.9303
   16.230    0.9303
   16.245    0.9303
   16.260    0.9830
   16.275    0.8952
   16.290    0.9303
   16.305    0.9303
   16.320    1.0532
   16.335    0.9479
   16.350    0.9479
   16.365    0.7723
   16.380    0.7899
   16.395    0.7548
   16.410    0.7899
   16.425    0.8601
   16.440    0.9303
   16.455    0.9303
   16.470    0.8952
   16.485    0.9479
   16.500    0.8777
   16.515    0.9128
   16.530    1.0532
   16.545    1.0356
   16.560    1.1234
   16.575    1.1585
   16.590    1.0532
   16.605    1.1234
   16.620    0.9654
   16.635    1.0005
   16.650    1.0883
   16.665    0.8601
   16.680    1.0356
   16.695    0.8074
   16.710    0.8074
   16.725    0.9479
   16.740    1.0181
   16.755    1.1234
   16.770    1.1585
   16.785    1.0532
   16.800    0.9303
   16.815    0.9654
   16.830    0.9830
   16.845    0.8777
   16.860    0.9654
   16.875    0.9830
   16.890    0.9479
   16.905    1.0707
   16.920    1.0532
   16.935    1.1410
   16.950    1.3516
   16.965    1.0181
   16.980    1.1936
   16.995    1.2814
   17.010    1.2112
   17.025    1.2814
   17.040    1.5096
   17.055    1.2287
   17.070    1.4218
   17.085    1.2638
   17.100    1.2287
   17.115    1.0883
   17.130    1.0005
   17.145    1.0356
   17.160    1.0707
   17.175    0.7899
   17.190    0.7372
   17.205    0.9654
   17.220    1.0181
   17.235    0.9303
   17.250    1.0356
   17.265    0.9128
   17.280    0.9303
   17.295    1.0356
   17.310    0.8952
   17.325    1.1761
   17.340    1.0005
   17.355    0.9654
   17.370    0.8601
   17.385    0.9303
   17.400    1.1761
   17.415    1.0356
   17.430    0.8601
   17.445    0.9303
   17.460    0.9830
   17.475    1.0707
   17.490    1.0707
   17.505    1.1936
   17.520    1.0883
   17.535    0.8952
   17.550    0.9479
   17.565    0.8601
   17.580    0.9303
   17.595    1.0356
   17.610    1.0356
   17.625    0.7899
   17.640    0.7372
   17.655    0.8601
   17.670    0.9830
   17.685    1.0707
   17.700    0.8952
   17.715    0.8601
   17.730    0.8601
   17.745    0.8777
   17.760    0.8250
   17.775    0.8601
   17.790    1.1761
   17.805    1.0356
   17.820    0.9128
   17.835    0.8777
   17.850    1.0707
   17.865    1.0181
   17.880    0.9654
   17.895    0.9654
   17.910    1.1058
   17.925    0.9303
   17.940    1.0181
   17.955    1.1058
   17.970    1.0181
   17.985    1.0356
   18.000    1.2463
   18.015    1.0356
   18.030    1.0181
   18.045    0.9303
   18.060    0.8777
   18.075    0.8952
   18.090    0.8952
   18.105    1.0883
   18.120    0.7548
   18.135    1.0181
   18.150    0.9128
   18.165    0.8601
   18.180    0.9479
   18.195    1.0005
   18.210    0.9654
   18.225    0.9303
   18.240    1.1410
   18.255    0.9303
   18.270    0.8425
   18.285    0.8777
   18.300    1.0707
   18.315    1.0356
   18.330    0.9654
   18.345    1.2287
   18.360    0.8777
   18.375    0.9830
   18.390    1.0005
   18.405    1.0356
   18.420    1.0532
   18.435    1.0181
   18.450    0.8952
   18.465    0.8777
   18.480    1.0005
   18.495    1.0532
   18.510    0.9830
   18.525    0.9128
   18.540    0.9479
   18.555    0.8777
   18.570    0.7899
   18.585    0.8074
   18.600    0.9654
   18.615    1.1585
   18.630    0.9303
   18.645    0.8425
   18.660    0.8074
   18.675    0.7372
   18.690    0.7548
   18.705    1.0883
   18.720    1.1585
   18.735    1.1936
   18.750    0.9830
   18.765    1.0181
   18.780    1.0181
   18.795    1.1761
   18.810    0.8952
   18.825    0.9479
   18.840    0.9303
   18.855    0.8425
   18.870    0.8425
   18.885    0.7372
   18.900    0.7021
   18.915    0.8250
   18.930    1.0005
   18.945    0.9654
   18.960    0.9479
   18.975    0.9128
   18.990    0.7899
   19.005    0.9830
   19.020    0.9303
   19.035    0.7197
   19.050    0.7899
   19.065    0.9303
   19.080    1.0005
   19.095    0.8952
   19.110    1.1058
   19.125    0.9654
   19.140    0.8601
   19.155    0.9830
   19.170    0.8777
   19.185    0.8777
   19.200    0.9830
   19.215    1.0532
   19.230    1.0532
   19.245    0.8952
   19.260    0.9830
   19.275    1.0005
   19.290    0.9479
   19.305    0.7899
   19.320    1.0532
   19.335    0.8777
   19.350    0.8777
   19.365    1.0181
   19.380    0.9128
   19.395    1.0181
   19.410    1.0356
   19.425    1.0707
   19.440    0.7899
   19.455    0.9303
   19.470    1.0181
   19.485    0.8777
   19.500    0.9128
   19.515    0.9830
   19.530    0.9654
   19.545    1.0005
   19.560    0.9128
   19.575    1.0532
   19.590    1.1585
   19.605    1.0005
   19.620    1.2112
   19.635    0.9830
   19.650    0.8777
   19.665    0.8425
   19.680    0.8250
   19.695    0.8250
   19.710    1.0883
   19.725    0.9654
   19.740    0.9128
   19.755    0.9128
   19.770    1.1585
   19.785    0.8952
   19.800    0.9303
   19.815    0.8601
   19.830    0.9303
   19.845    0.9654
   19.860    0.8074
   19.875    0.8250
   19.890    0.8601
   19.905    0.9303
   19.920    1.1585
   19.935    0.9830
   19.950    0.8952
   19.965    0.8952
   19.980    1.0005
   19.995    0.8777
   20.010    0.8777
   20.025    1.0005
   20.040    0.7723
   20.055    0.9654
   20.070    1.0883
   20.085    0.8601
   20.100    0.9479
   20.115    0.9654
   20.130    1.0532
   20.145    0.9303
   20.160    1.0532
   20.175    1.0707
   20.190    0.8425
   20.205    0.8425
   20.220    0.8601
   20.235    1.0005
   20.250    1.2287
   20.265    1.0181
   20.280    1.2112
   20.295    1.0532
   20.310    1.1410
   20.325    1.2112
   20.340    1.1761
   20.355    1.1761
   20.370    1.1058
   20.385    1.3516
   20.400    1.4042
   20.415    1.3691
   20.430    1.1585
   20.445    1.2463
   20.460    0.9303
   20.475    0.9830
   20.490    0.8952
   20.505    0.7548
   20.520    0.8777
   20.535    0.7723
   20.550    0.8601
   20.565    0.8777
   20.580    0.9303
   20.595    0.9303
   20.610    1.0356
   20.625    0.8425
   20.640    0.8250
   20.655    0.9654
   20.670    0.9128
   20.685    1.1234
   20.700    0.9654
   20.715    1.0356
   20.730    1.0356
   20.745    0.9654
   20.760    1.2463
   20.775    1.1761
   20.790    1.1585
   20.805    0.8952
   20.820    1.0883
   20.835    0.8952
   20.850    0.8425
   20.865    1.0005
   20.880    1.0181
   20.895    0.9128
   20.910    1.0181
   20.925    0.9830
   20.940    0.8777
   20.955    0.9128
   20.970    0.9128
   20.985    0.9303
   21.000    1.0005
   21.015    0.8425
   21.030    0.9128
   21.045    0.9654
   21.060    0.8601
   21.075    0.8601
   21.090    0.9479
   21.105    0.9654
   21.120    1.0356
   21.135    0.9654
   21.150    1.0181
   21.165    0.9479
   21.180    1.1234
   21.195    1.1234
   21.210    1.0005
   21.225    0.8250
   21.240    0.9830
   21.255    0.8601
   21.270    0.8425
   21.285    0.8601
   21.300    1.0356
   21.315    0.8074
   21.330    0.8074
   21.345    1.0707
   21.360    0.9128
   21.375    0.8952
   21.390    0.9830
   21.405    0.9479
   21.420    0.7723
   21.435    0.7548
   21.450    0.8425
   21.465    0.9830
   21.480    1.1058
   21.495    0.8250
   21.510    1.0707
   21.525    0.8250
   21.540    1.1936
   21.555    1.0181
   21.570    0.9654
   21.585    0.9830
   21.600    1.0005
   21.615    0.8777
   21.630    0.9303
   21.645    0.9128
   21.660    1.0005
   21.675    1.0356
   21.690    0.8777
   21.705    0.8952
   21.720    0.9128
   21.735    0.9654
   21.750    0.7899
   21.765    0.8425
   21.780    1.0532
   21.795    1.1585
   21.810    0.9654
   21.825    1.2463
   21.840    1.2112
   21.855    1.2287
   21.870    1.3340
   21.885    1.0356
   21.900    1.1761
   21.915    1.2463
   21.930    0.9479
   21.945    0.9479
   21.960    0.8074
   21.975    0.8601
   21.990    0.8952
   22.005    0.7899
   22.020    0.8777
   22.035    0.9654
   22.050    0.9128
   22.065    1.0356
   22.080    0.9303
   22.095    1.1058
   22.110    1.0356
   22.125    1.0532
   22.140    0.9303
   22.155    0.8074
   22.170    1.1058
   22.185    1.0356
   22.200    1.0181
   22.215    1.1410
   22.230    1.0883
   22.245    0.9654
   22.260    1.0356
   22.275    0.9830
   22.290    1.0005
   22.305    1.0356
   22.320    0.8250
   22.335    0.9654
   22.350    0.9303
   22.365    0.7548
   22.380    0.9479
   22.395    1.0181
   22.410    0.7899
   22.425    1.0356
   22.440    0.9830
   22.455    0.8952
   22.470    0.9479
   22.485    1.1410
   22.500    1.0532
   22.515    1.2112
   22.530    1.3516
   22.545    1.4745
   22.560    1.3516
   22.575    1.3340
   22.590    1.2287
   22.605    1.2814
   22.620    1.1410
   22.635    1.0883
   22.650    0.8777
   22.665    0.9830
   22.680    0.8074
   22.695    1.0356
   22.710    0.9830
   22.725    0.7899
   22.740    0.9479
   22.755    0.9128
   22.770    0.9654
   22.785    0.9830
   22.800    0.9303
   22.815    1.1410
   22.830    1.2112
   22.845    1.4042
   22.860    1.2989
   22.875    1.4042
   22.890    1.3516
   22.905    1.4042
   22.920    1.4920
   22.935    1.4218
   22.950    1.2814
   22.965    1.1058
   22.980    1.1234
   22.995    1.1234
   23.010    1.0005
   23.025    0.8601
   23.040    0.8425
   23.055    1.0356
   23.070    0.9479
   23.085    1.1410
   23.100    1.1585
   23.115    1.0181
   23.130    0.9303
   23.145    0.8777
   23.160    1.2638
   23.175    1.1936
   23.190    1.1585
   23.205    0.9830
   23.220    1.0356
   23.235    1.1058
   23.250    1.0181
   23.265    0.9654
   23.280    1.2638
   23.295    0.9830
   23.310    1.0181
   23.325    1.0883
   23.340    1.1234
   23.355    0.7372
   23.370    0.7021
   23.385    0.9303
   23.400    1.0707
   23.415    0.9654
   23.430    0.8601
   23.445    0.8952
   23.460    0.9479
   23.475    1.0532
   23.490    1.0005
   23.505    0.8425
   23.520    0.8952
   23.535    0.8074
   23.550    0.9830
   23.565    0.8074
   23.580    1.1058
   23.595    0.8425
   23.610    0.8777
   23.625    0.8952
   23.640    1.0005
   23.655    0.8425
   23.670    1.0181
   23.685    0.9303
   23.700    0.9654
   23.715    0.9830
   23.730    1.0532
   23.745    0.9479
   23.760    1.0532
   23.775    1.0005
   23.790    1.1585
   23.805    0.8425
   23.820    0.8777
   23.835    0.9479
   23.850    0.9654
   23.865    1.2463
   23.880    1.0532
   23.895    1.1058
   23.910    1.0883
   23.925    1.1058
   23.940    0.9654
   23.955    0.9654
   23.970    1.0356
   23.985    0.8601
   24.000    1.0005
   24.015    1.0883
   24.030    0.8601
   24.045    0.8601
   24.060    0.8425
   24.075    0.9654
   24.090    1.0005
   24.105    0.8952
   24.120    0.9303
   24.135    0.8952
   24.150    0.9479
   24.165    1.0356
   24.180    1.1585
   24.195    1.2112
   24.210    1.2112
   24.225    1.1234
   24.240    0.9654
   24.255    1.0181
   24.270    0.8601
   24.285    0.7723
   24.300    0.9830
   24.315    0.9128
   24.330    0.8250
   24.345    0.8777
   24.360    1.1585
   24.375    1.0883
   24.390    1.1585
   24.405    0.9128
   24.420    0.9654
   24.435    0.8074
   24.450    0.9479
   24.465    1.0181
   24.480    0.9830
   24.495    0.8952
   24.510    0.8601
   24.525    1.0181
   24.540    1.0005
   24.555    1.0356
   24.570    1.0181
   24.585    0.8777
   24.600    0.9128
   24.615    0.9830
   24.630    0.9303
   24.645    0.7899
   24.660    0.8074
   24.675    0.7548
   24.690    0.8425
   24.705    0.8074
   24.720    0.8601
   24.735    0.7899
   24.750    0.8952
   24.765    0.9654
   24.780    0.8250
   24.795    0.7723
   24.810    0.8952
   24.825    0.8952
   24.840    0.9830
   24.855    0.9479
   24.870    0.9128
   24.885    0.8777
   24.900    0.9128
   24.915    0.7548
   24.930    1.1234
   24.945    0.9479
   24.960    0.8250
   24.975    0.9830
   24.990    0.8952
   25.005    0.8952
   25.020    0.8425
   25.035    0.8952
   25.050    0.9654
   25.065    0.8074
   25.080    0.9479
   25.095    0.9479
   25.110    0.9128
   25.125    0.9303
   25.140    1.0707
   25.155    1.0181
   25.170    0.8952
   25.185    1.0005
   25.200    0.8952
   25.215    0.8601
   25.230    1.0707
   25.245    0.8601
   25.260    0.9303
   25.275    1.0181
   25.290    0.9830
   25.305    1.1585
   25.320    1.0181
   25.335    1.0005
   25.350    0.9479
   25.365    0.8601
   25.380    0.8601
   25.395    0.9303
   25.410    0.9303
   25.425    0.8074
   25.440    0.8777
   25.455    0.8952
   25.470    1.0181
   25.485    0.9654
   25.500    0.9479
   25.515    0.9654
   25.530    0.7723
   25.545    0.8074
   25.560    0.8777
   25.575    0.8074
   25.590    1.0883
   25.605    0.8250
   25.620    1.0005
   25.635    0.9479
   25.650    1.0005
   25.665    0.9479
   25.680    1.0005
   25.695    0.9654
   25.710    0.8777
   25.725    0.9479
   25.740    1.1234
   25.755    1.1058
   25.770    1.0883
   25.785    1.2112
   25.800    1.3691
   25.815    1.3516
   25.830    1.3867
   25.845    1.0707
   25.860    1.1058
   25.875    1.1936
   25.890    1.0883
   25.905    1.0883
   25.920    0.8952
   25.935    0.9479
   25.950    0.9128
   25.965    0.9654
   25.980    0.9830
   25.995    1.1234
   26.010    1.0181
   26.025    0.8777
   26.040    0.9654
   26.055    0.9479
   26.070    0.9303
   26.085    0.8777
   26.100    0.8952
   26.115    0.9654
   26.130    0.7548
   26.145    0.7548
   26.160    0.9830
   26.175    0.8601
   26.190    0.9303
   26.205    0.8425
   26.220    0.7372
   26.235    0.9128
   26.250    0.9128
   26.265    1.1585
   26.280    0.9830
   26.295    0.7548
   26.310    0.8952
   26.325    0.7548
   26.340    0.9128
   26.355    0.9654
   26.370    0.9479
   26.385    1.2287
   26.400    1.0181
   26.415    1.0181
   26.430    1.0883
   26.445    1.0532
   26.460    0.9128
   26.475    0.8601
   26.490    0.7197
   26.505    0.8425
   26.520    0.7548
   26.535    0.8777
   26.550    0.8952
   26.565    1.0005
   26.580    0.9128
   26.595    0.7723
   26.610    0.7548
   26.625    0.8601
   26.640    0.8601
   26.655    0.7548
   26.670    0.8250
   26.685    0.8601
   26.700    0.8952
   26.715    0.9479
   26.730    0.8777
   26.745    0.9479
   26.760    1.0532
   26.775    0.8777
   26.790    0.9654
   26.805    1.0356
   26.820    0.8601
   26.835    1.0181
   26.850    1.0005
   26.865    0.8777
   26.880    0.8601
   26.895    0.9128
   26.910    0.8074
   26.925    0.8777
   26.940    0.9128
   26.955    1.0181
   26.970    1.1761
   26.985    1.1585
   27.000    1.0181
   27.015    1.0707
   27.030    1.0707
   27.045    0.8777
   27.060    1.0356
   27.075    1.0356
   27.090    0.8074
   27.105    0.8952
   27.120    0.9654
   27.135    1.0181
   27.150    0.9303
   27.165    0.8777
   27.180    0.7899
   27.195    0.8250
   27.210    0.9128
   27.225    0.9654
   27.240    0.8601
   27.255    0.8952
   27.270    1.0532
   27.285    0.9654
   27.300    0.8250
   27.315    0.9128
   27.330    0.7197
   27.345    0.7372
   27.360    0.8425
   27.375    0.9654
   27.390    0.8250
   27.405    0.9128
   27.420    0.8601
   27.435    0.8074
   27.450    0.8074
   27.465    0.8425
   27.480    0.8074
   27.495    0.8074
   27.510    0.9303
   27.525    0.7899
   27.540    0.7372
   27.555    0.8425
   27.570    1.0707
   27.585    0.9128
   27.600    0.9654
   27.615    0.8250
   27.630    0.9128
   27.645    1.0532
   27.660    0.8601
   27.675    0.8601
   27.690    0.7899
   27.705    0.8601
   27.720    0.9303
   27.735    0.7372
   27.750    0.8250
   27.765    0.8777
   27.780    0.7197
   27.795    0.7723
   27.810    0.8952
   27.825    0.8250
   27.840    0.8777
   27.855    0.8250
   27.870    0.8250
   27.885    0.8952
   27.900    0.9479
   27.915    0.7723
   27.930    0.9654
   27.945    0.8952
   27.960    0.9479
   27.975    0.9654
   27.990    0.8952
   28.005    0.8777
   28.020    0.9479
   28.035    0.9830
   28.050    0.9303
   28.065    0.7899
   28.080    0.8425
   28.095    0.7548
   28.110    0.9128
   28.125    0.9128
   28.140    0.9830
   28.155    0.7899
   28.170    0.9128
   28.185    0.9128
   28.200    0.9479
   28.215    0.9128
   28.230    0.9830
   28.245    0.7723
   28.260    0.8777
   28.275    0.9830
   28.290    1.1410
   28.305    0.8601
   28.320    0.9303
   28.335    0.9479
   28.350    0.9479
   28.365    0.8074
   28.380    1.0356
   28.395    0.9654
   28.410    0.9654
   28.425    0.8601
   28.440    0.8250
   28.455    0.8074
   28.470    0.9479
   28.485    0.8425
   28.500    0.7197
   28.515    0.8074
   28.530    1.0005
   28.545    0.6846
   28.560    0.6495
   28.575    1.0005
   28.590    0.7899
   28.605    0.8250
   28.620    0.8074
   28.635    0.9479
   28.650    0.8777
   28.665    0.8601
   28.680    0.6670
   28.695    0.7197
   28.710    0.8074
   28.725    0.8952
   28.740    0.7899
   28.755    0.9830
   28.770    0.9830
   28.785    0.9830
   28.800    0.9479
   28.815    0.8601
   28.830    0.8250
   28.845    0.8425
   28.860    0.7021
   28.875    0.7372
   28.890    0.8601
   28.905    0.8601
   28.920    0.8250
   28.935    0.8425
   28.950    0.8425
   28.965    0.8074
   28.980    0.8601
   28.995    0.8250
   29.010    0.6670
   29.025    0.6846
   29.040    0.6319
   29.055    0.7723
   29.070    0.9830
   29.085    1.0181
   29.100    0.9830
   29.115    0.9128
   29.130    1.0181
   29.145    0.8425
   29.160    0.7372
   29.175    0.6495
   29.190    0.9830
   29.205    0.8425
   29.220    0.9128
   29.235    0.9303
   29.250    1.0532
   29.265    0.8952
   29.280    0.8250
   29.295    0.9830
   29.310    0.9479
   29.325    1.0532
   29.340    1.0707
   29.355    0.9830
   29.370    0.9830
   29.385    0.9830
   29.400    1.0356
   29.415    0.9303
   29.430    0.9303
   29.445    0.9654
   29.460    0.7021
   29.475    0.9128
   29.490    0.7548
   29.505    0.6670
   29.520    0.8250
   29.535    0.8074
   29.550    0.8074
   29.565    1.0532
   29.580    0.8425
   29.595    0.8425
   29.610    0.9830
   29.625    0.8601
   29.640    0.7723
   29.655    0.8601
   29.670    0.7723
   29.685    0.8425
   29.700    0.9830
   29.715    0.8952
   29.730    0.8601
   29.745    0.9654
   29.760    0.7899
   29.775    0.8425
   29.790    0.9479
   29.805    0.9479
   29.820    0.7548
   29.835    0.8777
   29.850    0.8601
   29.865    0.8601
   29.880    0.8777
   29.895    0.9128
   29.910    0.9654
   29.925    0.8425
   29.940    1.0883
   29.955    0.7723
   29.970    0.6670
   29.985    0.7899
   30.000    0.7372
   30.015    0.8601
   30.030    0.9128
   30.045    1.0005
   30.060    0.8777
   30.075    0.8074
   30.090    0.8601
   30.105    0.7723
   30.120    0.6495
   30.135    0.7723
   30.150    1.0181
   30.165    0.7548
   30.180    0.7197
   30.195    0.7723
   30.210    0.9303
   30.225    0.7548
   30.240    0.7372
   30.255    0.7021
   30.270    0.8601
   30.285    0.7723
   30.300    0.9128
   30.315    0.8250
   30.330    0.7197
   30.345    0.6495
   30.360    0.7372
   30.375    0.9128
   30.390    0.7372
   30.405    0.7021
   30.420    0.7021
   30.435    0.8777
   30.450    0.6144
   30.465    0.6670
   30.480    0.6495
   30.495    0.9303
   30.510    1.0883
   30.525    0.6670
   30.540    0.7899
   30.555    0.9128
   30.570    0.9654
   30.585    0.8250
   30.600    0.8777
   30.615    1.0005
   30.630    0.7197
   30.645    0.9654
   30.660    0.9479
   30.675    0.7723
   30.690    0.7723
   30.705    0.8250
   30.720    0.9128
   30.735    0.8425
   30.750    0.8601
   30.765    0.9128
   30.780    0.6846
   30.795    0.6670
   30.810    0.6319
   30.825    0.7899
   30.840    0.7197
   30.855    0.7372
   30.870    0.7723
   30.885    0.9128
   30.900    0.7548
   30.915    0.6846
   30.930    0.6846
   30.945    0.6846
   30.960    0.7372
   30.975    0.8425
   30.990    0.6846
   31.005    0.5793
   31.020    0.5793
   31.035    0.6670
   31.050    0.8601
   31.065    0.7723
   31.080    0.8250
   31.095    0.6846
   31.110    0.7372
   31.125    0.6144
   31.140    0.7548
   31.155    0.9128
   31.170    0.7372
   31.185    0.8425
   31.200    0.8777
   31.215    0.6846
   31.230    0.8601
   31.245    0.8777
   31.260    0.7372
   31.275    0.7548
   31.290    0.6495
   31.305    0.6495
   31.320    0.7899
   31.335    0.8952
   31.350    0.9128
   31.365    0.9479
   31.380    1.0181
   31.395    0.7021
   31.410    0.7197
   31.425    0.7021
   31.440    0.7899
   31.455    0.8952
   31.470    0.6846
   31.485    0.7548
   31.500    0.6495
   31.515    0.8601
   31.530    0.7899
   31.545    0.9303
   31.560    0.6670
   31.575    0.7021
   31.590    0.7197
   31.605    0.6319
   31.620    0.7197
   31.635    0.8777
   31.650    0.6670
   31.665    0.7021
   31.680    0.6670
   31.695    0.6495
   31.710    0.7021
   31.725    0.7548
   31.740    0.6495
   31.755    0.6319
   31.770    0.7197
   31.785    0.8601
   31.800    0.8250
   31.815    0.6670
   31.830    0.7548
   31.845    0.8425
   31.860    0.7899
   31.875    0.9128
   31.890    0.8250
   31.905    0.7372
   31.920    0.6319
   31.935    0.7548
   31.950    1.0707
   31.965    0.8777
   31.980    0.6495
   31.995    0.7372
   32.010    0.7723
   32.025    0.6144
   32.040    0.5617
   32.055    0.6846
   32.070    0.7548
   32.085    0.6670
   32.100    0.7021
   32.115    0.6846
   32.130    0.6144
   32.145    0.7723
   32.160    0.7548
   32.175    0.7197
   32.190    0.8425
   32.205    0.7021
   32.220    0.6670
   32.235    0.7372
   32.250    0.8074
   32.265    0.6846
   32.280    0.6495
   32.295    0.6319
   32.310    0.7723
   32.325    0.7548
   32.340    0.7372
   32.355    0.7548
   32.370    0.5793
   32.385    0.7899
   32.400    0.7723
   32.415    0.9479
   32.430    0.5968
   32.445    0.7372
   32.460    0.6846
   32.475    0.5968
   32.490    0.6319
   32.505    0.6846
   32.520    0.6495
   32.535    0.7899
   32.550    0.7723
   32.565    0.8250
   32.580    0.6144
   32.595    0.5968
   32.610    0.6144
   32.625    0.5617
   32.640    0.8601
   32.655    0.8952
   32.670    0.5968
   32.685    0.7021
   32.700    0.5968
   32.715    0.6495
   32.730    0.6670
   32.745    0.6495
   32.760    0.6144
   32.775    0.5266
   32.790    0.5441
   32.805    0.6846
   32.820    0.6670
   32.835    0.8601
   32.850    0.7548
   32.865    0.7021
   32.880    0.7723
   32.895    0.6495
   32.910    0.6846
   32.925    0.7021
   32.940    0.6670
   32.955    0.7548
   32.970    0.7548
   32.985    0.7723
   33.000    0.7197
   33.015    0.8074
   33.030    0.7372
   33.045    0.8601
   33.060    0.6495
   33.075    0.7899
   33.090    0.7899
   33.105    0.6846
   33.120    0.7021
   33.135    0.6319
   33.150    0.7723
   33.165    0.7548
   33.180    0.6144
   33.195    0.7372
   33.210    0.7021
   33.225    0.7548
   33.240    0.6144
   33.255    0.5617
   33.270    0.5441
   33.285    0.7372
   33.300    0.6846
   33.315    0.6846
   33.330    0.4739
   33.345    0.5617
   33.360    0.6319
   33.375    0.7197
   33.390    0.8074
   33.405    0.7372
   33.420    0.6495
   33.435    0.6319
   33.450    0.7021
   33.465    0.5968
   33.480    0.6495
   33.495    0.7723
   33.510    0.7372
   33.525    0.8074
   33.540    0.5793
   33.555    0.5441
   33.570    0.6319
   33.585    0.7197
   33.600    0.7197
   33.615    0.6670
   33.630    0.6846
   33.645    0.6319
   33.660    0.6495
   33.675    0.6670
   33.690    0.6319
   33.705    0.4564
   33.720    0.4388
   33.735    0.5090
   33.750    0.6670
   33.765    0.5617
   33.780    0.6319
   33.795    0.7723
   33.810    0.6495
   33.825    0.7548
   33.840    0.8601
   33.855    0.6846
   33.870    0.6495
   33.885    0.5441
   33.900    0.5793
   33.915    0.7723
   33.930    0.6846
   33.945    0.6495
   33.960    0.6319
   33.975    0.6144
   33.990    0.5793
   34.005    0.6846
   34.020    0.7899
   34.035    0.7021
   34.050    0.6670
   34.065    0.5441
   34.080    0.6319
   34.095    0.6319
   34.110    0.6670
   34.125    0.7899
   34.140    0.6495
   34.155    0.6319
   34.170    0.4213
   34.185    0.6144
   34.200    0.6319
   34.215    0.6495
   34.230    0.7372
   34.245    0.5617
   34.260    0.6495
   34.275    0.5617
   34.290    0.6144
   34.305    0.6846
   34.320    0.7372
   34.335    0.7899
   34.350    0.5090
   34.365    0.5441
   34.380    0.6495
   34.395    0.7723
   34.410    0.5793
   34.425    0.5090
   34.440    0.6670
   34.455    0.6144
   34.470    0.7372
   34.485    0.7723
   34.500    0.6670
   34.515    0.6144
   34.530    0.5441
   34.545    0.5617
   34.560    0.5090
   34.575    0.7197
   34.590    0.7723
   34.605    0.7548
   34.620    0.5617
   34.635    0.6144
   34.650    0.6670
   34.665    0.4739
   34.680    0.5090
   34.695    0.6144
   34.710    0.6144
   34.725    0.6846
   34.740    0.7723
   34.755    0.7372
   34.770    0.6846
   34.785    0.7723
   34.800    0.7021
   34.815    0.5617
   34.830    0.6670
   34.845    0.7372
   34.860    0.8952
   34.875    0.6846
   34.890    0.6670
   34.905    0.5266
   34.920    0.6144
   34.935    0.7723
   34.950    0.6319
   34.965    0.7372
   34.980    0.6495
   34.995    0.5793
   35.010    0.5266
   35.025    0.5617
   35.040    0.6319
   35.055    0.8074
   35.070    0.5793
   35.085    0.5441
   35.100    0.5090
   35.115    0.6319
   35.130    0.6670
   35.145    0.7021
   35.160    0.5968
   35.175    0.7372
   35.190    0.6495
   35.205    0.5968
   35.220    0.5441
   35.235    0.6670
   35.250    0.5968
   35.265    0.6144
   35.280    0.5441
   35.295    0.4739
   35.310    0.5793
   35.325    0.6319
   35.340    0.5266
   35.355    0.6846
   35.370    0.7548
   35.385    0.6846
   35.400    0.4739
   35.415    0.5441
   35.430    0.6670
   35.445    0.5090
   35.460    0.7372
   35.475    0.4915
   35.490    0.4739
   35.505    0.6144
   35.520    0.4564
   35.535    0.5090
   35.550    0.6144
   35.565    0.5968
   35.580    0.7021
   35.595    0.4739
   35.610    0.5441
   35.625    0.6144
   35.640    0.5441
   35.655    0.6144
   35.670    0.6144
   35.685    0.5441
   35.700    0.5441
   35.715    0.6670
   35.730    0.5793
   35.745    0.5441
   35.760    0.4564
   35.775    0.5968
   35.790    0.6144
   35.805    0.5090
   35.820    0.6144
   35.835    0.5090
   35.850    0.4564
   35.865    0.5090
   35.880    0.5266
   35.895    0.6495
   35.910    0.5090
   35.925    0.5090
   35.940    0.4213
   35.955    0.4564
   35.970    0.6670
   35.985    0.4915
   36.000    0.7197
   36.015    0.5441
   36.030    0.5968
   36.045    0.5793
   36.060    0.5968
   36.075    0.6846
   36.090    0.5441
   36.105    0.4739
   36.120    0.5266
   36.135    0.5266
   36.150    0.6319
   36.165    0.7723
   36.180    0.7548
   36.195    0.7197
   36.210    0.5617
   36.225    0.4915
   36.240    0.5266
   36.255    0.5090
   36.270    0.4739
   36.285    0.6319
   36.300    0.5090
   36.315    0.4564
   36.330    0.5441
   36.345    0.6495
   36.360    0.5968
   36.375    0.6495
   36.390    0.6670
   36.405    0.5617
   36.420    0.5617
   36.435    0.4915
   36.450    0.5617
   36.465    0.5968
   36.480    0.7197
   36.495    0.4564
   36.510    0.5090
   36.525    0.4388
   36.540    0.6495
   36.555    0.5441
   36.570    0.4564
   36.585    0.4564
   36.600    0.4213
   36.615    0.6670
   36.630    0.5090
   36.645    0.3862
   36.660    0.4739
   36.675    0.5617
   36.690    0.4739
   36.705    0.5090
   36.720    0.7021
   36.735    0.6670
   36.750    0.4388
   36.765    0.6319
   36.780    0.5617
   36.795    0.4739
   36.810    0.4037
   36.825    0.5617
   36.840    0.5441
   36.855    0.5617
   36.870    0.4564
   36.885    0.6144
   36.900    0.5266
   36.915    0.5968
   36.930    0.7021
   36.945    0.4915
   36.960    0.6319
   36.975    0.5090
   36.990    0.4739
   37.005    0.6846
   37.020    0.5617
   37.035    0.4915
   37.050    0.4564
   37.065    0.5266
   37.080    0.5441
   37.095    0.7372
   37.110    0.5968
   37.125    0.4739
   37.140    0.6144
   37.155    0.6495
   37.170    0.5793
   37.185    0.6495
   37.200    0.5266
   37.215    0.5968
   37.230    0.5441
   37.245    0.5090
   37.260    0.6319
   37.275    0.4388
   37.290    0.4739
   37.305    0.4915
   37.320    0.5090
   37.335    0.5266
   37.350    0.5090
   37.365    0.5090
   37.380    0.4213
   37.395    0.4388
   37.410    0.4388
   37.425    0.5441
   37.440    0.6670
   37.455    0.5968
   37.470    0.4564
   37.485    0.6670
   37.500    0.5793
   37.515    0.5090
   37.530    0.6144
   37.545    0.5090
   37.560    0.4915
   37.575    0.4915
   37.590    0.5441
   37.605    0.5617
   37.620    0.5266
   37.635    0.6144
   37.650    0.6670
   37.665    0.5441
   37.680    0.4564
   37.695    0.3686
   37.710    0.4564
   37.725    0.6144
   37.740    0.5793
   37.755    0.5266
   37.770    0.5617
   37.785    0.5968
   37.800    0.5090
   37.815    0.5441
   37.830    0.5441
   37.845    0.5441
   37.860    0.6144
   37.875    0.4213
   37.890    0.5617
   37.905    0.7021
   37.920    0.6846
   37.935    0.5968
   37.950    0.6144
   37.965    0.4915
   37.980    0.4915
   37.995    0.6144
   38.010    0.6144
   38.025    0.5090
   38.040    0.3511
   38.055    0.5090
   38.070    0.5441
   38.085    0.4739
   38.100    0.5441
   38.115    0.4564
   38.130    0.5266
   38.145    0.5090
   38.160    0.4915
   38.175    0.5266
   38.190    0.4388
   38.205    0.2984
   38.220    0.4388
   38.235    0.5090
   38.250    0.5793
   38.265    0.4739
   38.280    0.4037
   38.295    0.4564
   38.310    0.4564
   38.325    0.4564
   38.340    0.3862
   38.355    0.4739
   38.370    0.5968
   38.385    0.4915
   38.400    0.5266
   38.415    0.7197
   38.430    0.6495
   38.445    0.5090
   38.460    0.5793
   38.475    0.5968
   38.490    0.5968
   38.505    0.5090
   38.520    0.4739
   38.535    0.5793
   38.550    0.5793
   38.565    0.4213
   38.580    0.4037
   38.595    0.4388
   38.610    0.4388
   38.625    0.5617
   38.640    0.3862
   38.655    0.4388
   38.670    0.4564
   38.685    0.5266
   38.700    0.4739
   38.715    0.4739
   38.730    0.5793
   38.745    0.5441
   38.760    0.5441
   38.775    0.3862
   38.790    0.4037
   38.805    0.5266
   38.820    0.5441
   38.835    0.4915
   38.850    0.4213
   38.865    0.5617
   38.880    0.5266
   38.895    0.5793
   38.910    0.4915
   38.925    0.5441
   38.940    0.5090
   38.955    0.4388
   38.970    0.4564
   38.985    0.6319
   39.000    0.3686
   39.015    0.4388
   39.030    0.4564
   39.045    0.4915
   39.060    0.4915
   39.075    0.5441
   39.090    0.5266
   39.105    0.5617
   39.120    0.6319
   39.135    0.4564
   39.150    0.5617
   39.165    0.3862
   39.180    0.6144
   39.195    0.6319
   39.210    0.5617
   39.225    0.4564
   39.240    0.3862
   39.255    0.5090
   39.270    0.5090
   39.285    0.4213
   39.300    0.6319
   39.315    0.4739
   39.330    0.4739
   39.345    0.4739
   39.360    0.4564
   39.375    0.3862
   39.390    0.5266
   39.405    0.4915
   39.420    0.4037
   39.435    0.5441
   39.450    0.5793
   39.465    0.5793
   39.480    0.4739
   39.495    0.4915
   39.510    0.5090
   39.525    0.4388
   39.540    0.4564
   39.555    0.4915
   39.570    0.5968
   39.585    0.4739
   39.600    0.5441
   39.615    0.5793
   39.630    0.4915
   39.645    0.4739
   39.660    0.5266
   39.675    0.6144
   39.690    0.5793
   39.705    0.4915
   39.720    0.3511
   39.735    0.4213
   39.750    0.5441
   39.765    0.4915
   39.780    0.4037
   39.795    0.4388
   39.810    0.5266
   39.825    0.5266
   39.840    0.5968
   39.855    0.5968
   39.870    0.5266
   39.885    0.5441
   39.900    0.4564
   39.915    0.4388
   39.930    0.4915
   39.945    0.4388
   39.960    0.4739
   39.975    0.5266
   39.990    0.4213
   40.005    0.6495
   40.020    0.4739
   40.035    0.4213
   40.050    0.4915
   40.065    0.5090
   40.080    0.3862
   40.095    0.4915
   40.110    0.4739
   40.125    0.5793
   40.140    0.4037
   40.155    0.4915
   40.170    0.5090
   40.185    0.4564
   40.200    0.5441
   40.215    0.4915
   40.230    0.6144
   40.245    0.5090
   40.260    0.4915
   40.275    0.4739
   40.290    0.5617
   40.305    0.4739
   40.320    0.5090
   40.335    0.4037
   40.350    0.4213
   40.365    0.5090
   40.380    0.7021
   40.395    0.7372
   40.410    0.5617
   40.425    0.6670
   40.440    0.4915
   40.455    0.4213
   40.470    0.6144
   40.485    0.7723
   40.500    0.5441
   40.515    0.6495
   40.530    0.5968
   40.545    0.5090
   40.560    0.4388
   40.575    0.6144
   40.590    0.7197
   40.605    0.5266
   40.620    0.5968
   40.635    0.4388
   40.650    0.5441
   40.665    0.5793
   40.680    0.4564
   40.695    0.3686
   40.710    0.3511
   40.725    0.5266
   40.740    0.4564
   40.755    0.5090
   40.770    0.4739
   40.785    0.4739
   40.800    0.4564
   40.815    0.4388
   40.830    0.4915
   40.845    0.4213
   40.860    0.5090
   40.875    0.4037
   40.890    0.4388
   40.905    0.5090
   40.920    0.5441
   40.935    0.5266
   40.950    0.4213
   40.965    0.5266
   40.980    0.5793
   40.995    0.5617
   41.010    0.4739
   41.025    0.6144
   41.040    0.4213
   41.055    0.4564
   41.070    0.5793
   41.085    0.5441
   41.100    0.4564
   41.115    0.4388
   41.130    0.4037
   41.145    0.5793
   41.160    0.6319
   41.175    0.4564
   41.190    0.5968
   41.205    0.5441
   41.220    0.5090
   41.235    0.4739
   41.250    0.5090
   41.265    0.4388
   41.280    0.4564
   41.295    0.4388
   41.310    0.5793
   41.325    0.5968
   41.340    0.5441
   41.355    0.6495
   41.370    0.5793
   41.385    0.5441
   41.400    0.5266
   41.415    0.5266
   41.430    0.5090
   41.445    0.4388
   41.460    0.5266
   41.475    0.4564
   41.490    0.4213
   41.505    0.4915
   41.520    0.4739
   41.535    0.4915
   41.550    0.5441
   41.565    0.4564
   41.580    0.5266
   41.595    0.6495
   41.610    0.5968
   41.625    0.5441
   41.640    0.5793
   41.655    0.5617
   41.670    0.5968
   41.685    0.3862
   41.700    0.5793
   41.715    0.4564
   41.730    0.4037
   41.745    0.4037
   41.760    0.3511
   41.775    0.4739
   41.790    0.4037
   41.805    0.5266
   41.820    0.5793
   41.835    0.4915
   41.850    0.6144
   41.865    0.4915
   41.880    0.4388
   41.895    0.3862
   41.910    0.4739
   41.925    0.4388
   41.940    0.5266
   41.955    0.3862
   41.970    0.4388
   41.985    0.5793
   42.000    0.4213
   42.015    0.5266
   42.030    0.4564
   42.045    0.3862
   42.060    0.3160
   42.075    0.3686
   42.090    0.5266
   42.105    0.4213
   42.120    0.4388
   42.135    0.4213
   42.150    0.4915
   42.165    0.5090
   42.180    0.3511
   42.195    0.5266
   42.210    0.4564
   42.225    0.4037
   42.240    0.5968
   42.255    0.4739
   42.270    0.5968
   42.285    0.4739
   42.300    0.4388
   42.315    0.4915
   42.330    0.7021
   42.345    0.5441
   42.360    0.4388
   42.375    0.3862
   42.390    0.5266
   42.405    0.5090
   42.420    0.4915
   42.435    0.5090
   42.450    0.5441
   42.465    0.4037
   42.480    0.5090
   42.495    0.5090
   42.510    0.3862
   42.525    0.4739
   42.540    0.4739
   42.555    0.5266
   42.570    0.5090
   42.585    0.5266
   42.600    0.4739
   42.615    0.5441
   42.630    0.5617
   42.645    0.6144
   42.660    0.5441
   42.675    0.5793
   42.690    0.4213
   42.705    0.4037
   42.720    0.4388
   42.735    0.5090
   42.750    0.4564
   42.765    0.4739
   42.780    0.5617
   42.795    0.4388
   42.810    0.3862
   42.825    0.5441
   42.840    0.3862
   42.855    0.4037
   42.870    0.4915
   42.885    0.3862
   42.900    0.4037
   42.915    0.4739
   42.930    0.5793
   42.945    0.5090
   42.960    0.5090
   42.975    0.4037
   42.990    0.3511
   43.005    0.4213
   43.020    0.4388
   43.035    0.3511
   43.050    0.5266
   43.065    0.4213
   43.080    0.4739
   43.095    0.4213
   43.110    0.5968
   43.125    0.4739
   43.140    0.3511
   43.155    0.5090
   43.170    0.5441
   43.185    0.4213
   43.200    0.5617
   43.215    0.4915
   43.230    0.5090
   43.245    0.5441
   43.260    0.5441
   43.275    0.5617
   43.290    0.5441
   43.305    0.5090
   43.320    0.4564
   43.335    0.5266
   43.350    0.5617
   43.365    0.4915
   43.380    0.5617
   43.395    0.6144
   43.410    0.6495
   43.425    0.5793
   43.440    0.5617
   43.455    0.4915
   43.470    0.4388
   43.485    0.3160
   43.500    0.4388
   43.515    0.5266
   43.530    0.4915
   43.545    0.4213
   43.560    0.4037
   43.575    0.4388
   43.590    0.4915
   43.605    0.4213
   43.620    0.4213
   43.635    0.4915
   43.650    0.4564
   43.665    0.3511
   43.680    0.4564
   43.695    0.3862
   43.710    0.4739
   43.725    0.4213
   43.740    0.4915
   43.755    0.5266
   43.770    0.5266
   43.785    0.5090
   43.800    0.3862
   43.815    0.3686
   43.830    0.4564
   43.845    0.4915
   43.860    0.4388
   43.875    0.4564
   43.890    0.4564
   43.905    0.6495
   43.920    0.4739
   43.935    0.4915
   43.950    0.4037
   43.965    0.4037
   43.980    0.4739
   43.995    0.5617
   44.010    0.4037
   44.025    0.4564
   44.040    0.5090
   44.055    0.4213
   44.070    0.5090
   44.085    0.5968
   44.100    0.4739
   44.115    0.5617
   44.130    0.6144
   44.145    0.5266
   44.160    0.5441
   44.175    0.5441
   44.190    0.4915
   44.205    0.4739
   44.220    0.5968
   44.235    0.4739
   44.250    0.5441
   44.265    0.4213
   44.280    0.5090
   44.295    0.5617
   44.310    0.4037
   44.325    0.5090
   44.340    0.5266
   44.355    0.4739
   44.370    0.2984
   44.385    0.4564
   44.400    0.4915
   44.415    0.6495
   44.430    0.5617
   44.445    0.5441
   44.460    0.5441
   44.475    0.4564
   44.490    0.4739
   44.505    0.4915
   44.520    0.4213
   44.535    0.4037
   44.550    0.4037
   44.565    0.4213
   44.580    0.4564
   44.595    0.4915
   44.610    0.4213
   44.625    0.3862
   44.640    0.3862
   44.655    0.3862
   44.670    0.3862
   44.685    0.5793
   44.700    0.4739
   44.715    0.5266
   44.730    0.5266
   44.745    0.5617
   44.760    0.4739
   44.775    0.5441
   44.790    0.5441
   44.805    0.4213
   44.820    0.4739
   44.835    0.4388
   44.850    0.3511
   44.865    0.4388
   44.880    0.4388
   44.895    0.5090
   44.910    0.5266
   44.925    0.4388
   44.940    0.2808
   44.955    0.3335
   44.970    0.3511
   44.985    0.3862
   45.000    0.4564
   45.015    0.5968
   45.030    0.4915
   45.045    0.4213
   45.060    0.4739
   45.075    0.4388
   45.090    0.3511
   45.105    0.4037
   45.120    0.3862
   45.135    0.4213
   45.150    0.4739
   45.165    0.5266
   45.180    0.3686
   45.195    0.4388
   45.210    0.4739
   45.225    0.4915
   45.240    0.4739
   45.255    0.5441
   45.270    0.4739
   45.285    0.4037
   45.300    0.4564
   45.315    0.5090
   45.330    0.6144
   45.345    0.4388
   45.360    0.4388
   45.375    0.5090
   45.390    0.6144
   45.405    0.5441
   45.420    0.5266
   45.435    0.4739
   45.450    0.4564
   45.465    0.4564
   45.480    0.4213
   45.495    0.3862
   45.510    0.3686
   45.525    0.4388
   45.540    0.2808
   45.555    0.3511
   45.570    0.4564
   45.585    0.4388
   45.600    0.4037
   45.615    0.5441
   45.630    0.6144
   45.645    0.4388
   45.660    0.4564
   45.675    0.3686
   45.690    0.5266
   45.705    0.4213
   45.720    0.3862
   45.735    0.3686
   45.750    0.3511
   45.765    0.4564
   45.780    0.3862
   45.795    0.4037
   45.810    0.4739
   45.825    0.4213
   45.840    0.4037
   45.855    0.4037
   45.870    0.4388
   45.885    0.5617
   45.900    0.4739
   45.915    0.3862
   45.930    0.4037
   45.945    0.4213
   45.960    0.5441
   45.975    0.4213
   45.990    0.4739
   46.005    0.4739
   46.020    0.4213
   46.035    0.4564
   46.050    0.4564
   46.065    0.4037
   46.080    0.4564
   46.095    0.4564
   46.110    0.4739
   46.125    0.4037
   46.140    0.4739
   46.155    0.5793
   46.170    0.4564
   46.185    0.4213
   46.200    0.3160
   46.215    0.4388
   46.230    0.5090
   46.245    0.4037
   46.260    0.3335
   46.275    0.4564
   46.290    0.5793
   46.305    0.4037
   46.320    0.4564
   46.335    0.5441
   46.350    0.4915
   46.365    0.3335
   46.380    0.4213
   46.395    0.5266
   46.410    0.3686
   46.425    0.3862
   46.440    0.5968
   46.455    0.5266
   46.470    0.5266
   46.485    0.4213
   46.500    0.5090
   46.515    0.5266
   46.530    0.5441
   46.545    0.4564
   46.560    0.3511
   46.575    0.4388
   46.590    0.3862
   46.605    0.4739
   46.620    0.5617
   46.635    0.2808
   46.650    0.2984
   46.665    0.3862
   46.680    0.4213
   46.695    0.6144
   46.710    0.2984
   46.725    0.3686
   46.740    0.4915
   46.755    0.4915
   46.770    0.5617
   46.785    0.2808
   46.800    0.3335
   46.815    0.4564
   46.830    0.5090
   46.845    0.5090
   46.860    0.4915
   46.875    0.5793
   46.890    0.4388
   46.905    0.3862
   46.920    0.3160
   46.935    0.4037
   46.950    0.5617
   46.965    0.6144
   46.980    0.4915
   46.995    0.4739
   47.010    0.4388
   47.025    0.3160
   47.040    0.4739
   47.055    0.4037
   47.070    0.3862
   47.085    0.4739
   47.100    0.4915
   47.115    0.4213
   47.130    0.4915
   47.145    0.4213
   47.160    0.4388
   47.175    0.4564
   47.190    0.4213
   47.205    0.3335
   47.220    0.4915
   47.235    0.4213
   47.250    0.3862
   47.265    0.3686
   47.280    0.5266
   47.295    0.4915
   47.310    0.4564
   47.325    0.5090
   47.340    0.5617
   47.355    0.5090
   47.370    0.3686
   47.385    0.4213
   47.400    0.4213
   47.415    0.4739
   47.430    0.4213
   47.445    0.5617
   47.460    0.3686
   47.475    0.4739
   47.490    0.5266
   47.505    0.4037
   47.520    0.4213
   47.535    0.4388
   47.550    0.4739
   47.565    0.4388
   47.580    0.4564
   47.595    0.3686
   47.610    0.4564
   47.625    0.2457
   47.640    0.3335
   47.655    0.4915
   47.670    0.5793
   47.685    0.4564
   47.700    0.5090
   47.715    0.3862
   47.730    0.3511
   47.745    0.3160
   47.760    0.4388
   47.775    0.3862
   47.790    0.4037
   47.805    0.4213
   47.820    0.4564
   47.835    0.4037
   47.850    0.3686
   47.865    0.4388
   47.880    0.3511
   47.895    0.3335
   47.910    0.4037
   47.925    0.4037
   47.940    0.4388
   47.955    0.5090
   47.970    0.4037
   47.985    0.4915
   48.000    0.4739
   48.015    0.3335
   48.030    0.3862
   48.045    0.3511
   48.060    0.3862
   48.075    0.3686
   48.090    0.4037
   48.105    0.4213
   48.120    0.4739
   48.135    0.4564
   48.150    0.4213
   48.165    0.3160
   48.180    0.3160
   48.195    0.3160
   48.210    0.4564
   48.225    0.4213
   48.240    0.3862
   48.255    0.3335
   48.270    0.3335
   48.285    0.4213
   48.300    0.4915
   48.315    0.5266
   48.330    0.5090
   48.345    0.3862
   48.360    0.5266
   48.375    0.5266
   48.390    0.4037
   48.405    0.3862
   48.420    0.4739
   48.435    0.5617
   48.450    0.4388
   48.465    0.4213
   48.480    0.4739
   48.495    0.4388
   48.510    0.5266
   48.525    0.4564
   48.540    0.4213
   48.555    0.4739
   48.570    0.4739
   48.585    0.4388
   48.600    0.5441
   48.615    0.5090
   48.630    0.4388
   48.645    0.4739
   48.660    0.4564
   48.675    0.3862
   48.690    0.4739
   48.705    0.3862
   48.720    0.4564
   48.735    0.5266
   48.750    0.5266
   48.765    0.3686
   48.780    0.3686
   48.795    0.3335
   48.810    0.4388
   48.825    0.4213
   48.840    0.5090
   48.855    0.5266
   48.870    0.4915
   48.885    0.4213
   48.900    0.3862
   48.915    0.3335
   48.930    0.3862
   48.945    0.3862
   48.960    0.3862
   48.975    0.5266
   48.990    0.4915
   49.005    0.5266
   49.020    0.4564
   49.035    0.2984
   49.050    0.4213
   49.065    0.4564
   49.080    0.5441
   49.095    0.4739
   49.110    0.4915
   49.125    0.5090
   49.140    0.4037
   49.155    0.4388
   49.170    0.4564
   49.185    0.3335
   49.200    0.2457
   49.215    0.3511
   49.230    0.4739
   49.245    0.3511
   49.260    0.4037
   49.275    0.4213
   49.290    0.3862
   49.305    0.4739
   49.320    0.3511
   49.335    0.2633
   49.350    0.3335
   49.365    0.4213
   49.380    0.4213
   49.395    0.5090
   49.410    0.4915
   49.425    0.5266
   49.440    0.4037
   49.455    0.3160
   49.470    0.4213
   49.485    0.4739
   49.500    0.4915
   49.515    0.4213
   49.530    0.5090
   49.545    0.5090
   49.560    0.4213
   49.575    0.5617
   49.590    0.4739
   49.605    0.4739
   49.620    0.4037
   49.635    0.4213
   49.650    0.5617
   49.665    0.5090
   49.680    0.4037
   49.695    0.3862
   49.710    0.5441
   49.725    0.4037
   49.740    0.4915
   49.755    0.4213
   49.770    0.3511
   49.785    0.3335
   49.800    0.3862
   49.815    0.4213
   49.830    0.4213
   49.845    0.3686
   49.860    0.4388
   49.875    0.4388
   49.890    0.4388
   49.905    0.4213
   49.920    0.3862
   49.935    0.4739
   49.950    0.5441
   49.965    0.3862
   49.980    0.4388
