    1.500   20.4634
    1.515   20.8531
    1.530   20.0737
    1.545   20.1159
    1.560   20.3054
    1.575   20.2001
    1.590   19.6735
    1.605   18.4413
    1.620   19.1785
    1.635   18.2622
    1.650   18.4939
    1.665   18.6309
    1.680   18.7362
    1.695   18.5045
    1.710   17.8094
    1.725   17.8199
    1.740   18.2096
    1.755   18.2728
    1.770   17.8831
    1.785   17.4618
    1.800   17.7041
    1.815   17.8410
    1.830   17.5355
    1.845   17.7672
    1.860   17.3776
    1.875   17.1459
    1.890   17.0300
    1.905   16.8404
    1.920   17.5882
    1.935   17.1459
    1.950   17.4302
    1.965   16.7457
    1.980   17.1775
    1.995   16.9142
    2.010   16.8088
    2.025   16.7141
    2.040   16.3981
    2.055   17.3670
    2.070   16.8088
    2.085   17.1459
    2.100   16.8615
    2.115   16.6825
    2.130   16.5982
    2.145   16.6825
    2.160   16.8088
    2.175   16.5245
    2.190   16.3454
    2.205   16.8404
    2.220   17.0721
    2.235   16.8510
    2.250   16.9984
    2.265   17.4618
    2.280   18.2201
    2.295   18.0937
    2.310   18.4097
    2.325   17.5040
    2.340   17.4724
    2.355   17.4618
    2.370   18.1359
    2.385   17.9884
    2.400   18.2517
    2.415   18.8520
    2.430   18.6098
    2.445   18.1043
    2.460   18.8836
    2.475   19.4102
    2.490   18.9784
    2.505   18.8204
    2.520   19.4418
    2.535   20.2633
    2.550   20.4739
    2.565   20.3686
    2.580   21.3165
    2.595   20.9057
    2.610   20.8320
    2.625   21.6008
    2.640   21.8325
    2.655   22.7593
    2.670   22.5592
    2.685   23.0964
    2.700   22.7804
    2.715   23.2859
    2.730   23.3913
    2.745   24.1601
    2.760   24.8552
    2.775   25.3397
    2.790   26.1506
    2.805   26.6667
    2.820   26.6983
    2.835   28.0569
    2.850   28.4255
    2.865   28.9837
    2.880   29.5735
    2.895   30.2791
    2.910   31.8167
    2.925   31.9221
    2.940   32.1959
    2.955   32.7330
    2.970   34.0916
    2.985   34.4813
    3.000   35.7346
    3.015   37.0932
    3.030   38.2517
    3.045   38.5887
    3.060   40.5477
    3.075   42.0853
    3.090   43.1385
    3.105   43.5387
    3.120   45.3818
    3.135   47.2565
    3.150   47.9937
    3.165   50.0369
    3.180   52.0063
    3.195   54.5024
    3.210   55.7346
    3.225   58.3886
    3.240   61.1901
    3.255   63.9600
    3.270   67.2565
    3.285   69.7525
    3.300   72.9858
    3.315   76.8404
    3.330   80.7478
    3.345   84.9921
    3.360   90.8057
    3.375   95.4186
    3.390  101.4007
    3.405  106.9616
    3.420  113.2912
    3.435  116.8299
    3.450  120.0105
    3.465  120.8742
    3.480  116.7141
    3.495  110.8268
    3.510   99.6103
    3.525   87.2459
    3.540   76.6825
    3.555   67.5303
    3.570   59.5682
    3.585   53.5334
    3.600   49.7736
    3.615   46.3823
    3.630   45.1185
    3.645   42.6540
    3.660   41.2744
    3.675   41.1690
    3.690   41.1690
    3.705   41.3270
    3.720   42.0116
    3.735   42.0432
    3.750   42.4855
    3.765   43.5703
    3.780   43.6546
    3.795   44.0337
    3.810   44.8341
    3.825   46.0874
    3.840   46.5508
    3.855   47.6040
    3.870   48.4255
    3.885   50.0790
    3.900   50.7109
    3.915   50.7320
    3.930   50.8689
    3.945   51.7430
    3.960   52.7120
    3.975   52.2591
    3.990   51.3218
    4.005   49.9105
    4.020   49.4576
    4.035   47.4566
    4.050   47.0458
    4.065   45.8557
    4.080   44.0442
    4.095   41.6956
    4.110   40.0421
    4.125   37.5671
    4.140   35.0290
    4.155   33.9337
    4.170   32.4065
    4.185   31.6693
    4.200   28.6256
    4.215   27.2986
    4.230   25.5082
    4.245   23.0016
    4.260   22.2538
    4.275   21.3375
    4.290   19.8526
    4.305   19.9052
    4.320   18.4939
    4.335   17.0300
    4.350   16.0295
    4.365   15.0816
    4.380   14.5972
    4.395   13.5650
    4.410   12.8699
    4.425   12.9542
    4.440   12.7751
    4.455   12.0063
    4.470   11.6377
    4.485   11.2480
    4.500   10.9953
    4.515   11.0479
    4.530   10.0053
    4.545    9.4681
    4.560    9.8894
    4.575    9.7630
    4.590    9.4681
    4.605    9.5735
    4.620    8.9626
    4.635    8.3307
    4.650    8.7098
    4.665    8.3623
    4.680    8.1411
    4.695    8.3202
    4.710    7.8146
    4.725    8.0569
    4.740    7.8673
    4.755    8.0885
    4.770    7.9831
    4.785    7.6988
    4.800    7.8252
    4.815    7.7304
    4.830    7.4460
    4.845    7.4671
    4.860    7.1617
    4.875    7.1511
    4.890    6.9405
    4.905    7.0563
    4.920    7.5197
    4.935    7.2565
    4.950    7.0248
    4.965    6.7404
    4.980    6.9405
    4.995    7.0879
    5.010    7.0985
    5.025    6.6456
    5.040    6.6561
    5.055    6.7299
    5.070    6.7825
    5.085    6.4982
    5.100    6.6140
    5.115    6.9194
    5.130    6.9089
    5.145    6.5508
    5.160    6.1506
    5.175    6.3928
    5.190    6.5824
    5.205    6.5929
    5.220    6.3718
    5.235    6.0032
    5.250    6.1822
    5.265    6.6245
    5.280    6.5403
    5.295    6.2875
    5.310    6.2454
    5.325    6.2559
    5.340    6.6667
    5.355    6.3612
    5.370    6.3823
    5.385    6.1190
    5.400    6.1717
    5.415    6.3507
    5.430    6.4455
    5.445    6.2349
    5.460    6.0453
    5.475    6.1717
    5.490    5.9926
    5.505    5.8241
    5.520    6.0137
    5.535    5.7820
    5.550    6.2243
    5.565    6.2349
    5.580    6.0874
    5.595    5.2133
    5.610    5.4344
    5.625    5.8557
    5.640    5.8241
    5.655    6.0979
    5.670    6.0032
    5.685    5.7293
    5.700    6.2033
    5.715    5.7293
    5.730    5.7609
    5.745    5.6345
    5.760    5.2765
    5.775    5.5398
    5.790    5.7083
    5.805    5.7188
    5.820    5.8347
    5.835    5.7504
    5.850    5.8557
    5.865    5.9716
    5.880    5.3818
    5.895    5.7715
    5.910    5.5608
    5.925    5.7399
    5.940    5.7504
    5.955    5.7504
    5.970    5.9400
    5.985    5.6451
    6.000    5.2870
    6.015    5.6029
    6.030    5.8873
    6.045    5.5924
    6.060    5.9084
    6.075    5.8241
    6.090    5.4239
    6.105    5.9084
    6.120    6.2559
    6.135    6.1401
    6.150    6.0874
    6.165    5.6135
    6.180    6.2033
    6.195    6.1717
    6.210    5.7925
    6.225    6.1401
    6.240    5.9294
    6.255    6.1506
    6.270    6.0664
    6.285    6.4034
    6.300    5.9189
    6.315    5.9189
    6.330    6.2875
    6.345    6.2243
    6.360    6.2981
    6.375    6.3402
    6.390    6.4350
    6.405    6.2349
    6.420    6.7193
    6.435    6.5929
    6.450    6.2559
    6.465    6.2875
    6.480    6.5087
    6.495    6.6456
    6.510    6.5929
    6.525    6.8246
    6.540    6.9405
    6.555    7.1511
    6.570    7.5197
    6.585    7.0248
    6.600    7.3512
    6.615    7.1722
    6.630    7.6251
    6.645    7.6356
    6.660    7.6988
    6.675    8.3834
    6.690    8.5308
    6.705    8.5097
    6.720    8.8046
    6.735    9.1206
    6.750    9.0785
    6.765    9.5629
    6.780    9.9315
    6.795   10.2896
    6.810   10.6161
    6.825   10.9847
    6.840   11.2902
    6.855   11.8799
    6.870   12.5224
    6.885   13.0595
    6.900   13.7651
    6.915   14.8920
    6.930   15.1975
    6.945   15.4292
    6.960   15.2712
    6.975   16.1032
    6.990   15.6187
    7.005   15.0922
    7.020   13.8283
    7.035   12.9015
    7.050   11.5640
    7.065   10.7425
    7.080   10.0158
    7.095    9.3207
    7.110    8.8468
    7.125    7.9726
    7.140    7.5197
    7.155    7.5303
    7.170    7.4566
    7.185    7.4566
    7.200    7.0879
    7.215    7.0669
    7.230    7.1933
    7.245    6.7404
    7.260    6.5192
    7.275    6.8352
    7.290    6.8562
    7.305    7.2143
    7.320    6.5613
    7.335    6.5929
    7.350    6.6877
    7.365    6.8984
    7.380    6.9300
    7.395    7.0669
    7.410    7.1406
    7.425    6.7509
    7.440    6.5087
    7.455    6.5929
    7.470    6.8141
    7.485    6.8562
    7.500    6.5613
    7.515    7.0774
    7.530    7.3196
    7.545    7.0037
    7.560    7.1301
    7.575    7.4039
    7.590    7.4144
    7.605    7.4882
    7.620    7.0669
    7.635    7.3302
    7.650    7.6251
    7.665    7.5619
    7.680    7.8462
    7.695    7.4460
    7.710    8.1411
    7.725    8.1938
    7.740    7.5197
    7.755    7.5935
    7.770    7.6883
    7.785    8.4992
    7.800    8.2886
    7.815    8.7309
    7.830    8.1201
    7.845    8.1306
    7.860    8.1833
    7.875    8.8573
    7.890    9.1732
    7.905    8.9942
    7.920    8.9205
    7.935    8.9415
    7.950    9.4787
    7.965    9.1943
    7.980    8.8573
    7.995    9.0469
    8.010    8.9100
    8.025    8.9310
    8.040    8.7941
    8.055    8.9626
    8.070    9.5629
    8.085    8.9731
    8.100    8.9837
    8.115    9.0785
    8.130    9.3102
    8.145    8.8362
    8.160    9.3734
    8.175    8.9942
    8.190    8.8152
    8.205    8.6045
    8.220    8.3518
    8.235    8.4255
    8.250    8.6256
    8.265    8.2254
    8.280    8.4150
    8.295    8.5203
    8.310    8.4992
    8.325    8.2359
    8.340    8.2991
    8.355    8.1938
    8.370    7.7936
    8.385    7.7725
    8.400    8.1411
    8.415    7.4460
    8.430    7.9831
    8.445    7.9200
    8.460    7.2354
    8.475    7.5935
    8.490    7.2880
    8.505    7.1617
    8.520    7.3196
    8.535    7.0458
    8.550    7.3618
    8.565    6.9510
    8.580    6.9932
    8.595    6.8668
    8.610    6.5298
    8.625    6.5613
    8.640    6.6561
    8.655    6.3928
    8.670    6.7825
    8.685    6.6983
    8.700    6.4876
    8.715    6.2454
    8.730    5.9505
    8.745    6.0453
    8.760    6.0769
    8.775    6.0242
    8.790    6.1611
    8.805    5.8662
    8.820    6.3402
    8.835    6.0558
    8.850    6.0348
    8.865    6.1822
    8.880    6.0874
    8.895    6.2243
    8.910    5.6135
    8.925    5.6977
    8.940    5.9505
    8.955    5.5924
    8.970    5.4239
    8.985    5.7188
    9.000    5.8031
    9.015    5.6345
    9.030    5.2659
    9.045    5.4871
    9.060    5.5608
    9.075    5.8768
    9.090    5.6240
    9.105    6.2981
    9.120    5.7504
    9.135    5.5292
    9.150    5.3818
    9.165    5.4555
    9.180    5.8347
    9.195    5.8662
    9.210    5.5714
    9.225    5.7293
    9.240    5.6345
    9.255    5.3607
    9.270    5.6029
    9.285    5.4766
    9.300    5.2238
    9.315    5.3186
    9.330    5.6451
    9.345    5.9821
    9.360    5.4028
    9.375    5.8978
    9.390    5.6872
    9.405    5.4450
    9.420    5.4450
    9.435    5.4766
    9.450    5.3818
    9.465    5.0869
    9.480    5.3818
    9.495    5.3186
    9.510    5.4555
    9.525    5.5608
    9.540    5.4239
    9.555    5.4766
    9.570    5.2027
    9.585    5.3712
    9.600    5.5187
    9.615    5.6872
    9.630    5.4555
    9.645    5.3923
    9.660    5.1080
    9.675    5.4555
    9.690    5.6977
    9.705    5.4134
    9.720    5.7925
    9.735    5.4134
    9.750    5.3397
    9.765    5.4344
    9.780    5.3818
    9.795    5.3502
    9.810    5.7820
    9.825    5.1290
    9.840    5.3923
    9.855    5.5187
    9.870    5.4028
    9.885    5.4450
    9.900    5.4660
    9.915    5.4766
    9.930    5.4555
    9.945    5.5714
    9.960    5.5082
    9.975    5.6977
    9.990    5.4766
   10.005    5.3081
   10.020    5.5398
   10.035    5.5924
   10.050    5.4450
   10.065    5.1922
   10.080    5.5187
   10.095    5.9610
   10.110    5.5082
   10.125    5.4028
   10.140    5.1185
   10.155    5.2765
   10.170    5.4239
   10.185    5.4976
   10.200    5.7504
   10.215    5.3502
   10.230    5.5714
   10.245    6.0453
   10.260    6.0348
   10.275    5.7504
   10.290    5.6556
   10.305    5.4660
   10.320    5.5608
   10.335    6.0242
   10.350    5.9084
   10.365    5.5503
   10.380    5.9821
   10.395    5.7609
   10.410    5.8873
   10.425    5.9716
   10.440    6.2138
   10.455    6.2875
   10.470    5.9926
   10.485    5.9189
   10.500    6.0348
   10.515    6.0453
   10.530    5.9189
   10.545    5.7609
   10.560    5.8031
   10.575    5.6661
   10.590    5.2449
   10.605    5.5187
   10.620    5.3186
   10.635    5.3607
   10.650    5.6240
   10.665    5.7715
   10.680    5.4344
   10.695    5.3818
   10.710    5.5714
   10.725    5.3502
   10.740    5.5608
   10.755    5.5398
   10.770    5.7399
   10.785    5.4660
   10.800    5.2975
   10.815    5.4976
   10.830    5.6135
   10.845    5.4239
   10.860    5.6661
   10.875    5.3291
   10.890    5.4660
   10.905    5.7504
   10.920    5.4766
   10.935    5.4344
   10.950    5.1185
   10.965    5.2449
   10.980    5.4660
   10.995    5.6240
   11.010    5.6345
   11.025    5.3502
   11.040    5.7925
   11.055    5.3186
   11.070    5.5503
   11.085    5.6135
   11.100    5.1711
   11.115    5.1080
   11.130    5.5187
   11.145    5.4239
   11.160    5.1922
   11.175    5.1395
   11.190    5.4766
   11.205    5.6029
   11.220    5.3923
   11.235    5.4450
   11.250    5.5819
   11.265    5.4555
   11.280    5.3502
   11.295    5.6767
   11.310    5.3923
   11.325    5.4660
   11.340    5.5292
   11.355    5.2554
   11.370    5.4766
   11.385    5.2870
   11.400    5.4976
   11.415    5.8031
   11.430    5.5292
   11.445    5.4976
   11.460    5.3397
   11.475    5.4344
   11.490    5.3712
   11.505    5.3607
   11.520    5.4134
   11.535    5.8031
   11.550    5.8347
   11.565    5.2659
   11.580    5.6661
   11.595    5.3818
   11.610    5.3291
   11.625    5.5819
   11.640    5.4344
   11.655    5.2343
   11.670    5.5398
   11.685    5.3502
   11.700    5.4766
   11.715    5.7925
   11.730    5.2765
   11.745    5.4239
   11.760    5.8136
   11.775    5.8662
   11.790    5.5292
   11.805    5.7293
   11.820    5.8662
   11.835    5.9821
   11.850    5.8768
   11.865    5.7504
   11.880    5.4766
   11.895    5.5924
   11.910    5.5082
   11.925    5.6977
   11.940    6.0874
   11.955    5.9821
   11.970    5.6135
   11.985    5.8978
   12.000    5.6029
   12.015    5.6135
   12.030    5.8452
   12.045    5.8768
   12.060    5.7083
   12.075    6.0453
   12.090    5.9400
   12.105    5.5292
   12.120    5.6240
   12.135    5.7083
   12.150    5.6345
   12.165    5.5503
   12.180    5.4660
   12.195    5.9926
   12.210    5.6029
   12.225    5.9294
   12.240    5.8452
   12.255    5.8347
   12.270    6.3928
   12.285    5.7820
   12.300    5.9821
   12.315    6.0769
   12.330    5.6767
   12.345    5.8768
   12.360    5.8873
   12.375    5.9610
   12.390    5.7715
   12.405    5.9400
   12.420    5.9821
   12.435    5.8136
   12.450    5.5714
   12.465    5.2975
   12.480    5.6977
   12.495    5.7399
   12.510    5.7293
   12.525    5.9821
   12.540    5.8978
   12.555    5.4239
   12.570    5.3923
   12.585    5.6556
   12.600    5.9716
   12.615    5.9189
   12.630    5.8768
   12.645    5.6240
   12.660    5.4871
   12.675    5.4660
   12.690    5.5608
   12.705    5.8873
   12.720    5.4976
   12.735    5.6240
   12.750    5.9716
   12.765    5.4660
   12.780    5.8662
   12.795    5.8136
   12.810    5.4766
   12.825    5.6451
   12.840    5.5819
   12.855    5.7609
   12.870    5.4976
   12.885    5.6661
   12.900    5.3291
   12.915    5.3607
   12.930    5.3607
   12.945    5.5924
   12.960    5.7188
   12.975    6.0032
   12.990    5.7293
   13.005    5.5924
   13.020    5.4660
   13.035    5.3923
   13.050    5.6556
   13.065    5.9821
   13.080    5.8873
   13.095    5.8452
   13.110    5.5819
   13.125    5.5714
   13.140    5.5714
   13.155    5.4450
   13.170    5.3818
   13.185    5.1501
   13.200    5.7083
   13.215    5.4239
   13.230    5.7820
   13.245    5.7083
   13.260    5.6451
   13.275    5.3186
   13.290    5.6451
   13.305    6.0242
   13.320    5.8873
   13.335    5.6240
   13.350    5.3291
   13.365    5.3397
   13.380    5.3081
   13.395    5.4871
   13.410    5.3923
   13.425    5.7504
   13.440    5.8136
   13.455    5.4555
   13.470    5.7715
   13.485    5.5714
   13.500    5.5503
   13.515    5.4344
   13.530    5.5187
   13.545    5.5819
   13.560    5.6661
   13.575    5.5503
   13.590    5.7293
   13.605    5.6872
   13.620    5.3923
   13.635    5.5819
   13.650    5.2765
   13.665    5.1080
   13.680    5.3818
   13.695    5.8031
   13.710    5.3081
   13.725    5.5398
   13.740    5.5819
   13.755    5.3291
   13.770    5.1606
   13.785    5.4766
   13.800    5.6029
   13.815    5.4134
   13.830    5.4660
   13.845    5.1817
   13.860    5.4450
   13.875    5.5503
   13.890    5.4871
   13.905    5.5292
   13.920    5.2870
   13.935    5.3081
   13.950    5.0553
   13.965    5.3397
   13.980    5.3502
   13.995    5.2449
   14.010    5.2343
   14.025    5.3291
   14.040    5.6977
   14.055    5.9084
   14.070    5.6661
   14.085    5.1711
   14.100    5.0237
   14.115    5.0342
   14.130    5.2449
   14.145    5.4660
   14.160    5.4450
   14.175    5.6135
   14.190    5.6029
   14.205    5.2659
   14.220    5.1185
   14.235    5.2765
   14.250    5.4976
   14.265    5.3081
   14.280    5.4871
   14.295    5.2554
   14.310    5.2975
   14.325    5.2870
   14.340    5.1922
   14.355    5.0448
   14.370    5.2027
   14.385    5.1711
   14.400    5.2343
   14.415    5.3186
   14.430    5.2133
   14.445    5.4134
   14.460    5.0869
   14.475    5.0869
   14.490    5.2343
   14.505    5.5187
   14.520    4.9394
   14.535    5.1290
   14.550    5.3397
   14.565    5.3502
   14.580    4.9394
   14.595    4.8341
   14.610    5.1606
   14.625    5.2659
   14.640    5.1290
   14.655    5.3923
   14.670    5.4871
   14.685    5.6977
   14.700    5.0974
   14.715    5.1080
   14.730    5.1501
   14.745    5.0869
   14.760    5.0764
   14.775    5.4660
   14.790    5.2238
   14.805    5.3291
   14.820    5.1290
   14.835    5.2343
   14.850    4.8552
   14.865    5.1501
   14.880    5.0237
   14.895    5.1185
   14.910    5.3291
   14.925    5.5082
   14.940    5.0132
   14.955    5.2975
   14.970    5.2870
   14.985    5.3607
   15.000    5.2133
   15.015    5.2343
   15.030    5.0237
   15.045    5.2027
   15.060    5.1922
   15.075    5.0342
   15.090    5.2449
   15.105    5.1711
   15.120    5.5608
   15.135    5.0448
   15.150    4.9921
   15.165    5.1080
   15.180    5.2449
   15.195    5.3818
   15.210    5.3502
   15.225    5.0764
   15.240    4.9605
   15.255    5.0764
   15.270    5.3397
   15.285    5.0764
   15.300    5.2975
   15.315    5.4344
   15.330    5.6345
   15.345    5.3607
   15.360    5.0869
   15.375    5.7715
   15.390    5.5924
   15.405    5.1711
   15.420    5.2765
   15.435    5.1817
   15.450    5.4871
   15.465    5.4555
   15.480    5.3186
   15.495    5.0764
   15.510    5.0448
   15.525    5.4871
   15.540    5.3397
   15.555    5.1185
   15.570    5.1395
   15.585    5.3502
   15.600    5.3397
   15.615    5.3081
   15.630    5.5608
   15.645    5.6872
   15.660    5.6872
   15.675    5.1606
   15.690    5.2554
   15.705    5.6135
   15.720    5.1080
   15.735    5.3081
   15.750    4.9816
   15.765    5.1817
   15.780    5.2975
   15.795    5.3186
   15.810    5.2870
   15.825    5.2765
   15.840    5.3818
   15.855    5.6029
   15.870    5.2765
   15.885    5.3923
   15.900    5.2238
   15.915    5.4239
   15.930    5.1922
   15.945    5.2554
   15.960    5.4134
   15.975    5.3397
   15.990    5.1080
   16.005    5.2765
   16.020    5.5082
   16.035    5.7083
   16.050    5.5398
   16.065    5.3712
   16.080    5.4976
   16.095    5.2659
   16.110    5.1606
   16.125    4.6761
   16.140    5.2870
   16.155    5.2554
   16.170    5.2133
   16.185    5.1290
   16.200    5.2975
   16.215    5.5608
   16.230    5.3818
   16.245    5.2027
   16.260    4.9816
   16.275    5.2554
   16.290    5.3818
   16.305    5.4028
   16.320    5.3081
   16.335    5.1817
   16.350    5.3291
   16.365    5.2765
   16.380    5.3081
   16.395    5.0237
   16.410    5.2659
   16.425    5.2238
   16.440    5.2449
   16.455    5.0342
   16.470    5.1185
   16.485    5.2765
   16.500    5.3186
   16.515    5.0132
   16.530    5.0658
   16.545    5.3291
   16.560    5.0764
   16.575    4.9289
   16.590    5.3818
   16.605    5.3291
   16.620    5.3923
   16.635    5.2870
   16.650    5.1501
   16.665    5.0764
   16.680    4.7499
   16.695    5.0869
   16.710    5.1922
   16.725    5.2554
   16.740    5.7293
   16.755    5.3081
   16.770    5.1501
   16.785    5.1501
   16.800    4.7815
   16.815    5.1817
   16.830    5.0658
   16.845    5.0448
   16.860    5.0658
   16.875    4.9500
   16.890    5.2975
   16.905    5.3081
   16.920    5.4976
   16.935    5.5924
   16.950    5.5187
   16.965    5.1080
   16.980    5.3502
   16.995    5.0448
   17.010    5.0237
   17.025    5.2870
   17.040    5.0974
   17.055    5.1922
   17.070    5.2449
   17.085    5.3923
   17.100    5.3607
   17.115    4.9184
   17.130    4.9078
   17.145    5.3186
   17.160    5.4134
   17.175    5.2659
   17.190    5.4028
   17.205    5.3818
   17.220    5.2133
   17.235    5.2133
   17.250    5.2659
   17.265    5.4134
   17.280    5.0869
   17.295    4.8236
   17.310    4.9605
   17.325    5.2133
   17.340    5.3186
   17.355    5.1501
   17.370    5.2343
   17.385    5.1711
   17.400    5.1501
   17.415    5.5608
   17.430    5.4028
   17.445    5.0553
   17.460    5.4660
   17.475    5.4134
   17.490    5.2659
   17.505    5.2554
   17.520    5.0974
   17.535    5.1185
   17.550    5.2238
   17.565    5.1922
   17.580    5.2765
   17.595    4.7709
   17.610    4.8868
   17.625    5.2870
   17.640    5.0764
   17.655    5.0658
   17.670    5.2870
   17.685    5.5187
   17.700    5.5503
   17.715    5.3081
   17.730    5.1817
   17.745    5.4028
   17.760    5.4028
   17.775    5.2554
   17.790    5.5398
   17.805    5.1711
   17.820    5.0658
   17.835    5.6872
   17.850    5.1395
   17.865    5.0448
   17.880    5.0764
   17.895    5.2343
   17.910    5.4344
   17.925    5.6661
   17.940    5.1395
   17.955    5.2343
   17.970    5.4028
   17.985    5.2554
   18.000    5.2027
   18.015    5.6240
   18.030    5.1922
   18.045    5.1080
   18.060    5.4660
   18.075    5.3818
   18.090    5.0342
   18.105    5.3186
   18.120    5.5503
   18.135    5.4344
   18.150    5.2975
   18.165    5.3291
   18.180    5.2659
   18.195    5.5187
   18.210    5.8452
   18.225    5.5398
   18.240    5.4239
   18.255    5.4239
   18.270    5.7820
   18.285    5.4028
   18.300    5.3818
   18.315    5.3712
   18.330    5.1501
   18.345    5.1922
   18.360    5.0658
   18.375    5.0658
   18.390    5.1080
   18.405    5.4660
   18.420    5.2133
   18.435    5.2659
   18.450    5.0132
   18.465    5.2659
   18.480    5.2870
   18.495    5.6345
   18.510    5.2343
   18.525    5.2554
   18.540    5.2449
   18.555    5.3291
   18.570    5.4450
   18.585    5.2870
   18.600    5.5398
   18.615    5.3186
   18.630    5.0974
   18.645    5.2133
   18.660    5.2765
   18.675    5.0026
   18.690    5.3397
   18.705    5.6767
   18.720    5.5398
   18.735    5.4766
   18.750    4.8868
   18.765    5.3081
   18.780    5.4871
   18.795    5.2133
   18.810    5.6556
   18.825    5.3397
   18.840    5.6135
   18.855    5.8978
   18.870    5.6661
   18.885    5.3081
   18.900    5.2975
   18.915    5.8978
   18.930    5.8031
   18.945    5.7188
   18.960    5.4555
   18.975    5.3712
   18.990    5.3081
   19.005    5.5714
   19.020    5.8347
   19.035    5.6661
   19.050    5.5714
   19.065    5.4871
   19.080    5.6556
   19.095    5.4976
   19.110    5.1185
   19.125    5.2659
   19.140    5.2659
   19.155    5.0553
   19.170    5.4134
   19.185    5.3081
   19.200    5.6135
   19.215    5.8662
   19.230    5.6977
   19.245    5.5398
   19.260    5.6767
   19.275    5.4555
   19.290    5.8557
   19.305    5.2659
   19.320    5.5608
   19.335    5.4450
   19.350    5.5924
   19.365    5.5924
   19.380    5.7715
   19.395    5.6029
   19.410    5.6977
   19.425    5.8662
   19.440    5.4344
   19.455    5.5819
   19.470    5.4555
   19.485    5.3923
   19.500    5.8557
   19.515    5.6977
   19.530    5.3923
   19.545    6.0769
   19.560    5.9505
   19.575    5.6872
   19.590    5.5398
   19.605    5.6029
   19.620    6.0874
   19.635    5.9610
   19.650    5.4871
   19.665    5.8347
   19.680    5.8873
   19.695    5.7504
   19.710    5.7083
   19.725    6.1717
   19.740    5.6029
   19.755    5.9716
   19.770    5.8452
   19.785    6.0769
   19.800    5.4976
   19.815    5.6767
   19.830    5.8662
   19.845    6.1295
   19.860    5.6872
   19.875    5.7504
   19.890    6.3296
   19.905    6.0979
   19.920    5.6767
   19.935    5.6977
   19.950    5.8347
   19.965    5.3291
   19.980    6.0453
   19.995    5.7715
   20.010    5.6872
   20.025    5.5292
   20.040    5.7083
   20.055    6.1085
   20.070    5.9610
   20.085    5.9084
   20.100    6.0348
   20.115    5.7820
   20.130    5.8662
   20.145    5.7504
   20.160    5.8557
   20.175    5.9294
   20.190    6.0558
   20.205    6.1822
   20.220    6.3507
   20.235    5.9084
   20.250    5.7083
   20.265    5.8347
   20.280    5.8241
   20.295    5.8557
   20.310    5.9294
   20.325    5.7820
   20.340    5.9084
   20.355    5.9505
   20.370    5.5503
   20.385    5.7504
   20.400    5.9084
   20.415    5.8873
   20.430    5.6977
   20.445    5.8347
   20.460    6.0032
   20.475    5.5714
   20.490    6.0032
   20.505    5.8873
   20.520    5.8452
   20.535    5.5924
   20.550    6.1401
   20.565    5.8978
   20.580    5.8031
   20.595    5.6872
   20.610    5.9505
   20.625    5.8031
   20.640    5.7293
   20.655    5.8241
   20.670    5.9189
   20.685    5.7820
   20.700    5.5608
   20.715    5.6767
   20.730    5.9926
   20.745    5.8136
   20.760    5.9084
   20.775    5.6345
   20.790    5.6240
   20.805    5.8873
   20.820    5.6135
   20.835    5.7820
   20.850    5.9400
   20.865    5.9505
   20.880    5.7188
   20.895    5.8241
   20.910    6.0453
   20.925    5.9084
   20.940    6.1295
   20.955    6.0769
   20.970    6.0558
   20.985    5.9926
   21.000    5.8873
   21.015    5.7715
   21.030    5.9610
   21.045    6.0874
   21.060    5.8452
   21.075    5.6977
   21.090    6.0979
   21.105    6.2138
   21.120    6.1295
   21.135    6.1295
   21.150    5.9821
   21.165    5.8978
   21.180    5.8768
   21.195    5.8662
   21.210    5.5503
   21.225    5.8347
   21.240    6.1401
   21.255    6.0769
   21.270    5.7715
   21.285    5.9716
   21.300    5.9294
   21.315    5.9189
   21.330    5.5924
   21.345    5.7293
   21.360    5.9400
   21.375    5.6661
   21.390    5.8662
   21.405    6.0453
   21.420    5.9505
   21.435    5.6135
   21.450    6.1295
   21.465    5.8557
   21.480    5.7820
   21.495    5.9821
   21.510    5.7820
   21.525    5.7504
   21.540    5.7820
   21.555    5.8978
   21.570    5.9189
   21.585    5.9505
   21.600    5.9926
   21.615    5.8347
   21.630    5.9610
   21.645    5.6029
   21.660    5.8452
   21.675    5.6556
   21.690    5.6135
   21.705    5.9084
   21.720    5.7820
   21.735    5.9400
   21.750    6.0874
   21.765    5.9400
   21.780    6.2243
   21.795    5.9821
   21.810    5.7293
   21.825    5.8768
   21.840    5.8978
   21.855    6.0137
   21.870    5.8136
   21.885    5.7504
   21.900    6.2770
   21.915    5.9610
   21.930    6.3191
   21.945    6.0032
   21.960    6.2033
   21.975    5.6661
   21.990    6.0979
   22.005    5.5398
   22.020    6.1717
   22.035    6.1927
   22.050    5.5503
   22.065    5.8978
   22.080    5.6240
   22.095    5.8873
   22.110    6.0769
   22.125    6.0242
   22.140    5.9716
   22.155    5.6767
   22.170    6.1611
   22.185    5.9716
   22.200    6.2981
   22.215    5.8978
   22.230    5.9189
   22.245    6.0137
   22.260    6.1190
   22.275    6.1190
   22.290    6.1190
   22.305    5.6556
   22.320    5.8662
   22.335    6.3928
   22.350    6.1085
   22.365    6.0242
   22.380    6.2981
   22.395    6.0453
   22.410    5.9610
   22.425    5.8978
   22.440    5.8978
   22.455    5.7293
   22.470    6.1085
   22.485    6.0348
   22.500    5.9084
   22.515    6.1401
   22.530    6.0453
   22.545    5.7820
   22.560    5.9926
   22.575    5.8873
   22.590    5.8768
   22.605    6.1085
   22.620    6.1611
   22.635    6.0874
   22.650    6.0664
   22.665    5.8557
   22.680    5.9294
   22.695    6.2665
   22.710    5.8452
   22.725    5.5924
   22.740    5.9400
   22.755    5.4134
   22.770    5.7399
   22.785    6.1506
   22.800    5.9294
   22.815    5.7925
   22.830    6.0453
   22.845    6.0348
   22.860    6.2665
   22.875    5.8347
   22.890    5.9505
   22.905    6.0137
   22.920    6.0348
   22.935    6.1401
   22.950    5.7083
   22.965    5.7504
   22.980    5.9189
   22.995    5.8662
   23.010    5.4450
   23.025    5.8031
   23.040    5.8136
   23.055    5.5503
   23.070    5.7715
   23.085    5.6977
   23.100    5.7293
   23.115    6.1506
   23.130    5.7820
   23.145    5.7083
   23.160    5.8978
   23.175    5.9084
   23.190    5.8031
   23.205    6.0558
   23.220    5.7925
   23.235    5.6977
   23.250    5.8873
   23.265    5.9716
   23.280    5.9505
   23.295    6.0769
   23.310    6.0558
   23.325    6.0137
   23.340    5.8662
   23.355    5.6451
   23.370    5.9610
   23.385    5.5714
   23.400    6.0348
   23.415    5.6977
   23.430    5.7083
   23.445    5.6872
   23.460    6.0137
   23.475    5.4344
   23.490    5.6240
   23.505    5.8136
   23.520    5.6977
   23.535    5.6977
   23.550    5.8031
   23.565    5.8031
   23.580    5.6661
   23.595    5.8978
   23.610    5.6135
   23.625    5.6345
   23.640    5.6135
   23.655    5.5924
   23.670    5.8136
   23.685    6.0032
   23.700    5.9716
   23.715    5.7925
   23.730    5.3818
   23.745    5.8978
   23.760    5.7715
   23.775    5.7399
   23.790    5.6135
   23.805    5.5924
   23.820    5.8347
   23.835    5.7399
   23.850    5.5082
   23.865    5.6661
   23.880    5.5503
   23.895    5.6872
   23.910    5.6029
   23.925    6.0242
   23.940    5.7293
   23.955    5.5714
   23.970    5.5608
   23.985    5.4871
   24.000    5.9294
   24.015    5.6767
   24.030    5.6345
   24.045    5.7504
   24.060    5.3923
   24.075    5.3923
   24.090    5.6556
   24.105    5.6977
   24.120    5.2238
   24.135    5.4555
   24.150    5.9610
   24.165    5.4450
   24.180    5.4555
   24.195    5.7188
   24.210    5.8347
   24.225    5.6977
   24.240    5.9926
   24.255    5.5608
   24.270    5.7504
   24.285    5.5714
   24.300    5.6345
   24.315    5.5819
   24.330    5.2238
   24.345    5.6029
   24.360    5.4028
   24.375    5.6135
   24.390    5.5292
   24.405    5.5292
   24.420    5.4660
   24.435    5.7293
   24.450    5.5292
   24.465    5.6345
   24.480    5.4555
   24.495    5.2765
   24.510    5.3818
   24.525    5.4555
   24.540    5.7925
   24.555    5.8136
   24.570    5.4134
   24.585    5.2765
   24.600    5.6240
   24.615    5.9716
   24.630    5.6661
   24.645    5.5292
   24.660    5.7399
   24.675    5.5398
   24.690    5.4239
   24.705    5.9189
   24.720    5.7399
   24.735    5.6451
   24.750    5.3081
   24.765    5.2659
   24.780    5.4555
   24.795    5.7504
   24.810    5.7820
   24.825    5.9084
   24.840    5.7504
   24.855    5.3081
   24.870    5.2975
   24.885    5.3712
   24.900    5.6135
   24.915    5.2975
   24.930    5.4660
   24.945    5.6029
   24.960    5.4134
   24.975    5.5292
   24.990    5.3607
   25.005    5.1185
   25.020    5.3291
   25.035    5.6240
   25.050    5.2765
   25.065    4.8131
   25.080    5.2659
   25.095    5.6345
   25.110    5.6135
   25.125    5.2554
   25.140    4.9816
   25.155    4.9394
   25.170    5.0869
   25.185    5.3291
   25.200    5.5082
   25.215    5.4450
   25.230    5.4976
   25.245    5.0553
   25.260    5.2659
   25.275    5.5082
   25.290    5.4239
   25.305    5.1185
   25.320    5.3186
   25.335    4.8552
   25.350    5.1711
   25.365    5.2238
   25.380    5.4976
   25.395    5.5398
   25.410    5.3607
   25.425    5.3607
   25.440    5.3502
   25.455    5.1395
   25.470    5.6767
   25.485    5.6556
   25.500    5.4134
   25.515    5.3397
   25.530    5.9821
   25.545    5.8452
   25.560    5.2975
   25.575    5.1290
   25.590    5.4134
   25.605    5.3712
   25.620    5.1817
   25.635    5.2027
   25.650    5.3502
   25.665    4.9184
   25.680    5.6135
   25.695    5.1606
   25.710    5.0132
   25.725    5.4660
   25.740    5.0132
   25.755    5.0764
   25.770    5.3818
   25.785    5.3607
   25.800    5.0974
   25.815    5.1922
   25.830    5.0974
   25.845    5.2975
   25.860    5.4871
   25.875    5.5608
   25.890    5.4344
   25.905    5.2554
   25.920    5.0764
   25.935    5.4660
   25.950    5.0132
   25.965    5.3081
   25.980    5.2343
   25.995    5.3186
   26.010    4.8552
   26.025    4.8341
   26.040    4.8131
   26.055    5.6135
   26.070    4.9394
   26.085    5.0869
   26.100    5.2238
   26.115    5.3081
   26.130    5.1185
   26.145    5.3397
   26.160    5.1606
   26.175    5.3291
   26.190    5.1606
   26.205    5.2659
   26.220    5.2870
   26.235    5.4239
   26.250    4.8341
   26.265    4.8657
   26.280    5.2870
   26.295    5.0869
   26.310    4.9078
   26.325    5.3502
   26.340    5.0869
   26.355    5.2975
   26.370    5.2870
   26.385    5.5714
   26.400    5.3081
   26.415    5.4871
   26.430    5.4555
   26.445    5.1290
   26.460    5.4766
   26.475    5.0132
   26.490    5.2027
   26.505    5.3397
   26.520    5.3081
   26.535    5.2343
   26.550    5.1290
   26.565    4.4971
   26.580    4.8236
   26.595    5.0342
   26.610    5.2133
   26.625    4.9394
   26.640    4.6445
   26.655    4.8025
   26.670    5.0658
   26.685    5.2975
   26.700    5.4134
   26.715    5.1395
   26.730    5.0869
   26.745    5.3397
   26.760    4.9605
   26.775    5.2343
   26.790    5.4766
   26.805    5.0237
   26.820    4.8341
   26.835    5.1501
   26.850    5.2027
   26.865    5.4450
   26.880    5.1711
   26.895    5.1711
   26.910    5.1711
   26.925    5.1290
   26.940    5.1185
   26.955    5.4450
   26.970    5.4660
   26.985    5.0342
   27.000    5.2238
   27.015    5.4766
   27.030    5.4344
   27.045    5.2765
   27.060    5.4450
   27.075    5.0658
   27.090    4.7077
   27.105    5.1080
   27.120    4.7709
   27.135    5.0026
   27.150    4.9078
   27.165    5.3291
   27.180    4.9184
   27.195    4.8552
   27.210    5.0974
   27.225    5.1290
   27.240    4.9921
   27.255    4.9605
   27.270    5.1501
   27.285    5.0026
   27.300    4.7393
   27.315    4.8552
   27.330    5.2659
   27.345    5.0764
   27.360    4.9500
   27.375    5.1922
   27.390    5.2765
   27.405    5.1606
   27.420    4.9710
   27.435    5.0132
   27.450    4.8236
   27.465    5.1606
   27.480    4.9816
   27.495    4.7604
   27.510    4.8657
   27.525    4.9078
   27.540    4.7393
   27.555    5.0974
   27.570    5.0132
   27.585    4.9289
   27.600    5.1395
   27.615    4.9078
   27.630    5.0132
   27.645    5.2870
   27.660    5.1395
   27.675    5.1290
   27.690    4.7920
   27.705    4.7815
   27.720    4.8657
   27.735    5.2659
   27.750    4.9078
   27.765    5.1817
   27.780    5.1290
   27.795    5.0132
   27.810    5.1606
   27.825    5.0764
   27.840    5.0026
   27.855    5.1501
   27.870    4.7709
   27.885    4.9289
   27.900    4.9078
   27.915    4.8131
   27.930    5.0448
   27.945    4.9078
   27.960    5.3186
   27.975    5.2133
   27.990    5.3081
   28.005    5.2238
   28.020    5.4239
   28.035    5.0237
   28.050    4.9184
   28.065    5.1922
   28.080    4.8868
   28.095    5.0658
   28.110    5.3186
   28.125    4.8236
   28.140    5.1185
   28.155    5.2238
   28.170    5.0448
   28.185    5.2133
   28.200    4.5708
   28.215    5.3291
   28.230    5.2027
   28.245    5.0974
   28.260    5.0764
   28.275    4.9921
   28.290    5.3397
   28.305    5.0869
   28.320    5.0026
   28.335    5.0869
   28.350    5.0237
   28.365    4.9078
   28.380    5.0764
   28.395    5.0553
   28.410    5.2554
   28.425    5.2133
   28.440    5.3712
   28.455    5.0658
   28.470    5.1290
   28.485    5.0448
   28.500    5.1290
   28.515    5.0764
   28.530    4.6024
   28.545    4.8973
   28.560    4.7499
   28.575    4.5814
   28.590    4.8341
   28.605    4.8131
   28.620    4.8341
   28.635    4.8763
   28.650    5.1817
   28.665    4.9921
   28.680    5.2554
   28.695    5.2449
   28.710    4.7920
   28.725    4.8025
   28.740    5.2238
   28.755    4.9605
   28.770    4.6867
   28.785    4.9394
   28.800    4.7393
   28.815    4.9921
   28.830    4.9184
   28.845    4.6867
   28.860    4.6761
   28.875    4.9289
   28.890    5.2554
   28.905    5.4976
   28.920    5.0974
   28.935    5.1290
   28.950    5.1080
   28.965    5.1606
   28.980    5.1185
   28.995    5.1185
   29.010    5.2554
   29.025    4.8341
   29.040    4.7077
   29.055    5.0237
   29.070    5.0237
   29.085    4.8341
   29.100    4.6445
   29.115    5.1395
   29.130    4.8131
   29.145    5.0342
   29.160    5.0869
   29.175    4.9184
   29.190    5.0974
   29.205    4.9921
   29.220    4.7604
   29.235    4.7604
   29.250    4.8341
   29.265    4.6972
   29.280    5.2133
   29.295    4.8236
   29.310    4.7393
   29.325    5.0764
   29.340    4.6656
   29.355    4.6551
   29.370    4.8236
   29.385    4.7815
   29.400    4.9394
   29.415    4.9078
   29.430    4.6130
   29.445    4.5603
   29.460    4.7499
   29.475    4.5392
   29.490    4.8131
   29.505    4.6761
   29.520    4.5814
   29.535    4.5498
   29.550    4.7709
   29.565    4.7499
   29.580    4.6972
   29.595    4.7077
   29.610    4.8131
   29.625    4.6340
   29.640    4.4550
   29.655    5.0974
   29.670    4.4760
   29.685    4.7183
   29.700    4.6340
   29.715    5.2975
   29.730    5.0448
   29.745    4.4128
   29.760    4.8025
   29.775    5.0553
   29.790    4.6551
   29.805    4.4866
   29.820    4.8341
   29.835    4.4866
   29.850    4.4550
   29.865    4.7499
   29.880    4.6867
   29.895    4.5708
   29.910    4.2654
   29.925    4.7604
   29.940    4.5919
   29.955    4.8341
   29.970    4.7709
   29.985    4.7604
   30.000    4.6445
   30.015    4.8447
   30.030    4.6235
   30.045    4.7604
   30.060    4.4971
   30.075    4.7920
   30.090    5.1080
   30.105    4.7393
   30.120    4.8341
   30.135    4.9816
   30.150    5.0132
   30.165    4.6024
   30.180    4.8341
   30.195    4.7709
   30.210    4.9921
   30.225    4.7077
   30.240    4.8131
   30.255    4.3707
   30.270    4.5814
   30.285    4.5919
   30.300    4.4128
   30.315    4.8131
   30.330    4.9921
   30.345    5.0658
   30.360    4.5392
   30.375    4.8973
   30.390    4.8657
   30.405    4.9289
   30.420    4.7393
   30.435    4.6551
   30.450    4.9921
   30.465    4.8447
   30.480    4.7288
   30.495    4.5287
   30.510    4.6656
   30.525    4.4234
   30.540    4.4550
   30.555    4.8868
   30.570    4.5076
   30.585    4.5814
   30.600    4.7709
   30.615    4.3707
   30.630    4.5287
   30.645    4.4444
   30.660    4.4655
   30.675    4.2970
   30.690    4.4234
   30.705    4.5603
   30.720    4.6340
   30.735    4.8131
   30.750    4.7920
   30.765    4.5498
   30.780    4.7183
   30.795    4.5182
   30.810    4.7077
   30.825    4.8131
   30.840    4.9605
   30.855    4.9289
   30.870    4.4023
   30.885    4.4655
   30.900    4.4655
   30.915    4.6551
   30.930    4.6761
   30.945    4.5708
   30.960    4.7499
   30.975    4.8868
   30.990    4.6235
   31.005    4.6445
   31.020    4.6972
   31.035    4.8763
   31.050    4.7920
   31.065    4.5182
   31.080    4.4866
   31.095    4.2022
   31.110    4.7183
   31.125    4.8552
   31.140    4.8447
   31.155    4.6130
   31.170    4.6024
   31.185    4.6235
   31.200    4.7604
   31.215    4.6340
   31.230    4.7499
   31.245    4.8868
   31.260    4.6024
   31.275    4.7709
   31.290    4.8236
   31.305    4.4971
   31.320    4.4971
   31.335    4.5498
   31.350    4.6656
   31.365    4.6656
   31.380    4.4866
   31.395    4.2443
   31.410    4.7920
   31.425    4.4866
   31.440    4.4023
   31.455    4.4339
   31.470    4.7288
   31.485    4.6551
   31.500    4.4444
   31.515    4.8131
   31.530    4.7393
   31.545    4.6235
   31.560    4.5708
   31.575    4.5814
   31.590    4.4866
   31.605    4.4234
   31.620    4.7920
   31.635    4.4971
   31.650    4.6130
   31.665    4.7920
   31.680    4.7183
   31.695    4.7604
   31.710    4.8447
   31.725    4.6445
   31.740    4.8341
   31.755    4.9605
   31.770    4.8236
   31.785    5.0026
   31.800    4.7077
   31.815    4.8236
   31.830    4.9078
   31.845    4.9816
   31.860    5.1290
   31.875    4.8236
   31.890    4.6656
   31.905    4.5814
   31.920    5.1290
   31.935    4.9500
   31.950    5.0764
   31.965    4.8763
   31.980    5.2027
   31.995    5.0553
   32.010    4.7183
   32.025    4.5708
   32.040    5.1606
   32.055    5.0342
   32.070    4.8236
   32.085    5.0132
   32.100    4.8868
   32.115    5.3081
   32.130    4.9710
   32.145    4.8763
   32.160    4.5814
   32.175    4.5814
   32.190    4.7920
   32.205    4.4971
   32.220    4.6340
   32.235    4.8868
   32.250    4.3707
   32.265    4.6235
   32.280    4.3391
   32.295    4.8973
   32.310    4.5287
   32.325    4.3707
   32.340    4.3181
   32.355    4.4234
   32.370    4.4655
   32.385    4.1917
   32.400    4.2233
   32.415    4.4234
   32.430    4.6551
   32.445    4.7077
   32.460    4.3497
   32.475    4.4128
   32.490    4.5392
   32.505    4.3918
   32.520    4.3918
   32.535    4.3918
   32.550    4.6867
   32.565    4.3602
   32.580    4.3602
   32.595    4.5498
   32.610    4.1496
   32.625    4.2233
   32.640    4.5498
   32.655    4.3286
   32.670    4.3181
   32.685    4.1390
   32.700    4.0758
   32.715    4.6761
   32.730    4.6445
   32.745    4.4655
   32.760    4.0864
   32.775    4.5919
   32.790    4.3391
   32.805    4.4234
   32.820    4.3181
   32.835    4.6340
   32.850    4.3075
   32.865    4.4760
   32.880    4.3602
   32.895    4.4760
   32.910    4.4128
   32.925    4.4655
   32.940    4.4234
   32.955    4.3497
   32.970    4.2654
   32.985    4.2022
   33.000    4.4023
   33.015    4.3286
   33.030    4.4550
   33.045    4.2338
   33.060    4.2970
   33.075    4.1917
   33.090    4.5498
   33.105    4.3181
   33.120    4.5708
   33.135    4.1074
   33.150    4.1917
   33.165    4.0969
   33.180    4.2654
   33.195    4.0548
   33.210    4.5392
   33.225    4.5182
   33.240    4.4444
   33.255    4.6867
   33.270    4.0864
   33.285    4.1180
   33.300    4.2233
   33.315    4.2127
   33.330    4.4128
   33.345    4.2022
   33.360    3.9705
   33.375    4.3497
   33.390    4.2338
   33.405    4.1706
   33.420    4.1285
   33.435    4.2443
   33.450    4.3391
   33.465    4.4760
   33.480    4.2127
   33.495    4.2759
   33.510    4.3286
   33.525    4.4444
   33.540    4.3707
   33.555    3.9705
   33.570    4.5498
   33.585    4.3075
   33.600    4.5603
   33.615    4.2233
   33.630    4.1390
   33.645    4.3707
   33.660    4.3602
   33.675    4.0126
   33.690    4.0232
   33.705    4.1811
   33.720    4.0232
   33.735    4.3918
   33.750    4.3181
   33.765    4.1706
   33.780    4.6024
   33.795    4.3813
   33.810    4.5392
   33.825    4.6130
   33.840    4.4866
   33.855    4.0969
   33.870    4.2443
   33.885    4.4023
   33.900    4.6235
   33.915    4.5708
   33.930    4.4234
   33.945    4.0653
   33.960    4.4550
   33.975    4.2759
   33.990    4.2338
   34.005    4.1180
   34.020    4.3602
   34.035    4.5603
   34.050    4.1390
   34.065    4.0653
   34.080    4.0232
   34.095    4.0337
   34.110    4.1811
   34.125    4.0864
   34.140    4.1917
   34.155    4.4128
   34.170    4.3707
   34.185    4.2865
   34.200    3.9179
   34.215    3.9916
   34.230    4.2549
   34.245    4.0548
   34.260    4.0758
   34.275    3.9179
   34.290    4.5392
   34.305    4.4971
   34.320    3.8652
   34.335    4.0548
   34.350    4.1601
   34.365    4.0969
   34.380    4.1390
   34.395    4.1496
   34.410    4.0548
   34.425    3.9389
   34.440    4.2338
   34.455    4.1285
   34.470    4.1917
   34.485    3.9916
   34.500    4.0337
   34.515    4.1074
   34.530    4.1706
   34.545    4.1496
   34.560    3.9916
   34.575    4.0653
   34.590    4.1496
   34.605    4.1390
   34.620    4.2233
   34.635    3.9705
   34.650    4.1285
   34.665    3.8652
   34.680    4.2127
   34.695    4.0337
   34.710    4.0548
   34.725    3.9389
   34.740    3.9494
   34.755    4.2022
   34.770    4.1074
   34.785    3.9810
   34.800    3.9916
   34.815    4.1390
   34.830    4.2759
   34.845    4.0337
   34.860    4.1706
   34.875    4.2865
   34.890    3.8125
   34.905    3.7704
   34.920    3.9073
   34.935    4.1390
   34.950    3.8968
   34.965    4.0548
   34.980    4.0442
   34.995    4.2549
   35.010    4.0653
   35.025    3.9179
   35.040    4.0442
   35.055    3.9179
   35.070    4.0758
   35.085    4.1601
   35.100    4.0758
   35.115    3.8757
   35.130    4.1496
   35.145    4.3286
   35.160    3.9916
   35.175    3.9073
   35.190    4.1496
   35.205    4.4971
   35.220    4.1496
   35.235    3.8968
   35.250    4.0758
   35.265    4.1074
   35.280    4.2654
   35.295    4.0442
   35.310    4.2127
   35.325    4.4971
   35.340    4.0126
   35.355    4.1496
   35.370    3.9600
   35.385    4.0021
   35.400    4.2233
   35.415    3.9179
   35.430    4.2022
   35.445    4.2127
   35.460    4.3602
   35.475    3.9916
   35.490    4.1496
   35.505    4.0653
   35.520    4.3075
   35.535    4.0653
   35.550    4.1390
   35.565    3.8125
   35.580    3.7915
   35.595    3.8652
   35.610    3.7493
   35.625    4.3918
   35.640    4.3497
   35.655    3.9284
   35.670    3.9284
   35.685    3.8547
   35.700    4.0653
   35.715    4.2233
   35.730    4.1496
   35.745    4.2865
   35.760    3.9494
   35.775    3.8968
   35.790    3.9389
   35.805    4.1601
   35.820    3.9073
   35.835    3.7809
   35.850    3.7283
   35.865    3.9810
   35.880    4.1180
   35.895    3.7704
   35.910    3.8020
   35.925    3.8020
   35.940    4.3075
   35.955    3.9073
   35.970    3.7915
   35.985    4.2654
   36.000    4.2127
   36.015    3.8125
   36.030    3.9494
   36.045    3.9073
   36.060    3.9284
   36.075    3.7704
   36.090    3.7493
   36.105    4.1706
   36.120    4.0442
   36.135    3.9284
   36.150    3.9600
   36.165    3.8547
   36.180    4.0126
   36.195    3.8757
   36.210    3.9389
   36.225    3.8547
   36.240    3.9389
   36.255    3.7809
   36.270    3.7809
   36.285    3.7177
   36.300    3.8863
   36.315    3.8863
   36.330    3.8968
   36.345    3.7493
   36.360    3.9810
   36.375    3.9389
   36.390    4.1390
   36.405    3.9916
   36.420    3.7177
   36.435    4.2127
   36.450    4.0021
   36.465    4.0548
   36.480    3.9284
   36.495    3.7388
   36.510    3.8020
   36.525    3.8757
   36.540    3.8231
   36.555    3.9179
   36.570    3.7283
   36.585    3.8125
   36.600    4.2654
   36.615    3.8336
   36.630    3.9494
   36.645    4.0337
   36.660    3.9179
   36.675    3.9916
   36.690    4.0864
   36.705    3.8547
   36.720    3.7177
   36.735    3.4966
   36.750    3.7072
   36.765    3.9494
   36.780    3.9600
   36.795    3.9179
   36.810    3.9810
   36.825    3.8968
   36.840    4.0548
   36.855    3.9810
   36.870    4.0969
   36.885    3.9705
   36.900    3.8231
   36.915    3.8757
   36.930    3.8441
   36.945    4.1180
   36.960    4.2233
   36.975    3.8020
   36.990    3.9073
   37.005    3.6862
   37.020    3.5071
   37.035    3.9389
   37.050    3.9284
   37.065    3.8757
   37.080    3.9705
   37.095    3.9494
   37.110    3.6440
   37.125    3.5176
   37.140    3.7388
   37.155    3.9810
   37.170    3.6335
   37.185    3.5176
   37.200    3.8652
   37.215    3.9284
   37.230    3.7283
   37.245    4.0758
   37.260    3.8547
   37.275    3.7072
   37.290    3.6440
   37.305    3.8020
   37.320    3.6440
   37.335    3.8968
   37.350    3.8547
   37.365    3.6440
   37.380    3.8125
   37.395    3.8652
   37.410    3.8020
   37.425    3.5914
   37.440    3.9810
   37.455    3.6756
   37.470    3.6546
   37.485    3.8547
   37.500    3.6124
   37.515    4.0126
   37.530    4.1074
   37.545    3.7072
   37.560    3.8757
   37.575    3.8125
   37.590    3.9073
   37.605    3.4860
   37.620    3.8757
   37.635    3.9284
   37.650    4.0548
   37.665    3.9916
   37.680    3.8652
   37.695    3.6230
   37.710    3.4755
   37.725    3.9073
   37.740    3.8231
   37.755    3.6756
   37.770    3.8863
   37.785    4.0548
   37.800    3.7072
   37.815    3.9389
   37.830    3.7809
   37.845    3.8125
   37.860    3.9179
   37.875    3.8547
   37.890    3.9073
   37.905    3.8757
   37.920    3.6651
   37.935    3.9600
   37.950    3.7388
   37.965    3.9179
   37.980    3.6862
   37.995    3.6019
   38.010    3.4650
   38.025    3.4966
   38.040    3.9389
   38.055    3.7283
   38.070    3.7915
   38.085    3.8441
   38.100    3.9284
   38.115    3.7388
   38.130    3.8547
   38.145    3.8020
   38.160    3.7072
   38.175    3.4966
   38.190    3.8441
   38.205    3.5914
   38.220    3.3491
   38.235    3.7704
   38.250    3.9916
   38.265    4.0442
   38.280    4.0021
   38.295    3.7599
   38.310    4.0548
   38.325    3.9284
   38.340    3.7283
   38.355    3.6651
   38.370    3.8231
   38.385    3.5914
   38.400    4.0021
   38.415    3.9705
   38.430    4.1074
   38.445    3.6546
   38.460    3.5282
   38.475    3.6756
   38.490    3.7704
   38.505    3.6651
   38.520    3.6019
   38.535    3.6335
   38.550    3.6335
   38.565    3.7599
   38.580    4.0758
   38.595    3.8757
   38.610    3.8231
   38.625    3.8125
   38.640    3.6124
   38.655    3.9179
   38.670    4.2654
   38.685    4.0126
   38.700    3.8757
   38.715    3.8547
   38.730    3.7388
   38.745    3.9179
   38.760    3.5492
   38.775    3.4229
   38.790    3.5492
   38.805    3.4544
   38.820    3.6651
   38.835    3.6651
   38.850    3.8231
   38.865    3.8757
   38.880    3.8336
   38.895    4.1706
   38.910    3.7388
   38.925    3.9284
   38.940    3.9073
   38.955    3.7704
   38.970    3.9179
   38.985    3.8968
   39.000    3.9073
   39.015    4.2022
   39.030    3.7809
   39.045    3.7493
   39.060    3.6967
   39.075    3.8968
   39.090    3.8125
   39.105    3.6335
   39.120    3.7599
   39.135    3.6862
   39.150    4.0337
   39.165    3.8863
   39.180    3.7177
   39.195    3.8336
   39.210    3.7493
   39.225    3.7388
   39.240    3.7809
   39.255    3.7072
   39.270    3.9916
   39.285    3.9494
   39.300    3.3807
   39.315    3.4229
   39.330    3.5492
   39.345    3.5598
   39.360    3.8547
   39.375    3.7915
   39.390    3.4650
   39.405    3.3913
   39.420    3.6967
   39.435    3.7809
   39.450    3.6230
   39.465    3.6756
   39.480    3.7283
   39.495    3.6967
   39.510    3.9389
   39.525    3.9705
   39.540    4.1285
   39.555    4.0653
   39.570    4.2759
   39.585    3.8757
   39.600    3.8020
   39.615    3.8231
   39.630    3.9600
   39.645    3.8231
   39.660    3.6124
   39.675    3.9600
   39.690    3.8020
   39.705    3.5808
   39.720    4.0232
   39.735    3.8863
   39.750    3.4860
   39.765    3.7704
   39.780    3.8863
   39.795    3.7388
   39.810    3.6756
   39.825    3.4439
   39.840    3.4018
   39.855    3.6230
   39.870    3.6862
   39.885    3.9494
   39.900    3.7915
   39.915    3.5808
   39.930    3.9494
   39.945    3.7809
   39.960    3.6651
   39.975    3.8125
   39.990    3.7599
