    2.000   14.2063 
    2.015   14.5503 
    2.030   13.8492 
    2.045   13.9286 
    2.060   13.9550 
    2.075   13.8095 
    2.090   14.1534 
    2.105   14.0344 
    2.120   14.1270 
    2.135   13.4656 
    2.150   13.8624 
    2.165   13.6905 
    2.180   14.2063 
    2.195   14.1005 
    2.210   13.6111 
    2.225   14.0212 
    2.240   13.3862 
    2.255   13.1614 
    2.270   13.8492 
    2.285   13.6243 
    2.300   13.6376 
    2.315   13.9153 
    2.330   13.6111 
    2.345   13.4524 
    2.360   13.6111 
    2.375   13.7566 
    2.390   13.2804 
    2.405   12.7910 
    2.420   13.6508 
    2.435   12.8836 
    2.450   13.7831 
    2.465   14.0476 
    2.480   13.4259 
    2.495   14.2328 
    2.510   13.6772 
    2.525   13.3201 
    2.540   13.2804 
    2.555   13.2540 
    2.570   13.2011 
    2.585   13.8095 
    2.600   13.3466 
    2.615   12.7778 
    2.630   12.8307 
    2.645   13.0159 
    2.660   12.6852 
    2.675   13.2275 
    2.690   13.8095 
    2.705   13.0026 
    2.720   13.0952 
    2.735   12.9233 
    2.750   13.2407 
    2.765   13.5582 
    2.780   13.4127 
    2.795   13.9418 
    2.810   14.0212 
    2.825   13.6772 
    2.840   13.8492 
    2.855   12.6587 
    2.870   12.8042 
    2.885   13.5979 
    2.900   13.4788 
    2.915   13.3995 
    2.930   13.2540 
    2.945   13.2804 
    2.960   13.5582 
    2.975   13.1217 
    2.990   13.2275 
    3.005   13.0291 
    3.020   12.8704 
    3.035   13.1349 
    3.050   13.6772 
    3.065   13.5317 
    3.080   13.1481 
    3.095   13.4921 
    3.110   13.7566 
    3.125   13.6508 
    3.140   13.9153 
    3.155   14.2460 
    3.170   13.5450 
    3.185   13.9021 
    3.200   14.2328 
    3.215   14.2989 
    3.230   14.1931 
    3.245   13.9947 
    3.260   13.9550 
    3.275   14.4312 
    3.290   14.0212 
    3.305   14.2460 
    3.320   14.5370 
    3.335   14.7090 
    3.350   13.8624 
    3.365   14.7222 
    3.380   14.4577 
    3.395   14.1402 
    3.410   14.3254 
    3.425   15.0794 
    3.440   15.2513 
    3.455   15.2249 
    3.470   15.0794 
    3.485   15.3968 
    3.500   15.0661 
    3.515   15.0265 
    3.530   15.0397 
    3.545   15.8466 
    3.560   16.0317 
    3.575   16.2566 
    3.590   16.1243 
    3.605   16.0317 
    3.620   16.8254 
    3.635   16.8386 
    3.650   16.5873 
    3.665   16.9444 
    3.680   17.6984 
    3.695   18.1746 
    3.710   19.6164 
    3.725   20.1852 
    3.740   21.3492 
    3.755   22.0503 
    3.770   23.4392 
    3.785   25.4101 
    3.800   25.6349 
    3.815   25.0265 
    3.830   22.9762 
    3.845   19.9735 
    3.860   16.6270 
    3.875   15.3836 
    3.890   14.7487 
    3.905   14.3651 
    3.920   14.2328 
    3.935   14.6296 
    3.950   14.6164 
    3.965   14.3915 
    3.980   14.3122 
    3.995   14.8677 
    4.010   14.5899 
    4.025   14.4180 
    4.040   14.5238 
    4.055   13.8757 
    4.070   13.7698 
    4.085   14.4577 
    4.100   14.1270 
    4.115   14.4048 
    4.130   13.6905 
    4.145   13.6905 
    4.160   14.0476 
    4.175   14.2989 
    4.190   14.7751 
    4.205   14.6825 
    4.220   14.4577 
    4.235   14.1138 
    4.250   14.7354 
    4.265   14.5767 
    4.280   13.9550 
    4.295   14.0476 
    4.310   14.2857 
    4.325   14.0476 
    4.340   14.6429 
    4.355   14.8942 
    4.370   14.4577 
    4.385   15.0397 
    4.400   15.2116 
    4.415   14.6561 
    4.430   14.4312 
    4.445   14.6296 
    4.460   14.5635 
    4.475   14.6032 
    4.490   14.8810 
    4.505   15.0661 
    4.520   14.9206 
    4.535   15.5820 
    4.550   14.6429 
    4.565   14.4048 
    4.580   14.4444 
    4.595   15.2249 
    4.610   15.0926 
    4.625   15.4101 
    4.640   16.0847 
    4.655   14.9471 
    4.670   15.0132 
    4.685   15.4497 
    4.700   15.1720 
    4.715   15.4233 
    4.730   15.6349 
    4.745   15.5688 
    4.760   15.7804 
    4.775   15.6746 
    4.790   16.1111 
    4.805   16.3095 
    4.820   15.8995 
    4.835   15.3439 
    4.850   16.0185 
    4.865   16.6402 
    4.880   15.8333 
    4.895   16.0317 
    4.910   16.1905 
    4.925   16.2434 
    4.940   16.8915 
    4.955   16.3757 
    4.970   15.8201 
    4.985   16.0317 
    5.000   16.7460 
    5.015   16.2963 
    5.030   16.3757 
    5.045   17.9630 
    5.060   17.1958 
    5.075   17.9101 
    5.090   17.1693 
    5.105   17.1296 
    5.120   18.0159 
    5.135   18.0159 
    5.150   18.2804 
    5.165   17.6190 
    5.180   18.2936 
    5.195   18.3069 
    5.210   18.7831 
    5.225   18.5053 
    5.240   18.3201 
    5.255   18.8889 
    5.270   18.7434 
    5.285   19.1667 
    5.300   19.2593 
    5.315   18.5847 
    5.330   19.1931 
    5.345   19.8413 
    5.360   19.3519 
    5.375   18.9947 
    5.390   19.8016 
    5.405   20.3042 
    5.420   20.1852 
    5.435   20.3042 
    5.450   20.7804 
    5.465   19.5106 
    5.480   19.1667 
    5.495   19.1534 
    5.510   18.3862 
    5.525   18.0820 
    5.540   18.9947 
    5.555   18.4392 
    5.570   17.8307 
    5.585   17.7249 
    5.600   18.0291 
    5.615   17.9762 
    5.630   18.2540 
    5.645   17.0106 
    5.660   17.6984 
    5.675   17.6587 
    5.690   16.6402 
    5.705   17.1429 
    5.720   16.3228 
    5.735   16.4815 
    5.750   16.4286 
    5.765   16.8122 
    5.780   16.4418 
    5.795   15.8862 
    5.810   15.3836 
    5.825   16.0185 
    5.840   15.6878 
    5.855   15.7672 
    5.870   15.0265 
    5.885   15.3571 
    5.900   15.7143 
    5.915   14.9339 
    5.930   15.2381 
    5.945   16.0582 
    5.960   15.7672 
    5.975   15.0132 
    5.990   14.9603 
    6.005   15.1455 
    6.020   14.8148 
    6.035   14.8545 
    6.050   15.1720 
    6.065   14.6032 
    6.080   14.1534 
    6.095   14.1402 
    6.110   14.1931 
    6.125   13.6905 
    6.140   13.7698 
    6.155   13.7831 
    6.170   13.7698 
    6.185   13.6508 
    6.200   13.8360 
    6.215   13.5317 
    6.230   13.3730 
    6.245   13.0952 
    6.260   13.0952 
    6.275   13.4656 
    6.290   13.3466 
    6.305   13.7566 
    6.320   13.3069 
    6.335   13.6905 
    6.350   13.1614 
    6.365   13.3730 
    6.380   13.5847 
    6.395   14.0608 
    6.410   13.1349 
    6.425   12.7778 
    6.440   13.2804 
    6.455   13.1481 
    6.470   13.0026 
    6.485   13.6508 
    6.500   12.8307 
    6.515   12.4735 
    6.530   13.1878 
    6.545   12.8836 
    6.560   13.3862 
    6.575   13.7698 
    6.590   12.7778 
    6.605   13.3069 
    6.620   13.1349 
    6.635   13.1746 
    6.650   12.4868 
    6.665   12.9365 
    6.680   12.9762 
    6.695   12.7513 
    6.710   12.5397 
    6.725   12.6190 
    6.740   11.8915 
    6.755   12.3942 
    6.770   12.0767 
    6.785   12.5132 
    6.800   12.6058 
    6.815   12.1429 
    6.830   12.0370 
    6.845   11.9577 
    6.860   11.7460 
    6.875   12.0106 
    6.890   12.7646 
    6.905   11.9974 
    6.920   12.1693 
    6.935   11.5873 
    6.950   11.6931 
    6.965   11.8915 
    6.980   11.6005 
    6.995   11.5344 
    7.010   11.7989 
    7.025   11.4418 
    7.040   11.5344 
    7.055   11.7196 
    7.070   11.5079 
    7.085   11.1905 
    7.100   11.2566 
    7.115   11.2831 
    7.130   10.8862 
    7.145   12.0370 
    7.160   11.2698 
    7.175   11.2831 
    7.190   10.8466 
    7.205   10.9788 
    7.220   11.5741 
    7.235   10.9524 
    7.250   11.0450 
    7.265   11.0450 
    7.280   10.6085 
    7.295   11.1376 
    7.310   10.9524 
    7.325   11.1508 
    7.340   10.9656 
    7.355   10.1720 
    7.370   10.2778 
    7.385   10.5688 
    7.400   11.0582 
    7.415   11.2037 
    7.430   11.0317 
    7.445   10.4894 
    7.460   10.3571 
    7.475   10.3042 
    7.490   10.9656 
    7.505   10.7672 
    7.520   10.1058 
    7.535   10.1190 
    7.550   10.1587 
    7.565   10.1058 
    7.580   10.2778 
    7.595   10.1323 
    7.610   10.5556 
    7.625    9.8280 
    7.640    9.9339 
    7.655   10.3836 
    7.670   10.6878 
    7.685   10.3307 
    7.700   10.6349 
    7.715   10.7275 
    7.730   11.0979 
    7.745   10.7540 
    7.760   10.1984 
    7.775   10.1058 
    7.790   10.3836 
    7.805    9.1270 
    7.820    9.4841 
    7.835    9.9603 
    7.850    9.4048 
    7.865    9.5767 
    7.880    9.6429 
    7.895    9.6429 
    7.910    9.0873 
    7.925   10.3571 
    7.940    9.7222 
    7.955    9.8810 
    7.970   10.3571 
    7.985    9.8148 
    8.000    9.5503 
    8.015    9.7222 
    8.030    9.2593 
    8.045   10.0265 
    8.060    9.3519 
    8.075    9.4312 
    8.090    9.3122 
    8.105    9.1534 
    8.120    9.0344 
    8.135    9.2857 
    8.150    9.3651 
    8.165    9.3519 
    8.180    9.2857 
    8.195    9.3915 
    8.210    9.3915 
    8.225    9.5899 
    8.240    9.3519 
    8.255    9.2460 
    8.270    9.2725 
    8.285    8.9418 
    8.300    8.9021 
    8.315    9.1402 
    8.330    9.1799 
    8.345    9.2725 
    8.360    9.0344 
    8.375    8.6508 
    8.390    8.9286 
    8.405    9.3915 
    8.420    9.2196 
    8.435    9.2460 
    8.450    9.2725 
    8.465    8.8624 
    8.480    8.5847 
    8.495    8.8492 
    8.510    8.6905 
    8.525    8.9021 
    8.540    8.8228 
    8.555    8.9286 
    8.570    9.6296 
    8.585    9.2328 
    8.600    8.6905 
    8.615    8.9418 
    8.630    8.8889 
    8.645    9.3122 
    8.660    9.1799 
    8.675    9.0873 
    8.690    9.1534 
    8.705    8.9021 
    8.720    8.6243 
    8.735    8.9550 
    8.750    8.7831 
    8.765    8.9418 
    8.780    9.3519 
    8.795    9.2328 
    8.810    8.6905 
    8.825    8.9153 
    8.840    8.9550 
    8.855    9.2063 
    8.870    8.9815 
    8.885    9.0741 
    8.900    9.0476 
    8.915    9.1270 
    8.930    8.9418 
    8.945    8.8228 
    8.960    9.0344 
    8.975    9.0344 
    8.990    8.6640 
    9.005    8.6640 
    9.020    9.0079 
    9.035    8.7302 
    9.050    8.7169 
    9.065    8.7302 
    9.080    8.6508 
    9.095    8.5582 
    9.110    8.7169 
    9.125    8.0423 
    9.140    8.5317 
    9.155    8.7698 
    9.170    8.6508 
    9.185    9.0741 
    9.200    8.4524 
    9.215    8.7698 
    9.230    8.6111 
    9.245    8.8228 
    9.260    8.5317 
    9.275    9.0608 
    9.290    8.6243 
    9.305    8.5317 
    9.320    8.5450 
    9.335    8.7037 
    9.350    8.5714 
    9.365    8.6640 
    9.380    8.5185 
    9.395    8.7698 
    9.410    8.8492 
    9.425    9.3783 
    9.440    9.0476 
    9.455    9.4841 
    9.470    9.6561 
    9.485    9.6429 
    9.500    9.5238 
    9.515    9.2196 
    9.530    9.4180 
    9.545    9.1402 
    9.560    9.1799 
    9.575    8.6376 
    9.590    8.7566 
    9.605    8.6111 
    9.620    8.9021 
    9.635    8.9418 
    9.650    8.8095 
    9.665    8.8624 
    9.680    8.4921 
    9.695    8.0291 
    9.710    8.6376 
    9.725    8.8360 
    9.740    9.6032 
    9.755    9.2196 
    9.770    8.3069 
    9.785    8.4788 
    9.800    8.4127 
    9.815    8.3862 
    9.830    8.5847 
    9.845    8.4788 
    9.860    8.4921 
    9.875    8.9418 
    9.890    8.6772 
    9.905    8.7831 
    9.920    8.5847 
    9.935    8.7169 
    9.950    8.4127 
    9.965    8.5979 
    9.980    8.3069 
    9.995    8.6772 
   10.010    8.6508 
   10.025    9.2196 
   10.040    8.9550 
   10.055    8.5450 
   10.070    8.5714 
   10.085    8.7963 
   10.100    9.4180 
   10.115    9.1270 
   10.130    8.6772 
   10.145    8.9418 
   10.160    8.7566 
   10.175    8.8757 
   10.190    9.4048 
   10.205    9.4841 
   10.220    9.5503 
   10.235    9.4444 
   10.250    9.6032 
   10.265    9.4841 
   10.280    9.0212 
   10.295    9.2196 
   10.310    8.8624 
   10.325    9.2857 
   10.340    9.2328 
   10.355    8.9418 
   10.370    9.3915 
   10.385    9.0212 
   10.400    8.9153 
   10.415    9.2989 
   10.430    8.4656 
   10.445    8.3333 
   10.460    9.0873 
   10.475    8.4921 
   10.490    8.8228 
   10.505    9.0741 
   10.520    9.7751 
   10.535    9.3915 
   10.550    8.6376 
   10.565    9.0212 
   10.580    9.2725 
   10.595    8.9153 
   10.610    8.9683 
   10.625    8.8228 
   10.640    9.4180 
   10.655    9.1799 
   10.670    9.3254 
   10.685    9.0476 
   10.700    9.1402 
   10.715    9.6958 
   10.730    9.1799 
   10.745    9.1005 
   10.760    8.8889 
   10.775    9.2196 
   10.790    9.1799 
   10.805    9.2196 
   10.820    9.6825 
   10.835   10.0794 
   10.850    9.4048 
   10.865    9.2063 
   10.880    9.3386 
   10.895    9.3915 
   10.910    9.5899 
   10.925    9.8677 
   10.940    9.6693 
   10.955    9.6958 
   10.970    9.5899 
   10.985    9.5767 
   11.000    9.5635 
   11.015    9.1402 
   11.030    9.4048 
   11.045    9.5635 
   11.060    8.9683 
   11.075    9.2989 
   11.090    9.1270 
   11.105    9.1534 
   11.120    9.1005 
   11.135    9.1799 
   11.150    9.6032 
   11.165    9.2196 
   11.180    9.2328 
   11.195    9.5106 
   11.210    8.8095 
   11.225    8.9153 
   11.240    9.1402 
   11.255    9.0741 
   11.270    8.7698 
   11.285    8.9550 
   11.300    8.8492 
   11.315    9.3122 
   11.330    9.0344 
   11.345    9.2196 
   11.360    8.9021 
   11.375    9.2063 
   11.390    9.4841 
   11.405    8.9550 
   11.420    8.8624 
   11.435    8.8624 
   11.450    9.2593 
   11.465    9.3254 
   11.480    8.8360 
   11.495    9.0344 
   11.510    9.2063 
   11.525    9.1138 
   11.540    8.9418 
   11.555    9.0344 
   11.570    9.0476 
   11.585    8.8757 
   11.600    9.1402 
   11.615    9.2460 
   11.630    9.4312 
   11.645    9.0344 
   11.660    9.3519 
   11.675    9.3651 
   11.690    9.0873 
   11.705    8.9550 
   11.720    9.2460 
   11.735    8.8889 
   11.750    8.8492 
   11.765    8.5053 
   11.780    8.8889 
   11.795    8.9683 
   11.810    8.7037 
   11.825    8.9550 
   11.840    8.7963 
   11.855    8.8095 
   11.870    8.7037 
   11.885    9.0344 
   11.900    8.7169 
   11.915    8.7037 
   11.930    8.7831 
   11.945    8.9021 
   11.960    8.7302 
   11.975    8.3995 
   11.990    8.4392 
   12.005    8.8360 
   12.020    8.8228 
   12.035    8.5979 
   12.050    8.9021 
   12.065    8.7566 
   12.080    8.5185 
   12.095    8.4392 
   12.110    8.5185 
   12.125    8.6243 
   12.140    8.5714 
   12.155    8.4524 
   12.170    8.8492 
   12.185    8.9683 
   12.200    8.4656 
   12.215    7.9233 
   12.230    8.2804 
   12.245    9.1270 
   12.260    8.6640 
   12.275    8.8228 
   12.290    8.6111 
   12.305    8.3466 
   12.320    8.5185 
   12.335    8.5714 
   12.350    8.2540 
   12.365    8.2143 
   12.380    8.0952 
   12.395    8.6905 
   12.410    8.3598 
   12.425    8.7963 
   12.440    8.9021 
   12.455    8.1878 
   12.470    8.3862 
   12.485    8.2540 
   12.500    8.4392 
   12.515    8.5053 
   12.530    8.4392 
   12.545    8.1085 
   12.560    8.2275 
   12.575    8.5847 
   12.590    8.8757 
   12.605    8.4259 
   12.620    8.5714 
   12.635    8.3069 
   12.650    8.2143 
   12.665    8.3069 
   12.680    8.1085 
   12.695    8.4392 
   12.710    8.6640 
   12.725    8.4392 
   12.740    8.3862 
   12.755    8.6376 
   12.770    8.2937 
   12.785    8.4392 
   12.800    8.6111 
   12.815    8.7169 
   12.830    8.5185 
   12.845    8.2672 
   12.860    8.4524 
   12.875    8.4788 
   12.890    8.8228 
   12.905    9.1534 
   12.920    9.2196 
   12.935    8.4127 
   12.950    8.4127 
   12.965    8.2804 
   12.980    8.0952 
   12.995    8.1614 
   13.010    8.2275 
   13.025    8.4392 
   13.040    8.9286 
   13.055    8.4259 
   13.070    8.2011 
   13.085    8.0423 
   13.100    8.2804 
   13.115    8.1349 
   13.130    8.2143 
   13.145    8.1481 
   13.160    8.3201 
   13.175    8.2143 
   13.190    8.0159 
   13.205    8.3730 
   13.220    8.1085 
   13.235    8.3995 
   13.250    8.1349 
   13.265    8.2804 
   13.280    8.2540 
   13.295    8.5714 
   13.310    8.1085 
   13.325    8.4921 
   13.340    8.2143 
   13.355    7.9762 
   13.370    7.6984 
   13.385    8.2672 
   13.400    8.4656 
   13.415    8.9021 
   13.430    8.2540 
   13.445    8.4259 
   13.460    8.3069 
   13.475    8.7566 
   13.490    8.0026 
   13.505    8.3333 
   13.520    8.7037 
   13.535    8.5185 
   13.550    8.7831 
   13.565    8.1746 
   13.580    7.7778 
   13.595    8.1878 
   13.610    8.5185 
   13.625    8.3466 
   13.640    8.3862 
   13.655    8.4921 
   13.670    8.3730 
   13.685    8.3995 
   13.700    8.1878 
   13.715    7.9762 
   13.730    8.7302 
   13.745    8.3995 
   13.760    8.3201 
   13.775    8.5714 
   13.790    9.1270 
   13.805    8.8492 
   13.820    8.8228 
   13.835    8.3995 
   13.850    8.5450 
   13.865    8.7169 
   13.880    8.7831 
   13.895    8.5582 
   13.910    8.4788 
   13.925    8.4127 
   13.940    8.3598 
   13.955    9.0344 
   13.970    9.3122 
   13.985    9.0344 
   14.000    9.6958 
   14.015    8.9683 
   14.030    9.0344 
   14.045    9.0212 
   14.060    8.8889 
   14.075    8.4788 
   14.090    8.8360 
   14.105    8.8624 
   14.120    8.8360 
   14.135    8.3730 
   14.150    8.5847 
   14.165    9.0608 
   14.180    8.9683 
   14.195    8.7963 
   14.210    9.0079 
   14.225    9.3915 
   14.240    9.1799 
   14.255    8.8889 
   14.270    8.8624 
   14.285    9.0212 
   14.300    9.1005 
   14.315    8.9947 
   14.330    9.1402 
   14.345    9.1799 
   14.360    8.9418 
   14.375    8.6111 
   14.390    9.4841 
   14.405    9.1667 
   14.420    8.9683 
   14.435    9.1799 
   14.450    9.2989 
   14.465    8.6772 
   14.480    8.2143 
   14.495    8.9286 
   14.510    9.5767 
   14.525    8.4392 
   14.540    8.7566 
   14.555    8.8889 
   14.570    8.4259 
   14.585    8.9021 
   14.600    8.6772 
   14.615    8.7302 
   14.630    9.3122 
   14.645    8.1085 
   14.660    8.9021 
   14.675    8.7302 
   14.690    8.2937 
   14.705    8.3201 
   14.720    8.6508 
   14.735    8.1614 
   14.750    8.6111 
   14.765    8.8228 
   14.780    8.3995 
   14.795    8.0423 
   14.810    8.4259 
   14.825    8.2672 
   14.840    8.5450 
   14.855    8.5714 
   14.870    8.4392 
   14.885    8.7169 
   14.900    8.3862 
   14.915    8.1614 
   14.930    8.2275 
   14.945    8.2407 
   14.960    8.2937 
   14.975    8.5847 
   14.990    8.5582 
   15.005    8.0159 
   15.020    7.5661 
   15.035    7.8571 
   15.050    8.4259 
   15.065    8.3069 
   15.080    8.5450 
   15.095    8.5582 
   15.110    8.4921 
   15.125    8.7169 
   15.140    8.5317 
   15.155    7.7646 
   15.170    8.1878 
   15.185    8.0159 
   15.200    8.2937 
   15.215    8.4392 
   15.230    8.3466 
   15.245    8.2672 
   15.260    8.1878 
   15.275    8.4127 
   15.290    8.6376 
   15.305    8.1878 
   15.320    7.9101 
   15.335    8.2804 
   15.350    8.5582 
   15.365    8.4788 
   15.380    8.1217 
   15.395    7.8836 
   15.410    8.2407 
   15.425    8.0952 
   15.440    8.1481 
   15.455    7.9894 
   15.470    8.2143 
   15.485    7.6720 
   15.500    8.6508 
   15.515    8.2937 
   15.530    7.5397 
   15.545    7.7381 
   15.560    7.7778 
   15.575    7.7646 
   15.590    8.4524 
   15.605    8.2937 
   15.620    8.7566 
   15.635    8.2804 
   15.650    8.3466 
   15.665    7.7249 
   15.680    8.1746 
   15.695    7.9233 
   15.710    8.1481 
   15.725    8.5582 
   15.740    7.6720 
   15.755    7.4206 
   15.770    8.0026 
   15.785    8.1746 
   15.800    8.0291 
   15.815    8.4392 
   15.830    8.7037 
   15.845    8.4392 
   15.860    7.7910 
   15.875    7.8968 
   15.890    8.0952 
   15.905    7.3810 
   15.920    7.7381 
   15.935    8.1614 
   15.950    8.4656 
   15.965    8.5979 
   15.980    8.2407 
   15.995    8.7434 
   16.010    8.1349 
   16.025    8.3201 
   16.040    8.0291 
   16.055    8.2143 
   16.070    8.0952 
   16.085    8.3069 
   16.100    7.8439 
   16.115    8.2143 
   16.130    8.1481 
   16.145    8.0291 
   16.160    8.2011 
   16.175    7.9762 
   16.190    8.1878 
   16.205    8.7831 
   16.220    8.3730 
   16.235    8.4392 
   16.250    8.5979 
   16.265    8.1349 
   16.280    7.7249 
   16.295    7.4868 
   16.310    7.8836 
   16.325    8.1217 
   16.340    7.9497 
   16.355    8.0423 
   16.370    8.2143 
   16.385    8.1746 
   16.400    8.3466 
   16.415    8.2937 
   16.430    8.7963 
   16.445    8.1349 
   16.460    8.3201 
   16.475    8.5053 
   16.490    8.5053 
   16.505    8.5714 
   16.520    8.7434 
   16.535    8.1085 
   16.550    8.6508 
   16.565    8.5979 
   16.580    8.4392 
   16.595    8.8360 
   16.610    8.1349 
   16.625    7.9101 
   16.640    7.4735 
   16.655    7.6852 
   16.670    7.9894 
   16.685    8.0026 
   16.700    8.1085 
   16.715    8.1481 
   16.730    8.0423 
   16.745    8.1481 
   16.760    7.6852 
   16.775    8.0820 
   16.790    8.1878 
   16.805    8.2011 
   16.820    8.2275 
   16.835    7.8704 
   16.850    8.2407 
   16.865    7.8836 
   16.880    7.7646 
   16.895    7.5397 
   16.910    8.1746 
   16.925    7.9101 
   16.940    8.2407 
   16.955    8.2540 
   16.970    7.8042 
   16.985    8.3069 
   17.000    8.3333 
   17.015    9.0873 
   17.030    8.3995 
   17.045    8.6376 
   17.060    8.0026 
   17.075    8.3995 
   17.090    8.3201 
   17.105    7.9233 
   17.120    8.2937 
   17.135    7.8571 
   17.150    7.8042 
   17.165    7.9233 
   17.180    8.0291 
   17.195    8.1085 
   17.210    7.6190 
   17.225    7.8307 
   17.240    7.9101 
   17.255    7.6323 
   17.270    7.5397 
   17.285    7.9101 
   17.300    8.3201 
   17.315    8.0688 
   17.330    7.9101 
   17.345    8.1085 
   17.360    7.9497 
   17.375    7.7381 
   17.390    7.8175 
   17.405    7.7381 
   17.420    8.0159 
   17.435    8.4127 
   17.450    8.5450 
   17.465    7.9630 
   17.480    8.1481 
   17.495    8.0291 
   17.510    8.3069 
   17.525    7.8836 
   17.540    7.9894 
   17.555    7.7910 
   17.570    7.9630 
   17.585    7.6587 
   17.600    8.0159 
   17.615    7.6852 
   17.630    7.6455 
   17.645    7.6984 
   17.660    8.0688 
   17.675    7.9101 
   17.690    8.1878 
   17.705    7.8175 
   17.720    7.6058 
   17.735    7.9762 
   17.750    7.8439 
   17.765    7.9630 
   17.780    7.6323 
   17.795    8.4127 
   17.810    7.7646 
   17.825    7.6323 
   17.840    7.9762 
   17.855    7.4735 
   17.870    7.8571 
   17.885    7.8704 
   17.900    7.9497 
   17.915    8.0159 
   17.930    7.9762 
   17.945    8.0423 
   17.960    7.6323 
   17.975    7.7778 
   17.990    7.7778 
   18.005    7.7249 
   18.020    8.1746 
   18.035    8.2407 
   18.050    8.4524 
   18.065    7.7910 
   18.080    7.5397 
   18.095    7.6323 
   18.110    7.4603 
   18.125    7.8307 
   18.140    7.7249 
   18.155    7.7513 
   18.170    7.6455 
   18.185    7.9630 
   18.200    7.6984 
   18.215    8.0159 
   18.230    7.8307 
   18.245    8.2672 
   18.260    8.3995 
   18.275    8.3995 
   18.290    8.1878 
   18.305    8.3995 
   18.320    8.3069 
   18.335    8.1481 
   18.350    7.8175 
   18.365    8.0952 
   18.380    8.0423 
   18.395    8.1349 
   18.410    7.7381 
   18.425    8.0820 
   18.440    7.8307 
   18.455    7.8968 
   18.470    7.7646 
   18.485    7.9101 
   18.500    8.0423 
   18.515    7.3810 
   18.530    7.3413 
   18.545    7.7910 
   18.560    7.8439 
   18.575    8.1217 
   18.590    8.0556 
   18.605    7.7381 
   18.620    7.8704 
   18.635    7.5794 
   18.650    7.6058 
   18.665    8.1614 
   18.680    7.3810 
   18.695    7.9233 
   18.710    7.6455 
   18.725    7.2751 
   18.740    7.2619 
   18.755    8.0952 
   18.770    8.2540 
   18.785    7.7249 
   18.800    7.9101 
   18.815    7.8968 
   18.830    7.7646 
   18.845    7.6852 
   18.860    7.8968 
   18.875    7.4735 
   18.890    7.3280 
   18.905    7.5661 
   18.920    7.4603 
   18.935    7.6058 
   18.950    7.8836 
   18.965    8.1085 
   18.980    7.9762 
   18.995    7.8704 
   19.010    7.3677 
   19.025    7.2884 
   19.040    7.5794 
   19.055    7.7513 
   19.070    7.6190 
   19.085    7.8307 
   19.100    7.5661 
   19.115    7.4074 
   19.130    7.5397 
   19.145    7.3545 
   19.160    7.7381 
   19.175    7.8836 
   19.190    7.5132 
   19.205    7.4206 
   19.220    7.2222 
   19.235    7.9101 
   19.250    7.6455 
   19.265    7.5926 
   19.280    7.1825 
   19.295    7.6720 
   19.310    7.5000 
   19.325    7.6190 
   19.340    7.5132 
   19.355    7.6190 
   19.370    7.5132 
   19.385    7.5529 
   19.400    7.6190 
   19.415    7.4868 
   19.430    7.4074 
   19.445    7.3677 
   19.460    7.3942 
   19.475    7.3810 
   19.490    7.7116 
   19.505    7.5132 
   19.520    7.1958 
   19.535    7.7646 
   19.550    7.5397 
   19.565    7.4735 
   19.580    7.5000 
   19.595    7.7116 
   19.610    7.4603 
   19.625    7.6058 
   19.640    7.7381 
   19.655    7.6190 
   19.670    8.0026 
   19.685    6.9709 
   19.700    7.2354 
   19.715    7.0370 
   19.730    7.0635 
   19.745    7.2487 
   19.760    7.6455 
   19.775    7.3016 
   19.790    7.7249 
   19.805    7.3677 
   19.820    7.5794 
   19.835    7.6852 
   19.850    7.6587 
   19.865    7.6587 
   19.880    6.8254 
   19.895    7.5397 
   19.910    7.1693 
   19.925    7.2487 
   19.940    7.8042 
   19.955    7.7116 
   19.970    7.2222 
   19.985    7.3280 
   20.000    7.2222 
   20.015    7.6323 
   20.030    7.2487 
   20.045    7.4339 
   20.060    7.2884 
   20.075    7.2751 
   20.090    7.4471 
   20.105    7.4471 
   20.120    7.5000 
   20.135    7.3413 
   20.150    7.3413 
   20.165    7.3810 
   20.180    7.5397 
   20.195    7.9762 
   20.210    7.1561 
   20.225    7.0899 
   20.240    7.4074 
   20.255    7.0899 
   20.270    6.8254 
   20.285    7.3016 
   20.300    7.4206 
   20.315    8.0556 
   20.330    7.3545 
   20.345    7.4074 
   20.360    7.0238 
   20.375    7.2090 
   20.390    7.1032 
   20.405    7.2751 
   20.420    7.6058 
   20.435    7.3677 
   20.450    6.9709 
   20.465    6.9048 
   20.480    7.0106 
   20.495    7.0635 
   20.510    7.2619 
   20.525    7.0899 
   20.540    7.5000 
   20.555    7.3148 
   20.570    7.3148 
   20.585    6.9180 
   20.600    7.3545 
   20.615    7.2619 
   20.630    7.1429 
   20.645    7.2751 
   20.660    6.9974 
   20.675    7.2487 
   20.690    7.3148 
   20.705    7.5397 
   20.720    7.2751 
   20.735    7.2222 
   20.750    7.0503 
   20.765    7.1296 
   20.780    6.9841 
   20.795    7.1164 
   20.810    6.8783 
   20.825    6.8254 
   20.840    7.1561 
   20.855    6.9312 
   20.870    7.0238 
   20.885    6.5608 
   20.900    6.5476 
   20.915    6.9444 
   20.930    7.0899 
   20.945    6.8122 
   20.960    6.9974 
   20.975    6.8519 
   20.990    6.9577 
   21.005    7.2487 
   21.020    6.8122 
   21.035    6.7460 
   21.050    7.5132 
   21.065    7.3016 
   21.080    6.8915 
   21.095    6.7725 
   21.110    6.6005 
   21.125    7.1958 
   21.140    7.1561 
   21.155    7.2619 
   21.170    7.2090 
   21.185    6.9974 
   21.200    7.0106 
   21.215    6.9577 
   21.230    6.9709 
   21.245    7.1429 
   21.260    7.1429 
   21.275    7.4603 
   21.290    7.0635 
   21.305    6.9841 
   21.320    6.9577 
   21.335    7.0503 
   21.350    6.8386 
   21.365    6.9312 
   21.380    6.8783 
   21.395    6.9048 
   21.410    7.2222 
   21.425    6.8254 
   21.440    6.6402 
   21.455    7.2619 
   21.470    7.5926 
   21.485    7.2354 
   21.500    7.5661 
   21.515    6.9048 
   21.530    7.2619 
   21.545    7.1032 
   21.560    6.4286 
   21.575    6.8915 
   21.590    7.3148 
   21.605    7.2884 
   21.620    7.0767 
   21.635    7.2751 
   21.650    7.4603 
   21.665    7.1032 
   21.680    6.9048 
   21.695    6.4815 
   21.710    7.1825 
   21.725    6.8783 
   21.740    6.9577 
   21.755    6.8783 
   21.770    7.0238 
   21.785    6.8519 
   21.800    7.3942 
   21.815    7.2487 
   21.830    7.3148 
   21.845    6.7989 
   21.860    6.6402 
   21.875    6.6270 
   21.890    6.4683 
   21.905    6.5741 
   21.920    6.4550 
   21.935    6.4815 
   21.950    6.8915 
   21.965    6.7857 
   21.980    6.8651 
   21.995    6.6534 
   22.010    6.7196 
   22.025    7.0238 
   22.040    6.9048 
   22.055    7.1693 
   22.070    7.1296 
   22.085    6.2037 
   22.100    6.2434 
   22.115    6.6534 
   22.130    6.7328 
   22.145    6.8651 
   22.160    6.7196 
   22.175    6.3228 
   22.190    6.6534 
   22.205    6.9577 
   22.220    7.1032 
   22.235    6.6402 
   22.250    6.9974 
   22.265    6.8783 
   22.280    6.7593 
   22.295    6.6931 
   22.310    6.9841 
   22.325    6.9841 
   22.340    6.9577 
   22.355    6.5079 
   22.370    6.8122 
   22.385    6.6138 
   22.400    6.8122 
   22.415    6.6138 
   22.430    6.7063 
   22.445    6.8122 
   22.460    6.5344 
   22.475    6.2698 
   22.490    6.6270 
   22.505    6.9709 
   22.520    6.9180 
   22.535    6.8254 
   22.550    6.7857 
   22.565    6.9974 
   22.580    6.7196 
   22.595    6.6931 
   22.610    6.6402 
   22.625    6.3757 
   22.640    6.1772 
   22.655    6.5079 
   22.670    6.6799 
   22.685    6.6138 
   22.700    6.5741 
   22.715    6.2302 
   22.730    6.5212 
   22.745    6.6931 
   22.760    6.6931 
   22.775    6.5873 
   22.790    6.8519 
   22.805    6.5079 
   22.820    6.6402 
   22.835    6.7593 
   22.850    6.5344 
   22.865    6.8254 
   22.880    7.0767 
   22.895    6.8122 
   22.910    6.8519 
   22.925    6.5344 
   22.940    6.3624 
   22.955    6.3492 
   22.970    6.7593 
   22.985    6.2963 
   23.000    6.1376 
   23.015    6.4021 
   23.030    6.4815 
   23.045    6.1376 
   23.060    6.2434 
   23.075    6.1243 
   23.090    6.3889 
   23.105    6.1111 
   23.120    6.0582 
   23.135    6.2302 
   23.150    6.2169 
   23.165    6.4021 
   23.180    6.5079 
   23.195    6.4815 
   23.210    6.5344 
   23.225    6.1243 
   23.240    6.0714 
   23.255    6.2566 
   23.270    5.9921 
   23.285    6.0714 
   23.300    5.9259 
   23.315    6.2963 
   23.330    6.1508 
   23.345    6.5476 
   23.360    6.1508 
   23.375    6.0582 
   23.390    5.8466 
   23.405    6.0185 
   23.420    6.2302 
   23.435    6.2169 
   23.450    6.0714 
   23.465    6.0317 
   23.480    6.1376 
   23.495    5.9788 
   23.510    5.9921 
   23.525    6.3624 
   23.540    6.1243 
   23.555    6.1905 
   23.570    6.2698 
   23.585    6.0847 
   23.600    6.6931 
   23.615    6.4418 
   23.630    5.8730 
   23.645    5.8995 
   23.660    6.2302 
   23.675    6.2831 
   23.690    6.2169 
   23.705    6.0317 
   23.720    5.9921 
   23.735    5.9259 
   23.750    6.3095 
   23.765    6.2169 
   23.780    6.3360 
   23.795    6.3360 
   23.810    5.9921 
   23.825    6.4418 
   23.840    6.2831 
   23.855    5.9259 
   23.870    5.8466 
   23.885    6.0847 
   23.900    6.1376 
   23.915    6.1905 
   23.930    6.1376 
   23.945    6.2698 
   23.960    6.2566 
   23.975    5.9921 
   23.990    5.5952 
   24.005    5.9524 
   24.020    6.3624 
   24.035    5.6746 
   24.050    5.6746 
   24.065    6.0317 
   24.080    6.0979 
   24.095    6.2434 
   24.110    5.8466 
   24.125    6.1640 
   24.140    6.3757 
   24.155    6.0582 
   24.170    5.8995 
   24.185    5.7804 
   24.200    6.0450 
   24.215    5.8730 
   24.230    5.8598 
   24.245    5.8730 
   24.260    6.0847 
   24.275    5.8466 
   24.290    5.7011 
   24.305    6.0847 
   24.320    5.9259 
   24.335    5.9921 
   24.350    5.7407 
   24.365    5.9921 
   24.380    5.8598 
   24.395    5.0132 
   24.410    5.5159 
   24.425    5.7937 
   24.440    6.0714 
   24.455    5.6217 
   24.470    5.6481 
   24.485    5.8466 
   24.500    6.0847 
   24.515    6.2169 
   24.530    5.8995 
   24.545    5.8995 
   24.560    5.8730 
   24.575    5.6481 
   24.590    6.2302 
   24.605    5.9921 
   24.620    5.9392 
   24.635    6.0317 
   24.650    5.7407 
   24.665    5.9259 
   24.680    6.0582 
   24.695    5.7804 
   24.710    6.0714 
   24.725    5.5952 
   24.740    6.2566 
   24.755    6.0714 
   24.770    5.6349 
   24.785    5.6085 
   24.800    5.6481 
   24.815    5.6217 
   24.830    5.7011 
   24.845    6.0714 
   24.860    5.8333 
   24.875    5.9656 
   24.890    5.6349 
   24.905    5.5026 
   24.920    5.8730 
   24.935    5.6746 
   24.950    5.5291 
   24.965    5.5688 
   24.980    5.9259 
   24.995    5.6878 
   25.010    5.4365 
   25.025    5.8598 
   25.040    5.6878 
   25.055    5.7672 
   25.070    5.6614 
   25.085    5.9788 
   25.100    5.7672 
   25.115    5.6746 
   25.130    5.3439 
   25.145    5.6614 
   25.160    5.2116 
   25.175    5.4497 
   25.190    5.6878 
   25.205    6.0714 
   25.220    5.5820 
   25.235    5.4365 
   25.250    5.7275 
   25.265    5.7540 
   25.280    5.7672 
   25.295    5.6085 
   25.310    5.5026 
   25.325    5.8333 
   25.340    5.7672 
   25.355    5.3042 
   25.370    5.6481 
   25.385    5.9524 
   25.400    5.9127 
   25.415    5.7672 
   25.430    5.4101 
   25.445    5.9788 
   25.460    6.1111 
   25.475    5.8201 
   25.490    5.8333 
   25.505    5.5952 
   25.520    5.6746 
   25.535    5.5820 
   25.550    5.5688 
   25.565    5.6481 
   25.580    5.5159 
   25.595    5.6085 
   25.610    5.8201 
   25.625    5.6481 
   25.640    5.5291 
   25.655    5.8201 
   25.670    5.5952 
   25.685    5.6085 
   25.700    5.2646 
   25.715    5.4233 
   25.730    5.5556 
   25.745    5.7407 
   25.760    6.0450 
   25.775    5.3175 
   25.790    5.5556 
   25.805    5.2910 
   25.820    5.3571 
   25.835    5.6217 
   25.850    5.5688 
   25.865    5.8069 
   25.880    5.8201 
   25.895    5.6746 
   25.910    5.4101 
   25.925    5.5026 
   25.940    5.4762 
   25.955    5.5423 
   25.970    5.6085 
   25.985    5.6085 
   26.000    5.5688 
   26.015    5.3704 
   26.030    5.5820 
   26.045    5.5952 
   26.060    5.7540 
   26.075    5.2778 
   26.090    5.2513 
   26.105    5.4365 
   26.120    5.5423 
   26.135    5.7143 
   26.150    5.4233 
   26.165    5.3307 
   26.180    5.5026 
   26.195    5.5688 
   26.210    5.2778 
   26.225    5.4233 
   26.240    5.5026 
   26.255    5.3836 
   26.270    5.3042 
   26.285    5.6614 
   26.300    5.0265 
   26.315    5.1587 
   26.330    5.2513 
   26.345    5.0529 
   26.360    5.5291 
   26.375    5.1058 
   26.390    4.9868 
   26.405    5.2778 
   26.420    5.4365 
   26.435    5.5423 
   26.450    5.2646 
   26.465    5.2646 
   26.480    4.9206 
   26.495    5.2381 
   26.510    5.1190 
   26.525    5.2910 
   26.540    5.3836 
   26.555    5.1455 
   26.570    5.4233 
   26.585    5.4894 
   26.600    5.5688 
   26.615    5.1190 
   26.630    5.5026 
   26.645    5.3836 
   26.660    5.5952 
   26.675    5.5291 
   26.690    5.5159 
   26.705    5.4894 
   26.720    5.1455 
   26.735    5.1455 
   26.750    5.3704 
   26.765    5.3571 
   26.780    5.3968 
   26.795    5.1455 
   26.810    5.3968 
   26.825    5.2381 
   26.840    5.3836 
   26.855    5.0529 
   26.870    5.3836 
   26.885    5.2910 
   26.900    5.3704 
   26.915    5.2249 
   26.930    5.4894 
   26.945    5.1058 
   26.960    5.4233 
   26.975    5.3042 
   26.990    5.4233 
   27.005    5.8201 
   27.020    5.3175 
   27.035    5.0397 
   27.050    5.1984 
   27.065    5.3042 
   27.080    4.9603 
   27.095    5.0397 
   27.110    5.7540 
   27.125    5.3439 
   27.140    5.1984 
   27.155    5.3307 
   27.170    4.8016 
   27.185    4.5635 
   27.200    4.9206 
   27.215    4.7884 
   27.230    4.9471 
   27.245    4.8148 
   27.260    5.1058 
   27.275    5.2910 
   27.290    5.1190 
   27.305    4.6561 
   27.320    4.8545 
   27.335    4.9471 
   27.350    4.9339 
   27.365    4.8016 
   27.380    4.8413 
   27.395    4.6032 
   27.410    4.6429 
   27.425    4.8810 
   27.440    4.9735 
   27.455    4.7354 
   27.470    4.8413 
   27.485    5.3704 
   27.500    5.0397 
   27.515    4.8280 
   27.530    4.5767 
   27.545    5.2646 
   27.560    5.2778 
   27.575    5.2646 
   27.590    5.0000 
   27.605    5.0529 
   27.620    4.6296 
   27.635    4.5767 
   27.650    4.8148 
   27.665    5.0132 
   27.680    5.2116 
   27.695    4.8677 
   27.710    4.6958 
   27.725    4.8810 
   27.740    4.8810 
   27.755    5.0529 
   27.770    4.9735 
   27.785    5.3042 
   27.800    5.1852 
   27.815    5.2513 
   27.830    5.3571 
   27.845    5.4497 
   27.860    5.5688 
   27.875    5.1587 
   27.890    5.2381 
   27.905    4.9471 
   27.920    4.5370 
   27.935    5.0529 
   27.950    4.8413 
   27.965    4.8016 
   27.980    4.8545 
   27.995    4.8545 
   28.010    4.8280 
   28.025    4.9603 
   28.040    4.6032 
   28.055    4.4312 
   28.070    5.0265 
   28.085    4.7619 
   28.100    4.5899 
   28.115    4.8016 
   28.130    5.0794 
   28.145    5.2381 
   28.160    4.8016 
   28.175    5.1058 
   28.190    5.0661 
   28.205    4.7090 
   28.220    5.0661 
   28.235    4.9074 
   28.250    4.6296 
   28.265    4.5767 
   28.280    4.1402 
   28.295    4.1799 
   28.310    5.0132 
   28.325    5.0397 
   28.340    4.4841 
   28.355    4.9471 
   28.370    4.5767 
   28.385    4.4180 
   28.400    4.6825 
   28.415    4.8413 
   28.430    4.8942 
   28.445    4.8942 
   28.460    4.6296 
   28.475    4.8942 
   28.490    5.1984 
   28.505    4.8413 
   28.520    4.5767 
   28.535    4.7487 
   28.550    5.0529 
   28.565    4.5767 
   28.580    5.0397 
   28.595    4.8413 
   28.610    4.5635 
   28.625    4.9471 
   28.640    4.8677 
   28.655    4.8016 
   28.670    4.9471 
   28.685    4.9471 
   28.700    5.3571 
   28.715    4.9868 
   28.730    4.9868 
   28.745    5.0397 
   28.760    4.7090 
   28.775    4.9868 
   28.790    5.0397 
   28.805    5.1455 
   28.820    4.7884 
   28.835    4.6164 
   28.850    4.9868 
   28.865    4.9206 
   28.880    4.6958 
   28.895    5.2778 
   28.910    5.1190 
   28.925    4.7487 
   28.940    4.6429 
   28.955    4.6561 
   28.970    4.4841 
   28.985    4.6693 
   29.000    4.6429 
   29.015    4.9206 
   29.030    5.1852 
   29.045    4.6032 
   29.060    4.2593 
   29.075    4.4048 
   29.090    4.8545 
   29.105    4.8280 
   29.120    4.7884 
   29.135    4.4048 
   29.150    4.4312 
   29.165    4.4974 
   29.180    4.3386 
   29.195    4.4312 
   29.210    4.7619 
   29.225    4.5767 
   29.240    4.5106 
   29.255    4.6825 
   29.270    4.3122 
   29.285    4.4048 
   29.300    4.5106 
   29.315    4.7090 
   29.330    4.3651 
   29.345    4.6561 
   29.360    4.3915 
   29.375    4.4180 
   29.390    4.2196 
   29.405    4.1799 
   29.420    4.4312 
   29.435    4.7222 
   29.450    4.5899 
   29.465    4.0212 
   29.480    4.1270 
   29.495    4.4048 
   29.510    4.3783 
   29.525    4.5503 
   29.540    4.4312 
   29.555    4.6164 
   29.570    4.5503 
   29.585    4.3254 
   29.600    4.4312 
   29.615    4.3651 
   29.630    4.3519 
   29.645    4.1005 
   29.660    3.9683 
   29.675    4.2593 
   29.690    4.2196 
   29.705    4.3122 
   29.720    3.8889 
   29.735    3.7963 
   29.750    4.1005 
   29.765    4.3254 
   29.780    4.2196 
   29.795    4.1534 
   29.810    4.1270 
   29.825    4.4048 
   29.840    4.0212 
   29.855    4.0079 
   29.870    4.0079 
   29.885    3.8889 
   29.900    3.7434 
   29.915    3.6640 
   29.930    3.9550 
   29.945    4.1799 
   29.960    4.1931 
   29.975    4.1799 
   29.990    4.2460 
   30.005    3.8095 
   30.020    3.7698 
   30.035    3.8360 
   30.050    3.6508 
   30.065    3.9683 
   30.080    3.9153 
   30.095    3.9815 
   30.110    4.2328 
   30.125    4.3783 
   30.140    4.3783 
   30.155    3.9021 
   30.170    4.1534 
   30.185    3.7831 
   30.200    3.7963 
   30.215    3.9418 
   30.230    3.6508 
   30.245    3.7169 
   30.260    4.2593 
   30.275    4.2593 
   30.290    4.3122 
   30.305    4.2328 
   30.320    4.4180 
   30.335    4.1799 
   30.350    3.9550 
   30.365    4.0079 
   30.380    4.1402 
   30.395    4.2989 
   30.410    3.8624 
   30.425    4.2196 
   30.440    3.9683 
   30.455    4.3122 
   30.470    3.8492 
   30.485    3.9550 
   30.500    3.7302 
   30.515    3.7037 
   30.530    3.8889 
   30.545    3.9418 
   30.560    4.1534 
   30.575    3.6640 
   30.590    3.8228 
   30.605    3.7037 
   30.620    3.7434 
   30.635    3.9683 
   30.650    3.8757 
   30.665    3.9815 
   30.680    4.1799 
   30.695    4.1931 
   30.710    3.9815 
   30.725    3.8228 
   30.740    3.7963 
   30.755    3.8095 
   30.770    3.6772 
   30.785    4.0476 
   30.800    4.0079 
   30.815    3.6508 
   30.830    3.7698 
   30.845    4.1931 
   30.860    3.8889 
   30.875    3.6508 
   30.890    3.7169 
   30.905    4.1667 
   30.920    3.6111 
   30.935    3.6772 
   30.950    3.9550 
   30.965    3.9550 
   30.980    3.7831 
   30.995    3.9153 
   31.010    3.5317 
   31.025    4.0476 
   31.040    3.6772 
   31.055    3.9286 
   31.070    3.9021 
   31.085    3.7037 
   31.100    3.4127 
   31.115    3.6508 
   31.130    3.7698 
   31.145    3.2672 
   31.160    3.4656 
   31.175    3.5317 
   31.190    3.8624 
   31.205    3.7037 
   31.220    3.3995 
   31.235    3.3730 
   31.250    3.6243 
   31.265    3.7037 
   31.280    3.8095 
   31.295    3.6376 
   31.310    3.8492 
   31.325    3.8228 
   31.340    3.6772 
   31.355    3.8492 
   31.370    3.8624 
   31.385    3.7963 
   31.400    3.9947 
   31.415    3.7566 
   31.430    3.4788 
   31.445    3.7831 
   31.460    3.8360 
   31.475    3.8757 
   31.490    3.6243 
   31.505    3.3333 
   31.520    3.6111 
   31.535    3.4788 
   31.550    3.4392 
   31.565    3.6772 
   31.580    3.6905 
   31.595    3.2143 
   31.610    3.4788 
   31.625    3.4788 
   31.640    3.5582 
   31.655    3.5185 
   31.670    3.5714 
   31.685    3.5053 
   31.700    3.6905 
   31.715    3.4921 
   31.730    3.4392 
   31.745    3.6508 
   31.760    3.8624 
   31.775    3.8889 
   31.790    3.9286 
   31.805    3.6905 
   31.820    3.4656 
   31.835    3.2804 
   31.850    3.4392 
   31.865    3.5847 
   31.880    3.4524 
   31.895    3.2143 
   31.910    3.4656 
   31.925    3.6376 
   31.940    3.5317 
   31.955    3.5185 
   31.970    3.3333 
   31.985    3.6111 
   32.000    3.5450 
   32.015    3.4788 
   32.030    3.4524 
   32.045    3.3730 
   32.060    3.4524 
   32.075    3.2540 
   32.090    3.6905 
   32.105    3.3862 
   32.120    3.2804 
   32.135    3.4127 
   32.150    3.6508 
   32.165    3.2275 
   32.180    3.7831 
   32.195    3.4127 
   32.210    3.5317 
   32.225    3.1878 
   32.240    3.4656 
   32.255    3.4392 
   32.270    3.2937 
   32.285    3.3466 
   32.300    3.4921 
   32.315    3.6772 
   32.330    3.1481 
   32.345    3.3201 
   32.360    3.5979 
   32.375    3.5582 
   32.390    3.5450 
   32.405    3.2672 
   32.420    3.4656 
   32.435    3.3333 
   32.450    3.3995 
   32.465    3.4921 
   32.480    3.7037 
   32.495    3.7302 
   32.510    3.3995 
   32.525    3.3598 
   32.540    3.3598 
   32.555    3.2937 
   32.570    3.5185 
   32.585    3.5450 
   32.600    3.5053 
   32.615    3.3466 
   32.630    3.3333 
   32.645    3.4921 
   32.660    3.1614 
   32.675    3.3598 
   32.690    3.3862 
   32.705    3.3069 
   32.720    3.2407 
   32.735    3.4788 
   32.750    3.4656 
   32.765    3.4127 
   32.780    3.4127 
   32.795    3.5979 
   32.810    3.4788 
   32.825    3.4524 
   32.840    3.2540 
   32.855    3.2275 
   32.870    3.2275 
   32.885    3.3995 
   32.900    3.5714 
   32.915    3.6640 
   32.930    3.5582 
   32.945    3.2672 
   32.960    3.4127 
   32.975    3.1746 
   32.990    3.1217 
   33.005    3.1217 
   33.020    3.0159 
   33.035    3.0556 
   33.050    3.4524 
   33.065    3.5053 
   33.080    3.3466 
   33.095    3.3995 
   33.110    3.4127 
   33.125    3.1085 
   33.140    3.1746 
   33.155    3.0556 
   33.170    3.3995 
   33.185    3.3995 
   33.200    3.1349 
   33.215    3.0026 
   33.230    2.9630 
   33.245    3.3598 
   33.260    3.3069 
   33.275    3.3069 
   33.290    3.0952 
   33.305    3.1746 
   33.320    3.4921 
   33.335    3.4524 
   33.350    3.3333 
   33.365    3.1746 
   33.380    3.3862 
   33.395    3.3466 
   33.410    3.2407 
   33.425    3.3333 
   33.440    3.0556 
   33.455    3.0820 
   33.470    3.0291 
   33.485    3.0159 
   33.500    3.1085 
   33.515    3.1878 
   33.530    3.3333 
   33.545    3.1746 
   33.560    3.2804 
   33.575    3.0291 
   33.590    3.0026 
   33.605    3.0556 
   33.620    3.0952 
   33.635    3.0556 
   33.650    3.2540 
   33.665    3.3598 
   33.680    3.3333 
   33.695    3.0952 
   33.710    3.3730 
   33.725    3.5053 
   33.740    3.0952 
   33.755    2.9233 
   33.770    3.2011 
   33.785    3.2937 
   33.800    3.2407 
   33.815    3.3862 
   33.830    3.3466 
   33.845    3.2672 
   33.860    3.4259 
   33.875    3.3598 
   33.890    3.0159 
   33.905    3.1217 
   33.920    3.2011 
   33.935    3.2804 
   33.950    3.5053 
   33.965    3.3598 
   33.980    3.2407 
   33.995    3.0423 
   34.010    2.8968 
   34.025    3.3069 
   34.040    3.0026 
   34.055    3.3069 
   34.070    3.4921 
   34.085    3.3730 
   34.100    3.3730 
   34.115    2.8968 
   34.130    3.1217 
   34.145    3.1085 
   34.160    3.0159 
   34.175    3.4259 
   34.190    3.4259 
   34.205    3.1614 
   34.220    3.0688 
   34.235    2.7910 
   34.250    3.0952 
   34.265    3.3333 
   34.280    3.3333 
   34.295    3.1878 
   34.310    3.0952 
   34.325    3.0688 
   34.340    3.0952 
   34.355    3.3598 
   34.370    3.5582 
   34.385    3.1614 
   34.400    3.1085 
   34.415    3.1746 
   34.430    3.1746 
   34.445    3.0159 
   34.460    3.0820 
   34.475    3.1085 
   34.490    3.2540 
   34.505    3.1746 
   34.520    2.9762 
   34.535    3.3333 
   34.550    3.1878 
   34.565    3.2407 
   34.580    3.0026 
   34.595    3.4788 
   34.610    3.3598 
   34.625    3.2011 
   34.640    3.0688 
   34.655    3.0688 
   34.670    3.5053 
   34.685    3.3333 
   34.700    3.2275 
   34.715    3.0688 
   34.730    3.1481 
   34.745    3.2143 
   34.760    3.2672 
   34.775    3.0820 
   34.790    3.1878 
   34.805    3.0423 
   34.820    2.9365 
   34.835    3.1217 
   34.850    3.0423 
   34.865    2.7910 
   34.880    2.7778 
   34.895    2.9365 
   34.910    3.0952 
   34.925    3.0952 
   34.940    3.0291 
   34.955    2.8968 
   34.970    2.7778 
   34.985    3.1349 
   35.000    3.1878 
   35.015    3.0026 
   35.030    3.0556 
   35.045    2.9497 
   35.060    2.8704 
   35.075    3.0159 
   35.090    2.9497 
   35.105    3.2143 
   35.120    3.0026 
   35.135    3.0291 
   35.150    3.2275 
   35.165    2.9497 
   35.180    3.0159 
   35.195    3.1217 
   35.210    3.1614 
   35.225    3.2804 
   35.240    3.0820 
   35.255    3.0820 
   35.270    2.9233 
   35.285    2.7778 
   35.300    3.0026 
   35.315    2.9630 
   35.330    3.0952 
   35.345    2.9365 
   35.360    3.0026 
   35.375    3.0952 
   35.390    2.9101 
   35.405    3.0423 
   35.420    3.1746 
   35.435    3.0688 
   35.450    3.1085 
   35.465    2.9233 
   35.480    3.0820 
   35.495    2.8968 
   35.510    3.2804 
   35.525    3.0291 
   35.540    3.4259 
   35.555    3.3466 
   35.570    2.8042 
   35.585    2.9894 
   35.600    2.9894 
   35.615    3.1349 
   35.630    3.1349 
   35.645    3.2672 
   35.660    3.0026 
   35.675    2.7381 
   35.690    3.1746 
   35.705    3.1085 
   35.720    3.1746 
   35.735    3.2672 
   35.750    3.0291 
   35.765    3.1878 
   35.780    2.9630 
   35.795    2.8836 
   35.810    2.9497 
   35.825    3.0159 
   35.840    2.8175 
   35.855    2.9630 
   35.870    3.0688 
   35.885    2.8704 
   35.900    3.0291 
   35.915    3.0159 
   35.930    2.9630 
   35.945    2.8836 
   35.960    3.1217 
   35.975    2.8836 
   35.990    2.6323 
   36.005    3.0952 
   36.020    2.9762 
   36.035    3.3201 
   36.050    3.1085 
   36.065    3.4392 
   36.080    3.1614 
   36.095    3.0291 
   36.110    3.0291 
   36.125    2.9101 
   36.140    2.8836 
   36.155    2.9497 
   36.170    3.0291 
   36.185    3.0026 
   36.200    2.8704 
   36.215    3.3862 
   36.230    3.2011 
   36.245    2.9101 
   36.260    2.8307 
   36.275    3.1085 
   36.290    3.2937 
   36.305    3.1085 
   36.320    3.0159 
   36.335    3.0556 
   36.350    2.9365 
   36.365    3.2672 
   36.380    3.4524 
   36.395    3.2540 
   36.410    2.8968 
   36.425    3.0026 
   36.440    3.0820 
   36.455    3.1085 
   36.470    3.1085 
   36.485    3.0556 
   36.500    3.1746 
   36.515    3.0688 
   36.530    2.7381 
   36.545    2.8836 
   36.560    2.8836 
   36.575    3.0952 
   36.590    3.0820 
   36.605    3.3069 
   36.620    3.1085 
   36.635    2.9365 
   36.650    2.8571 
   36.665    2.8571 
   36.680    2.8836 
   36.695    2.9101 
   36.710    2.8836 
   36.725    3.0423 
   36.740    2.6984 
   36.755    3.0159 
   36.770    3.1481 
   36.785    2.9894 
   36.800    3.0688 
   36.815    3.0291 
   36.830    3.0952 
   36.845    3.3730 
   36.860    2.8836 
   36.875    2.6455 
   36.890    2.9233 
   36.905    2.9233 
   36.920    2.9365 
   36.935    2.8042 
   36.950    3.0291 
   36.965    2.9101 
   36.980    2.9630 
   36.995    2.9233 
   37.010    3.2804 
   37.025    3.2011 
   37.040    3.0026 
   37.055    2.6190 
   37.070    2.9762 
   37.085    2.9630 
   37.100    2.7513 
   37.115    2.6587 
   37.130    2.9630 
   37.145    2.7646 
   37.160    2.9365 
   37.175    2.8704 
   37.190    3.0556 
   37.205    2.6984 
   37.220    2.9365 
   37.235    3.0159 
   37.250    3.0159 
   37.265    3.0952 
   37.280    2.7513 
   37.295    2.6587 
   37.310    2.6984 
   37.325    2.9233 
   37.340    2.8439 
   37.355    2.8042 
   37.370    3.0026 
   37.385    2.8175 
   37.400    2.7249 
   37.415    2.8307 
   37.430    2.6720 
   37.445    2.9365 
   37.460    2.7116 
   37.475    2.6587 
   37.490    3.0688 
   37.505    2.9762 
   37.520    2.9233 
   37.535    3.0556 
   37.550    2.7381 
   37.565    2.5265 
   37.580    2.7646 
   37.595    2.5926 
   37.610    2.7513 
   37.625    2.9233 
   37.640    2.9365 
   37.655    3.0952 
   37.670    2.8704 
   37.685    3.1746 
   37.700    3.0159 
   37.715    3.1349 
   37.730    3.3466 
   37.745    3.1614 
   37.760    2.7910 
   37.775    2.9894 
   37.790    2.9894 
   37.805    2.6455 
   37.820    2.7646 
   37.835    3.0291 
   37.850    3.0423 
   37.865    2.5529 
   37.880    2.6984 
   37.895    2.7910 
   37.910    2.8307 
   37.925    2.7778 
   37.940    2.5000 
   37.955    2.9101 
   37.970    2.8968 
   37.985    2.7249 
   38.000    2.6720 
   38.015    2.6984 
   38.030    2.8439 
   38.045    2.6587 
   38.060    2.4339 
   38.075    2.6190 
   38.090    2.3810 
   38.105    2.6058 
   38.120    2.8175 
   38.135    2.9762 
   38.150    2.8439 
   38.165    2.8042 
   38.180    2.7646 
   38.195    2.8042 
   38.210    2.5397 
   38.225    2.6058 
   38.240    2.7249 
   38.255    3.0026 
   38.270    2.6984 
   38.285    2.7513 
   38.300    2.9630 
   38.315    2.5926 
   38.330    2.7381 
   38.345    2.7249 
   38.360    2.6984 
   38.375    2.7910 
   38.390    2.5926 
   38.405    2.9762 
   38.420    2.7116 
   38.435    2.7513 
   38.450    3.0952 
   38.465    3.3598 
   38.480    2.7910 
   38.495    2.7249 
   38.510    2.6323 
   38.525    2.8175 
   38.540    2.8439 
   38.555    2.6587 
   38.570    2.8042 
   38.585    3.0026 
   38.600    2.7116 
   38.615    2.8042 
   38.630    2.6455 
   38.645    2.7778 
   38.660    2.7381 
   38.675    2.5661 
   38.690    2.7249 
   38.705    2.8175 
   38.720    3.0026 
   38.735    3.0159 
   38.750    2.8836 
   38.765    2.6984 
   38.780    2.5794 
   38.795    2.5926 
   38.810    3.0423 
   38.825    3.0291 
   38.840    2.8439 
   38.855    2.7910 
   38.870    2.8307 
   38.885    2.9762 
   38.900    2.6058 
   38.915    2.4735 
   38.930    2.8836 
   38.945    2.9762 
   38.960    2.7910 
   38.975    2.5529 
   38.990    2.5794 
   39.005    2.8307 
   39.020    2.7910 
   39.035    2.7249 
   39.050    2.6720 
   39.065    2.8042 
   39.080    2.7910 
   39.095    2.6852 
   39.110    2.9365 
   39.125    2.8175 
   39.140    2.6852 
   39.155    2.6455 
   39.170    2.6720 
   39.185    2.5926 
   39.200    2.5794 
   39.215    2.3280 
   39.230    2.8307 
   39.245    2.8439 
   39.260    2.6190 
   39.275    3.0159 
   39.290    2.3810 
   39.305    2.5794 
   39.320    2.7778 
   39.335    2.8571 
   39.350    2.7646 
   39.365    2.5794 
   39.380    2.5132 
   39.395    2.4471 
   39.410    2.5529 
   39.425    2.7116 
   39.440    2.5661 
   39.455    2.6984 
   39.470    2.6455 
   39.485    2.8042 
   39.500    2.5132 
   39.515    2.3810 
   39.530    2.6587 
   39.545    2.6984 
   39.560    3.0952 
   39.575    2.9233 
   39.590    2.4735 
   39.605    2.6190 
   39.620    2.7910 
   39.635    2.6720 
   39.650    2.7249 
   39.665    2.8968 
   39.680    2.8439 
   39.695    2.7116 
   39.710    2.6323 
   39.725    2.5794 
   39.740    2.7778 
   39.755    2.8836 
   39.770    2.7249 
   39.785    2.6720 
   39.800    2.5000 
   39.815    2.6720 
   39.830    2.6058 
   39.845    2.7381 
   39.860    2.7249 
   39.875    2.6587 
   39.890    2.9101 
   39.905    2.8175 
   39.920    2.5397 
   39.935    2.4868 
   39.950    2.6984 
   39.965    2.6720 
   39.980    2.7381 
