    1.500   37.2617
    1.515   36.7667
    1.530   37.7567
    1.545   36.0821
    1.560   34.6393
    1.575   34.7341
    1.590   34.9342
    1.605   33.8599
    1.620   32.5540
    1.635   32.7225
    1.650   32.5434
    1.665   31.3428
    1.680   31.1111
    1.695   31.2796
    1.710   29.8789
    1.725   29.3418
    1.740   29.4471
    1.755   29.3312
    1.770   28.2780
    1.785   28.5729
    1.800   29.1838
    1.815   27.9200
    1.830   27.2038
    1.845   26.9194
    1.860   26.6772
    1.875   25.9610
    1.890   26.1401
    1.905   26.5719
    1.920   26.2033
    1.935   25.8557
    1.950   25.9084
    1.965   25.5187
    1.980   25.1922
    1.995   25.0237
    2.010   24.6130
    2.025   24.8131
    2.040   24.2865
    2.055   24.7183
    2.070   24.1390
    2.085   23.5492
    2.100   23.5808
    2.115   23.6335
    2.130   23.5176
    2.145   22.8331
    2.160   23.0332
    2.175   22.3381
    2.190   22.1906
    2.205   22.0853
    2.220   22.8752
    2.235   22.5171
    2.250   22.2749
    2.265   22.1169
    2.280   21.8852
    2.295   21.1480
    2.310   21.4639
    2.325   21.4850
    2.340   20.7583
    2.355   21.8957
    2.370   21.8220
    2.385   21.6008
    2.400   21.7167
    2.415   21.7167
    2.430   21.7483
    2.445   21.7483
    2.460   21.2217
    2.475   20.9163
    2.490   21.7272
    2.505   21.6219
    2.520   21.0953
    2.535   21.1901
    2.550   20.8004
    2.565   21.4534
    2.580   21.5903
    2.595   21.6746
    2.610   21.6746
    2.625   21.6114
    2.640   22.8120
    2.655   22.3697
    2.670   22.2644
    2.685   21.5377
    2.700   21.5692
    2.715   22.6856
    2.730   23.5387
    2.745   23.2333
    2.760   23.5282
    2.775   23.5071
    2.790   22.9595
    2.805   23.3597
    2.820   23.7177
    2.835   24.2022
    2.850   23.9810
    2.865   24.6130
    2.880   24.5392
    2.895   24.4234
    2.910   25.5292
    2.925   25.4660
    2.940   25.8452
    2.955   25.8662
    2.970   26.5613
    2.985   27.3407
    3.000   28.2675
    3.015   28.9415
    3.030   28.5940
    3.045   30.0579
    3.060   29.8368
    3.075   29.9526
    3.090   30.8057
    3.105   31.6588
    3.120   32.5540
    3.135   33.5966
    3.150   35.1132
    3.165   36.3033
    3.180   37.0827
    3.195   38.4202
    3.210   39.1048
    3.225   40.3792
    3.240   42.4750
    3.255   42.8436
    3.270   44.4760
    3.285   45.7293
    3.300   48.4571
    3.315   50.0895
    3.330   52.6382
    3.345   54.5866
    3.360   57.3565
    3.375   59.1680
    3.390   63.9600
    3.405   67.0458
    3.420   69.6577
    3.435   72.6698
    3.450   74.7762
    3.465   76.1769
    3.480   76.2296
    3.495   74.1443
    3.510   69.6683
    3.525   65.6030
    3.540   60.7794
    3.555   52.7330
    3.570   48.9100
    3.585   44.4129
    3.600   40.1159
    3.615   36.6509
    3.630   34.3549
    3.645   33.3439
    3.660   33.1227
    3.675   31.3007
    3.690   30.5108
    3.705   29.9947
    3.720   29.9210
    3.735   29.3628
    3.750   29.2154
    3.765   30.1211
    3.780   29.8052
    3.795   29.5524
    3.810   30.8373
    3.825   30.4265
    3.840   30.7109
    3.855   31.9537
    3.870   32.4908
    3.885   32.0274
    3.900   31.7220
    3.915   32.4803
    3.930   33.1859
    3.945   34.0495
    3.960   34.7446
    3.975   34.4918
    3.990   34.4813
    4.005   35.1238
    4.020   34.8289
    4.035   34.8605
    4.050   34.1548
    4.065   35.6609
    4.080   35.6187
    4.095   34.8605
    4.110   33.9758
    4.125   34.0916
    4.140   33.6177
    4.155   32.4697
    4.170   32.0484
    4.185   30.2580
    4.200   30.0579
    4.215   29.2891
    4.230   27.9832
    4.245   26.7299
    4.260   25.7715
    4.275   23.7177
    4.290   22.4961
    4.305   22.2854
    4.320   21.0743
    4.335   20.2212
    4.350   19.0521
    4.365   18.1464
    4.380   17.4092
    4.395   17.0090
    4.410   16.5456
    4.425   15.8083
    4.440   15.0500
    4.455   14.5234
    4.470   14.5234
    4.485   14.1127
    4.500   12.9858
    4.515   12.5856
    4.530   12.1222
    4.545   12.4803
    4.560   12.1327
    4.575   11.9010
    4.590   11.3217
    4.605   10.9847
    4.620   11.0479
    4.635   10.9742
    4.650   10.5951
    4.665   10.2264
    4.680   10.2054
    4.695   10.3002
    4.710   10.5424
    4.725    9.6893
    4.740    9.7314
    4.755   10.0685
    4.770    9.8052
    4.785   10.4055
    4.800   10.0474
    4.815    9.6998
    4.830    9.1732
    4.845    9.4576
    4.860    9.8262
    4.875    9.4997
    4.890    9.4260
    4.905    9.4681
    4.920    9.1627
    4.935    9.0258
    4.950    8.5308
    4.965    9.0153
    4.980    9.2575
    4.995    9.1522
    5.010    9.1206
    5.025    8.9415
    5.040    9.2048
    5.055    9.1732
    5.070    8.5835
    5.085    8.5308
    5.100    8.7414
    5.115    8.6783
    5.130    8.5624
    5.145    9.0785
    5.160    8.9837
    5.175    8.4255
    5.190    8.9310
    5.205    8.5729
    5.220    8.4044
    5.235    8.4360
    5.250    8.9626
    5.265    8.4466
    5.280    8.9415
    5.295    8.2464
    5.310    8.4571
    5.325    8.2886
    5.340    8.5097
    5.355    8.9310
    5.370    8.6783
    5.385    8.7204
    5.400    8.7520
    5.415    8.7414
    5.430    8.4150
    5.445    8.1833
    5.460    8.0990
    5.475    8.1201
    5.490    8.5624
    5.505    8.3939
    5.520    7.9621
    5.535    8.8362
    5.550    8.9731
    5.565    8.0358
    5.580    8.1201
    5.595    8.8046
    5.610    8.3728
    5.625    8.3728
    5.640    8.3096
    5.655    8.4360
    5.670    8.1727
    5.685    8.0779
    5.700    8.0358
    5.715    8.2780
    5.730    8.0253
    5.745    8.3096
    5.760    7.9305
    5.775    8.0147
    5.790    8.4887
    5.805    8.6888
    5.820    8.3307
    5.835    8.2043
    5.850    8.1833
    5.865    8.2254
    5.880    8.2043
    5.895    8.3096
    5.910    8.4571
    5.925    8.2359
    5.940    7.8252
    5.955    8.1306
    5.970    8.3518
    5.985    8.0463
    6.000    7.7199
    6.015    8.0358
    6.030    8.4044
    6.045    8.6045
    6.060    8.0990
    6.075    8.3412
    6.090    8.5729
    6.105    8.4571
    6.120    8.4044
    6.135    8.2464
    6.150    8.2359
    6.165    8.0569
    6.180    8.0463
    6.195    8.1727
    6.210    8.2570
    6.225    8.2359
    6.240    8.1833
    6.255    8.3412
    6.270    8.3939
    6.285    7.9621
    6.300    8.3307
    6.315    8.6783
    6.330    8.6045
    6.345    8.5835
    6.360    8.8573
    6.375    8.4676
    6.390    8.2464
    6.405    8.6045
    6.420    8.6993
    6.435    8.2991
    6.450    8.3096
    6.465    8.4676
    6.480    8.9942
    6.495    8.5308
    6.510    8.0463
    6.525    8.9731
    6.540    9.0469
    6.555    8.6783
    6.570    8.5940
    6.585    8.9100
    6.600    8.6467
    6.615    9.1732
    6.630    9.2259
    6.645    9.1101
    6.660    9.5629
    6.675    9.3628
    6.690    9.2575
    6.705    9.4787
    6.720    9.6998
    6.735    9.3628
    6.750   10.0053
    6.765    9.9947
    6.780   10.0263
    6.795   10.6793
    6.810   11.5534
    6.825   11.5324
    6.840   11.2796
    6.855   12.0274
    6.870   12.6698
    6.885   12.9015
    6.900   12.9226
    6.915   12.9331
    6.930   13.8178
    6.945   14.4286
    6.960   14.0600
    6.975   14.1338
    6.990   13.6809
    7.005   13.7019
    7.020   13.2491
    7.035   12.8173
    7.050   12.3960
    7.065   11.3744
    7.080   11.1532
    7.095   11.0163
    7.110   10.0895
    7.125   10.1316
    7.140   10.3739
    7.155   10.0158
    7.170    9.2575
    7.185    9.2364
    7.200    9.6051
    7.215    9.3839
    7.230    8.9415
    7.245    8.5097
    7.260    8.9310
    7.275    8.6993
    7.290    8.6993
    7.305    8.7414
    7.320    8.8573
    7.335    8.7730
    7.350    8.3834
    7.365    8.1306
    7.380    8.6783
    7.395    8.4887
    7.410    8.5940
    7.425    8.5835
    7.440    8.7730
    7.455    8.7941
    7.470    8.7414
    7.485    8.8573
    7.500    8.8152
    7.515    8.8152
    7.530    8.8784
    7.545    8.8046
    7.560    8.6677
    7.575    8.6045
    7.590    9.0258
    7.605    9.3944
    7.620    8.3096
    7.635    8.9205
    7.650    8.8046
    7.665    8.7836
    7.680    9.5313
    7.695    9.2891
    7.710    9.0679
    7.725    8.9310
    7.740    9.4576
    7.755    9.2048
    7.770    9.0890
    7.785    9.3839
    7.800    9.4260
    7.815    9.2575
    7.830    9.3523
    7.845    9.2154
    7.860    9.5945
    7.875    9.7630
    7.890    9.5524
    7.905    9.1732
    7.920    9.2364
    7.935    9.2364
    7.950    9.2154
    7.965    9.7104
    7.980    9.6577
    7.995    9.8999
    8.010    9.6472
    8.025    9.4576
    8.040    9.8684
    8.055    9.6051
    8.070    9.7841
    8.085   10.0158
    8.100    9.9105
    8.115    9.9210
    8.130    9.7736
    8.145    9.8368
    8.160    9.6472
    8.175    9.5524
    8.190    9.6998
    8.205   10.1001
    8.220    9.6998
    8.235    9.5524
    8.250    9.9947
    8.265   10.3844
    8.280    9.9737
    8.295    9.9210
    8.310    9.5629
    8.325    9.3312
    8.340    9.9315
    8.355    9.6998
    8.370    9.8578
    8.385    9.5945
    8.400   10.2264
    8.415    9.6472
    8.430   10.2896
    8.445    9.8578
    8.460    9.8157
    8.475    9.6367
    8.490    9.3628
    8.505    9.3839
    8.520    9.9105
    8.535    9.9737
    8.550    9.5103
    8.565    9.2470
    8.580    9.2259
    8.595    9.4155
    8.610    9.7314
    8.625    9.3839
    8.640    9.3312
    8.655    8.7309
    8.670    9.2891
    8.685    8.8889
    8.700    8.9626
    8.715    8.8994
    8.730    9.1311
    8.745    8.2149
    8.760    8.8573
    8.775    8.8678
    8.790    8.5624
    8.805    8.8046
    8.820    8.2886
    8.835    8.4781
    8.850    8.5624
    8.865    8.1306
    8.880    8.6888
    8.895    8.7520
    8.910    8.4992
    8.925    8.2570
    8.940    8.0253
    8.955    8.4887
    8.970    8.2886
    8.985    8.2570
    9.000    8.3728
    9.015    8.4887
    9.030    8.4676
    9.045    8.8152
    9.060    8.5519
    9.075    8.6467
    9.090    8.4887
    9.105    8.5835
    9.120    8.7098
    9.135    8.3518
    9.150    8.0990
    9.165    8.0253
    9.180    8.0885
    9.195    7.7725
    9.210    8.1938
    9.225    7.9516
    9.240    8.0779
    9.255    7.7620
    9.270    7.9200
    9.285    7.8462
    9.300    8.2991
    9.315    8.3518
    9.330    8.5729
    9.345    8.4466
    9.360    8.1938
    9.375    8.2254
    9.390    7.8357
    9.405    7.7725
    9.420    7.7620
    9.435    8.2570
    9.450    8.2675
    9.465    7.9937
    9.480    7.8989
    9.495    7.6883
    9.510    7.8989
    9.525    8.4360
    9.540    8.3307
    9.555    8.3412
    9.570    7.6145
    9.585    7.4250
    9.600    8.2043
    9.615    8.1411
    9.630    7.8673
    9.645    8.4150
    9.660    8.3202
    9.675    8.1306
    9.690    8.3728
    9.705    8.2464
    9.720    8.0885
    9.735    7.8673
    9.750    8.2464
    9.765    8.2254
    9.780    7.8357
    9.795    7.8673
    9.810    7.8568
    9.825    8.0885
    9.840    8.0990
    9.855    8.1833
    9.870    8.1095
    9.885    8.3834
    9.900    8.2570
    9.915    7.9621
    9.930    8.0042
    9.945    7.7936
    9.960    7.8884
    9.975    8.6361
    9.990    8.4044
   10.005    8.1938
   10.020    8.1727
   10.035    8.4466
   10.050    8.5624
   10.065    8.8889
   10.080    8.4466
   10.095    8.5729
   10.110    9.3523
   10.125    9.3312
   10.140    9.8052
   10.155    9.1522
   10.170    9.2786
   10.185    9.1943
   10.200    9.4260
   10.215    9.0363
   10.230    9.0153
   10.245    8.9837
   10.260    8.6361
   10.275    8.2359
   10.290    8.0990
   10.305    8.0042
   10.320    8.4992
   10.335    7.8041
   10.350    7.6988
   10.365    8.9100
   10.380    8.6256
   10.395    7.6356
   10.410    8.2675
   10.425    8.6151
   10.440    8.1727
   10.455    8.2149
   10.470    8.6783
   10.485    8.1201
   10.500    8.2886
   10.515    8.4676
   10.530    8.0358
   10.545    8.2043
   10.560    7.9621
   10.575    8.0463
   10.590    8.2359
   10.605    8.3834
   10.620    7.8989
   10.635    7.5303
   10.650    7.7304
   10.665    8.1833
   10.680    8.1727
   10.695    7.9831
   10.710    7.7620
   10.725    7.7199
   10.740    7.5513
   10.755    7.3828
   10.770    7.6567
   10.785    7.8357
   10.800    7.9726
   10.815    8.2043
   10.830    7.6883
   10.845    8.3834
   10.860    8.0885
   10.875    7.9621
   10.890    7.8778
   10.905    7.6777
   10.920    7.8778
   10.935    7.5408
   10.950    7.6356
   10.965    7.8989
   10.980    7.6567
   10.995    7.7093
   11.010    8.0569
   11.025    7.5935
   11.040    7.9094
   11.055    8.2570
   11.070    7.4566
   11.085    7.6356
   11.100    7.6988
   11.115    7.5408
   11.130    7.3934
   11.145    7.4776
   11.160    7.4776
   11.175    7.5197
   11.190    7.8884
   11.205    7.8884
   11.220    7.8041
   11.235    7.8041
   11.250    7.8568
   11.265    7.5197
   11.280    7.9410
   11.295    7.8252
   11.310    7.4987
   11.325    7.5303
   11.340    7.6777
   11.355    7.5408
   11.370    7.7409
   11.385    7.6040
   11.400    7.4039
   11.415    7.3618
   11.430    7.3196
   11.445    7.5724
   11.460    7.8568
   11.475    7.5513
   11.490    7.9726
   11.505    7.6567
   11.520    7.8146
   11.535    7.7936
   11.550    7.8252
   11.565    7.8778
   11.580    7.8884
   11.595    7.8568
   11.610    8.1411
   11.625    7.6567
   11.640    7.7304
   11.655    7.8041
   11.670    8.1201
   11.685    7.8884
   11.700    7.8568
   11.715    7.6251
   11.730    7.4882
   11.745    8.0042
   11.760    7.9094
   11.775    7.9410
   11.790    8.0885
   11.805    8.0569
   11.820    8.0674
   11.835    8.2043
   11.850    8.3202
   11.865    8.4360
   11.880    7.8989
   11.895    8.3307
   11.910    8.4360
   11.925    7.8252
   11.940    8.5940
   11.955    8.4887
   11.970    8.2359
   11.985    8.5413
   12.000    8.1727
   12.015    8.2570
   12.030    8.3202
   12.045    7.9831
   12.060    7.9937
   12.075    7.5619
   12.090    8.1095
   12.105    8.1938
   12.120    7.9516
   12.135    7.9305
   12.150    7.9726
   12.165    7.6988
   12.180    7.6040
   12.195    7.4250
   12.210    7.5829
   12.225    8.1411
   12.240    8.3096
   12.255    7.6988
   12.270    7.7409
   12.285    7.6672
   12.300    7.7725
   12.315    7.7093
   12.330    7.9410
   12.345    7.9094
   12.360    7.9726
   12.375    7.8568
   12.390    7.8673
   12.405    7.7620
   12.420    8.0463
   12.435    7.9516
   12.450    7.4987
   12.465    7.7620
   12.480    7.9305
   12.495    7.6145
   12.510    7.8041
   12.525    7.5513
   12.540    7.8462
   12.555    7.6672
   12.570    7.7409
   12.585    8.1833
   12.600    7.8252
   12.615    7.7199
   12.630    7.7199
   12.645    7.4776
   12.660    7.6145
   12.675    8.0990
   12.690    8.1517
   12.705    7.8462
   12.720    7.8252
   12.735    8.0569
   12.750    7.4460
   12.765    7.5619
   12.780    7.8357
   12.795    7.4144
   12.810    7.6988
   12.825    7.4671
   12.840    7.7936
   12.855    7.4460
   12.870    7.6040
   12.885    7.8673
   12.900    7.9937
   12.915    8.0147
   12.930    8.0358
   12.945    7.5197
   12.960    7.6356
   12.975    7.5092
   12.990    7.5092
   13.005    7.6777
   13.020    7.6988
   13.035    7.3512
   13.050    7.7304
   13.065    7.3512
   13.080    7.6251
   13.095    7.6567
   13.110    7.5829
   13.125    7.6251
   13.140    7.8041
   13.155    8.2464
   13.170    7.8673
   13.185    7.3196
   13.200    7.6777
   13.215    7.4460
   13.230    7.3512
   13.245    7.3302
   13.260    7.8778
   13.275    7.2670
   13.290    7.5513
   13.305    7.2775
   13.320    7.4671
   13.335    7.4671
   13.350    7.6251
   13.365    7.2459
   13.380    7.3407
   13.395    7.7725
   13.410    7.5619
   13.425    7.5092
   13.440    7.5303
   13.455    7.3091
   13.470    7.5829
   13.485    7.7304
   13.500    7.6356
   13.515    7.3091
   13.530    7.4776
   13.545    7.4882
   13.560    7.6567
   13.575    7.3934
   13.590    7.4882
   13.605    7.6988
   13.620    7.5197
   13.635    7.3828
   13.650    7.4460
   13.665    7.4566
   13.680    7.2670
   13.695    7.4882
   13.710    7.7514
   13.725    7.3723
   13.740    7.1827
   13.755    7.3618
   13.770    7.7199
   13.785    7.1827
   13.800    7.5619
   13.815    7.2249
   13.830    7.3512
   13.845    7.5408
   13.860    7.4039
   13.875    7.6672
   13.890    7.9410
   13.905    7.4566
   13.920    7.4250
   13.935    6.8562
   13.950    6.9616
   13.965    7.0563
   13.980    7.8778
   13.995    7.4250
   14.010    7.6988
   14.025    7.6251
   14.040    7.3196
   14.055    7.7304
   14.070    7.2775
   14.085    7.3723
   14.100    7.5513
   14.115    7.5408
   14.130    7.6777
   14.145    7.3091
   14.160    7.3302
   14.175    7.4039
   14.190    7.4144
   14.205    7.3723
   14.220    7.3302
   14.235    7.0563
   14.250    7.5724
   14.265    7.2565
   14.280    7.3828
   14.295    7.5197
   14.310    7.3618
   14.325    7.3934
   14.340    7.5197
   14.355    7.2143
   14.370    7.3618
   14.385    7.6145
   14.400    7.8252
   14.415    7.4776
   14.430    7.2880
   14.445    7.2775
   14.460    7.5724
   14.475    7.5092
   14.490    7.5303
   14.505    7.4039
   14.520    7.3196
   14.535    7.5935
   14.550    7.5092
   14.565    6.9089
   14.580    7.5092
   14.595    7.9200
   14.610    8.1411
   14.625    7.6251
   14.640    7.2354
   14.655    7.7620
   14.670    7.6040
   14.685    7.5303
   14.700    7.1195
   14.715    7.5619
   14.730    7.5829
   14.745    7.2880
   14.760    7.5513
   14.775    7.4250
   14.790    7.4671
   14.805    7.1406
   14.820    6.8668
   14.835    7.2249
   14.850    7.2459
   14.865    7.1933
   14.880    7.3407
   14.895    7.5935
   14.910    7.0669
   14.925    7.1511
   14.940    7.4671
   14.955    7.3934
   14.970    7.6883
   14.985    7.0563
   15.000    7.2038
   15.015    7.1090
   15.030    7.5092
   15.045    7.3618
   15.060    7.2775
   15.075    6.9932
   15.090    7.7199
   15.105    7.4882
   15.120    7.5935
   15.135    7.6567
   15.150    6.9826
   15.165    7.0353
   15.180    7.3618
   15.195    7.4250
   15.210    7.3828
   15.225    7.2143
   15.240    7.1933
   15.255    7.3512
   15.270    7.6040
   15.285    7.6040
   15.300    7.1617
   15.315    7.1827
   15.330    7.4776
   15.345    7.4566
   15.360    7.3091
   15.375    7.2038
   15.390    7.5619
   15.405    7.7514
   15.420    7.7620
   15.435    7.5197
   15.450    7.5724
   15.465    7.3828
   15.480    7.6672
   15.495    7.4882
   15.510    7.6777
   15.525    7.6672
   15.540    7.7304
   15.555    7.9621
   15.570    7.4250
   15.585    7.2670
   15.600    7.8041
   15.615    7.6251
   15.630    7.4987
   15.645    7.6145
   15.660    7.4987
   15.675    7.8462
   15.690    7.3407
   15.705    7.5619
   15.720    7.7304
   15.735    7.5092
   15.750    7.4987
   15.765    7.2775
   15.780    7.5303
   15.795    7.5829
   15.810    7.7093
   15.825    7.8884
   15.840    7.8252
   15.855    7.5092
   15.870    7.9726
   15.885    7.7409
   15.900    7.4776
   15.915    7.5303
   15.930    7.4987
   15.945    7.0353
   15.960    7.5935
   15.975    7.6040
   15.990    7.1617
   16.005    7.2775
   16.020    7.6672
   16.035    7.3828
   16.050    7.4460
   16.065    7.4566
   16.080    7.4039
   16.095    7.2249
   16.110    7.6145
   16.125    7.6145
   16.140    7.4039
   16.155    7.5092
   16.170    7.4144
   16.185    7.1827
   16.200    7.3302
   16.215    7.6251
   16.230    7.4039
   16.245    7.5092
   16.260    7.4987
   16.275    7.4250
   16.290    7.1406
   16.305    7.1301
   16.320    7.1195
   16.335    7.1827
   16.350    7.3091
   16.365    7.3407
   16.380    7.2775
   16.395    7.5303
   16.410    7.1301
   16.425    7.2986
   16.440    7.5303
   16.455    7.4039
   16.470    7.0774
   16.485    7.2880
   16.500    7.7304
   16.515    7.3934
   16.530    7.1090
   16.545    7.5619
   16.560    7.6356
   16.575    7.3618
   16.590    7.6356
   16.605    7.6461
   16.620    7.5092
   16.635    7.4460
   16.650    7.5513
   16.665    7.1933
   16.680    7.3934
   16.695    7.4671
   16.710    7.5197
   16.725    7.3407
   16.740    7.1301
   16.755    7.2775
   16.770    7.0774
   16.785    7.4882
   16.800    7.4250
   16.815    7.3302
   16.830    7.3828
   16.845    7.5092
   16.860    7.6883
   16.875    7.2775
   16.890    7.1722
   16.905    7.3407
   16.920    7.3512
   16.935    7.3407
   16.950    6.9932
   16.965    7.7304
   16.980    7.1827
   16.995    7.6356
   17.010    7.6461
   17.025    7.2354
   17.040    7.4250
   17.055    7.3828
   17.070    7.1722
   17.085    7.1406
   17.100    7.2038
   17.115    7.6251
   17.130    7.7093
   17.145    7.4671
   17.160    7.0458
   17.175    7.5197
   17.190    7.6145
   17.205    7.0669
   17.220    7.3302
   17.235    7.5197
   17.250    6.7193
   17.265    7.1406
   17.280    7.4776
   17.295    7.5303
   17.310    7.2986
   17.325    7.2670
   17.340    7.2775
   17.355    7.8357
   17.370    7.4250
   17.385    7.2880
   17.400    7.3196
   17.415    7.3723
   17.430    7.2565
   17.445    7.3091
   17.460    7.1933
   17.475    7.2565
   17.490    7.3302
   17.505    7.3723
   17.520    7.5408
   17.535    7.1722
   17.550    7.7620
   17.565    7.5513
   17.580    7.8989
   17.595    7.7409
   17.610    7.2670
   17.625    7.4987
   17.640    7.3196
   17.655    7.3091
   17.670    7.7093
   17.685    7.5513
   17.700    7.2354
   17.715    7.6883
   17.730    7.6251
   17.745    7.4144
   17.760    7.6988
   17.775    7.4987
   17.790    7.3618
   17.805    7.3618
   17.820    7.4355
   17.835    7.0774
   17.850    7.8146
   17.865    7.9726
   17.880    7.7620
   17.895    7.4460
   17.910    7.4460
   17.925    7.6040
   17.940    7.6988
   17.955    7.5935
   17.970    7.5092
   17.985    7.3723
   18.000    7.7199
   18.015    7.4882
   18.030    7.4355
   18.045    7.4144
   18.060    7.2670
   18.075    7.3091
   18.090    7.8146
   18.105    7.6883
   18.120    7.4566
   18.135    7.7093
   18.150    7.7830
   18.165    7.1090
   18.180    7.6040
   18.195    7.6567
   18.210    7.4144
   18.225    7.8041
   18.240    7.5619
   18.255    7.7725
   18.270    7.4671
   18.285    7.2775
   18.300    7.7725
   18.315    7.5513
   18.330    7.6988
   18.345    7.1511
   18.360    7.5303
   18.375    7.5935
   18.390    7.6040
   18.405    7.6251
   18.420    7.2986
   18.435    7.5724
   18.450    7.5303
   18.465    7.4776
   18.480    8.0569
   18.495    7.6777
   18.510    7.8462
   18.525    7.5935
   18.540    7.4987
   18.555    7.7936
   18.570    7.9937
   18.585    7.4776
   18.600    7.0774
   18.615    7.5724
   18.630    7.2880
   18.645    7.6777
   18.660    8.0463
   18.675    7.4039
   18.690    7.5829
   18.705    7.6040
   18.720    7.6145
   18.735    7.3828
   18.750    7.4987
   18.765    7.5092
   18.780    7.2986
   18.795    7.2354
   18.810    7.4987
   18.825    7.7304
   18.840    7.4355
   18.855    7.3302
   18.870    7.3196
   18.885    7.4460
   18.900    7.7304
   18.915    7.0669
   18.930    7.4250
   18.945    7.5935
   18.960    7.4460
   18.975    7.5829
   18.990    7.6883
   19.005    7.5303
   19.020    7.2038
   19.035    7.8357
   19.050    7.6672
   19.065    7.4566
   19.080    7.2459
   19.095    7.4460
   19.110    7.4460
   19.125    7.7725
   19.140    7.6356
   19.155    7.2775
   19.170    7.2459
   19.185    7.6567
   19.200    7.6040
   19.215    7.5829
   19.230    7.6567
   19.245    7.6040
   19.260    7.3828
   19.275    7.7725
   19.290    7.9200
   19.305    7.9516
   19.320    7.7409
   19.335    7.6777
   19.350    8.1201
   19.365    8.1938
   19.380    7.8041
   19.395    7.8146
   19.410    7.6988
   19.425    7.5829
   19.440    7.3618
   19.455    7.4250
   19.470    7.9305
   19.485    7.7409
   19.500    7.9200
   19.515    7.7830
   19.530    7.9621
   19.545    7.8673
   19.560    7.5197
   19.575    7.7514
   19.590    7.8778
   19.605    7.6251
   19.620    8.0042
   19.635    7.6356
   19.650    7.8146
   19.665    7.7620
   19.680    7.6777
   19.695    7.3302
   19.710    7.4250
   19.725    7.7620
   19.740    7.7199
   19.755    7.7304
   19.770    8.0990
   19.785    7.5724
   19.800    7.6883
   19.815    7.7936
   19.830    7.8146
   19.845    7.7199
   19.860    7.8778
   19.875    7.6988
   19.890    7.7830
   19.905    7.7514
   19.920    8.1622
   19.935    7.8989
   19.950    8.2254
   19.965    7.8673
   19.980    7.6461
   19.995    7.8568
   20.010    8.1622
   20.025    7.6356
   20.040    7.7514
   20.055    8.3939
   20.070    8.1306
   20.085    7.8146
   20.100    8.1411
   20.115    7.7093
   20.130    7.8989
   20.145    7.6777
   20.160    7.6461
   20.175    7.7620
   20.190    7.8989
   20.205    8.0779
   20.220    7.9305
   20.235    7.9305
   20.250    7.8778
   20.265    7.8673
   20.280    7.8357
   20.295    7.8146
   20.310    8.2254
   20.325    8.1727
   20.340    8.1938
   20.355    8.0358
   20.370    7.8778
   20.385    7.7725
   20.400    8.3307
   20.415    8.3834
   20.430    8.0885
   20.445    7.8357
   20.460    7.7409
   20.475    7.9410
   20.490    7.8673
   20.505    7.8041
   20.520    8.3096
   20.535    8.3096
   20.550    8.2780
   20.565    8.1306
   20.580    8.0674
   20.595    8.0253
   20.610    8.2149
   20.625    8.1306
   20.640    8.0674
   20.655    7.7620
   20.670    7.9305
   20.685    8.0042
   20.700    8.0779
   20.715    7.7409
   20.730    7.9094
   20.745    7.5724
   20.760    8.0463
   20.775    7.9937
   20.790    7.9516
   20.805    8.2359
   20.820    7.9621
   20.835    8.1517
   20.850    8.1833
   20.865    8.0463
   20.880    7.6988
   20.895    7.6251
   20.910    8.0779
   20.925    8.1727
   20.940    8.2991
   20.955    7.4250
   20.970    7.6145
   20.985    8.2464
   21.000    8.1622
   21.015    8.1833
   21.030    7.8673
   21.045    8.0990
   21.060    8.2043
   21.075    7.9726
   21.090    8.0253
   21.105    8.1938
   21.120    8.2464
   21.135    8.6467
   21.150    8.4992
   21.165    8.4255
   21.180    7.8673
   21.195    7.7409
   21.210    7.7093
   21.225    7.8673
   21.240    8.0990
   21.255    7.9410
   21.270    7.5513
   21.285    7.9200
   21.300    8.0990
   21.315    7.6988
   21.330    7.7304
   21.345    7.7620
   21.360    8.1517
   21.375    7.8146
   21.390    7.5197
   21.405    8.1411
   21.420    8.0885
   21.435    8.3202
   21.450    8.0674
   21.465    7.9200
   21.480    7.6672
   21.495    7.7620
   21.510    7.5829
   21.525    7.8041
   21.540    8.0042
   21.555    8.0042
   21.570    8.0674
   21.585    8.0674
   21.600    7.9200
   21.615    8.4992
   21.630    8.5519
   21.645    8.0990
   21.660    7.9937
   21.675    8.0990
   21.690    7.7514
   21.705    7.7199
   21.720    7.9200
   21.735    8.3728
   21.750    8.0569
   21.765    7.5619
   21.780    7.9516
   21.795    8.3202
   21.810    7.9410
   21.825    8.3728
   21.840    7.8357
   21.855    8.5624
   21.870    7.9410
   21.885    7.8252
   21.900    7.8673
   21.915    7.9937
   21.930    8.0990
   21.945    7.9516
   21.960    8.0147
   21.975    7.7199
   21.990    8.1095
   22.005    8.2570
   22.020    8.2464
   22.035    7.9621
   22.050    8.0253
   22.065    7.5619
   22.080    8.1095
   22.095    8.3939
   22.110    8.0779
   22.125    7.6567
   22.140    7.5829
   22.155    7.9831
   22.170    7.8146
   22.185    7.8252
   22.200    8.1622
   22.215    8.2991
   22.230    8.2043
   22.245    7.9516
   22.260    7.8568
   22.275    7.8673
   22.290    8.0990
   22.305    8.2570
   22.320    7.9305
   22.335    7.6567
   22.350    7.8778
   22.365    7.7409
   22.380    8.2780
   22.395    8.0463
   22.410    8.0779
   22.425    7.5935
   22.440    8.0042
   22.455    7.8884
   22.470    8.0042
   22.485    7.7514
   22.500    8.0463
   22.515    8.3728
   22.530    8.2675
   22.545    7.9305
   22.560    8.1201
   22.575    7.8041
   22.590    7.9937
   22.605    8.0253
   22.620    7.9410
   22.635    8.0147
   22.650    8.0253
   22.665    7.8357
   22.680    8.1938
   22.695    7.9937
   22.710    8.2464
   22.725    8.1517
   22.740    8.3834
   22.755    8.1201
   22.770    8.0779
   22.785    8.2359
   22.800    8.0358
   22.815    7.7093
   22.830    7.6356
   22.845    8.0885
   22.860    8.1201
   22.875    7.8041
   22.890    7.6777
   22.905    8.0042
   22.920    8.1201
   22.935    7.8673
   22.950    8.4044
   22.965    8.7941
   22.980    7.8673
   22.995    7.5724
   23.010    7.5513
   23.025    7.5303
   23.040    7.7093
   23.055    8.0779
   23.070    8.2043
   23.085    7.4460
   23.100    7.6356
   23.115    7.5092
   23.130    7.6883
   23.145    7.7409
   23.160    7.8041
   23.175    7.8462
   23.190    7.6040
   23.205    7.5619
   23.220    8.0674
   23.235    8.1727
   23.250    8.1833
   23.265    7.8778
   23.280    7.9200
   23.295    7.8357
   23.310    8.0674
   23.325    8.0674
   23.340    7.5829
   23.355    7.6040
   23.370    7.7199
   23.385    7.7093
   23.400    7.9516
   23.415    7.7093
   23.430    7.3407
   23.445    7.6672
   23.460    8.3307
   23.475    8.2675
   23.490    8.4150
   23.505    8.0042
   23.520    7.9831
   23.535    7.7830
   23.550    7.7830
   23.565    7.8673
   23.580    7.4355
   23.595    7.6356
   23.610    7.9094
   23.625    7.9726
   23.640    7.6145
   23.655    8.0885
   23.670    7.6567
   23.685    8.0674
   23.700    8.0042
   23.715    7.9200
   23.730    7.8357
   23.745    7.9726
   23.760    7.8357
   23.775    7.9726
   23.790    8.0463
   23.805    8.0674
   23.820    8.0674
   23.835    7.8252
   23.850    7.4460
   23.865    7.6251
   23.880    7.9621
   23.895    7.7830
   23.910    7.6988
   23.925    7.7830
   23.940    7.9937
   23.955    7.7830
   23.970    8.2675
   23.985    8.2464
   24.000    7.8673
   24.015    7.5303
   24.030    8.0042
   24.045    7.8146
   24.060    7.5513
   24.075    7.3828
   24.090    7.8884
   24.105    8.3623
   24.120    8.2043
   24.135    7.8778
   24.150    7.7199
   24.165    8.0042
   24.180    7.9410
   24.195    8.0674
   24.210    7.6461
   24.225    7.8462
   24.240    8.0147
   24.255    7.9410
   24.270    7.7409
   24.285    8.0674
   24.300    7.6145
   24.315    7.7409
   24.330    7.7093
   24.345    7.8884
   24.360    8.0674
   24.375    7.8252
   24.390    7.8568
   24.405    7.6251
   24.420    7.7199
   24.435    8.0674
   24.450    7.9200
   24.465    7.9516
   24.480    7.6040
   24.495    7.9094
   24.510    7.8252
   24.525    7.7093
   24.540    7.8778
   24.555    7.2249
   24.570    8.0779
   24.585    8.0042
   24.600    7.9831
   24.615    7.4039
   24.630    7.4882
   24.645    7.4460
   24.660    7.9831
   24.675    7.7514
   24.690    7.6040
   24.705    7.8357
   24.720    7.6672
   24.735    7.7830
   24.750    7.9621
   24.765    7.7093
   24.780    7.9410
   24.795    8.0042
   24.810    7.8778
   24.825    7.6883
   24.840    7.7093
   24.855    7.6251
   24.870    7.6567
   24.885    7.0774
   24.900    7.5619
   24.915    7.8884
   24.930    7.6461
   24.945    7.4987
   24.960    7.7409
   24.975    7.3828
   24.990    7.1722
   25.005    7.2670
   25.020    7.7620
   25.035    8.4044
   25.050    7.8568
   25.065    7.1406
   25.080    7.3196
   25.095    7.6145
   25.110    7.6251
   25.125    7.5935
   25.140    7.4039
   25.155    7.4987
   25.170    7.7093
   25.185    7.7830
   25.200    7.5829
   25.215    7.5829
   25.230    7.3828
   25.245    7.2986
   25.260    7.1090
   25.275    7.2775
   25.290    7.3723
   25.305    7.7936
   25.320    7.9410
   25.335    7.4250
   25.350    7.4250
   25.365    7.6251
   25.380    7.6777
   25.395    7.6883
   25.410    7.2670
   25.425    7.5303
   25.440    7.5829
   25.455    7.4987
   25.470    7.7936
   25.485    7.6251
   25.500    7.3302
   25.515    7.5303
   25.530    7.4144
   25.545    7.4987
   25.560    7.3723
   25.575    7.7830
   25.590    7.6251
   25.605    7.5197
   25.620    7.7409
   25.635    7.4671
   25.650    7.4987
   25.665    7.1511
   25.680    7.1195
   25.695    7.4776
   25.710    7.2565
   25.725    7.5513
   25.740    7.4144
   25.755    6.9932
   25.770    7.1406
   25.785    7.2775
   25.800    7.4987
   25.815    7.5513
   25.830    7.3723
   25.845    7.4460
   25.860    7.4776
   25.875    7.2565
   25.890    7.0985
   25.905    7.1195
   25.920    7.3934
   25.935    7.5724
   25.950    7.4039
   25.965    7.3828
   25.980    7.3512
   25.995    7.3618
   26.010    7.6145
   26.025    7.3723
   26.040    7.2775
   26.055    7.3512
   26.070    7.6883
   26.085    7.3723
   26.100    7.3407
   26.115    7.2986
   26.130    7.3196
   26.145    7.2775
   26.160    7.4671
   26.175    7.0879
   26.190    7.0353
   26.205    7.2354
   26.220    7.3091
   26.235    7.3302
   26.250    7.0879
   26.265    7.2565
   26.280    6.6035
   26.295    7.2143
   26.310    7.2565
   26.325    7.4671
   26.340    7.2354
   26.355    7.4144
   26.370    7.2565
   26.385    7.2986
   26.400    7.8146
   26.415    7.3302
   26.430    7.2670
   26.445    7.6356
   26.460    7.6777
   26.475    7.4250
   26.490    7.5197
   26.505    7.2880
   26.520    7.3512
   26.535    7.4250
   26.550    7.2143
   26.565    7.0353
   26.580    7.4460
   26.595    7.1722
   26.610    7.2038
   26.625    7.3302
   26.640    7.3512
   26.655    7.4987
   26.670    7.6461
   26.685    7.5092
   26.700    7.2143
   26.715    7.2354
   26.730    7.1406
   26.745    6.9405
   26.760    6.7615
   26.775    7.3723
   26.790    7.2670
   26.805    7.2565
   26.820    7.3723
   26.835    7.1301
   26.850    7.3407
   26.865    6.9089
   26.880    6.9721
   26.895    7.5408
   26.910    7.5408
   26.925    7.4776
   26.940    7.2143
   26.955    7.1090
   26.970    7.2354
   26.985    6.9194
   27.000    7.0774
   27.015    7.7830
   27.030    7.4250
   27.045    7.2038
   27.060    7.1722
   27.075    7.4144
   27.090    6.8878
   27.105    7.4671
   27.120    6.9826
   27.135    6.8141
   27.150    6.8036
   27.165    7.3723
   27.180    7.3723
   27.195    7.0458
   27.210    6.6877
   27.225    7.1722
   27.240    6.9510
   27.255    7.1195
   27.270    7.2038
   27.285    6.9932
   27.300    7.2775
   27.315    7.1195
   27.330    6.8352
   27.345    7.0985
   27.360    6.8984
   27.375    6.7299
   27.390    7.0669
   27.405    7.4460
   27.420    7.0353
   27.435    6.9826
   27.450    7.1406
   27.465    6.9089
   27.480    7.3512
   27.495    7.2354
   27.510    7.3934
   27.525    7.0037
   27.540    6.9194
   27.555    7.0563
   27.570    6.9405
   27.585    7.0879
   27.600    7.2354
   27.615    7.0037
   27.630    6.6456
   27.645    6.6561
   27.660    7.0563
   27.675    6.8773
   27.690    6.9721
   27.705    6.9089
   27.720    7.1827
   27.735    7.0669
   27.750    7.0985
   27.765    6.9300
   27.780    6.9826
   27.795    7.0563
   27.810    6.9721
   27.825    6.9616
   27.840    6.8036
   27.855    7.0879
   27.870    7.2249
   27.885    7.4460
   27.900    7.3407
   27.915    6.8773
   27.930    6.7930
   27.945    6.9194
   27.960    7.1406
   27.975    7.3512
   27.990    6.9616
   28.005    6.9826
   28.020    7.2143
   28.035    7.1406
   28.050    6.7193
   28.065    7.2249
   28.080    7.0458
   28.095    7.0879
   28.110    6.8036
   28.125    6.9405
   28.140    7.2880
   28.155    7.1933
   28.170    6.8878
   28.185    7.0563
   28.200    7.1722
   28.215    7.4460
   28.230    7.4355
   28.245    6.9510
   28.260    6.9194
   28.275    7.0879
   28.290    7.5829
   28.305    7.1090
   28.320    7.0037
   28.335    7.1301
   28.350    7.2880
   28.365    7.1933
   28.380    6.9405
   28.395    6.9194
   28.410    7.2565
   28.425    7.3091
   28.440    7.0563
   28.455    6.9932
   28.470    6.9721
   28.485    7.4355
   28.500    7.0669
   28.515    6.9194
   28.530    6.9405
   28.545    7.0563
   28.560    7.0774
   28.575    6.8773
   28.590    7.2565
   28.605    7.5619
   28.620    6.9826
   28.635    7.4671
   28.650    7.5092
   28.665    6.9826
   28.680    6.7404
   28.695    7.1933
   28.710    7.3302
   28.725    7.3723
   28.740    6.9194
   28.755    7.0774
   28.770    6.6140
   28.785    6.6245
   28.800    6.7509
   28.815    6.8562
   28.830    6.9089
   28.845    6.6245
   28.860    6.3718
   28.875    6.7825
   28.890    7.1827
   28.905    6.8141
   28.920    6.9405
   28.935    6.6667
   28.950    7.1301
   28.965    7.1827
   28.980    6.6983
   28.995    6.8984
   29.010    6.8141
   29.025    6.5508
   29.040    6.7930
   29.055    6.9300
   29.070    6.4771
   29.085    6.6245
   29.100    6.7509
   29.115    7.1195
   29.130    6.8878
   29.145    7.1090
   29.160    7.0248
   29.175    7.0563
   29.190    6.7930
   29.205    6.9826
   29.220    7.2143
   29.235    6.7299
   29.250    7.0037
   29.265    7.3828
   29.280    7.0669
   29.295    6.7615
   29.310    7.0248
   29.325    6.9405
   29.340    7.0563
   29.355    6.7088
   29.370    7.0248
   29.385    6.6983
   29.400    6.3191
   29.415    6.8246
   29.430    6.7404
   29.445    7.1511
   29.460    6.6983
   29.475    6.9300
   29.490    6.6351
   29.505    6.6561
   29.520    6.5508
   29.535    7.1617
   29.550    6.6561
   29.565    6.6456
   29.580    6.8773
   29.595    6.7720
   29.610    7.0142
   29.625    7.0774
   29.640    6.7930
   29.655    6.6877
   29.670    6.3086
   29.685    6.7825
   29.700    6.6245
   29.715    6.6351
   29.730    6.8457
   29.745    6.8878
   29.760    6.6245
   29.775    6.6877
   29.790    6.4244
   29.805    6.8246
   29.820    6.8141
   29.835    6.7193
   29.850    6.6351
   29.865    7.1617
   29.880    6.7720
   29.895    6.8878
   29.910    6.8036
   29.925    7.0037
   29.940    6.5929
   29.955    6.6772
   29.970    6.8773
   29.985    6.8773
   30.000    6.4982
   30.015    6.8878
   30.030    6.9510
   30.045    6.8773
   30.060    6.8141
   30.075    6.8141
   30.090    7.0037
   30.105    7.0458
   30.120    6.5403
   30.135    6.4139
   30.150    6.7825
   30.165    6.7299
   30.180    6.7299
   30.195    6.8878
   30.210    7.0248
   30.225    7.0985
   30.240    6.5719
   30.255    6.3296
   30.270    6.5824
   30.285    6.5192
   30.300    6.7615
   30.315    6.9405
   30.330    6.3718
   30.345    7.0248
   30.360    6.8457
   30.375    6.6561
   30.390    6.6983
   30.405    6.6772
   30.420    6.6877
   30.435    6.6351
   30.450    6.5508
   30.465    6.5929
   30.480    6.5403
   30.495    6.7088
   30.510    6.6456
   30.525    6.5719
   30.540    6.6667
   30.555    6.8984
   30.570    6.8352
   30.585    6.7720
   30.600    6.4982
   30.615    6.3191
   30.630    6.4350
   30.645    6.2981
   30.660    6.5087
   30.675    6.1927
   30.690    6.4350
   30.705    6.6245
   30.720    6.5613
   30.735    6.8246
   30.750    7.0563
   30.765    6.5929
   30.780    6.6035
   30.795    6.6351
   30.810    6.4666
   30.825    6.5929
   30.840    6.4034
   30.855    6.7193
   30.870    6.9721
   30.885    6.8668
   30.900    6.4876
   30.915    6.8352
   30.930    6.8668
   30.945    6.4771
   30.960    6.4455
   30.975    6.7825
   30.990    6.8246
   31.005    7.0985
   31.020    7.1722
   31.035    6.7509
   31.050    6.8562
   31.065    6.3507
   31.080    6.4139
   31.095    6.8141
   31.110    6.5719
   31.125    6.0979
   31.140    6.0769
   31.155    6.2454
   31.170    6.7088
   31.185    6.4350
   31.200    6.1190
   31.215    6.4455
   31.230    6.6456
   31.245    6.8562
   31.260    6.2349
   31.275    6.4139
   31.290    6.5824
   31.305    6.5192
   31.320    6.3928
   31.335    6.2665
   31.350    6.5508
   31.365    6.4455
   31.380    6.5087
   31.395    6.7615
   31.410    6.6456
   31.425    6.6877
   31.440    6.6983
   31.455    6.4666
   31.470    6.2138
   31.485    6.1927
   31.500    6.5929
   31.515    6.6351
   31.530    6.8457
   31.545    6.8668
   31.560    6.4244
   31.575    6.3823
   31.590    6.5613
   31.605    6.4244
   31.620    6.2981
   31.635    6.7088
   31.650    6.4982
   31.665    6.8773
   31.680    6.3612
   31.695    6.4982
   31.710    6.8352
   31.725    6.5403
   31.740    6.9510
   31.755    6.5403
   31.770    6.8141
   31.785    6.8984
   31.800    6.7193
   31.815    7.0563
   31.830    6.7299
   31.845    6.5824
   31.860    6.6561
   31.875    6.6561
   31.890    6.4139
   31.905    6.5403
   31.920    6.4666
   31.935    6.8668
   31.950    6.7509
   31.965    6.8036
   31.980    6.7720
   31.995    6.4560
   32.010    6.2033
   32.025    6.1611
   32.040    6.5508
   32.055    6.8668
   32.070    6.4139
   32.085    6.9300
   32.100    6.4350
   32.115    6.3191
   32.130    6.2454
   32.145    6.9510
   32.160    6.8773
   32.175    6.8246
   32.190    6.8141
   32.205    6.8141
   32.220    6.3191
   32.235    6.3296
   32.250    6.6035
   32.265    6.2243
   32.280    6.2454
   32.295    6.4034
   32.310    5.9400
   32.325    6.3507
   32.340    6.2454
   32.355    6.3928
   32.370    6.5087
   32.385    6.7299
   32.400    6.4139
   32.415    6.2875
   32.430    6.3823
   32.445    6.2981
   32.460    6.4560
   32.475    6.6983
   32.490    6.3718
   32.505    6.4455
   32.520    6.3507
   32.535    6.5087
   32.550    6.4666
   32.565    6.3612
   32.580    6.3191
   32.595    6.7615
   32.610    6.2981
   32.625    6.1717
   32.640    6.3718
   32.655    6.4771
   32.670    5.8347
   32.685    6.4350
   32.700    6.6140
   32.715    6.5929
   32.730    6.5613
   32.745    6.4876
   32.760    6.6877
   32.775    6.2033
   32.790    6.5403
   32.805    6.1822
   32.820    6.4244
   32.835    6.2875
   32.850    6.3928
   32.865    6.6140
   32.880    6.5929
   32.895    6.4139
   32.910    6.6140
   32.925    6.2875
   32.940    6.1822
   32.955    6.3928
   32.970    6.7088
   32.985    6.5719
   33.000    6.2349
   33.015    6.3402
   33.030    6.0348
   33.045    6.7404
   33.060    6.2454
   33.075    6.4771
   33.090    6.2559
   33.105    6.6140
   33.120    6.5719
   33.135    6.6983
   33.150    6.6456
   33.165    6.3928
   33.180    6.0558
   33.195    6.1506
   33.210    6.0453
   33.225    6.4455
   33.240    6.3191
   33.255    6.1717
   33.270    6.4982
   33.285    6.4034
   33.300    6.6035
   33.315    6.4350
   33.330    6.3191
   33.345    6.4350
   33.360    6.5403
   33.375    6.8036
   33.390    6.6035
   33.405    5.9821
   33.420    6.2454
   33.435    6.3507
   33.450    6.4455
   33.465    6.3612
   33.480    6.4455
   33.495    6.2559
   33.510    6.1295
   33.525    6.3612
   33.540    6.4771
   33.555    5.9926
   33.570    5.9821
   33.585    6.5508
   33.600    6.0769
   33.615    6.0137
   33.630    6.2454
   33.645    6.2243
   33.660    6.3086
   33.675    6.0348
   33.690    6.4666
   33.705    6.5403
   33.720    6.3612
   33.735    6.2033
   33.750    6.1611
   33.765    6.4455
   33.780    6.1611
   33.795    6.2243
   33.810    6.4139
   33.825    6.2349
   33.840    6.4560
   33.855    6.2770
   33.870    6.4034
   33.885    6.3823
   33.900    6.1717
   33.915    6.1506
   33.930    6.3296
   33.945    6.4455
   33.960    6.4455
   33.975    6.2349
   33.990    6.1927
   34.005    6.6456
   34.020    6.9932
   34.035    6.8141
   34.050    6.7509
   34.065    6.4771
   34.080    6.7088
   34.095    6.2033
   34.110    6.0453
   34.125    6.4455
   34.140    6.7088
   34.155    6.2981
   34.170    5.9189
   34.185    6.4350
   34.200    6.3402
   34.215    6.5929
   34.230    6.5192
   34.245    6.4560
   34.260    6.2770
   34.275    6.3612
   34.290    6.4139
   34.305    6.0769
   34.320    6.2138
   34.335    6.3823
   34.350    6.4455
   34.365    6.1717
   34.380    6.0558
   34.395    6.1401
   34.410    6.1401
   34.425    6.2243
   34.440    6.4666
   34.455    6.3928
   34.470    6.2981
   34.485    6.3296
   34.500    6.3086
   34.515    6.1190
   34.530    6.0558
   34.545    6.3402
   34.560    6.3191
   34.575    6.1717
   34.590    6.3823
   34.605    6.2770
   34.620    5.8662
   34.635    6.4666
   34.650    6.3402
   34.665    6.2875
   34.680    6.4350
   34.695    6.6456
   34.710    6.7930
   34.725    5.9926
   34.740    6.1506
   34.755    6.0664
   34.770    5.8768
   34.785    6.1822
   34.800    6.3612
   34.815    6.2033
   34.830    5.7820
   34.845    6.2454
   34.860    6.2349
   34.875    6.2138
   34.890    6.5298
   34.905    6.4034
   34.920    6.3507
   34.935    5.7925
   34.950    6.7404
   34.965    6.6140
   34.980    6.1927
   34.995    6.3823
   35.010    6.6456
   35.025    6.4455
   35.040    6.1927
   35.055    6.3402
   35.070    5.9610
   35.085    6.3718
   35.100    6.1611
   35.115    6.1927
   35.130    6.4876
   35.145    6.0769
   35.160    6.1611
   35.175    6.2349
   35.190    6.3612
   35.205    6.2138
   35.220    6.6351
   35.235    6.4034
   35.250    6.2981
   35.265    6.5298
   35.280    6.1611
   35.295    5.9716
   35.310    6.2349
   35.325    6.1506
   35.340    6.3086
   35.355    6.4455
   35.370    6.6035
   35.385    6.4139
   35.400    6.1190
   35.415    6.4034
   35.430    6.4139
   35.445    6.0874
   35.460    6.0558
   35.475    6.0979
   35.490    6.5192
   35.505    6.6456
   35.520    6.2138
   35.535    6.0558
   35.550    5.8347
   35.565    6.2770
   35.580    6.3507
   35.595    6.3718
   35.610    6.2665
   35.625    5.8662
   35.640    6.1190
   35.655    6.4666
   35.670    6.2349
   35.685    6.3718
   35.700    6.2138
   35.715    6.0979
   35.730    6.0664
   35.745    6.0137
   35.760    6.0032
   35.775    6.0979
   35.790    6.2981
   35.805    6.3928
   35.820    6.4560
   35.835    6.2243
   35.850    6.3402
   35.865    6.3402
   35.880    5.9189
   35.895    5.6977
   35.910    6.1085
   35.925    6.4034
   35.940    6.2138
   35.955    6.4350
   35.970    6.2243
   35.985    6.2138
   36.000    6.3507
   36.015    6.2665
   36.030    6.1717
   36.045    6.2454
   36.060    6.4350
   36.075    6.1927
   36.090    6.2349
   36.105    6.4139
   36.120    5.8452
   36.135    5.8662
   36.150    5.8136
   36.165    6.0453
   36.180    6.2981
   36.195    6.0453
   36.210    5.8662
   36.225    6.4244
   36.240    6.2454
   36.255    6.0874
   36.270    6.2665
   36.285    5.8347
   36.300    5.8241
   36.315    6.1190
   36.330    6.3296
   36.345    6.2770
   36.360    6.2559
   36.375    5.8978
   36.390    5.9294
   36.405    6.4560
   36.420    6.0242
   36.435    5.8768
   36.450    6.3296
   36.465    6.5403
   36.480    6.1822
   36.495    6.1927
   36.510    6.4034
   36.525    6.1611
   36.540    6.2349
   36.555    6.4350
   36.570    6.1611
   36.585    6.1927
   36.600    6.0348
   36.615    6.0032
   36.630    6.0137
   36.645    6.0348
   36.660    6.2349
   36.675    6.2559
   36.690    6.0348
   36.705    6.2454
   36.720    6.0664
   36.735    5.8136
   36.750    6.0453
   36.765    6.0348
   36.780    5.9400
   36.795    6.0453
   36.810    5.9505
   36.825    5.9926
   36.840    6.1506
   36.855    6.1822
   36.870    6.0242
   36.885    5.8873
   36.900    6.3612
   36.915    6.0558
   36.930    5.5503
   36.945    6.4139
   36.960    6.1927
   36.975    5.9610
   36.990    5.6872
   37.005    5.7820
   37.020    5.8031
   37.035    5.8662
   37.050    5.6029
   37.065    5.7293
   37.080    6.2875
   37.095    6.0664
   37.110    6.0769
   37.125    5.6135
   37.140    6.4034
   37.155    6.3823
   37.170    6.2981
   37.185    6.1927
   37.200    6.0242
   37.215    6.0769
   37.230    6.2665
   37.245    5.9716
   37.260    6.0664
   37.275    5.9505
   37.290    6.0453
   37.305    6.2559
   37.320    6.0769
   37.335    6.1295
   37.350    6.2138
   37.365    6.0874
   37.380    6.3823
   37.395    6.2875
   37.410    6.4666
   37.425    6.1717
   37.440    6.0769
   37.455    6.0032
   37.470    5.9189
   37.485    6.0242
   37.500    5.9294
   37.515    5.6135
   37.530    5.9926
   37.545    5.9821
   37.560    6.2665
   37.575    5.8978
   37.590    5.9716
   37.605    6.1190
   37.620    6.0664
   37.635    6.1506
   37.650    5.9189
   37.665    6.1506
   37.680    5.9189
   37.695    5.8768
   37.710    5.8978
   37.725    5.8662
   37.740    5.8557
   37.755    6.1190
   37.770    6.2138
   37.785    6.1506
   37.800    6.1085
   37.815    6.0874
   37.830    6.0874
   37.845    6.3507
   37.860    6.1822
   37.875    6.4455
   37.890    6.1611
   37.905    5.8136
   37.920    6.1506
   37.935    6.0242
   37.950    6.3612
   37.965    5.9084
   37.980    5.6977
   37.995    5.8136
   38.010    5.8452
   38.025    5.9084
   38.040    5.9189
   38.055    5.6240
   38.070    5.8557
   38.085    6.2349
   38.100    5.9400
   38.115    5.9610
   38.130    6.0032
   38.145    6.2665
   38.160    5.9294
   38.175    5.9926
   38.190    6.5719
   38.205    5.8557
   38.220    5.7820
   38.235    5.6661
   38.250    5.9821
   38.265    6.2875
   38.280    6.2243
   38.295    6.0558
   38.310    6.0664
   38.325    5.9926
   38.340    5.8662
   38.355    5.9926
   38.370    5.9716
   38.385    6.2454
   38.400    6.0979
   38.415    5.9400
   38.430    6.3191
   38.445    5.7293
   38.460    5.9926
   38.475    6.1927
   38.490    6.4560
   38.505    6.1927
   38.520    6.1822
   38.535    6.1401
   38.550    5.7399
   38.565    6.2875
   38.580    5.9926
   38.595    6.0453
   38.610    5.9610
   38.625    6.0242
   38.640    6.5613
   38.655    6.4350
   38.670    6.1190
   38.685    5.9926
   38.700    6.2349
   38.715    6.0874
   38.730    5.9926
   38.745    6.2033
   38.760    6.2559
   38.775    6.0032
   38.790    5.8978
   38.805    6.0348
   38.820    5.9400
   38.835    5.6029
   38.850    6.0348
   38.865    5.9926
   38.880    6.2138
   38.895    5.9505
   38.910    6.0874
   38.925    6.2243
   38.940    6.0242
   38.955    5.8978
   38.970    5.7504
   38.985    6.2559
   39.000    5.7293
   39.015    6.4034
   39.030    6.4139
   39.045    6.1085
   39.060    6.2138
   39.075    5.8347
   39.090    5.9189
   39.105    5.9610
   39.120    6.1506
   39.135    5.8978
   39.150    5.6451
   39.165    5.9926
   39.180    6.3823
   39.195    5.9505
   39.210    6.0979
   39.225    6.1295
   39.240    5.7504
   39.255    5.9189
   39.270    6.5192
   39.285    6.1927
   39.300    6.1295
   39.315    5.9505
   39.330    5.8031
   39.345    5.6556
   39.360    6.2349
   39.375    5.7083
   39.390    6.0664
   39.405    6.1295
   39.420    5.6872
   39.435    5.8873
   39.450    6.0979
   39.465    6.1822
   39.480    6.1822
   39.495    5.9294
   39.510    5.6977
   39.525    5.9926
   39.540    5.8978
   39.555    6.0242
   39.570    6.1085
   39.585    5.8136
   39.600    6.0348
   39.615    6.0348
   39.630    6.4244
   39.645    6.0664
   39.660    6.0137
   39.675    6.0769
   39.690    5.9926
   39.705    5.9084
   39.720    6.6245
   39.735    6.4139
   39.750    6.3402
   39.765    6.0348
   39.780    6.0769
   39.795    5.8873
   39.810    5.9294
   39.825    6.1085
   39.840    6.5719
   39.855    5.9926
   39.870    6.1085
   39.885    5.8557
   39.900    5.9926
   39.915    5.8136
   39.930    5.8978
   39.945    5.8347
   39.960    6.0453
   39.975    6.1190
   39.990    5.7188
