    1.500   19.5893
    1.515   19.7472
    1.530   19.4313
    1.545   19.2628
    1.560   19.5261
    1.575   18.9152
    1.590   18.3254
    1.605   18.5887
    1.620   17.9568
    1.635   18.4939
    1.650   18.5255
    1.665   17.7567
    1.680   17.9147
    1.695   17.9568
    1.710   18.3781
    1.725   17.6935
    1.740   17.2512
    1.755   17.3986
    1.770   17.8304
    1.785   17.6198
    1.800   17.0405
    1.815   17.2617
    1.830   17.1248
    1.845   17.5882
    1.860   17.5777
    1.875   17.3460
    1.890   18.0727
    1.905   17.4513
    1.920   17.2617
    1.935   16.9668
    1.950   17.3986
    1.965   17.5250
    1.980   17.2828
    1.995   17.0932
    2.010   16.7035
    2.025   17.0511
    2.040   17.7146
    2.055   17.3986
    2.070   17.6619
    2.085   17.6514
    2.100   17.9042
    2.115   17.9042
    2.130   17.2512
    2.145   17.4092
    2.160   17.9358
    2.175   17.7146
    2.190   18.1148
    2.205   17.4092
    2.220   17.6935
    2.235   18.3570
    2.250   18.4834
    2.265   17.9252
    2.280   17.9884
    2.295   18.6098
    2.310   19.0627
    2.325   19.1785
    2.340   18.6309
    2.355   19.4207
    2.370   19.4313
    2.385   19.9684
    2.400   19.9895
    2.415   20.6424
    2.430   21.0743
    2.445   21.3375
    2.460   20.6951
    2.475   21.6746
    2.490   22.4434
    2.505   22.3065
    2.520   23.0226
    2.535   22.9910
    2.550   22.9910
    2.565   23.1174
    2.580   24.2654
    2.595   23.6967
    2.610   24.0126
    2.625   24.7709
    2.640   24.6340
    2.655   24.9184
    2.670   25.0658
    2.685   26.6035
    2.700   27.1827
    2.715   28.4360
    2.730   29.2048
    2.745   29.4997
    2.760   29.7946
    2.775   30.3107
    2.790   30.7004
    2.805   30.8478
    2.820   32.2591
    2.835   32.2591
    2.850   32.8067
    2.865   33.6388
    2.880   35.3765
    2.895   37.4302
    2.910   36.2085
    2.925   37.3249
    2.940   38.2728
    2.955   39.7578
    2.970   41.1901
    2.985   42.7172
    3.000   43.0858
    3.015   44.2759
    3.030   46.6245
    3.045   48.0042
    3.060   49.0679
    3.075   51.2691
    3.090   52.9963
    3.105   53.9337
    3.120   55.2923
    3.135   56.9036
    3.150   59.4313
    3.165   61.5061
    3.180   63.4229
    3.195   67.1511
    3.210   68.9310
    3.225   71.0269
    3.240   74.1759
    3.255   77.7357
    3.270   81.5587
    3.285   85.3818
    3.300   89.2154
    3.315   94.9658
    3.330   97.9358
    3.345  105.8031
    3.360  111.2480
    3.375  118.9784
    3.390  126.7615
    3.405  136.5561
    3.420  147.0985
    3.435  157.9568
    3.450  170.6898
    3.465  179.9263
    3.480  181.6640
    3.495  175.5872
    3.510  166.4455
    3.525  147.9726
    3.540  122.9489
    3.555  101.1374
    3.570   86.9826
    3.585   75.9979
    3.600   68.8994
    3.615   65.6346
    3.630   63.3070
    3.645   64.3181
    3.660   64.3602
    3.675   66.1085
    3.690   67.0248
    3.705   69.9315
    3.720   73.1754
    3.735   75.6609
    3.750   78.9784
    3.765   82.2960
    3.780   88.4676
    3.795   93.7546
    3.810   99.7894
    3.825  106.2243
    3.840  112.3433
    3.855  122.8541
    3.870  132.0379
    3.885  140.0421
    3.900  145.4344
    3.915  143.6546
    3.930  135.8610
    3.945  123.6862
    3.960  106.8141
    3.975   89.6261
    3.990   77.1669
    4.005   67.3934
    4.020   55.9979
    4.035   48.0674
    4.050   40.5477
    4.065   34.3233
    4.080   29.9737
    4.095   26.0874
    4.110   22.5487
    4.125   19.8420
    4.140   17.4829
    4.155   16.3770
    4.170   15.1343
    4.185   14.1127
    4.200   13.0279
    4.215   12.5645
    4.230   12.0590
    4.245   11.4797
    4.260   10.8268
    4.275    9.8157
    4.290    9.6998
    4.305    9.8157
    4.320    9.3312
    4.335    9.0679
    4.350    9.0258
    4.365    8.8678
    4.380    8.8573
    4.395    8.6361
    4.410    8.6467
    4.425    8.4360
    4.440    7.9726
    4.455    7.9305
    4.470    7.8989
    4.485    7.7620
    4.500    7.7830
    4.515    7.9094
    4.530    7.7620
    4.545    7.5935
    4.560    7.6672
    4.575    7.8252
    4.590    7.8041
    4.605    7.7304
    4.620    7.6356
    4.635    8.1622
    4.650    7.6567
    4.665    7.2670
    4.680    7.3934
    4.695    7.6040
    4.710    7.6461
    4.725    7.6883
    4.740    7.2249
    4.755    7.0774
    4.770    7.6672
    4.785    7.6777
    4.800    7.4776
    4.815    7.6883
    4.830    7.5303
    4.845    7.2880
    4.860    7.6145
    4.875    7.7620
    4.890    7.5408
    4.905    7.6251
    4.920    7.2986
    4.935    7.4776
    4.950    7.2670
    4.965    7.5513
    4.980    7.5619
    4.995    7.5092
    5.010    8.0674
    5.025    7.6145
    5.040    7.8146
    5.055    7.7830
    5.070    7.8778
    5.085    8.2780
    5.100    8.0674
    5.115    8.0569
    5.130    8.2359
    5.145    8.2464
    5.160    8.3834
    5.175    9.2575
    5.190    9.4050
    5.205    9.0785
    5.220    8.7941
    5.235    9.0890
    5.250    8.9942
    5.265    9.0469
    5.280    9.8157
    5.295    9.8999
    5.310   10.0474
    5.325    9.9947
    5.340   10.1422
    5.355   10.1316
    5.370   10.2686
    5.385   10.8583
    5.400   11.3639
    5.415   11.8378
    5.430   12.7646
    5.445   13.1438
    5.460   14.2707
    5.475   15.3133
    5.490   16.9458
    5.505   18.8310
    5.520   19.9895
    5.535   19.6630
    5.550   18.1148
    5.565   15.9768
    5.580   11.1954
    5.595    8.3307
    5.610    6.6561
    5.625    6.4139
    5.640    6.5613
    5.655    6.1611
    5.670    6.3507
    5.685    5.8978
    5.700    6.1085
    5.715    6.4139
    5.730    6.4244
    5.745    6.7825
    5.760    6.2981
    5.775    6.4034
    5.790    6.4982
    5.805    6.7930
    5.820    6.1085
    5.835    6.2454
    5.850    6.1190
    5.865    5.9716
    5.880    6.0558
    5.895    6.2243
    5.910    6.4034
    5.925    6.2875
    5.940    6.1085
    5.955    6.2559
    5.970    5.9821
    5.985    6.0242
    6.000    6.3296
    6.015    6.6351
    6.030    6.4350
    6.045    6.6035
    6.060    6.5087
    6.075    6.3296
    6.090    6.8457
    6.105    6.3823
    6.120    6.4771
    6.135    6.5298
    6.150    6.4034
    6.165    6.5508
    6.180    6.7088
    6.195    6.8773
    6.210    6.5508
    6.225    6.8036
    6.240    6.9932
    6.255    6.8036
    6.270    7.0669
    6.285    7.4039
    6.300    7.4144
    6.315    7.5829
    6.330    7.3196
    6.345    7.4776
    6.360    7.6777
    6.375    7.6461
    6.390    7.9831
    6.405    7.9094
    6.420    7.8462
    6.435    8.0885
    6.450    8.4571
    6.465    7.8884
    6.480    8.6888
    6.495    8.5519
    6.510    8.8889
    6.525    9.2259
    6.540    9.4787
    6.555    9.7314
    6.570    9.3944
    6.585   10.5740
    6.600   10.4687
    6.615   10.7004
    6.630   11.2691
    6.645   11.2480
    6.660   11.5534
    6.675   12.5118
    6.690   13.1122
    6.705   13.5229
    6.720   14.1864
    6.735   15.4818
    6.750   15.9558
    6.765   17.0195
    6.780   18.0305
    6.795   18.5782
    6.810   18.5150
    6.825   18.1885
    6.840   18.5045
    6.855   19.5787
    6.870   21.1796
    6.885   23.4123
    6.900   24.4128
    6.915   27.0879
    6.930   29.6682
    6.945   31.1006
    6.960   32.2801
    6.975   33.8810
    6.990   32.0169
    7.005   30.2791
    7.020   26.8036
    7.035   22.7278
    7.050   18.7888
    7.065   16.0506
    7.080   12.6277
    7.095   10.8268
    7.110   10.2370
    7.125    9.4050
    7.140    8.6151
    7.155    8.2149
    7.170    8.7204
    7.185    8.2254
    7.200    8.2570
    7.215    8.0358
    7.230    8.0147
    7.245    7.7304
    7.260    8.3518
    7.275    8.2254
    7.290    8.0674
    7.305    8.0463
    7.320    8.2991
    7.335    8.4044
    7.350    7.9726
    7.365    8.5835
    7.380    9.0153
    7.395    8.7625
    7.410    8.9521
    7.425    9.0469
    7.440    9.0890
    7.455    8.9837
    7.470    9.6472
    7.485   10.1948
    7.500   10.2580
    7.515   10.7846
    7.530   10.5845
    7.545   11.0058
    7.560   11.5956
    7.575   11.5324
    7.590   12.3644
    7.605   12.8489
    7.620   13.9863
    7.635   14.1969
    7.650   15.3870
    7.665   15.8820
    7.680   16.7667
    7.695   17.5566
    7.710   18.4623
    7.725   20.3791
    7.740   21.1690
    7.755   22.7804
    7.770   24.0653
    7.785   25.8873
    7.800   27.0879
    7.815   28.2043
    7.830   27.9937
    7.845   28.0358
    7.860   27.2880
    7.875   26.0453
    7.890   24.2338
    7.905   22.9489
    7.920   21.8747
    7.935   20.3370
    7.950   19.3260
    7.965   17.9989
    7.980   16.5456
    7.995   14.8815
    8.010   14.5024
    8.025   13.5966
    8.040   11.5429
    8.055   11.6166
    8.070   11.1006
    8.085   10.2686
    8.100    9.6367
    8.115    8.8152
    8.130    8.6677
    8.145    8.2254
    8.160    7.7514
    8.175    7.5724
    8.190    7.6145
    8.205    7.4671
    8.220    7.4776
    8.235    7.1933
    8.250    7.0037
    8.265    6.9300
    8.280    6.7193
    8.295    6.4876
    8.310    6.8562
    8.325    6.9510
    8.340    6.6140
    8.355    6.8562
    8.370    6.3823
    8.385    6.4139
    8.400    6.6877
    8.415    6.7299
    8.430    6.4982
    8.445    6.8141
    8.460    6.3612
    8.475    6.1506
    8.490    6.6035
    8.505    6.2454
    8.520    6.0137
    8.535    6.2243
    8.550    6.2243
    8.565    6.0137
    8.580    6.2138
    8.595    6.5929
    8.610    6.3823
    8.625    6.1295
    8.640    6.2559
    8.655    6.2243
    8.670    6.3928
    8.685    6.2138
    8.700    6.3191
    8.715    6.6140
    8.730    6.1506
    8.745    6.4771
    8.760    6.4666
    8.775    6.3507
    8.790    6.3191
    8.805    5.9926
    8.820    5.8136
    8.835    5.8031
    8.850    5.7504
    8.865    5.9189
    8.880    5.7188
    8.895    5.8768
    8.910    5.9926
    8.925    6.4139
    8.940    5.7083
    8.955    5.8768
    8.970    6.0558
    8.985    5.6451
    9.000    5.9505
    9.015    6.1085
    9.030    5.6135
    9.045    5.8241
    9.060    5.9610
    9.075    5.9926
    9.090    5.9926
    9.105    6.2770
    9.120    5.9294
    9.135    5.7504
    9.150    5.5292
    9.165    6.2138
    9.180    6.1295
    9.195    5.7504
    9.210    6.1190
    9.225    6.2559
    9.240    6.6772
    9.255    5.9084
    9.270    6.0032
    9.285    6.3402
    9.300    6.5403
    9.315    6.2138
    9.330    6.3191
    9.345    6.8352
    9.360    6.6772
    9.375    6.6772
    9.390    6.9300
    9.405    6.7615
    9.420    7.1406
    9.435    6.8984
    9.450    7.3196
    9.465    7.6672
    9.480    7.9410
    9.495    8.3518
    9.510    9.6472
    9.525    9.6472
    9.540   10.1948
    9.555   11.0058
    9.570   12.3960
    9.585   12.1854
    9.600   11.7641
    9.615   11.0900
    9.630    9.6051
    9.645    7.7409
    9.660    6.5087
    9.675    6.4139
    9.690    6.1927
    9.705    6.1401
    9.720    5.8031
    9.735    5.9610
    9.750    6.1085
    9.765    6.3928
    9.780    6.2033
    9.795    6.0032
    9.810    6.1822
    9.825    6.0032
    9.840    6.2138
    9.855    6.1611
    9.870    6.1401
    9.885    5.7925
    9.900    5.7925
    9.915    6.0242
    9.930    6.0137
    9.945    5.9926
    9.960    6.0979
    9.975    5.8662
    9.990    5.8873
   10.005    5.9610
   10.020    6.0874
   10.035    6.3507
   10.050    6.5298
   10.065    6.4455
   10.080    5.8452
   10.095    6.1085
   10.110    6.2454
   10.125    6.2770
   10.140    6.3296
   10.155    6.3402
   10.170    6.3823
   10.185    6.2033
   10.200    6.4455
   10.215    6.5719
   10.230    6.5929
   10.245    6.3928
   10.260    6.4876
   10.275    6.9405
   10.290    6.9405
   10.305    7.1090
   10.320    6.9826
   10.335    7.5829
   10.350    7.9621
   10.365    7.7409
   10.380    7.3723
   10.395    7.4144
   10.410    7.7830
   10.425    7.2038
   10.440    6.4876
   10.455    6.9089
   10.470    6.9510
   10.485    6.6140
   10.500    7.0774
   10.515    6.7509
   10.530    6.8773
   10.545    6.7615
   10.560    6.4139
   10.575    6.3507
   10.590    6.6667
   10.605    6.4982
   10.620    6.0242
   10.635    6.4666
   10.650    6.1611
   10.665    6.2559
   10.680    6.0979
   10.695    6.3718
   10.710    6.4455
   10.725    6.2875
   10.740    6.1295
   10.755    6.2138
   10.770    6.2138
   10.785    6.1295
   10.800    6.2665
   10.815    6.5508
   10.830    6.4876
   10.845    6.4244
   10.860    6.4455
   10.875    6.5298
   10.890    6.6772
   10.905    6.6561
   10.920    6.8457
   10.935    6.8352
   10.950    6.3612
   10.965    6.5719
   10.980    7.2670
   10.995    7.4355
   11.010    7.1511
   11.025    7.4776
   11.040    7.7830
   11.055    8.2886
   11.070    8.5097
   11.085    8.0358
   11.100    7.5408
   11.115    7.8041
   11.130    6.6877
   11.145    6.1717
   11.160    6.0979
   11.175    5.8662
   11.190    6.1085
   11.205    5.7820
   11.220    6.1506
   11.235    6.2243
   11.250    6.1190
   11.265    6.3086
   11.280    6.2981
   11.295    6.4350
   11.310    6.5192
   11.325    6.1927
   11.340    6.5087
   11.355    7.0248
   11.370    6.6877
   11.385    6.1085
   11.400    6.2243
   11.415    6.7509
   11.430    6.9405
   11.445    6.6035
   11.460    6.5824
   11.475    6.7509
   11.490    6.7825
   11.505    6.6035
   11.520    6.8036
   11.535    7.4355
   11.550    6.8562
   11.565    7.0879
   11.580    7.2986
   11.595    7.2565
   11.610    7.5724
   11.625    7.4460
   11.640    8.2464
   11.655    7.9621
   11.670    8.1622
   11.685    8.4255
   11.700    8.6677
   11.715    9.0153
   11.730    9.2154
   11.745    9.2154
   11.760    9.4155
   11.775    9.2786
   11.790    8.5519
   11.805    7.9621
   11.820    8.1622
   11.835    7.3934
   11.850    7.4776
   11.865    7.6567
   11.880    7.6672
   11.895    7.9621
   11.910    7.4987
   11.925    7.4776
   11.940    7.0879
   11.955    6.7825
   11.970    6.9194
   11.985    7.0142
   12.000    6.8984
   12.015    6.7615
   12.030    6.8036
   12.045    6.4666
   12.060    6.4455
   12.075    5.8873
   12.090    6.5192
   12.105    6.5929
   12.120    6.5719
   12.135    5.9610
   12.150    6.2665
   12.165    6.2138
   12.180    6.0348
   12.195    5.6661
   12.210    5.9189
   12.225    6.1190
   12.240    5.8978
   12.255    6.2243
   12.270    6.0137
   12.285    5.9821
   12.300    6.2665
   12.315    5.9926
   12.330    6.4139
   12.345    6.4666
   12.360    6.2981
   12.375    6.2981
   12.390    6.2033
   12.405    6.3402
   12.420    6.0348
   12.435    6.1822
   12.450    6.0137
   12.465    6.0453
   12.480    6.2033
   12.495    5.8978
   12.510    5.9926
   12.525    6.0769
   12.540    6.0453
   12.555    6.1611
   12.570    6.0769
   12.585    6.1506
   12.600    6.1927
   12.615    5.8557
   12.630    6.1717
   12.645    6.2770
   12.660    6.4666
   12.675    6.4771
   12.690    6.1401
   12.705    6.0558
   12.720    5.8873
   12.735    6.1717
   12.750    6.2981
   12.765    6.4455
   12.780    6.1295
   12.795    6.1295
   12.810    6.3296
   12.825    6.4666
   12.840    6.6140
   12.855    6.6035
   12.870    6.4139
   12.885    6.6035
   12.900    6.5613
   12.915    6.4876
   12.930    6.8878
   12.945    6.8246
   12.960    7.1195
   12.975    7.0985
   12.990    7.3302
   13.005    7.1933
   13.020    6.6667
   13.035    6.6140
   13.050    6.3296
   13.065    6.8141
   13.080    6.2770
   13.095    6.5508
   13.110    6.4876
   13.125    6.3928
   13.140    6.1611
   13.155    6.3928
   13.170    6.4350
   13.185    6.2454
   13.200    5.8662
   13.215    6.5719
   13.230    6.5298
   13.245    6.3086
   13.260    6.1401
   13.275    6.4560
   13.290    6.6140
   13.305    6.6983
   13.320    6.4771
   13.335    6.6351
   13.350    6.1190
   13.365    6.1085
   13.380    5.9716
   13.395    6.4771
   13.410    6.2349
   13.425    6.2981
   13.440    6.5087
   13.455    6.1822
   13.470    6.0453
   13.485    6.1401
   13.500    6.4244
   13.515    6.3402
   13.530    6.5403
   13.545    6.0242
   13.560    6.0032
   13.575    6.1927
   13.590    6.2243
   13.605    6.3612
   13.620    5.9400
   13.635    5.9926
   13.650    5.8031
   13.665    5.8557
   13.680    6.1085
   13.695    6.0979
   13.710    6.2770
   13.725    6.1295
   13.740    5.5082
   13.755    5.6661
   13.770    5.7083
   13.785    5.8873
   13.800    5.8452
   13.815    5.9084
   13.830    6.1506
   13.845    6.0558
   13.860    5.9400
   13.875    5.7715
   13.890    6.0874
   13.905    5.8557
   13.920    5.5819
   13.935    5.8136
   13.950    5.8136
   13.965    5.6977
   13.980    5.8136
   13.995    6.0242
   14.010    6.0558
   14.025    6.1927
   14.040    6.3086
   14.055    6.0979
   14.070    6.0453
   14.085    6.2243
   14.100    6.8878
   14.115    6.6351
   14.130    6.8773
   14.145    6.4666
   14.160    6.4244
   14.175    5.9821
   14.190    5.9294
   14.205    5.8873
   14.220    5.6451
   14.235    5.8136
   14.250    6.1190
   14.265    5.6556
   14.280    5.3186
   14.295    5.3818
   14.310    5.6556
   14.325    5.9505
   14.340    5.6661
   14.355    5.7504
   14.370    5.6029
   14.385    5.7715
   14.400    5.8347
   14.415    6.1295
   14.430    5.7925
   14.445    5.7504
   14.460    5.4766
   14.475    5.5819
   14.490    5.8136
   14.505    5.9189
   14.520    6.0242
   14.535    5.8241
   14.550    5.7820
   14.565    5.9294
   14.580    5.8768
   14.595    5.5398
   14.610    5.5398
   14.625    5.9926
   14.640    5.9400
   14.655    5.8136
   14.670    5.4450
   14.685    5.4555
   14.700    5.7715
   14.715    5.6661
   14.730    5.7715
   14.745    5.7925
   14.760    5.8978
   14.775    5.7083
   14.790    5.5714
   14.805    6.0769
   14.820    5.8662
   14.835    6.0979
   14.850    6.1717
   14.865    5.9294
   14.880    5.7925
   14.895    5.9716
   14.910    5.9821
   14.925    6.2033
   14.940    6.2138
   14.955    6.1717
   14.970    5.8557
   14.985    5.8241
   15.000    5.7925
   15.015    5.9926
   15.030    6.6245
   15.045    6.4034
   15.060    6.3296
   15.075    6.1190
   15.090    5.8031
   15.105    6.2981
   15.120    6.1295
   15.135    6.0032
   15.150    6.2981
   15.165    5.9821
   15.180    6.1611
   15.195    6.3402
   15.210    6.2981
   15.225    6.2454
   15.240    6.3612
   15.255    6.0979
   15.270    5.9821
   15.285    6.1401
   15.300    6.3086
   15.315    6.0979
   15.330    6.1717
   15.345    6.3718
   15.360    5.9505
   15.375    6.3191
   15.390    6.3507
   15.405    6.6983
   15.420    6.2770
   15.435    6.0242
   15.450    5.5608
   15.465    5.8452
   15.480    6.1717
   15.495    6.5192
   15.510    6.5508
   15.525    6.2243
   15.540    6.0769
   15.555    6.2138
   15.570    6.1506
   15.585    6.0242
   15.600    6.2875
   15.615    6.4771
   15.630    6.3296
   15.645    6.5508
   15.660    6.3928
   15.675    6.2033
   15.690    6.5403
   15.705    6.4666
   15.720    6.2243
   15.735    6.3086
   15.750    6.1927
   15.765    6.2033
   15.780    6.2454
   15.795    6.1927
   15.810    5.9610
   15.825    6.2770
   15.840    6.1085
   15.855    6.2138
   15.870    6.4139
   15.885    5.8873
   15.900    6.0664
   15.915    6.0242
   15.930    5.7715
   15.945    6.0453
   15.960    6.0348
   15.975    6.1190
   15.990    6.2138
   16.005    6.1401
   16.020    6.2349
   16.035    6.0979
   16.050    6.0558
   16.065    6.3402
   16.080    6.0348
   16.095    6.1822
   16.110    6.4666
   16.125    6.1822
   16.140    5.7925
   16.155    6.2349
   16.170    5.9716
   16.185    6.0979
   16.200    6.1822
   16.215    6.3086
   16.230    5.6872
   16.245    5.8136
   16.260    5.6977
   16.275    5.7504
   16.290    5.6556
   16.305    5.6872
   16.320    5.4871
   16.335    5.7715
   16.350    5.4555
   16.365    5.5082
   16.380    5.5714
   16.395    5.8136
   16.410    5.3818
   16.425    5.8452
   16.440    5.6451
   16.455    5.4660
   16.470    5.4976
   16.485    5.6977
   16.500    5.6135
   16.515    5.7504
   16.530    5.8662
   16.545    5.4766
   16.560    5.4871
   16.575    6.0664
   16.590    6.0979
   16.605    5.6872
   16.620    5.3607
   16.635    5.4555
   16.650    5.9821
   16.665    6.3296
   16.680    5.8768
   16.695    6.0664
   16.710    5.9189
   16.725    5.6345
   16.740    5.9505
   16.755    5.8136
   16.770    5.6556
   16.785    5.4871
   16.800    5.8557
   16.815    5.9400
   16.830    5.6872
   16.845    5.7504
   16.860    5.8452
   16.875    6.0137
   16.890    5.9294
   16.905    5.9610
   16.920    5.4766
   16.935    5.7504
   16.950    5.7925
   16.965    6.2559
   16.980    6.0453
   16.995    5.8768
   17.010    5.9716
   17.025    6.2665
   17.040    5.9821
   17.055    6.3718
   17.070    6.5613
   17.085    6.5508
   17.100    6.7088
   17.115    6.8562
   17.130    6.4244
   17.145    6.0453
   17.160    6.0453
   17.175    6.1190
   17.190    6.2349
   17.205    5.6767
   17.220    5.9084
   17.235    5.7293
   17.250    5.8662
   17.265    5.8768
   17.280    5.7399
   17.295    6.0348
   17.310    6.0558
   17.325    6.0348
   17.340    6.3296
   17.355    5.9821
   17.370    5.9400
   17.385    6.3191
   17.400    6.3191
   17.415    6.1822
   17.430    6.2033
   17.445    6.0032
   17.460    6.3296
   17.475    6.4666
   17.490    6.5508
   17.505    6.2875
   17.520    6.5719
   17.535    6.4876
   17.550    6.4455
   17.565    6.7615
   17.580    6.3928
   17.595    6.2349
   17.610    6.3928
   17.625    6.3086
   17.640    6.4034
   17.655    6.1190
   17.670    5.8873
   17.685    6.3296
   17.700    5.9716
   17.715    6.5824
   17.730    6.3191
   17.745    5.7083
   17.760    5.9716
   17.775    6.1611
   17.790    6.4455
   17.805    6.1506
   17.820    6.0769
   17.835    6.4455
   17.850    6.1506
   17.865    6.3086
   17.880    6.6772
   17.895    6.2243
   17.910    6.4876
   17.925    6.5929
   17.940    6.5508
   17.955    6.5192
   17.970    6.2665
   17.985    6.1822
   18.000    6.2559
   18.015    6.3928
   18.030    6.0769
   18.045    6.4876
   18.060    6.3086
   18.075    6.0979
   18.090    6.4771
   18.105    6.1506
   18.120    6.0032
   18.135    5.7609
   18.150    5.9716
   18.165    6.1190
   18.180    5.9926
   18.195    5.7715
   18.210    6.2138
   18.225    5.7399
   18.240    6.0348
   18.255    6.0137
   18.270    5.7609
   18.285    5.6345
   18.300    6.0874
   18.315    6.0664
   18.330    6.1506
   18.345    6.0558
   18.360    6.0979
   18.375    6.3296
   18.390    5.9610
   18.405    5.9294
   18.420    6.0558
   18.435    6.3928
   18.450    6.1190
   18.465    6.0979
   18.480    6.1717
   18.495    6.4244
   18.510    6.2138
   18.525    5.7083
   18.540    5.9821
   18.555    6.0664
   18.570    5.9926
   18.585    6.1085
   18.600    5.9610
   18.615    5.8978
   18.630    5.7925
   18.645    5.7188
   18.660    5.9084
   18.675    5.6767
   18.690    5.5503
   18.705    5.8136
   18.720    6.1190
   18.735    5.9821
   18.750    5.8452
   18.765    5.9926
   18.780    5.9400
   18.795    6.0979
   18.810    5.8241
   18.825    6.3612
   18.840    6.1401
   18.855    5.8136
   18.870    6.0979
   18.885    6.3086
   18.900    5.9400
   18.915    6.0664
   18.930    6.0032
   18.945    5.7083
   18.960    5.7083
   18.975    5.8031
   18.990    6.1717
   19.005    5.9189
   19.020    6.0664
   19.035    6.2981
   19.050    5.8031
   19.065    5.7820
   19.080    6.0242
   19.095    5.7188
   19.110    5.9400
   19.125    6.1295
   19.140    6.2559
   19.155    6.0558
   19.170    6.2454
   19.185    5.7188
   19.200    5.8452
   19.215    5.6872
   19.230    5.8452
   19.245    5.6451
   19.260    6.0137
   19.275    6.2454
   19.290    6.3296
   19.305    5.8031
   19.320    6.1506
   19.335    6.3296
   19.350    6.0874
   19.365    6.1717
   19.380    6.3718
   19.395    5.6872
   19.410    6.2559
   19.425    6.2033
   19.440    6.1401
   19.455    6.4350
   19.470    6.2770
   19.485    6.0558
   19.500    6.0242
   19.515    5.8978
   19.530    5.9926
   19.545    6.2770
   19.560    6.4771
   19.575    6.4139
   19.590    6.8036
   19.605    6.6456
   19.620    6.5929
   19.635    6.4034
   19.650    6.7615
   19.665    6.7088
   19.680    7.1195
   19.695    6.7825
   19.710    6.5298
   19.725    6.5087
   19.740    6.2559
   19.755    6.2665
   19.770    6.5087
   19.785    6.7825
   19.800    6.8668
   19.815    6.5824
   19.830    6.8141
   19.845    6.7720
   19.860    6.4771
   19.875    6.8457
   19.890    6.6140
   19.905    6.8668
   19.920    6.6035
   19.935    6.4982
   19.950    6.6140
   19.965    6.8141
   19.980    6.6561
   19.995    6.8773
   20.010    6.6667
   20.025    6.7930
   20.040    6.8457
   20.055    6.5403
   20.070    7.0248
   20.085    6.9405
   20.100    6.4982
   20.115    6.6456
   20.130    6.7404
   20.145    7.0458
   20.160    6.8457
   20.175    6.6245
   20.190    6.8246
   20.205    6.6245
   20.220    6.4666
   20.235    6.7615
   20.250    7.0353
   20.265    6.8773
   20.280    6.7615
   20.295    6.9721
   20.310    7.0669
   20.325    7.0669
   20.340    7.1617
   20.355    6.7509
   20.370    6.7825
   20.385    7.0985
   20.400    7.0985
   20.415    7.6672
   20.430    7.8041
   20.445    7.6883
   20.460    7.1301
   20.475    7.1195
   20.490    6.8352
   20.505    6.3823
   20.520    6.7299
   20.535    6.7825
   20.550    6.7404
   20.565    6.7088
   20.580    6.8984
   20.595    7.1301
   20.610    6.8878
   20.625    6.9510
   20.640    6.9932
   20.655    6.6140
   20.670    6.3191
   20.685    6.6877
   20.700    6.8984
   20.715    6.8036
   20.730    6.7615
   20.745    6.4455
   20.760    6.4350
   20.775    6.6245
   20.790    6.6035
   20.805    6.6561
   20.820    6.8457
   20.835    6.9405
   20.850    6.9194
   20.865    6.4455
   20.880    6.5508
   20.895    6.7720
   20.910    6.4876
   20.925    7.2354
   20.940    7.1722
   20.955    7.0458
   20.970    7.0353
   20.985    6.7930
   21.000    6.6772
   21.015    7.0142
   21.030    7.1722
   21.045    6.9089
   21.060    7.3302
   21.075    7.3828
   21.090    7.2775
   21.105    7.3512
   21.120    7.0458
   21.135    7.3512
   21.150    7.1195
   21.165    6.9932
   21.180    7.3196
   21.195    6.8562
   21.210    6.9194
   21.225    6.8984
   21.240    6.9510
   21.255    6.7825
   21.270    7.0563
   21.285    6.8562
   21.300    7.2143
   21.315    6.8562
   21.330    6.5929
   21.345    6.9194
   21.360    6.5298
   21.375    7.1406
   21.390    6.7509
   21.405    6.9932
   21.420    6.9826
   21.435    6.9721
   21.450    7.0458
   21.465    6.7193
   21.480    6.2875
   21.495    6.5613
   21.510    7.0248
   21.525    6.9826
   21.540    6.7193
   21.555    6.4771
   21.570    6.5613
   21.585    6.9616
   21.600    6.2981
   21.615    6.6561
   21.630    6.4876
   21.645    6.7193
   21.660    6.8141
   21.675    6.6035
   21.690    6.3402
   21.705    6.5298
   21.720    6.6561
   21.735    6.6456
   21.750    6.5192
   21.765    6.6140
   21.780    6.8036
   21.795    6.7720
   21.810    6.6772
   21.825    6.7930
   21.840    6.5508
   21.855    6.7404
   21.870    6.6351
   21.885    6.5192
   21.900    6.7404
   21.915    6.9932
   21.930    6.4771
   21.945    6.6351
   21.960    6.9510
   21.975    6.6245
   21.990    6.8246
   22.005    6.6877
   22.020    6.8984
   22.035    6.7509
   22.050    6.0242
   22.065    6.2981
   22.080    6.9089
   22.095    7.0142
   22.110    6.7509
   22.125    6.7193
   22.140    6.8984
   22.155    7.1406
   22.170    7.1933
   22.185    6.7825
   22.200    7.0142
   22.215    7.0142
   22.230    7.0563
   22.245    7.3302
   22.260    7.1090
   22.275    7.1933
   22.290    7.2775
   22.305    6.7404
   22.320    6.9194
   22.335    7.5092
   22.350    6.9932
   22.365    6.6351
   22.380    7.0774
   22.395    7.1933
   22.410    7.2143
   22.425    7.3302
   22.440    7.5619
   22.455    7.6251
   22.470    7.3934
   22.485    7.7936
   22.500    7.4882
   22.515    7.1617
   22.530    7.5619
   22.545    7.7620
   22.560    7.7199
   22.575    7.9937
   22.590    7.9410
   22.605    7.9305
   22.620    7.6461
   22.635    7.6251
   22.650    7.5935
   22.665    7.6251
   22.680    7.5092
   22.695    7.3828
   22.710    7.3407
   22.725    7.2038
   22.740    7.6356
   22.755    7.2775
   22.770    7.1722
   22.785    7.6356
   22.800    7.3196
   22.815    7.3934
   22.830    7.0563
   22.845    7.0353
   22.860    7.0563
   22.875    7.6356
   22.890    7.2354
   22.905    7.3512
   22.920    7.4144
   22.935    7.4671
   22.950    7.5619
   22.965    7.0774
   22.980    6.9510
   22.995    7.0458
   23.010    6.9194
   23.025    6.8668
   23.040    6.8878
   23.055    6.9405
   23.070    6.9616
   23.085    6.9089
   23.100    6.2875
   23.115    6.7615
   23.130    6.8878
   23.145    6.8984
   23.160    6.3086
   23.175    6.6983
   23.190    6.7088
   23.205    6.9510
   23.220    6.7193
   23.235    6.8141
   23.250    6.7720
   23.265    6.6245
   23.280    6.5087
   23.295    6.6140
   23.310    6.7720
   23.325    6.5298
   23.340    6.4666
   23.355    6.2981
   23.370    6.3507
   23.385    6.7720
   23.400    6.0453
   23.415    6.0979
   23.430    6.4560
   23.445    6.4982
   23.460    6.5824
   23.475    6.4455
   23.490    6.4139
   23.505    6.3086
   23.520    6.4982
   23.535    6.3718
   23.550    6.1822
   23.565    6.2875
   23.580    6.4666
   23.595    6.2033
   23.610    6.1295
   23.625    6.2454
   23.640    6.2559
   23.655    6.4139
   23.670    6.2770
   23.685    6.0769
   23.700    6.1611
   23.715    6.6561
   23.730    6.2454
   23.745    6.2875
   23.760    6.3507
   23.775    6.4455
   23.790    6.5508
   23.805    6.2559
   23.820    6.2559
   23.835    5.9926
   23.850    6.1717
   23.865    6.6035
   23.880    6.6245
   23.895    6.4771
   23.910    6.7825
   23.925    6.4034
   23.940    6.5508
   23.955    6.4139
   23.970    6.5508
   23.985    6.3823
   24.000    6.2243
   24.015    6.5719
   24.030    6.6667
   24.045    6.6983
   24.060    6.4455
   24.075    5.9610
   24.090    6.2770
   24.105    6.2770
   24.120    6.2243
   24.135    6.1401
   24.150    5.9926
   24.165    6.2033
   24.180    6.3507
   24.195    6.2875
   24.210    6.1611
   24.225    6.6140
   24.240    6.5403
   24.255    6.6245
   24.270    6.3718
   24.285    6.2033
   24.300    6.8878
   24.315    7.0037
   24.330    6.5192
   24.345    6.3612
   24.360    6.4034
   24.375    6.6561
   24.390    6.8141
   24.405    6.3507
   24.420    6.6245
   24.435    6.4771
   24.450    6.4034
   24.465    6.4455
   24.480    6.6140
   24.495    6.4034
   24.510    6.6456
   24.525    6.3402
   24.540    6.8141
   24.555    6.5929
   24.570    6.8562
   24.585    6.9405
   24.600    6.6245
   24.615    6.8352
   24.630    6.8036
   24.645    7.0037
   24.660    6.9721
   24.675    7.1195
   24.690    6.6667
   24.705    6.7930
   24.720    6.9300
   24.735    6.9826
   24.750    6.4244
   24.765    6.6140
   24.780    6.7088
   24.795    6.6877
   24.810    6.4350
   24.825    6.2770
   24.840    6.5192
   24.855    6.4982
   24.870    6.7615
   24.885    6.5192
   24.900    6.3507
   24.915    6.4560
   24.930    6.3612
   24.945    6.2454
   24.960    6.0664
   24.975    6.4139
   24.990    6.2770
   25.005    6.5087
   25.020    6.2243
   25.035    6.2665
   25.050    6.3718
   25.065    6.0348
   25.080    6.2349
   25.095    5.7083
   25.110    5.9294
   25.125    6.2033
   25.140    6.2665
   25.155    6.1717
   25.170    6.2875
   25.185    6.5298
   25.200    6.4560
   25.215    6.3612
   25.230    6.1506
   25.245    6.1190
   25.260    5.7925
   25.275    6.0453
   25.290    6.2243
   25.305    5.7504
   25.320    6.2981
   25.335    6.2559
   25.350    5.9716
   25.365    6.0032
   25.380    6.0558
   25.395    5.9189
   25.410    5.5819
   25.425    6.0769
   25.440    6.0769
   25.455    5.6767
   25.470    5.9505
   25.485    5.9189
   25.500    6.1927
   25.515    6.3296
   25.530    5.9610
   25.545    6.0137
   25.560    6.1401
   25.575    5.9716
   25.590    6.2138
   25.605    6.0348
   25.620    5.7293
   25.635    5.8978
   25.650    6.0032
   25.665    5.9610
   25.680    5.9189
   25.695    5.5714
   25.710    6.1190
   25.725    5.9400
   25.740    6.2243
   25.755    6.1085
   25.770    6.2243
   25.785    6.4560
   25.800    5.8452
   25.815    6.1611
   25.830    6.4034
   25.845    6.5613
   25.860    6.1611
   25.875    5.9505
   25.890    6.6456
   25.905    6.0979
   25.920    6.4455
   25.935    5.6872
   25.950    5.7715
   25.965    5.6661
   25.980    5.9716
   25.995    5.5082
   26.010    5.8768
   26.025    5.9926
   26.040    5.8347
   26.055    6.0453
   26.070    6.3718
   26.085    6.3191
   26.100    6.4455
   26.115    5.8452
   26.130    5.7504
   26.145    6.0032
   26.160    6.1506
   26.175    6.1295
   26.190    5.7925
   26.205    5.8031
   26.220    5.9189
   26.235    6.0664
   26.250    5.8662
   26.265    6.1717
   26.280    5.5187
   26.295    5.9716
   26.310    6.2033
   26.325    6.3823
   26.340    5.9926
   26.355    5.6345
   26.370    6.0558
   26.385    5.5292
   26.400    5.6556
   26.415    5.9610
   26.430    5.9084
   26.445    5.7925
   26.460    6.2349
   26.475    6.1295
   26.490    5.9716
   26.505    6.0979
   26.520    5.8136
   26.535    5.8241
   26.550    6.1085
   26.565    5.8557
   26.580    5.8452
   26.595    6.0242
   26.610    5.9926
   26.625    5.9084
   26.640    6.0032
   26.655    5.9084
   26.670    6.1822
   26.685    5.8662
   26.700    5.9084
   26.715    5.8662
   26.730    6.1295
   26.745    5.8031
   26.760    5.9821
   26.775    6.0558
   26.790    5.8031
   26.805    5.5608
   26.820    5.4976
   26.835    5.5187
   26.850    5.7188
   26.865    5.6345
   26.880    5.5924
   26.895    5.8031
   26.910    5.8768
   26.925    6.0453
   26.940    6.2665
   26.955    5.7820
   26.970    5.6661
   26.985    6.2559
   27.000    6.1506
   27.015    5.9084
   27.030    5.7293
   27.045    6.0664
   27.060    6.2875
   27.075    6.2349
   27.090    6.0664
   27.105    5.6872
   27.120    6.0137
   27.135    5.8347
   27.150    6.0558
   27.165    5.6872
   27.180    5.8031
   27.195    5.8031
   27.210    5.5503
   27.225    5.7399
   27.240    5.6977
   27.255    6.0874
   27.270    6.1506
   27.285    6.2243
   27.300    5.8031
   27.315    6.1822
   27.330    5.7188
   27.345    5.4555
   27.360    5.6872
   27.375    5.6451
   27.390    5.5187
   27.405    5.8452
   27.420    5.9294
   27.435    5.9400
   27.450    5.8031
   27.465    6.1401
   27.480    5.9189
   27.495    5.5398
   27.510    5.6872
   27.525    5.5082
   27.540    5.7293
   27.555    5.9610
   27.570    6.0769
   27.585    5.8873
   27.600    6.1190
   27.615    5.8873
   27.630    6.1295
   27.645    5.8241
   27.660    5.8452
   27.675    5.5398
   27.690    5.7293
   27.705    5.9821
   27.720    5.9084
   27.735    5.5714
   27.750    5.6977
   27.765    5.8136
   27.780    5.5924
   27.795    5.7609
   27.810    5.7083
   27.825    5.6240
   27.840    5.8768
   27.855    5.9400
   27.870    5.6345
   27.885    5.6345
   27.900    5.5398
   27.915    5.6661
   27.930    5.8557
   27.945    5.3923
   27.960    5.5187
   27.975    5.7715
   27.990    5.6767
   28.005    5.3712
   28.020    5.5398
   28.035    5.7293
   28.050    5.7083
   28.065    5.6451
   28.080    5.8978
   28.095    5.8241
   28.110    5.8768
   28.125    6.2349
   28.140    6.0032
   28.155    6.0979
   28.170    6.4139
   28.185    6.0979
   28.200    6.1190
   28.215    6.1611
   28.230    5.9084
   28.245    5.7715
   28.260    5.7925
   28.275    5.7083
   28.290    5.6767
   28.305    5.4450
   28.320    5.4871
   28.335    5.7504
   28.350    5.3291
   28.365    5.4344
   28.380    5.7715
   28.395    5.7399
   28.410    5.6767
   28.425    5.7188
   28.440    5.8136
   28.455    5.8136
   28.470    5.5819
   28.485    5.8662
   28.500    5.7083
   28.515    5.6029
   28.530    5.5398
   28.545    5.2765
   28.560    5.7188
   28.575    5.3291
   28.590    5.4660
   28.605    5.5924
   28.620    5.0553
   28.635    5.1606
   28.650    5.2238
   28.665    5.4660
   28.680    5.9084
   28.695    5.6556
   28.710    5.4450
   28.725    5.2133
   28.740    5.2238
   28.755    5.3081
   28.770    5.3923
   28.785    5.6767
   28.800    5.8978
   28.815    5.7925
   28.830    5.2765
   28.845    5.4555
   28.860    5.7399
   28.875    5.7820
   28.890    5.7820
   28.905    5.6977
   28.920    5.4344
   28.935    5.9189
   28.950    5.5292
   28.965    5.8241
   28.980    5.5714
   28.995    5.1185
   29.010    5.3291
   29.025    5.6872
   29.040    5.6872
   29.055    5.6451
   29.070    5.5819
   29.085    5.7293
   29.100    5.5082
   29.115    5.5608
   29.130    5.7715
   29.145    5.4766
   29.160    5.4028
   29.175    5.5608
   29.190    5.7399
   29.205    5.5924
   29.220    5.5819
   29.235    5.3397
   29.250    5.3502
   29.265    5.4871
   29.280    5.5398
   29.295    5.3186
   29.310    5.8768
   29.325    5.6661
   29.340    5.4344
   29.355    5.6977
   29.370    5.4028
   29.385    5.3397
   29.400    5.8241
   29.415    5.4450
   29.430    5.4450
   29.445    5.5714
   29.460    5.3712
   29.475    5.2975
   29.490    5.4555
   29.505    5.2238
   29.520    5.0974
   29.535    5.3712
   29.550    5.2659
   29.565    5.1290
   29.580    5.3607
   29.595    5.5398
   29.610    5.6767
   29.625    5.5082
   29.640    5.1606
   29.655    5.5398
   29.670    5.4871
   29.685    5.5187
   29.700    5.5819
   29.715    5.6345
   29.730    5.7715
   29.745    5.5292
   29.760    5.1185
   29.775    5.1501
   29.790    5.0764
   29.805    5.4344
   29.820    5.5398
   29.835    5.0026
   29.850    5.0237
   29.865    5.1606
   29.880    5.1185
   29.895    4.8447
   29.910    5.4344
   29.925    5.6135
   29.940    5.2133
   29.955    5.2870
   29.970    5.3818
   29.985    5.0764
   30.000    5.4555
   30.015    5.4555
   30.030    5.5714
   30.045    5.3607
   30.060    5.0869
   30.075    5.3291
   30.090    5.3291
   30.105    5.4766
   30.120    5.7820
   30.135    5.4344
   30.150    5.1922
   30.165    5.2027
   30.180    5.3502
   30.195    4.9710
   30.210    5.5819
   30.225    5.2343
   30.240    5.1501
   30.255    4.9500
   30.270    5.4134
   30.285    5.4344
   30.300    5.4028
   30.315    5.5082
   30.330    5.1922
   30.345    5.7188
   30.360    5.5503
   30.375    5.2554
   30.390    5.2659
   30.405    4.9816
   30.420    5.0342
   30.435    4.9710
   30.450    5.4239
   30.465    5.3502
   30.480    5.2659
   30.495    5.3818
   30.510    5.4660
   30.525    5.3607
   30.540    5.1922
   30.555    5.4660
   30.570    5.5714
   30.585    5.5819
   30.600    5.5714
   30.615    5.4660
   30.630    5.0658
   30.645    5.0342
   30.660    5.3291
   30.675    5.3397
   30.690    5.3291
   30.705    5.4871
   30.720    5.2133
   30.735    5.4766
   30.750    5.0448
   30.765    5.3397
   30.780    5.6029
   30.795    5.1606
   30.810    5.4660
   30.825    5.2975
   30.840    5.4239
   30.855    5.1711
   30.870    5.0448
   30.885    5.1606
   30.900    5.4344
   30.915    4.9289
   30.930    5.6556
   30.945    5.0658
   30.960    5.1080
   30.975    5.0132
   30.990    4.9605
   31.005    4.8552
   31.020    4.9605
   31.035    5.3712
   31.050    5.2659
   31.065    5.1395
   31.080    4.8973
   31.095    4.8552
   31.110    4.8657
   31.125    5.3081
   31.140    5.3397
   31.155    5.5292
   31.170    5.3607
   31.185    5.3291
   31.200    5.0658
   31.215    5.2765
   31.230    5.2238
   31.245    5.0658
   31.260    4.9184
   31.275    5.0658
   31.290    5.1290
   31.305    5.3291
   31.320    5.0658
   31.335    5.3081
   31.350    5.2133
   31.365    4.9710
   31.380    5.5187
   31.395    5.3397
   31.410    5.2659
   31.425    5.1395
   31.440    5.2027
   31.455    5.0764
   31.470    5.8031
   31.485    5.3607
   31.500    4.8025
   31.515    4.8447
   31.530    5.2133
   31.545    5.2765
   31.560    5.1606
   31.575    5.1080
   31.590    5.0553
   31.605    5.5924
   31.620    5.1922
   31.635    5.2343
   31.650    5.1395
   31.665    5.3081
   31.680    5.2554
   31.695    5.3291
   31.710    5.6556
   31.725    5.6451
   31.740    5.0342
   31.755    5.3081
   31.770    5.5503
   31.785    5.2765
   31.800    5.2659
   31.815    5.3607
   31.830    5.4660
   31.845    5.4555
   31.860    5.4134
   31.875    5.4239
   31.890    5.4028
   31.905    5.1080
   31.920    5.1711
   31.935    5.2343
   31.950    5.3712
   31.965    5.2554
   31.980    5.3607
   31.995    5.2238
   32.010    5.1606
   32.025    5.1290
   32.040    5.2133
   32.055    5.0658
   32.070    5.0026
   32.085    5.0974
   32.100    5.3397
   32.115    5.1501
   32.130    5.1185
   32.145    5.3186
   32.160    5.4871
   32.175    5.3502
   32.190    5.4134
   32.205    5.2975
   32.220    5.2870
   32.235    5.0869
   32.250    5.0026
   32.265    5.0869
   32.280    5.5292
   32.295    5.4871
   32.310    5.1080
   32.325    5.1290
   32.340    5.0658
   32.355    5.2870
   32.370    5.0658
   32.385    5.2554
   32.400    5.2870
   32.415    5.1395
   32.430    4.8657
   32.445    4.8763
   32.460    5.3291
   32.475    5.0869
   32.490    4.9710
   32.505    4.8868
   32.520    5.1080
   32.535    4.9710
   32.550    4.7499
   32.565    4.9605
   32.580    4.9816
   32.595    5.1922
   32.610    5.1185
   32.625    4.8236
   32.640    4.8236
   32.655    4.9921
   32.670    5.0553
   32.685    4.8552
   32.700    4.8447
   32.715    4.8763
   32.730    5.0658
   32.745    4.7920
   32.760    4.7288
   32.775    5.0237
   32.790    4.9394
   32.805    4.9921
   32.820    5.0237
   32.835    5.2554
   32.850    5.0237
   32.865    4.6130
   32.880    4.6867
   32.895    4.8763
   32.910    5.1606
   32.925    4.8657
   32.940    4.8341
   32.955    4.9289
   32.970    5.3607
   32.985    5.0658
   33.000    5.0553
   33.015    4.3286
   33.030    4.6130
   33.045    4.7288
   33.060    4.9710
   33.075    4.7499
   33.090    4.3707
   33.105    4.7815
   33.120    5.0026
   33.135    4.5287
   33.150    4.8447
   33.165    4.8657
   33.180    4.7499
   33.195    4.6972
   33.210    4.6551
   33.225    5.0237
   33.240    4.6972
   33.255    4.9816
   33.270    4.9710
   33.285    4.6656
   33.300    4.5814
   33.315    4.8868
   33.330    4.6972
   33.345    4.9184
   33.360    4.7393
   33.375    4.7288
   33.390    4.8236
   33.405    4.9078
   33.420    4.7183
   33.435    4.8236
   33.450    4.4866
   33.465    4.7183
   33.480    4.7815
   33.495    4.8552
   33.510    4.8973
   33.525    4.5708
   33.540    4.7499
   33.555    4.9394
   33.570    5.0974
   33.585    4.6551
   33.600    4.9710
   33.615    4.9605
   33.630    5.0764
   33.645    4.8657
   33.660    4.6235
   33.675    4.8025
   33.690    4.7815
   33.705    4.7815
   33.720    4.9500
   33.735    4.9921
   33.750    5.0764
   33.765    4.8447
   33.780    4.9921
   33.795    4.8868
   33.810    4.7920
   33.825    5.0658
   33.840    4.8763
   33.855    4.7604
   33.870    4.9500
   33.885    4.5919
   33.900    4.8447
   33.915    4.7499
   33.930    4.8552
   33.945    4.8236
   33.960    4.8447
   33.975    4.9078
   33.990    4.7393
   34.005    4.8131
   34.020    4.6551
   34.035    4.6972
   34.050    4.6761
   34.065    4.7709
   34.080    4.5603
   34.095    4.3181
   34.110    4.3813
   34.125    4.7604
   34.140    4.6024
   34.155    4.7077
   34.170    5.0342
   34.185    4.8973
   34.200    5.0869
   34.215    5.0553
   34.230    4.7183
   34.245    4.6761
   34.260    4.5708
   34.275    4.5498
   34.290    4.4655
   34.305    4.5287
   34.320    4.8131
   34.335    4.8447
   34.350    4.7815
   34.365    4.6340
   34.380    4.8657
   34.395    4.7393
   34.410    4.7499
   34.425    4.8131
   34.440    4.8025
   34.455    4.9078
   34.470    4.5498
   34.485    4.6972
   34.500    4.6761
   34.515    4.9078
   34.530    4.6867
   34.545    4.5076
   34.560    4.6761
   34.575    4.5182
   34.590    4.3391
   34.605    4.4866
   34.620    4.6024
   34.635    4.5392
   34.650    4.4234
   34.665    4.4971
   34.680    4.8552
   34.695    4.5076
   34.710    4.5814
   34.725    4.6024
   34.740    4.7499
   34.755    4.6761
   34.770    4.8868
   34.785    4.6972
   34.800    4.6656
   34.815    4.7393
   34.830    4.6551
   34.845    4.4550
   34.860    4.2970
   34.875    4.8025
   34.890    4.7499
   34.905    4.5182
   34.920    4.1811
   34.935    4.4234
   34.950    4.4971
   34.965    4.3707
   34.980    4.6130
   34.995    4.5182
   35.010    4.6656
   35.025    4.5392
   35.040    4.3286
   35.055    4.4760
   35.070    4.1706
   35.085    4.4655
   35.100    4.3813
   35.115    4.5182
   35.130    4.6235
   35.145    4.7604
   35.160    4.5392
   35.175    4.5919
   35.190    4.6130
   35.205    4.8131
   35.220    4.6867
   35.235    4.3391
   35.250    4.2759
   35.265    4.7604
   35.280    4.6761
   35.295    4.5919
   35.310    4.2443
   35.325    4.0442
   35.340    4.6024
   35.355    4.9078
   35.370    4.4128
   35.385    4.4866
   35.400    4.6656
   35.415    4.7393
   35.430    4.6972
   35.445    4.5919
   35.460    4.5498
   35.475    4.4655
   35.490    4.2127
   35.505    4.6551
   35.520    4.5287
   35.535    4.3286
   35.550    4.4023
   35.565    4.4866
   35.580    4.4128
   35.595    4.5287
   35.610    4.4023
   35.625    4.3075
   35.640    4.5182
   35.655    4.4339
   35.670    4.6972
   35.685    4.7815
   35.700    4.7288
   35.715    4.5498
   35.730    4.5814
   35.745    4.3813
   35.760    4.5603
   35.775    4.5392
   35.790    4.3497
   35.805    4.8552
   35.820    4.7077
   35.835    4.3813
   35.850    4.4760
   35.865    4.4234
   35.880    4.8657
   35.895    4.5814
   35.910    4.8868
   35.925    4.4339
   35.940    4.2759
   35.955    4.2654
   35.970    4.2759
   35.985    4.5182
   36.000    4.2233
   36.015    4.3707
   36.030    4.4655
   36.045    4.3497
   36.060    4.3813
   36.075    4.4023
   36.090    4.2233
   36.105    4.3813
   36.120    4.6656
   36.135    4.1811
   36.150    4.2127
   36.165    4.5076
   36.180    4.8657
   36.195    4.5182
   36.210    4.3602
   36.225    4.3918
   36.240    4.4866
   36.255    4.5392
   36.270    4.6972
   36.285    4.3813
   36.300    4.6130
   36.315    4.9078
   36.330    4.7815
   36.345    4.1074
   36.360    4.2443
   36.375    4.3075
   36.390    4.3181
   36.405    4.6551
   36.420    4.7393
   36.435    4.6761
   36.450    4.4760
   36.465    4.2549
   36.480    4.5814
   36.495    4.4866
   36.510    4.4971
   36.525    4.0969
   36.540    3.8336
   36.555    4.2865
   36.570    4.2549
   36.585    4.4339
   36.600    4.7288
   36.615    4.5919
   36.630    4.7393
   36.645    4.3602
   36.660    4.4128
   36.675    4.4655
   36.690    4.4550
   36.705    4.7288
   36.720    4.7393
   36.735    4.3707
   36.750    4.0653
   36.765    4.5076
   36.780    4.3075
   36.795    4.4128
   36.810    4.3918
   36.825    4.1811
   36.840    4.1811
   36.855    4.1917
   36.870    4.0126
   36.885    3.9916
   36.900    4.1180
   36.915    4.0758
   36.930    4.4550
   36.945    4.4128
   36.960    4.5287
   36.975    4.5076
   36.990    4.1390
   37.005    4.4023
   37.020    4.3497
   37.035    4.0442
   37.050    4.1601
   37.065    4.2127
   37.080    4.3497
   37.095    4.2022
   37.110    4.6130
   37.125    4.2549
   37.140    4.2443
   37.155    4.3813
   37.170    4.4550
   37.185    4.5919
   37.200    4.0442
   37.215    3.9284
   37.230    4.3391
   37.245    4.1917
   37.260    4.2759
   37.275    4.2233
   37.290    4.2338
   37.305    4.4023
   37.320    4.3391
   37.335    4.4234
   37.350    4.2654
   37.365    4.3181
   37.380    4.1496
   37.395    4.0864
   37.410    4.0548
   37.425    4.0653
   37.440    4.5814
   37.455    4.5182
   37.470    4.1601
   37.485    4.1917
   37.500    4.4234
   37.515    4.4444
   37.530    4.3075
   37.545    4.2022
   37.560    4.2443
   37.575    4.3813
   37.590    4.4866
   37.605    4.2022
   37.620    4.6130
   37.635    4.4866
   37.650    4.2233
   37.665    4.2127
   37.680    4.4550
   37.695    4.3181
   37.710    4.3075
   37.725    4.2654
   37.740    4.3602
   37.755    4.4128
   37.770    4.0021
   37.785    4.2654
   37.800    3.8757
   37.815    4.2549
   37.830    4.1390
   37.845    4.0442
   37.860    4.3602
   37.875    4.1285
   37.890    4.4339
   37.905    4.1706
   37.920    4.0653
   37.935    4.4234
   37.950    4.3813
   37.965    4.2338
   37.980    4.1811
   37.995    4.1601
   38.010    4.4550
   38.025    4.3707
   38.040    4.6656
   38.055    4.4023
   38.070    4.3497
   38.085    4.6445
   38.100    4.4655
   38.115    4.0442
   38.130    4.0548
   38.145    4.1180
   38.160    4.2022
   38.175    4.0864
   38.190    4.3075
   38.205    3.9179
   38.220    4.1601
   38.235    4.4023
   38.250    4.1601
   38.265    4.2338
   38.280    4.0864
   38.295    4.1706
   38.310    4.0337
   38.325    4.0337
   38.340    4.1496
   38.355    4.2127
   38.370    4.1496
   38.385    4.1496
   38.400    4.2443
   38.415    4.4234
   38.430    4.3075
   38.445    4.1917
   38.460    4.1706
   38.475    4.4023
   38.490    4.1496
   38.505    4.2549
   38.520    4.1496
   38.535    4.5603
   38.550    4.1917
   38.565    4.1917
   38.580    4.1496
   38.595    3.9389
   38.610    3.8968
   38.625    4.0232
   38.640    3.9600
   38.655    4.2338
   38.670    4.3075
   38.685    4.0021
   38.700    4.4760
   38.715    4.1496
   38.730    4.3075
   38.745    4.3602
   38.760    4.4339
   38.775    4.2233
   38.790    4.0864
   38.805    4.0653
   38.820    3.8863
   38.835    4.2759
   38.850    4.2127
   38.865    4.3707
   38.880    3.9916
   38.895    4.1496
   38.910    4.3497
   38.925    4.1074
   38.940    4.1074
   38.955    4.3497
   38.970    4.5708
   38.985    4.6130
   39.000    4.6024
   39.015    4.4760
   39.030    4.4655
   39.045    4.2443
   39.060    3.9916
   39.075    4.0442
   39.090    4.1496
   39.105    4.0337
   39.120    3.9810
   39.135    4.4760
   39.150    4.2549
   39.165    4.4444
   39.180    4.3181
   39.195    4.2865
   39.210    4.4550
   39.225    4.3918
   39.240    3.9389
   39.255    4.0337
   39.270    4.3707
   39.285    4.2127
   39.300    4.3602
   39.315    4.6972
   39.330    4.6024
   39.345    4.1811
   39.360    3.8231
   39.375    4.1601
   39.390    4.6130
   39.405    4.4444
   39.420    4.0864
   39.435    4.3497
   39.450    4.2338
   39.465    4.1706
   39.480    4.6235
   39.495    4.2338
   39.510    4.2443
   39.525    4.2759
   39.540    4.1074
   39.555    4.0969
   39.570    4.1601
   39.585    4.1074
   39.600    4.4550
   39.615    4.0969
   39.630    4.3918
   39.645    4.2654
   39.660    4.2865
   39.675    4.2865
   39.690    4.3075
   39.705    4.0337
   39.720    4.2865
   39.735    3.9179
   39.750    4.2127
   39.765    4.2127
   39.780    4.1917
   39.795    4.3497
   39.810    4.5287
   39.825    4.0969
   39.840    4.1601
   39.855    4.2443
   39.870    4.4023
   39.885    4.3707
   39.900    4.4128
   39.915    4.5182
   39.930    3.8863
   39.945    3.9916
   39.960    3.9916
   39.975    4.0758
   39.990    4.2549
