    1.500    3.3491
    1.515    3.3386
    1.530    3.3597
    1.545    3.3070
    1.560    3.3281
    1.575    3.4544
    1.590    3.5387
    1.605    3.5282
    1.620    3.3702
    1.635    3.3597
    1.650    3.4755
    1.665    3.5071
    1.680    3.3807
    1.695    3.2859
    1.710    3.3281
    1.725    3.5914
    1.740    3.6019
    1.755    3.5387
    1.770    3.9284
    1.785    3.8125
    1.800    3.6862
    1.815    3.3491
    1.830    3.6651
    1.845    3.5914
    1.860    3.3597
    1.875    3.4860
    1.890    3.6124
    1.905    3.5282
    1.920    3.4544
    1.935    3.4229
    1.950    3.6546
    1.965    3.5703
    1.980    3.4860
    1.995    3.4544
    2.010    3.5492
    2.025    3.2333
    2.040    3.4966
    2.055    3.3807
    2.070    3.5703
    2.085    3.1912
    2.100    3.5071
    2.115    3.4544
    2.130    3.5492
    2.145    3.4544
    2.160    3.7388
    2.175    3.8441
    2.190    3.5808
    2.205    3.5914
    2.220    3.5492
    2.235    3.2965
    2.250    3.5914
    2.265    3.6651
    2.280    3.5387
    2.295    3.5492
    2.310    3.7915
    2.325    3.4755
    2.340    3.5282
    2.355    3.6440
    2.370    3.6756
    2.385    3.4439
    2.400    3.4229
    2.415    3.5808
    2.430    3.6230
    2.445    3.4966
    2.460    3.7388
    2.475    3.6967
    2.490    3.3175
    2.505    3.7915
    2.520    3.7283
    2.535    3.6967
    2.550    3.4123
    2.565    3.5387
    2.580    3.6019
    2.595    3.8547
    2.610    3.7283
    2.625    3.5914
    2.640    3.9810
    2.655    3.8652
    2.670    3.6230
    2.685    3.7493
    2.700    3.4755
    2.715    3.3807
    2.730    3.6862
    2.745    3.6967
    2.760    3.6862
    2.775    3.6230
    2.790    3.7177
    2.805    3.8231
    2.820    3.6756
    2.835    3.5282
    2.850    3.4544
    2.865    3.6651
    2.880    3.6019
    2.895    3.5387
    2.910    3.6019
    2.925    3.6124
    2.940    3.8441
    2.955    4.0232
    2.970    3.8336
    2.985    4.0021
    3.000    3.6230
    3.015    3.7599
    3.030    3.7915
    3.045    3.8547
    3.060    3.6651
    3.075    3.8441
    3.090    3.9916
    3.105    3.8231
    3.120    3.9916
    3.135    3.9705
    3.150    3.8757
    3.165    3.9705
    3.180    3.8968
    3.195    4.0969
    3.210    4.1917
    3.225    4.4128
    3.240    4.2233
    3.255    4.0969
    3.270    4.3813
    3.285    4.1285
    3.300    4.1601
    3.315    4.4339
    3.330    4.4023
    3.345    4.5814
    3.360    4.6761
    3.375    4.7183
    3.390    4.5498
    3.405    5.0132
    3.420    4.7288
    3.435    5.1711
    3.450    5.0658
    3.465    4.6340
    3.480    4.6445
    3.495    4.3813
    3.510    4.5287
    3.525    4.4128
    3.540    4.0442
    3.555    4.1706
    3.570    4.1390
    3.585    3.9916
    3.600    4.0442
    3.615    4.1601
    3.630    4.1180
    3.645    3.8125
    3.660    3.8441
    3.675    3.9284
    3.690    4.2759
    3.705    3.9389
    3.720    3.9179
    3.735    4.0232
    3.750    3.9600
    3.765    4.0442
    3.780    4.1285
    3.795    4.1180
    3.810    4.3497
    3.825    4.1601
    3.840    3.7388
    3.855    3.9389
    3.870    3.9494
    3.885    3.9389
    3.900    4.1811
    3.915    4.0232
    3.930    4.0864
    3.945    4.0969
    3.960    4.3075
    3.975    3.9179
    3.990    3.9179
    4.005    3.9600
    4.020    3.7704
    4.035    3.8652
    4.050    4.0758
    4.065    3.8020
    4.080    3.9494
    4.095    3.9389
    4.110    3.8652
    4.125    3.9389
    4.140    3.7177
    4.155    3.5703
    4.170    3.4334
    4.185    3.6230
    4.200    3.8231
    4.215    3.9073
    4.230    4.0126
    4.245    3.6230
    4.260    3.5176
    4.275    3.5282
    4.290    3.5808
    4.305    3.5703
    4.320    3.7177
    4.335    3.6230
    4.350    3.5176
    4.365    3.5703
    4.380    3.4439
    4.395    3.6651
    4.410    3.7177
    4.425    3.6967
    4.440    3.5492
    4.455    3.7177
    4.470    3.4650
    4.485    3.4860
    4.500    3.2754
    4.515    3.6019
    4.530    3.6651
    4.545    3.4018
    4.560    3.6651
    4.575    3.2965
    4.590    3.8547
    4.605    3.5914
    4.620    3.4123
    4.635    3.6335
    4.650    3.3597
    4.665    3.4334
    4.680    3.2754
    4.695    3.3175
    4.710    3.7072
    4.725    3.7704
    4.740    3.7072
    4.755    3.8336
    4.770    3.8652
    4.785    3.8652
    4.800    3.8441
    4.815    3.5808
    4.830    3.4966
    4.845    3.5703
    4.860    3.3175
    4.875    3.3281
    4.890    3.5492
    4.905    3.7388
    4.920    3.7072
    4.935    3.6862
    4.950    3.5071
    4.965    3.6756
    4.980    3.6651
    4.995    3.9389
    5.010    3.7177
    5.025    3.8547
    5.040    3.7809
    5.055    3.9179
    5.070    3.7599
    5.085    3.4755
    5.100    3.7599
    5.115    3.8336
    5.130    3.4018
    5.145    3.6546
    5.160    3.7493
    5.175    3.7809
    5.190    3.7915
    5.205    3.9600
    5.220    3.7493
    5.235    4.0232
    5.250    3.8757
    5.265    3.6230
    5.280    3.8020
    5.295    4.0126
    5.310    3.9600
    5.325    3.7493
    5.340    3.8968
    5.355    3.9389
    5.370    3.5598
    5.385    3.5176
    5.400    3.5387
    5.415    3.8547
    5.430    3.5387
    5.445    3.5282
    5.460    3.4229
    5.475    3.6756
    5.490    3.8441
    5.505    3.7072
    5.520    3.5703
    5.535    3.9600
    5.550    3.6124
    5.565    3.3807
    5.580    3.6862
    5.595    3.4650
    5.610    3.4018
    5.625    3.6230
    5.640    3.5703
    5.655    3.5808
    5.670    3.6230
    5.685    3.6651
    5.700    3.5387
    5.715    3.6335
    5.730    3.5808
    5.745    3.4123
    5.760    3.5914
    5.775    3.6019
    5.790    3.6967
    5.805    3.1490
    5.820    3.4860
    5.835    3.2649
    5.850    3.3597
    5.865    3.4966
    5.880    3.6335
    5.895    3.5176
    5.910    3.4123
    5.925    3.6546
    5.940    3.3702
    5.955    3.5492
    5.970    3.4755
    5.985    3.3386
    6.000    3.1912
    6.015    3.3491
    6.030    3.5071
    6.045    3.3597
    6.060    3.4860
    6.075    3.6335
    6.090    3.4439
    6.105    3.6019
    6.120    3.3913
    6.135    3.6124
    6.150    3.6651
    6.165    3.5808
    6.180    3.4650
    6.195    3.4123
    6.210    3.7283
    6.225    3.5914
    6.240    3.7072
    6.255    3.6440
    6.270    3.5176
    6.285    3.5492
    6.300    3.6124
    6.315    3.6651
    6.330    3.4439
    6.345    3.4439
    6.360    3.5176
    6.375    3.8125
    6.390    3.6862
    6.405    3.4650
    6.420    3.6862
    6.435    3.5598
    6.450    3.6124
    6.465    3.4755
    6.480    3.5071
    6.495    3.6230
    6.510    3.9705
    6.525    3.4229
    6.540    3.3807
    6.555    3.3807
    6.570    3.5282
    6.585    3.4860
    6.600    3.4860
    6.615    3.5703
    6.630    3.4544
    6.645    3.8968
    6.660    3.7915
    6.675    3.5387
    6.690    3.8652
    6.705    3.7283
    6.720    3.7704
    6.735    3.3281
    6.750    3.7493
    6.765    3.6019
    6.780    3.4018
    6.795    3.6862
    6.810    3.7493
    6.825    3.8547
    6.840    3.7599
    6.855    4.2127
    6.870    3.7493
    6.885    3.7493
    6.900    3.4650
    6.915    3.5808
    6.930    3.6651
    6.945    3.5492
    6.960    3.6019
    6.975    3.7283
    6.990    3.8125
    7.005    3.8968
    7.020    3.5914
    7.035    3.7177
    7.050    3.5598
    7.065    3.6440
    7.080    3.5492
    7.095    3.5282
    7.110    3.2333
    7.125    3.5598
    7.140    3.6440
    7.155    3.3913
    7.170    3.2649
    7.185    3.6546
    7.200    3.8652
    7.215    3.5387
    7.230    3.4544
    7.245    3.6124
    7.260    3.7177
    7.275    3.7388
    7.290    3.5282
    7.305    3.3807
    7.320    3.5492
    7.335    3.5492
    7.350    3.7493
    7.365    3.9600
    7.380    3.8125
    7.395    3.7493
    7.410    3.5808
    7.425    3.5808
    7.440    3.7809
    7.455    3.5598
    7.470    3.8231
    7.485    3.6019
    7.500    3.6862
    7.515    3.6440
    7.530    3.5176
    7.545    3.5492
    7.560    3.6967
    7.575    3.8757
    7.590    3.9179
    7.605    3.8020
    7.620    3.8231
    7.635    3.6440
    7.650    3.5387
    7.665    3.5176
    7.680    3.5914
    7.695    3.8231
    7.710    3.6440
    7.725    3.5598
    7.740    3.6440
    7.755    3.8125
    7.770    3.5176
    7.785    3.6019
    7.800    3.6440
    7.815    3.8757
    7.830    3.9073
    7.845    3.6124
    7.860    3.8125
    7.875    3.8336
    7.890    3.7915
    7.905    3.6967
    7.920    3.8441
    7.935    3.6756
    7.950    3.8231
    7.965    3.7283
    7.980    3.8757
    7.995    3.7599
    8.010    4.0442
    8.025    3.9494
    8.040    3.7177
    8.055    3.8863
    8.070    3.9494
    8.085    3.9600
    8.100    3.7704
    8.115    4.0442
    8.130    3.5808
    8.145    3.9494
    8.160    3.8125
    8.175    3.6967
    8.190    3.6651
    8.205    3.8652
    8.220    4.0548
    8.235    3.9810
    8.250    3.5492
    8.265    3.6756
    8.280    3.8231
    8.295    3.9179
    8.310    3.9389
    8.325    4.1074
    8.340    4.1496
    8.355    3.9810
    8.370    3.9179
    8.385    4.1496
    8.400    3.8336
    8.415    4.0653
    8.430    4.0653
    8.445    3.9179
    8.460    3.9600
    8.475    3.9916
    8.490    3.8231
    8.505    3.7388
    8.520    4.3286
    8.535    4.3602
    8.550    4.2549
    8.565    3.8441
    8.580    3.8441
    8.595    3.8652
    8.610    4.2549
    8.625    4.1917
    8.640    3.7388
    8.655    4.0442
    8.670    3.9916
    8.685    3.9073
    8.700    3.7704
    8.715    3.8757
    8.730    3.9284
    8.745    3.8652
    8.760    3.5492
    8.775    3.9810
    8.790    3.9600
    8.805    3.7388
    8.820    3.6335
    8.835    3.6651
    8.850    4.0864
    8.865    4.0548
    8.880    4.0126
    8.895    4.0442
    8.910    3.8547
    8.925    3.9916
    8.940    3.9179
    8.955    4.0864
    8.970    4.2022
    8.985    4.1390
    9.000    3.7388
    9.015    3.7809
    9.030    4.1917
    9.045    3.9600
    9.060    3.8968
    9.075    3.9073
    9.090    3.7915
    9.105    4.1601
    9.120    4.1917
    9.135    4.0653
    9.150    4.0758
    9.165    4.1285
    9.180    3.9389
    9.195    4.0758
    9.210    3.7283
    9.225    4.1285
    9.240    4.3813
    9.255    4.0442
    9.270    3.9073
    9.285    4.1180
    9.300    4.2759
    9.315    4.2970
    9.330    4.1601
    9.345    4.1285
    9.360    3.9284
    9.375    3.8441
    9.390    3.6335
    9.405    3.8863
    9.420    4.0021
    9.435    4.2127
    9.450    4.1917
    9.465    4.0864
    9.480    4.2127
    9.495    4.3181
    9.510    3.9389
    9.525    3.8125
    9.540    3.9705
    9.555    4.0653
    9.570    4.1074
    9.585    4.1285
    9.600    3.7599
    9.615    4.2759
    9.630    4.4971
    9.645    4.1496
    9.660    4.0232
    9.675    4.0864
    9.690    3.9600
    9.705    4.0864
    9.720    3.7493
    9.735    3.9916
    9.750    4.2338
    9.765    4.3707
    9.780    4.4339
    9.795    3.9810
    9.810    4.1285
    9.825    4.2654
    9.840    4.0337
    9.855    4.3286
    9.870    4.4234
    9.885    4.5076
    9.900    4.4339
    9.915    4.2549
    9.930    3.9600
    9.945    4.1706
    9.960    4.5287
    9.975    4.0232
    9.990    3.8757
   10.005    4.0126
   10.020    4.2970
   10.035    4.6024
   10.050    4.4444
   10.065    4.1180
   10.080    4.4550
   10.095    4.5182
   10.110    3.9916
   10.125    4.3286
   10.140    4.4128
   10.155    4.3286
   10.170    4.2338
   10.185    4.4234
   10.200    4.0548
   10.215    4.0758
   10.230    4.4444
   10.245    4.2970
   10.260    4.4760
   10.275    4.4655
   10.290    4.2759
   10.305    4.3497
   10.320    3.8652
   10.335    4.0969
   10.350    4.1285
   10.365    4.6761
   10.380    4.4760
   10.395    4.0548
   10.410    4.2338
   10.425    4.2338
   10.440    4.4655
   10.455    4.2549
   10.470    4.2865
   10.485    4.5498
   10.500    4.1496
   10.515    4.4128
   10.530    4.5919
   10.545    4.3391
   10.560    4.4971
   10.575    4.5392
   10.590    4.3075
   10.605    4.3497
   10.620    4.4444
   10.635    4.0653
   10.650    3.9179
   10.665    4.2549
   10.680    4.4866
   10.695    4.4339
   10.710    3.9810
   10.725    4.2022
   10.740    4.2022
   10.755    4.4339
   10.770    4.2338
   10.785    4.2654
   10.800    4.7499
   10.815    4.9078
   10.830    4.5603
   10.845    4.5287
   10.860    4.6656
   10.875    4.7920
   10.890    4.6656
   10.905    4.5603
   10.920    4.4760
   10.935    4.5498
   10.950    4.6235
   10.965    4.6024
   10.980    4.4128
   10.995    4.4550
   11.010    4.4023
   11.025    4.3497
   11.040    4.5919
   11.055    4.8341
   11.070    4.6972
   11.085    4.3602
   11.100    4.4234
   11.115    4.6445
   11.130    4.3602
   11.145    4.2759
   11.160    4.4550
   11.175    4.4128
   11.190    4.4971
   11.205    4.7183
   11.220    4.9184
   11.235    4.4128
   11.250    4.4760
   11.265    4.8025
   11.280    4.9921
   11.295    4.5603
   11.310    4.4971
   11.325    4.6130
   11.340    4.5603
   11.355    4.3813
   11.370    4.7499
   11.385    4.7393
   11.400    4.5287
   11.415    4.7920
   11.430    4.4866
   11.445    4.4550
   11.460    4.4550
   11.475    4.5392
   11.490    5.1080
   11.505    4.7499
   11.520    4.8236
   11.535    4.7183
   11.550    4.7815
   11.565    4.8131
   11.580    4.7288
   11.595    4.4866
   11.610    4.6656
   11.625    4.9394
   11.640    5.0342
   11.655    5.2449
   11.670    4.9500
   11.685    4.9078
   11.700    4.6130
   11.715    4.3918
   11.730    4.7604
   11.745    4.8025
   11.760    4.5708
   11.775    4.6656
   11.790    4.8552
   11.805    4.7393
   11.820    5.0448
   11.835    5.1080
   11.850    4.8131
   11.865    4.8552
   11.880    4.8341
   11.895    4.8657
   11.910    4.9500
   11.925    4.9500
   11.940    4.9500
   11.955    5.0132
   11.970    4.8552
   11.985    5.1501
   12.000    5.2659
   12.015    4.8868
   12.030    4.8341
   12.045    4.7815
   12.060    4.8868
   12.075    5.1185
   12.090    4.9289
   12.105    4.8236
   12.120    4.7499
   12.135    5.1080
   12.150    5.3397
   12.165    4.8236
   12.180    5.0764
   12.195    5.0658
   12.210    4.8763
   12.225    5.0237
   12.240    5.1606
   12.255    5.2975
   12.270    5.1922
   12.285    5.3502
   12.300    5.0869
   12.315    4.9184
   12.330    5.2027
   12.345    5.2449
   12.360    4.8552
   12.375    5.0869
   12.390    5.3081
   12.405    5.3818
   12.420    5.5503
   12.435    5.4976
   12.450    5.5082
   12.465    5.5082
   12.480    5.6135
   12.495    5.3081
   12.510    4.9184
   12.525    5.0553
   12.540    5.2554
   12.555    5.1922
   12.570    5.2659
   12.585    5.5608
   12.600    5.0448
   12.615    4.8868
   12.630    5.2975
   12.645    5.5503
   12.660    5.3818
   12.675    5.2975
   12.690    5.4766
   12.705    5.2975
   12.720    5.5714
   12.735    5.6451
   12.750    5.1817
   12.765    5.3712
   12.780    5.3186
   12.795    5.3607
   12.810    5.1395
   12.825    5.6240
   12.840    5.3923
   12.855    5.4134
   12.870    5.5292
   12.885    5.2659
   12.900    5.3186
   12.915    5.6135
   12.930    5.9294
   12.945    5.4134
   12.960    5.3397
   12.975    5.4555
   12.990    5.3186
   13.005    5.6451
   13.020    5.5924
   13.035    5.9610
   13.050    5.6240
   13.065    5.7399
   13.080    5.5924
   13.095    5.6977
   13.110    5.8978
   13.125    6.0348
   13.140    5.4660
   13.155    5.4871
   13.170    5.7715
   13.185    5.8347
   13.200    5.5924
   13.215    6.1506
   13.230    5.9294
   13.245    5.6977
   13.260    5.9400
   13.275    5.8347
   13.290    5.8031
   13.305    6.0348
   13.320    5.9189
   13.335    6.0558
   13.350    5.7820
   13.365    5.6661
   13.380    5.7399
   13.395    5.7504
   13.410    6.1822
   13.425    5.8031
   13.440    5.8662
   13.455    6.1927
   13.470    6.1085
   13.485    6.1822
   13.500    6.5087
   13.515    6.3928
   13.530    6.3612
   13.545    6.1085
   13.560    6.3402
   13.575    5.7504
   13.590    6.2559
   13.605    6.0874
   13.620    5.9610
   13.635    5.9400
   13.650    6.4139
   13.665    6.5613
   13.680    5.9926
   13.695    6.1611
   13.710    6.3296
   13.725    6.0348
   13.740    6.2981
   13.755    6.2138
   13.770    6.1085
   13.785    6.3086
   13.800    6.5298
   13.815    6.6351
   13.830    6.2981
   13.845    6.3928
   13.860    6.6877
   13.875    6.6456
   13.890    6.0874
   13.905    6.1927
   13.920    6.2349
   13.935    6.9721
   13.950    6.5824
   13.965    7.1511
   13.980    6.4876
   13.995    6.5824
   14.010    6.4034
   14.025    6.5192
   14.040    6.8562
   14.055    6.4139
   14.070    6.4982
   14.085    6.6035
   14.100    6.6772
   14.115    6.4455
   14.130    6.7930
   14.145    6.9300
   14.160    7.0879
   14.175    7.2459
   14.190    6.8246
   14.205    6.9405
   14.220    6.8141
   14.235    6.9826
   14.250    7.0458
   14.265    7.4039
   14.280    6.9721
   14.295    6.9300
   14.310    7.1617
   14.325    7.0458
   14.340    7.4250
   14.355    7.5513
   14.370    7.1722
   14.385    6.8457
   14.400    7.3196
   14.415    7.1090
   14.430    7.5829
   14.445    7.1617
   14.460    7.1722
   14.475    7.5197
   14.490    7.8568
   14.505    7.5303
   14.520    7.3934
   14.535    7.6567
   14.550    7.1090
   14.565    7.4882
   14.580    7.8041
   14.595    7.9937
   14.610    7.2038
   14.625    7.8357
   14.640    8.1938
   14.655    7.9410
   14.670    7.4566
   14.685    7.1406
   14.700    7.5513
   14.715    7.5197
   14.730    7.6883
   14.745    7.9831
   14.760    7.7409
   14.775    7.9516
   14.790    7.9831
   14.805    8.0358
   14.820    7.8989
   14.835    8.1517
   14.850    7.7093
   14.865    8.0885
   14.880    7.9200
   14.895    7.6883
   14.910    8.1727
   14.925    8.1306
   14.940    8.0569
   14.955    8.2359
   14.970    8.0042
   14.985    8.2570
   15.000    8.4466
   15.015    8.4992
   15.030    8.2254
   15.045    8.5097
   15.060    8.1411
   15.075    8.3412
   15.090    7.9410
   15.105    8.3518
   15.120    8.6783
   15.135    8.1517
   15.150    8.5519
   15.165    8.4781
   15.180    8.6361
   15.195    8.5729
   15.210    8.6467
   15.225    8.3307
   15.240    8.7309
   15.255    8.8152
   15.270    8.5835
   15.285    8.7941
   15.300    8.9205
   15.315    9.0258
   15.330    8.5203
   15.345    9.1732
   15.360    8.9837
   15.375    9.0995
   15.390    9.5208
   15.405    9.2154
   15.420    8.6572
   15.435    8.9205
   15.450    9.1943
   15.465    9.0679
   15.480    9.4576
   15.495    9.7314
   15.510    9.5313
   15.525    8.9415
   15.540    9.2575
   15.555    9.8052
   15.570    9.3523
   15.585    9.6261
   15.600    9.6367
   15.615    9.6682
   15.630   10.0579
   15.645    9.8684
   15.660    9.5945
   15.675    9.1732
   15.690    9.4787
   15.705    9.9526
   15.720    9.8473
   15.735    9.7314
   15.750    9.9947
   15.765   10.2686
   15.780   10.2054
   15.795   10.3423
   15.810   10.0474
   15.825   10.1843
   15.840   10.2580
   15.855   10.3002
   15.870   10.3002
   15.885   10.3844
   15.900   10.3212
   15.915   10.2896
   15.930   10.9005
   15.945   10.6477
   15.960   10.4687
   15.975   10.7425
   15.990   10.2264
   16.005   10.5213
   16.020   10.4897
   16.035   10.3212
   16.050   10.7636
   16.065   10.1843
   16.080   10.1316
   16.095   10.9005
   16.110   10.8478
   16.125   11.0374
   16.140   11.0163
   16.155   11.1532
   16.170   11.2270
   16.185   11.2586
   16.200   11.3007
   16.215   11.1532
   16.230   10.6793
   16.245   11.4903
   16.260   11.5324
   16.275   11.8694
   16.290   11.5429
   16.305   11.7536
   16.320   11.7957
   16.335   11.8167
   16.350   11.1848
   16.365   11.5640
   16.380   12.2064
   16.395   12.3223
   16.410   12.1643
   16.425   12.1538
   16.440   12.3117
   16.455   12.3539
   16.470   12.1222
   16.485   11.6061
   16.500   11.8483
   16.515   12.2801
   16.530   12.2801
   16.545   11.8694
   16.560   12.2907
   16.575   12.5961
   16.590   12.2696
   16.605   12.0274
   16.620   12.3855
   16.635   12.8067
   16.650   12.3117
   16.665   12.7014
   16.680   12.9753
   16.695   12.7120
   16.710   12.5645
   16.725   12.7857
   16.740   12.4697
   16.755   12.9226
   16.770   13.3123
   16.785   13.5229
   16.800   12.7541
   16.815   13.4597
   16.830   13.1332
   16.845   12.5434
   16.860   12.9121
   16.875   13.2385
   16.890   13.2070
   16.905   13.5229
   16.920   13.3544
   16.935   13.6072
   16.950   13.3965
   16.965   13.6072
   16.980   13.4597
   16.995   13.3017
   17.010   13.5861
   17.025   13.6704
   17.040   14.2812
   17.055   14.3233
   17.070   14.4286
   17.085   14.3865
   17.100   14.4392
   17.115   14.4497
   17.130   14.1864
   17.145   14.4813
   17.160   14.1864
   17.175   14.6603
   17.190   14.7762
   17.205   14.4497
   17.220   14.3655
   17.235   14.9552
   17.250   14.5024
   17.265   15.3555
   17.280   15.3449
   17.295   14.9868
   17.310   15.1975
   17.325   15.1448
   17.340   14.6919
   17.355   15.1869
   17.370   15.1448
   17.385   14.8394
   17.400   15.2080
   17.415   15.4608
   17.430   15.4924
   17.445   14.8815
   17.460   15.2501
   17.475   15.5872
   17.490   15.4924
   17.505   15.8820
   17.520   15.8189
   17.535   15.7873
   17.550   16.3876
   17.565   15.6925
   17.580   15.3660
   17.595   15.9347
   17.610   16.0400
   17.625   15.4292
   17.640   16.3139
   17.655   16.3244
   17.670   15.6714
   17.685   15.5556
   17.700   16.1453
   17.715   16.7246
   17.730   16.7983
   17.745   17.0090
   17.760   16.9352
   17.775   17.4724
   17.790   16.8720
   17.805   16.7773
   17.820   17.2722
   17.835   16.7562
   17.850   17.0090
   17.865   17.2828
   17.880   17.2722
   17.895   17.5566
   17.910   17.1669
   17.925   17.7041
   17.940   16.7035
   17.955   17.7672
   17.970   17.7146
   17.985   17.6514
   18.000   17.5777
   18.015   17.1669
   18.030   17.6935
   18.045   17.9042
   18.060   17.4618
   18.075   17.4934
   18.090   18.2096
   18.105   17.6725
   18.120   17.9042
   18.135   16.8194
   18.150   17.5355
   18.165   17.7251
   18.180   18.4308
   18.195   18.1885
   18.210   18.2833
   18.225   17.3776
   18.240   17.9147
   18.255   18.2517
   18.270   17.7778
   18.285   17.7357
   18.300   17.8304
   18.315   18.5677
   18.330   18.6835
   18.345   18.9995
   18.360   18.1359
   18.375   18.0200
   18.390   18.5782
   18.405   18.4834
   18.420   18.2833
   18.435   18.1991
   18.450   19.1048
   18.465   19.0416
   18.480   18.8836
   18.495   19.1680
   18.510   18.5571
   18.525   18.5993
   18.540   19.2733
   18.555   19.2101
   18.570   18.9784
   18.585   18.6519
   18.600   18.7994
   18.615   19.2206
   18.630   19.1890
   18.645   19.3365
   18.660   18.4834
   18.675   19.2733
   18.690   19.1680
   18.705   18.9889
   18.720   19.2101
   18.735   19.7578
   18.750   18.9047
   18.765   19.1890
   18.780   19.4523
   18.795   20.0737
   18.810   19.8104
   18.825   20.2001
   18.840   19.6525
   18.855   19.8104
   18.870   19.2838
   18.885   19.5155
   18.900   19.8631
   18.915   19.0100
   18.930   19.2206
   18.945   19.7788
   18.960   19.4523
   18.975   20.1369
   18.990   19.3997
   19.005   20.0000
   19.020   19.2628
   19.035   19.2417
   19.050   19.4207
   19.065   19.2417
   19.080   19.1153
   19.095   19.1048
   19.110   19.0837
   19.125   19.4207
   19.140   19.2628
   19.155   19.0732
   19.170   19.6840
   19.185   19.7262
   19.200   19.1469
   19.215   19.7999
   19.230   19.4945
   19.245   19.1048
   19.260   19.3260
   19.275   19.4418
   19.290   19.1259
   19.305   19.5261
   19.320   19.5366
   19.335   19.3049
   19.350   18.7362
   19.365   18.8415
   19.380   19.0205
   19.395   19.1048
   19.410   19.2733
   19.425   19.0205
   19.440   18.8310
   19.455   19.5261
   19.470   19.5998
   19.485   19.1048
   19.500   19.6419
   19.515   19.1996
   19.530   19.1048
   19.545   19.1575
   19.560   19.5682
   19.575   19.0943
   19.590   19.1153
   19.605   18.5255
   19.620   18.0200
   19.635   18.4097
   19.650   18.6519
   19.665   18.4939
   19.680   18.3149
   19.695   18.4413
   19.710   18.8520
   19.725   18.7046
   19.740   18.8520
   19.755   19.4523
   19.770   18.8310
   19.785   18.5993
   19.800   18.6940
   19.815   18.5150
   19.830   18.5571
   19.845   17.9989
   19.860   18.4729
   19.875   18.3676
   19.890   18.3570
   19.905   18.3886
   19.920   18.8099
   19.935   18.7256
   19.950   18.8310
   19.965   18.4623
   19.980   18.5466
   19.995   18.6730
   20.010   18.1780
   20.025   18.2622
   20.040   17.8831
   20.055   17.7672
   20.070   18.6414
   20.085   18.4097
   20.100   18.1780
   20.115   18.1991
   20.130   18.3044
   20.145   17.5566
   20.160   18.2306
   20.175   17.6830
   20.190   17.6725
   20.205   17.7988
   20.220   17.6725
   20.235   17.7883
   20.250   17.6935
   20.265   17.5777
   20.280   17.4513
   20.295   17.5355
   20.310   16.9352
   20.325   17.2091
   20.340   16.5245
   20.355   16.7035
   20.370   16.5034
   20.385   16.9984
   20.400   17.2617
   20.415   16.5350
   20.430   17.4302
   20.445   16.9142
   20.460   16.9668
   20.475   16.5561
   20.490   17.2617
   20.505   16.7562
   20.520   16.4192
   20.535   16.7562
   20.550   17.2091
   20.565   16.6403
   20.580   16.2928
   20.595   16.1875
   20.610   15.9452
   20.625   16.4297
   20.640   16.3876
   20.655   16.5982
   20.670   16.6614
   20.685   16.3770
   20.700   16.3033
   20.715   16.4297
   20.730   16.0400
   20.745   15.8294
   20.760   15.9242
   20.775   15.5450
   20.790   15.4502
   20.805   16.0821
   20.820   16.0821
   20.835   15.9242
   20.850   15.7873
   20.865   15.9979
   20.880   15.3765
   20.895   15.3239
   20.910   15.6503
   20.925   15.5661
   20.940   15.3870
   20.955   15.3660
   20.970   15.3555
   20.985   15.1132
   21.000   15.3344
   21.015   15.2923
   21.030   14.7762
   21.045   15.3660
   21.060   15.2185
   21.075   15.2712
   21.090   15.0290
   21.105   15.1975
   21.120   15.2396
   21.135   14.8815
   21.150   14.7341
   21.165   14.2496
   21.180   13.9021
   21.195   14.4918
   21.210   14.3128
   21.225   14.1548
   21.240   14.6919
   21.255   14.6498
   21.270   14.4918
   21.285   14.0179
   21.300   14.7657
   21.315   14.3971
   21.330   14.5129
   21.345   14.1864
   21.360   14.4813
   21.375   14.3971
   21.390   14.2285
   21.405   14.0600
   21.420   14.1548
   21.435   13.8810
   21.450   13.6388
   21.465   13.4913
   21.480   13.1543
   21.495   13.7230
   21.510   13.6809
   21.525   13.5229
   21.540   13.7441
   21.555   13.2175
   21.570   13.1754
   21.585   12.9858
   21.600   13.4176
   21.615   13.4597
   21.630   13.0700
   21.645   12.7962
   21.660   12.9647
   21.675   12.7751
   21.690   13.2912
   21.705   13.1122
   21.720   12.7120
   21.735   12.9542
   21.750   12.4065
   21.765   12.6382
   21.780   12.4592
   21.795   12.8383
   21.810   13.0806
   21.825   12.9858
   21.840   12.3012
   21.855   12.3433
   21.870   12.4381
   21.885   12.7541
   21.900   13.0279
   21.915   12.5013
   21.930   11.6904
   21.945   12.3749
   21.960   12.6698
   21.975   12.7857
   21.990   12.1748
   22.005   12.5961
   22.020   11.7641
   22.035   12.0906
   22.050   12.1327
   22.065   12.9226
   22.080   11.9221
   22.095   11.6798
   22.110   11.8062
   22.125   11.9431
   22.140   11.8589
   22.155   11.8167
   22.170   11.8062
   22.185   11.6693
   22.200   11.7114
   22.215   11.4481
   22.230   11.6166
   22.245   12.1327
   22.260   11.9431
   22.275   11.2059
   22.290   11.7009
   22.305   11.3955
   22.320   11.3849
   22.335   11.4692
   22.350   11.8694
   22.365   11.5008
   22.380   11.2691
   22.395   11.1848
   22.410   11.3323
   22.425   11.7957
   22.440   11.1006
   22.455   11.6061
   22.470   10.6161
   22.485   10.9215
   22.500   11.1216
   22.515   10.8373
   22.530   10.7846
   22.545   10.9321
   22.560   10.8162
   22.575   10.3107
   22.590   10.4792
   22.605   10.8162
   22.620   10.8162
   22.635   10.9215
   22.650   11.1954
   22.665   10.3949
   22.680   11.0374
   22.695   10.5108
   22.710   10.9847
   22.725   10.7320
   22.740   10.0053
   22.755   10.3633
   22.770   10.8899
   22.785   10.6793
   22.800   10.6477
   22.815   10.3423
   22.830   10.2580
   22.845   10.7004
   22.860   10.3949
   22.875   11.1638
   22.890   10.8373
   22.905   10.5740
   22.920   10.4687
   22.935    9.9421
   22.950    9.7736
   22.965    9.6893
   22.980   10.2159
   22.995    9.6998
   23.010   10.0579
   23.025   10.2264
   23.040   10.0685
   23.055   10.1106
   23.070    9.9105
   23.085   10.3423
   23.100   10.2791
   23.115    9.4050
   23.130   10.0263
   23.145    9.8999
   23.160    9.4997
   23.175    9.9105
   23.190    9.6788
   23.205    8.8362
   23.220    9.5629
   23.235    9.4681
   23.250    9.8368
   23.265    9.5208
   23.280   10.0263
   23.295    9.6367
   23.310    9.5840
   23.325    9.4997
   23.340    9.7420
   23.355    9.1627
   23.370    8.9942
   23.385    9.3734
   23.400    9.6261
   23.415    9.2364
   23.430    9.5103
   23.445    9.4155
   23.460    9.3839
   23.475    8.8257
   23.490    9.4787
   23.505    8.9521
   23.520    9.2154
   23.535    9.0574
   23.550    8.9415
   23.565    9.0890
   23.580    8.7730
   23.595    8.9205
   23.610    8.4992
   23.625    8.4676
   23.640    9.2575
   23.655    8.9731
   23.670    8.8573
   23.685    8.8468
   23.700    9.1838
   23.715    8.6993
   23.730    9.1627
   23.745    8.7414
   23.760    8.8678
   23.775    8.6045
   23.790    8.2780
   23.805    8.2359
   23.820    8.1201
   23.835    8.5413
   23.850    8.5835
   23.865    8.4781
   23.880    8.5519
   23.895    8.5624
   23.910    8.8468
   23.925    8.6151
   23.940    8.4466
   23.955    8.3202
   23.970    7.8568
   23.985    8.1622
   24.000    8.4676
   24.015    8.7309
   24.030    8.8046
   24.045    7.9831
   24.060    8.2464
   24.075    8.2254
   24.090    7.8989
   24.105    7.9305
   24.120    7.9200
   24.135    8.3307
   24.150    8.0779
   24.165    8.2254
   24.180    7.8252
   24.195    8.4150
   24.210    8.7309
   24.225    7.7620
   24.240    8.0569
   24.255    8.3834
   24.270    8.2254
   24.285    8.1411
   24.300    8.2043
   24.315    7.9516
   24.330    8.0885
   24.345    8.0463
   24.360    8.0990
   24.375    7.7725
   24.390    7.5724
   24.405    7.8252
   24.420    7.7409
   24.435    8.1201
   24.450    7.7725
   24.465    8.0042
   24.480    8.0042
   24.495    7.8884
   24.510    7.6883
   24.525    7.2775
   24.540    7.3723
   24.555    7.9516
   24.570    8.0463
   24.585    7.8989
   24.600    8.2780
   24.615    7.6356
   24.630    7.6461
   24.645    7.6988
   24.660    7.7936
   24.675    7.7199
   24.690    7.8041
   24.705    7.6251
   24.720    8.1411
   24.735    8.0885
   24.750    7.4987
   24.765    7.6145
   24.780    7.1933
   24.795    7.4039
   24.810    7.1617
   24.825    7.9516
   24.840    7.6251
   24.855    7.3618
   24.870    7.4671
   24.885    7.2565
   24.900    7.3934
   24.915    7.2670
   24.930    7.6883
   24.945    7.3723
   24.960    6.8352
   24.975    7.3407
   24.990    7.1301
   25.005    7.3828
   25.020    7.4987
   25.035    7.4144
   25.050    7.4882
   25.065    7.3828
   25.080    7.3302
   25.095    7.2670
   25.110    7.2565
   25.125    7.4250
   25.140    7.4882
   25.155    6.9194
   25.170    7.0142
   25.185    7.4882
   25.200    7.1617
   25.215    7.1617
   25.230    7.3302
   25.245    7.3828
   25.260    7.1195
   25.275    6.9932
   25.290    6.9932
   25.305    6.8773
   25.320    6.8878
   25.335    6.8246
   25.350    6.9194
   25.365    6.3191
   25.380    6.5929
   25.395    6.7404
   25.410    6.6877
   25.425    6.8668
   25.440    7.1195
   25.455    6.8457
   25.470    6.2665
   25.485    6.5403
   25.500    6.6983
   25.515    6.7720
   25.530    6.8668
   25.545    6.6245
   25.560    6.8773
   25.575    7.3196
   25.590    6.8878
   25.605    6.9300
   25.620    6.3296
   25.635    6.7299
   25.650    7.3302
   25.665    6.8141
   25.680    6.3402
   25.695    6.3402
   25.710    6.5719
   25.725    6.1611
   25.740    6.9300
   25.755    6.7720
   25.770    6.8773
   25.785    6.6456
   25.800    6.8246
   25.815    6.8668
   25.830    6.6983
   25.845    6.4666
   25.860    6.6351
   25.875    6.8562
   25.890    6.8036
   25.905    6.3612
   25.920    6.7404
   25.935    6.5929
   25.950    6.4876
   25.965    6.2875
   25.980    6.1190
   25.995    6.1822
   26.010    6.3823
   26.025    6.2243
   26.040    6.3296
   26.055    6.6140
   26.070    6.5403
   26.085    6.7193
   26.100    6.7930
   26.115    6.1506
   26.130    5.8978
   26.145    6.2770
   26.160    6.5403
   26.175    6.6035
   26.190    6.8668
   26.205    6.2981
   26.220    6.2243
   26.235    6.5087
   26.250    6.7720
   26.265    6.4244
   26.280    5.8136
   26.295    6.3402
   26.310    6.3507
   26.325    6.2665
   26.340    6.1506
   26.355    6.5824
   26.370    6.2349
   26.385    6.4244
   26.400    6.2243
   26.415    6.2349
   26.430    6.1190
   26.445    6.0137
   26.460    6.1611
   26.475    6.1190
   26.490    6.1611
   26.505    6.3718
   26.520    6.5824
   26.535    6.0558
   26.550    6.0453
   26.565    6.2559
   26.580    5.8873
   26.595    6.0137
   26.610    6.0979
   26.625    6.2770
   26.640    6.2770
   26.655    5.8768
   26.670    5.7820
   26.685    6.2033
   26.700    6.3296
   26.715    6.2665
   26.730    5.7399
   26.745    5.7715
   26.760    5.9084
   26.775    5.8136
   26.790    6.1085
   26.805    6.2981
   26.820    5.8978
   26.835    6.5824
   26.850    6.1717
   26.865    6.0032
   26.880    6.3402
   26.895    5.8031
   26.910    5.9610
   26.925    6.0558
   26.940    5.9926
   26.955    6.2454
   26.970    5.6977
   26.985    5.7399
   27.000    6.1611
   27.015    6.1190
   27.030    5.8031
   27.045    5.8768
   27.060    5.8347
   27.075    6.1401
   27.090    5.7925
   27.105    5.8873
   27.120    5.9821
   27.135    5.7609
   27.150    6.1927
   27.165    5.8241
   27.180    5.7083
   27.195    5.9084
   27.210    6.0137
   27.225    5.9189
   27.240    5.8241
   27.255    5.9294
   27.270    5.7188
   27.285    5.9610
   27.300    5.6556
   27.315    5.8768
   27.330    5.7083
   27.345    5.8136
   27.360    5.2343
   27.375    6.0664
   27.390    6.1927
   27.405    6.2875
   27.420    5.7609
   27.435    5.8557
   27.450    5.9084
   27.465    5.7715
   27.480    5.6029
   27.495    5.4450
   27.510    6.0032
   27.525    5.6977
   27.540    5.3923
   27.555    5.7504
   27.570    5.5292
   27.585    5.5292
   27.600    5.7293
   27.615    5.8241
   27.630    5.9084
   27.645    5.8978
   27.660    5.6135
   27.675    5.5503
   27.690    5.8136
   27.705    5.8768
   27.720    5.7820
   27.735    5.4660
   27.750    5.8241
   27.765    5.5187
   27.780    5.4239
   27.795    5.4450
   27.810    5.2765
   27.825    5.7820
   27.840    5.8662
   27.855    5.4555
   27.870    5.5503
   27.885    5.6135
   27.900    5.7188
   27.915    5.5082
   27.930    5.5608
   27.945    5.4976
   27.960    5.5714
   27.975    5.7083
   27.990    5.6977
   28.005    5.4134
   28.020    5.3397
   28.035    5.4660
   28.050    5.2765
   28.065    5.8873
   28.080    5.3818
   28.095    5.5714
   28.110    5.8978
   28.125    5.8662
   28.140    5.7715
   28.155    5.6451
   28.170    5.5819
   28.185    5.2659
   28.200    5.5608
   28.215    5.9926
   28.230    5.6661
   28.245    5.5292
   28.260    5.7504
   28.275    5.3502
   28.290    5.7715
   28.305    5.7715
   28.320    5.4766
   28.335    5.8031
   28.350    5.4660
   28.365    5.3502
   28.380    5.6556
   28.395    5.3397
   28.410    5.1185
   28.425    5.3081
   28.440    5.2343
   28.455    5.4239
   28.470    5.4976
   28.485    5.4344
   28.500    5.2133
   28.515    5.3712
   28.530    5.5398
   28.545    5.4976
   28.560    5.6977
   28.575    5.4976
   28.590    5.6977
   28.605    5.4239
   28.620    5.8557
   28.635    5.6029
   28.650    5.2554
   28.665    4.9394
   28.680    4.9921
   28.695    5.2133
   28.710    5.0974
   28.725    5.2554
   28.740    5.2659
   28.755    4.9605
   28.770    5.6556
   28.785    5.5714
   28.800    5.3291
   28.815    5.3186
   28.830    5.8557
   28.845    5.4239
   28.860    5.4555
   28.875    5.2554
   28.890    5.1395
   28.905    5.4028
   28.920    5.2238
   28.935    5.3397
   28.950    5.2554
   28.965    5.1711
   28.980    5.0658
   28.995    4.9816
   29.010    5.1606
   29.025    5.0974
   29.040    5.4660
   29.055    5.2449
   29.070    5.3291
   29.085    5.4134
   29.100    5.3607
   29.115    5.4239
   29.130    5.0869
   29.145    5.2659
   29.160    5.5398
   29.175    5.5924
   29.190    5.2554
   29.205    5.0237
   29.220    5.2449
   29.235    5.0132
   29.250    5.3607
   29.265    5.5082
   29.280    5.2765
   29.295    5.2659
   29.310    5.3081
   29.325    5.2554
   29.340    5.3607
   29.355    4.9184
   29.370    5.3291
   29.385    5.3186
   29.400    5.1711
   29.415    5.6240
   29.430    5.0869
   29.445    5.1922
   29.460    5.2554
   29.475    5.3712
   29.490    5.2027
   29.505    5.0764
   29.520    5.0974
   29.535    5.2659
   29.550    4.9710
   29.565    4.6761
   29.580    5.1501
   29.595    5.1501
   29.610    4.8552
   29.625    4.9500
   29.640    5.1501
   29.655    5.3607
   29.670    5.0132
   29.685    5.0764
   29.700    4.9710
   29.715    5.2449
   29.730    5.4239
   29.745    4.9605
   29.760    5.2765
   29.775    5.0132
   29.790    4.9605
   29.805    4.7183
   29.820    5.2133
   29.835    4.9710
   29.850    5.0342
   29.865    4.9605
   29.880    4.9289
   29.895    5.0026
   29.910    4.9710
   29.925    5.0764
   29.940    5.0974
   29.955    4.8763
   29.970    4.9078
   29.985    4.7920
   30.000    5.1185
   30.015    5.2659
   30.030    4.9289
   30.045    5.1606
   30.060    5.1080
   30.075    5.1290
   30.090    5.2343
   30.105    5.0448
   30.120    5.4134
   30.135    4.9500
   30.150    4.7288
   30.165    4.9184
   30.180    5.0132
   30.195    5.0448
   30.210    5.1395
   30.225    5.1711
   30.240    5.1290
   30.255    4.8447
   30.270    4.8973
   30.285    5.1185
   30.300    4.9500
   30.315    5.4450
   30.330    4.9710
   30.345    4.9816
   30.360    5.3712
   30.375    4.9184
   30.390    4.9289
   30.405    5.2659
   30.420    4.9605
   30.435    5.0342
   30.450    5.1501
   30.465    4.8552
   30.480    4.9289
   30.495    5.0026
   30.510    5.5503
   30.525    4.9394
   30.540    4.7604
   30.555    4.8447
   30.570    5.0974
   30.585    5.0026
   30.600    4.8025
   30.615    5.3607
   30.630    4.8868
   30.645    4.8657
   30.660    4.7499
   30.675    5.3818
   30.690    5.2133
   30.705    4.9921
   30.720    4.9816
   30.735    4.8973
   30.750    4.9078
   30.765    4.8236
   30.780    5.0658
   30.795    5.1817
   30.810    5.1606
   30.825    4.6761
   30.840    4.8341
   30.855    4.8447
   30.870    4.6024
   30.885    4.5076
   30.900    4.6340
   30.915    5.1185
   30.930    4.8657
   30.945    4.7077
   30.960    5.0342
   30.975    5.0342
   30.990    4.9710
   31.005    4.9289
   31.020    4.6551
   31.035    4.7077
   31.050    5.2554
   31.065    4.9289
   31.080    5.1080
   31.095    4.8447
   31.110    4.7077
   31.125    4.9605
   31.140    4.9184
   31.155    5.1080
   31.170    4.8973
   31.185    4.7499
   31.200    4.7183
   31.215    4.9289
   31.230    4.6235
   31.245    4.9605
   31.260    4.7288
   31.275    4.6867
   31.290    4.8447
   31.305    4.8131
   31.320    5.0553
   31.335    4.9816
   31.350    4.8973
   31.365    5.0764
   31.380    4.6445
   31.395    4.9078
   31.410    4.9184
   31.425    4.6656
   31.440    4.9605
   31.455    4.9921
   31.470    4.9500
   31.485    4.7393
   31.500    5.1395
   31.515    4.4866
   31.530    4.8763
   31.545    4.8131
   31.560    4.8552
   31.575    4.6340
   31.590    4.6972
   31.605    4.7815
   31.620    4.7077
   31.635    5.1080
   31.650    4.6340
   31.665    4.7709
   31.680    4.8341
   31.695    4.8973
   31.710    4.7183
   31.725    4.9078
   31.740    4.8025
   31.755    4.7920
   31.770    5.0026
   31.785    5.1185
   31.800    5.0764
   31.815    4.9394
   31.830    5.0974
   31.845    5.1817
   31.860    5.1080
   31.875    4.7920
   31.890    4.5919
   31.905    4.9289
   31.920    5.1185
   31.935    4.8973
   31.950    4.5708
   31.965    4.7183
   31.980    4.7393
   31.995    4.4971
   32.010    4.6867
   32.025    4.6551
   32.040    4.6445
   32.055    4.4023
   32.070    5.1080
   32.085    5.1185
   32.100    4.4866
   32.115    4.6235
   32.130    5.1185
   32.145    4.7183
   32.160    4.4128
   32.175    4.9394
   32.190    4.7604
   32.205    4.6972
   32.220    4.6656
   32.235    4.7183
   32.250    4.6235
   32.265    4.5076
   32.280    4.6867
   32.295    4.7815
   32.310    4.6867
   32.325    4.6551
   32.340    4.4971
   32.355    4.4128
   32.370    4.6761
   32.385    4.8763
   32.400    4.9710
   32.415    4.6972
   32.430    4.4866
   32.445    4.7393
   32.460    4.5708
   32.475    4.6130
   32.490    4.7499
   32.505    5.0237
   32.520    4.8763
   32.535    4.6024
   32.550    4.6235
   32.565    4.6445
   32.580    4.8657
   32.595    4.7920
   32.610    4.6551
   32.625    4.3918
   32.640    4.7288
   32.655    4.7077
   32.670    4.7183
   32.685    4.6445
   32.700    4.9394
   32.715    4.7077
   32.730    5.1290
   32.745    4.8973
   32.760    4.6867
   32.775    4.6867
   32.790    4.5182
   32.805    4.2549
   32.820    4.3391
   32.835    4.3602
   32.850    4.7077
   32.865    4.4655
   32.880    4.7920
   32.895    4.6235
   32.910    4.6130
   32.925    4.8236
   32.940    4.4866
   32.955    4.3707
   32.970    4.5182
   32.985    4.7393
   33.000    4.7288
   33.015    4.4444
   33.030    4.7077
   33.045    4.7815
   33.060    4.5182
   33.075    4.2443
   33.090    4.8447
   33.105    4.7709
   33.120    4.5498
   33.135    4.4971
   33.150    4.2338
   33.165    4.5708
   33.180    4.4866
   33.195    4.4339
   33.210    4.6340
   33.225    4.6445
   33.240    4.2759
   33.255    4.8447
   33.270    4.9184
   33.285    4.6235
   33.300    4.3602
   33.315    4.3391
   33.330    4.3813
   33.345    4.4866
   33.360    4.6972
   33.375    4.4866
   33.390    4.6340
   33.405    4.3286
   33.420    4.4866
   33.435    4.4023
   33.450    4.3813
   33.465    4.5708
   33.480    4.4023
   33.495    4.5287
   33.510    4.7077
   33.525    4.4866
   33.540    4.7499
   33.555    4.8025
   33.570    4.7288
   33.585    4.4234
   33.600    4.5498
   33.615    4.3391
   33.630    4.7077
   33.645    4.2865
   33.660    4.4444
   33.675    4.5392
   33.690    4.3075
   33.705    4.3813
   33.720    4.4760
   33.735    4.6445
   33.750    4.4971
   33.765    4.4550
   33.780    4.7288
   33.795    4.5287
   33.810    4.2549
   33.825    4.3075
   33.840    4.4339
   33.855    4.3707
   33.870    4.6656
   33.885    4.3602
   33.900    4.5392
   33.915    4.3813
   33.930    4.6551
   33.945    4.6130
   33.960    4.4128
   33.975    4.4023
   33.990    4.3497
   34.005    4.7499
   34.020    4.5392
   34.035    4.6761
   34.050    4.6867
   34.065    4.1390
   34.080    4.2970
   34.095    4.4234
   34.110    4.6235
   34.125    4.5708
   34.140    4.4128
   34.155    4.5708
   34.170    4.5182
   34.185    4.5498
   34.200    4.4655
   34.215    4.4444
   34.230    4.2233
   34.245    4.4550
   34.260    4.8131
   34.275    4.3813
   34.290    4.2759
   34.305    4.4339
   34.320    4.4234
   34.335    4.4971
   34.350    4.6130
   34.365    4.5182
   34.380    4.3497
   34.395    4.5919
   34.410    4.5498
   34.425    4.6340
   34.440    4.6445
   34.455    4.3918
   34.470    4.5287
   34.485    4.2654
   34.500    4.3602
   34.515    4.2970
   34.530    4.0758
   34.545    4.4444
   34.560    4.7393
   34.575    4.6972
   34.590    4.5603
   34.605    4.3918
   34.620    4.3918
   34.635    4.5708
   34.650    4.6445
   34.665    4.3181
   34.680    4.5287
   34.695    4.4339
   34.710    4.4339
   34.725    4.4339
   34.740    4.7288
   34.755    4.2443
   34.770    4.1706
   34.785    4.4760
   34.800    4.4760
   34.815    4.6867
   34.830    4.6972
   34.845    4.2654
   34.860    4.2654
   34.875    4.1496
   34.890    4.5076
   34.905    4.4760
   34.920    4.2970
   34.935    4.5392
   34.950    4.4128
   34.965    4.2654
   34.980    4.3181
   34.995    4.4128
   35.010    4.4866
   35.025    4.3181
   35.040    4.3391
   35.055    4.4128
   35.070    4.1496
   35.085    4.2233
   35.100    4.4339
   35.115    4.1601
   35.130    4.4234
   35.145    4.2759
   35.160    4.1285
   35.175    4.3181
   35.190    4.1601
   35.205    4.1285
   35.220    4.1706
   35.235    4.2759
   35.250    4.4128
   35.265    4.4339
   35.280    4.3391
   35.295    4.4760
   35.310    4.3497
   35.325    4.2549
   35.340    4.2654
   35.355    4.3602
   35.370    4.0126
   35.385    4.2970
   35.400    4.3497
   35.415    4.1180
   35.430    3.9600
   35.445    4.4023
   35.460    4.4339
   35.475    4.2759
   35.490    4.0758
   35.505    4.2338
   35.520    4.0548
   35.535    4.2970
   35.550    4.5814
   35.565    4.4866
   35.580    4.2233
   35.595    4.3286
   35.610    4.3286
   35.625    4.3918
   35.640    4.2233
   35.655    4.5076
   35.670    4.2127
   35.685    4.3707
   35.700    4.5708
   35.715    4.1601
   35.730    4.1601
   35.745    4.0758
   35.760    4.0337
   35.775    4.2759
   35.790    4.3286
   35.805    4.3075
   35.820    4.2338
   35.835    4.3497
   35.850    3.9494
   35.865    4.3497
   35.880    4.0337
   35.895    4.2338
   35.910    4.2759
   35.925    4.2970
   35.940    4.1285
   35.955    4.3391
   35.970    4.2338
   35.985    4.2022
   36.000    4.0864
   36.015    3.9916
   36.030    4.5182
   36.045    4.1074
   36.060    4.0021
   36.075    4.0758
   36.090    4.1811
   36.105    4.3602
   36.120    3.9073
   36.135    4.2022
   36.150    3.7493
   36.165    4.1706
   36.180    4.0021
   36.195    4.0758
   36.210    4.0337
   36.225    3.9284
   36.240    4.0653
   36.255    4.1390
   36.270    4.3497
   36.285    4.4234
   36.300    4.1706
   36.315    3.8125
   36.330    3.8547
   36.345    4.2865
   36.360    4.3813
   36.375    3.8231
   36.390    4.1601
   36.405    3.9705
   36.420    3.9916
   36.435    3.8863
   36.450    4.3181
   36.465    4.2443
   36.480    4.2443
   36.495    4.1917
   36.510    4.0864
   36.525    3.8336
   36.540    4.2865
   36.555    4.2127
   36.570    4.4234
   36.585    4.1811
   36.600    3.9284
   36.615    4.2443
   36.630    4.2338
   36.645    3.8336
   36.660    3.8757
   36.675    3.8968
   36.690    3.4860
   36.705    3.9705
   36.720    4.0969
   36.735    4.0126
   36.750    4.2654
   36.765    4.2022
   36.780    4.1390
   36.795    4.0442
   36.810    3.7809
   36.825    3.7388
   36.840    3.9916
   36.855    4.0758
   36.870    4.1390
   36.885    4.3075
   36.900    4.0337
   36.915    3.8231
   36.930    3.8863
   36.945    3.9705
   36.960    4.0232
   36.975    3.9494
   36.990    3.9389
   37.005    3.7704
   37.020    3.9916
   37.035    3.7388
   37.050    4.0969
   37.065    3.8968
   37.080    3.6440
   37.095    3.8968
   37.110    4.0969
   37.125    3.8863
   37.140    4.0021
   37.155    4.1706
   37.170    3.8757
   37.185    3.8231
   37.200    4.1390
   37.215    4.3075
   37.230    4.0232
   37.245    3.9810
   37.260    3.9810
   37.275    4.0337
   37.290    4.0442
   37.305    4.0337
   37.320    3.9705
   37.335    3.9705
   37.350    4.2443
   37.365    4.0337
   37.380    3.8231
   37.395    4.0548
   37.410    3.7704
   37.425    3.7388
   37.440    4.1601
   37.455    4.4655
   37.470    4.3286
   37.485    3.8125
   37.500    3.8231
   37.515    4.1285
   37.530    3.9705
   37.545    4.0758
   37.560    4.0969
   37.575    4.0969
   37.590    4.1180
   37.605    4.3602
   37.620    3.9810
   37.635    4.1074
   37.650    4.1180
   37.665    3.9810
   37.680    3.9916
   37.695    4.0653
   37.710    3.9600
   37.725    3.9389
   37.740    4.2127
   37.755    3.8863
   37.770    4.0864
   37.785    4.1074
   37.800    4.2443
   37.815    3.9810
   37.830    3.9600
   37.845    3.8125
   37.860    3.6862
   37.875    3.9073
   37.890    4.1496
   37.905    3.8441
   37.920    3.7177
   37.935    3.9389
   37.950    3.8652
   37.965    4.0126
   37.980    3.8125
   37.995    3.7809
   38.010    3.8336
   38.025    3.8968
   38.040    3.9916
   38.055    3.9389
   38.070    3.8231
   38.085    4.0758
   38.100    3.8968
   38.115    4.0758
   38.130    4.1706
   38.145    3.9916
   38.160    3.8125
   38.175    4.3813
   38.190    3.9073
   38.205    4.1496
   38.220    3.8652
   38.235    3.7809
   38.250    3.7493
   38.265    3.7493
   38.280    3.7493
   38.295    3.8968
   38.310    3.8547
   38.325    4.1180
   38.340    3.9179
   38.355    3.9389
   38.370    3.8020
   38.385    4.0126
   38.400    4.0126
   38.415    3.8968
   38.430    3.9284
   38.445    3.7388
   38.460    3.8547
   38.475    3.7599
   38.490    3.7283
   38.505    3.8547
   38.520    3.8125
   38.535    3.5387
   38.550    3.8336
   38.565    3.8336
   38.580    3.9073
   38.595    3.7283
   38.610    4.0126
   38.625    3.8441
   38.640    3.9600
   38.655    3.8441
   38.670    4.0232
   38.685    3.8968
   38.700    4.1285
   38.715    3.8336
   38.730    3.6967
   38.745    3.9705
   38.760    3.9600
   38.775    3.6967
   38.790    3.7809
   38.805    3.8020
   38.820    3.9389
   38.835    3.8231
   38.850    3.7915
   38.865    3.8863
   38.880    4.0021
   38.895    3.6546
   38.910    3.8125
   38.925    3.8968
   38.940    3.7704
   38.955    3.7915
   38.970    3.7177
   38.985    3.5492
   39.000    4.1496
   39.015    3.8231
   39.030    3.7388
   39.045    3.8757
   39.060    3.8547
   39.075    3.5071
   39.090    3.9073
   39.105    3.7388
   39.120    3.8231
   39.135    3.7704
   39.150    3.6862
   39.165    3.7915
   39.180    3.8231
   39.195    3.8441
   39.210    3.8652
   39.225    3.7599
   39.240    3.8336
   39.255    3.7283
   39.270    4.1706
   39.285    4.0126
   39.300    3.6019
   39.315    3.6967
   39.330    3.5282
   39.345    4.1496
   39.360    3.8547
   39.375    3.8968
   39.390    3.6546
   39.405    3.7599
   39.420    3.6862
   39.435    3.8757
   39.450    3.5914
   39.465    3.7177
   39.480    3.6546
   39.495    3.5914
   39.510    3.8231
   39.525    3.6651
   39.540    3.8020
   39.555    3.7493
   39.570    3.5387
   39.585    3.8652
   39.600    3.9389
   39.615    3.5703
   39.630    3.6546
   39.645    3.7072
   39.660    3.8863
   39.675    3.8020
   39.690    3.7599
   39.705    3.4966
   39.720    3.9073
   39.735    3.5387
   39.750    3.7599
   39.765    3.4439
   39.780    3.6440
   39.795    3.6335
   39.810    3.8968
   39.825    3.8652
   39.840    3.6756
   39.855    3.8231
   39.870    3.6019
   39.885    3.6756
   39.900    3.7072
   39.915    3.9284
   39.930    3.7493
   39.945    3.9284
   39.960    3.6756
   39.975    3.6440
   39.990    3.6546
