    1.500   14.5445
    1.515   14.4181
    1.530   14.6709
    1.545   13.8178
    1.560   13.4071
    1.575   13.4597
    1.590   12.9331
    1.605   13.1754
    1.620   12.7751
    1.635   12.9963
    1.650   13.0595
    1.665   12.9753
    1.680   12.7014
    1.695   12.0169
    1.710   11.6166
    1.725   11.9431
    1.740   12.5750
    1.755   11.8799
    1.770   11.2902
    1.785   11.4692
    1.800   11.7746
    1.815   11.4271
    1.830   11.4587
    1.845   10.7952
    1.860   11.0269
    1.875   10.3423
    1.890   10.5319
    1.905   10.6793
    1.920   10.2264
    1.935   10.4160
    1.950   10.2580
    1.965   10.7846
    1.980   10.3318
    1.995   10.2896
    2.010   10.1738
    2.025   10.4160
    2.040   10.0158
    2.055    9.6367
    2.070    9.6367
    2.085    9.7420
    2.100    9.8473
    2.115   10.1948
    2.130   10.3318
    2.145    9.8157
    2.160   10.0685
    2.175   10.1106
    2.190    9.8473
    2.205    9.6261
    2.220    9.7630
    2.235    9.7104
    2.250    9.8473
    2.265    9.8789
    2.280    9.8999
    2.295   10.2791
    2.310   10.2896
    2.325    9.6472
    2.340    9.8368
    2.355    9.7314
    2.370    9.9526
    2.385   10.0474
    2.400   10.0790
    2.415   10.2686
    2.430    9.9210
    2.445   10.4160
    2.460   10.7109
    2.475   10.7636
    2.490   10.6688
    2.505   10.9742
    2.520   10.2159
    2.535   10.2264
    2.550   10.8583
    2.565   11.5745
    2.580   11.2270
    2.595   11.4165
    2.610   10.9426
    2.625   11.6798
    2.640   11.9115
    2.655   11.8378
    2.670   12.0274
    2.685   12.0590
    2.700   12.2380
    2.715   12.6066
    2.730   12.8278
    2.745   12.8173
    2.760   12.9542
    2.775   12.9226
    2.790   13.8389
    2.805   13.8494
    2.820   14.1127
    2.835   15.0290
    2.850   14.7551
    2.865   14.5129
    2.880   15.0711
    2.895   15.0922
    2.910   15.8294
    2.925   16.5456
    2.940   17.0090
    2.955   16.6193
    2.970   17.1459
    2.985   18.1043
    3.000   18.2728
    3.015   18.9679
    3.030   19.2522
    3.045   19.8104
    3.060   20.0105
    3.075   21.1901
    3.090   21.9589
    3.105   22.6435
    3.120   23.1806
    3.135   23.8441
    3.150   24.2022
    3.165   25.3291
    3.180   26.3086
    3.195   26.9932
    3.210   27.7199
    3.225   28.9837
    3.240   29.7104
    3.255   31.0585
    3.270   32.3433
    3.285   33.5440
    3.300   35.1659
    3.315   36.9352
    3.330   38.9995
    3.345   40.8426
    3.360   42.8120
    3.375   46.5192
    3.390   47.9516
    3.405   51.7325
    3.420   53.4492
    3.435   54.6814
    3.450   56.6509
    3.465   56.9036
    3.480   55.3976
    3.495   53.8178
    3.510   52.3749
    3.525   48.4360
    3.540   43.5598
    3.555   38.9784
    3.570   36.6403
    3.585   32.8278
    3.600   29.7420
    3.615   28.3202
    3.630   26.2454
    3.645   25.1606
    3.660   23.9179
    3.675   22.4961
    3.690   23.1280
    3.705   22.4645
    3.720   21.9589
    3.735   22.2328
    3.750   22.4434
    3.765   22.6856
    3.780   22.6540
    3.795   23.5387
    3.810   22.9910
    3.825   23.2438
    3.840   23.8336
    3.855   24.5708
    3.870   24.7709
    3.885   25.0658
    3.900   24.8657
    3.915   24.3391
    3.930   24.0126
    3.945   23.6335
    3.960   23.6230
    3.975   23.0753
    3.990   22.3486
    4.005   21.9800
    4.020   22.5592
    4.035   21.9800
    4.050   21.9589
    4.065   19.9473
    4.080   20.0948
    4.095   19.5787
    4.110   19.0311
    4.125   18.3570
    4.140   18.3781
    4.155   17.4724
    4.170   17.0195
    4.185   16.9036
    4.200   15.6503
    4.215   15.1027
    4.230   15.0816
    4.245   14.4602
    4.260   13.5756
    4.275   12.7541
    4.290   11.9326
    4.305   11.6798
    4.320   11.0795
    4.335   10.9321
    4.350   10.3423
    4.365   10.5635
    4.380    9.4576
    4.395    9.4260
    4.410    9.2154
    4.425    8.8152
    4.440    8.2780
    4.455    8.1411
    4.470    7.1617
    4.485    7.1933
    4.500    7.0248
    4.515    6.9616
    4.530    7.0563
    4.545    6.5087
    4.560    6.7404
    4.575    6.6667
    4.590    6.1611
    4.605    6.0348
    4.620    5.7925
    4.635    5.7820
    4.650    5.5714
    4.665    5.5398
    4.680    5.5608
    4.695    5.4555
    4.710    5.2133
    4.725    5.0658
    4.740    5.0026
    4.755    4.8552
    4.770    4.9078
    4.785    4.9289
    4.800    4.9605
    4.815    5.0132
    4.830    4.9394
    4.845    4.6867
    4.860    5.4766
    4.875    5.0237
    4.890    4.9921
    4.905    4.6972
    4.920    4.7393
    4.935    4.6972
    4.950    4.5708
    4.965    4.5814
    4.980    4.5708
    4.995    4.3497
    5.010    4.2654
    5.025    4.6235
    5.040    4.7499
    5.055    4.5603
    5.070    4.6867
    5.085    4.5603
    5.100    4.1811
    5.115    4.4128
    5.130    4.2443
    5.145    4.2233
    5.160    4.2654
    5.175    4.3286
    5.190    4.1074
    5.205    4.3602
    5.220    4.5076
    5.235    4.3918
    5.250    4.3813
    5.265    4.4866
    5.280    4.4760
    5.295    4.2338
    5.310    4.1180
    5.325    4.3075
    5.340    4.3813
    5.355    4.4339
    5.370    4.3918
    5.385    4.2022
    5.400    4.0969
    5.415    4.2549
    5.430    4.1811
    5.445    4.5814
    5.460    4.4760
    5.475    4.5498
    5.490    4.7709
    5.505    4.7604
    5.520    4.8341
    5.535    4.4234
    5.550    4.4234
    5.565    4.3181
    5.580    3.9810
    5.595    3.9284
    5.610    4.0337
    5.625    3.8547
    5.640    3.6967
    5.655    3.9494
    5.670    3.8231
    5.685    4.0758
    5.700    3.9600
    5.715    3.7915
    5.730    3.4018
    5.745    3.3913
    5.760    3.8231
    5.775    4.2233
    5.790    3.9284
    5.805    3.7704
    5.820    3.8125
    5.835    3.6019
    5.850    3.6335
    5.865    3.6230
    5.880    3.8125
    5.895    4.1180
    5.910    3.8757
    5.925    3.9494
    5.940    3.8652
    5.955    3.7809
    5.970    3.9179
    5.985    3.8547
    6.000    3.9810
    6.015    3.8020
    6.030    3.8547
    6.045    3.9810
    6.060    3.6546
    6.075    3.6862
    6.090    3.9705
    6.105    3.7915
    6.120    3.7599
    6.135    3.8863
    6.150    3.8336
    6.165    3.5492
    6.180    3.7493
    6.195    3.7493
    6.210    3.7072
    6.225    4.0126
    6.240    4.1706
    6.255    4.1601
    6.270    4.0548
    6.285    3.8336
    6.300    4.1601
    6.315    4.0126
    6.330    4.1601
    6.345    4.1390
    6.360    4.1074
    6.375    4.1811
    6.390    4.1601
    6.405    4.1496
    6.420    4.0442
    6.435    4.0653
    6.450    4.1390
    6.465    4.1285
    6.480    4.1285
    6.495    4.3181
    6.510    4.4760
    6.525    4.3707
    6.540    4.4550
    6.555    4.7920
    6.570    4.3918
    6.585    4.3813
    6.600    4.6235
    6.615    4.9289
    6.630    4.7499
    6.645    4.7183
    6.660    4.8552
    6.675    5.1817
    6.690    5.3712
    6.705    5.3607
    6.720    5.4660
    6.735    5.4871
    6.750    5.5819
    6.765    6.0664
    6.780    5.8978
    6.795    6.4139
    6.810    6.1190
    6.825    6.5298
    6.840    6.7825
    6.855    7.1090
    6.870    7.2038
    6.885    7.3091
    6.900    7.6461
    6.915    7.9726
    6.930    7.7830
    6.945    7.7830
    6.960    8.1833
    6.975    8.1938
    6.990    8.2149
    7.005    7.8778
    7.020    7.5724
    7.035    7.4882
    7.050    7.0353
    7.065    6.6772
    7.080    5.9610
    7.095    5.4871
    7.110    5.2238
    7.125    5.2975
    7.140    4.8236
    7.155    4.5076
    7.170    4.7499
    7.185    4.6340
    7.200    4.3602
    7.215    4.4234
    7.230    4.4655
    7.245    4.1496
    7.260    4.5182
    7.275    4.1074
    7.290    4.1811
    7.305    4.2549
    7.320    4.3286
    7.335    4.1390
    7.350    4.1180
    7.365    4.1074
    7.380    4.1706
    7.395    4.1811
    7.410    4.3918
    7.425    4.1601
    7.440    4.1917
    7.455    4.3497
    7.470    4.0021
    7.485    4.1074
    7.500    4.5498
    7.515    4.4234
    7.530    4.7920
    7.545    4.2759
    7.560    4.0442
    7.575    4.2549
    7.590    4.3707
    7.605    4.1180
    7.620    4.0548
    7.635    4.3602
    7.650    4.3497
    7.665    4.3391
    7.680    4.6340
    7.695    4.4655
    7.710    4.3707
    7.725    4.5708
    7.740    4.5919
    7.755    4.5076
    7.770    4.7077
    7.785    4.7288
    7.800    4.4128
    7.815    4.6445
    7.830    5.0237
    7.845    4.8025
    7.860    4.8868
    7.875    4.6972
    7.890    4.9921
    7.905    4.6972
    7.920    4.5392
    7.935    4.6761
    7.950    4.5392
    7.965    4.5392
    7.980    4.4550
    7.995    4.9816
    8.010    5.0974
    8.025    5.1185
    8.040    4.8868
    8.055    5.2343
    8.070    4.9605
    8.085    4.9289
    8.100    4.8763
    8.115    4.9605
    8.130    5.0658
    8.145    4.8236
    8.160    5.1606
    8.175    4.9710
    8.190    4.9500
    8.205    5.0658
    8.220    4.8341
    8.235    5.1501
    8.250    5.3291
    8.265    4.9921
    8.280    4.8131
    8.295    5.2975
    8.310    4.8131
    8.325    4.8341
    8.340    4.6972
    8.355    4.7604
    8.370    5.1395
    8.385    5.0448
    8.400    4.7815
    8.415    4.6656
    8.430    4.8447
    8.445    4.6761
    8.460    4.4550
    8.475    4.2233
    8.490    4.6340
    8.505    4.4550
    8.520    4.2127
    8.535    4.3075
    8.550    4.3707
    8.565    4.4550
    8.580    4.1496
    8.595    4.5919
    8.610    4.6024
    8.625    4.4234
    8.640    4.4866
    8.655    4.3813
    8.670    4.3391
    8.685    4.1496
    8.700    4.1706
    8.715    4.3602
    8.730    4.0758
    8.745    4.0337
    8.760    4.4128
    8.775    4.2127
    8.790    3.6546
    8.805    3.8757
    8.820    3.8968
    8.835    4.2127
    8.850    4.0864
    8.865    3.8441
    8.880    3.7177
    8.895    3.9705
    8.910    4.1601
    8.925    3.8441
    8.940    3.6440
    8.955    3.6440
    8.970    3.9284
    8.985    4.1496
    9.000    4.0232
    9.015    3.6967
    9.030    3.4860
    9.045    3.6440
    9.060    3.6335
    9.075    3.5808
    9.090    3.7072
    9.105    3.8652
    9.120    3.7072
    9.135    3.8863
    9.150    3.5808
    9.165    3.6546
    9.180    3.7388
    9.195    3.8652
    9.210    3.5492
    9.225    3.5071
    9.240    3.8020
    9.255    3.4439
    9.270    3.6546
    9.285    3.8968
    9.300    3.7493
    9.315    3.5914
    9.330    3.4650
    9.345    3.4966
    9.360    3.5914
    9.375    3.5071
    9.390    3.6967
    9.405    3.8125
    9.420    3.6440
    9.435    3.4860
    9.450    3.7493
    9.465    4.0548
    9.480    3.9284
    9.495    3.7177
    9.510    3.6967
    9.525    3.9284
    9.540    3.8652
    9.555    3.6546
    9.570    4.0337
    9.585    4.2970
    9.600    4.1917
    9.615    4.1180
    9.630    3.6651
    9.645    3.7493
    9.660    3.5914
    9.675    3.5282
    9.690    3.4966
    9.705    3.7283
    9.720    3.6335
    9.735    3.7072
    9.750    3.4334
    9.765    3.4755
    9.780    3.7283
    9.795    3.8336
    9.810    3.6440
    9.825    3.5282
    9.840    3.5914
    9.855    3.8231
    9.870    3.7072
    9.885    3.5071
    9.900    3.2859
    9.915    3.4860
    9.930    3.5282
    9.945    3.4544
    9.960    3.8125
    9.975    3.7704
    9.990    3.6967
   10.005    3.4650
   10.020    3.3491
   10.035    3.3175
   10.050    3.6862
   10.065    3.5598
   10.080    3.7599
   10.095    3.6546
   10.110    3.6230
   10.125    3.5176
   10.140    3.6335
   10.155    3.5176
   10.170    3.5176
   10.185    3.6124
   10.200    3.7493
   10.215    3.6230
   10.230    3.6124
   10.245    3.8652
   10.260    3.8231
   10.275    3.6124
   10.290    3.4860
   10.305    3.5492
   10.320    3.6230
   10.335    3.8231
   10.350    4.0864
   10.365    4.1496
   10.380    4.0548
   10.395    4.0548
   10.410    4.3602
   10.425    3.7809
   10.440    3.5282
   10.455    3.7283
   10.470    3.8336
   10.485    3.8547
   10.500    3.8968
   10.515    3.9705
   10.530    4.0758
   10.545    3.7599
   10.560    3.8547
   10.575    3.6019
   10.590    3.6546
   10.605    3.6230
   10.620    3.5914
   10.635    3.5598
   10.650    3.4966
   10.665    3.4860
   10.680    3.6335
   10.695    3.7283
   10.710    3.5176
   10.725    3.5176
   10.740    3.4544
   10.755    3.3175
   10.770    3.6440
   10.785    3.5387
   10.800    3.6967
   10.815    3.6651
   10.830    3.1806
   10.845    3.4018
   10.860    3.6967
   10.875    3.4334
   10.890    3.2754
   10.905    3.0858
   10.920    3.3913
   10.935    3.0964
   10.950    3.5703
   10.965    3.6124
   10.980    3.7072
   10.995    3.6440
   11.010    3.6019
   11.025    3.3070
   11.040    3.9284
   11.055    3.7493
   11.070    3.5914
   11.085    3.5176
   11.100    3.4229
   11.115    3.4439
   11.130    3.4439
   11.145    3.4229
   11.160    3.6124
   11.175    3.6756
   11.190    3.4966
   11.205    3.4334
   11.220    3.4123
   11.235    3.5071
   11.250    3.4860
   11.265    3.5492
   11.280    3.3913
   11.295    3.3597
   11.310    3.4860
   11.325    3.6546
   11.340    3.4018
   11.355    3.3702
   11.370    3.4966
   11.385    3.5387
   11.400    3.4439
   11.415    3.5808
   11.430    3.3807
   11.445    3.4334
   11.460    3.6335
   11.475    3.5282
   11.490    3.0858
   11.505    3.4229
   11.520    3.4439
   11.535    3.3281
   11.550    3.7072
   11.565    3.5492
   11.580    3.4650
   11.595    3.5387
   11.610    3.6756
   11.625    3.4650
   11.640    3.3175
   11.655    3.4755
   11.670    3.5598
   11.685    3.8231
   11.700    3.6546
   11.715    3.6019
   11.730    3.5914
   11.745    3.5914
   11.760    3.5914
   11.775    3.6967
   11.790    3.7177
   11.805    3.4334
   11.820    3.4439
   11.835    3.5176
   11.850    3.6756
   11.865    3.6546
   11.880    3.6862
   11.895    3.7177
   11.910    3.6335
   11.925    3.7388
   11.940    3.5914
   11.955    3.6862
   11.970    3.6651
   11.985    3.7177
   12.000    3.6651
   12.015    3.4123
   12.030    3.5176
   12.045    3.6124
   12.060    3.5387
   12.075    3.6967
   12.090    3.9179
   12.105    3.8441
   12.120    3.8757
   12.135    3.5808
   12.150    3.5071
   12.165    3.6335
   12.180    3.7283
   12.195    3.6124
   12.210    3.4755
   12.225    3.6440
   12.240    3.4544
   12.255    3.7809
   12.270    3.3702
   12.285    3.3070
   12.300    3.3807
   12.315    3.4334
   12.330    3.8547
   12.345    3.7072
   12.360    3.8968
   12.375    3.8020
   12.390    3.8757
   12.405    3.4755
   12.420    3.5176
   12.435    3.5492
   12.450    3.4439
   12.465    3.7915
   12.480    3.7388
   12.495    3.8968
   12.510    3.6967
   12.525    3.8652
   12.540    3.7493
   12.555    3.6230
   12.570    3.8020
   12.585    3.5914
   12.600    3.8336
   12.615    3.5598
   12.630    3.4123
   12.645    3.8863
   12.660    3.9179
   12.675    3.5282
   12.690    3.3807
   12.705    3.6756
   12.720    3.5598
   12.735    3.7072
   12.750    3.9179
   12.765    3.6546
   12.780    3.5808
   12.795    3.5808
   12.810    3.6230
   12.825    3.6230
   12.840    3.8125
   12.855    3.5703
   12.870    3.4966
   12.885    3.4650
   12.900    3.6335
   12.915    3.7704
   12.930    3.8968
   12.945    3.6651
   12.960    3.7809
   12.975    3.6651
   12.990    3.6230
   13.005    3.8757
   13.020    3.7704
   13.035    3.5914
   13.050    3.7809
   13.065    3.4439
   13.080    3.8125
   13.095    3.5387
   13.110    3.5808
   13.125    3.6651
   13.140    3.4439
   13.155    3.5703
   13.170    3.5808
   13.185    3.4966
   13.200    3.5703
   13.215    3.2227
   13.230    3.3386
   13.245    3.2754
   13.260    3.2965
   13.275    3.5808
   13.290    3.4018
   13.305    3.4860
   13.320    3.3913
   13.335    3.5282
   13.350    3.3281
   13.365    3.6756
   13.380    3.4439
   13.395    3.3281
   13.410    3.6546
   13.425    3.5282
   13.440    3.4123
   13.455    3.8125
   13.470    3.6756
   13.485    3.3491
   13.500    3.6862
   13.515    3.6546
   13.530    3.7072
   13.545    3.5176
   13.560    3.6335
   13.575    3.4439
   13.590    3.5492
   13.605    3.5071
   13.620    3.5176
   13.635    3.6756
   13.650    3.4123
   13.665    3.7599
   13.680    3.6230
   13.695    3.6651
   13.710    3.6019
   13.725    3.6019
   13.740    3.7388
   13.755    3.5176
   13.770    3.5808
   13.785    3.7283
   13.800    3.8020
   13.815    3.3386
   13.830    3.3913
   13.845    3.4755
   13.860    3.2754
   13.875    3.4966
   13.890    3.7283
   13.905    3.8441
   13.920    3.5387
   13.935    3.5176
   13.950    3.5808
   13.965    3.4334
   13.980    3.6019
   13.995    3.5176
   14.010    3.7493
   14.025    3.5282
   14.040    3.4860
   14.055    3.2965
   14.070    3.7283
   14.085    3.4544
   14.100    3.5492
   14.115    3.2333
   14.130    3.0121
   14.145    3.5071
   14.160    3.7704
   14.175    3.5703
   14.190    3.4334
   14.205    3.0964
   14.220    3.5808
   14.235    3.4650
   14.250    3.4229
   14.265    3.3702
   14.280    3.4334
   14.295    3.1912
   14.310    3.1385
   14.325    3.3281
   14.340    3.1806
   14.355    3.3281
   14.370    3.1280
   14.385    3.1701
   14.400    3.2754
   14.415    3.4860
   14.430    3.4123
   14.445    3.2438
   14.460    3.6335
   14.475    3.0332
   14.490    3.1596
   14.505    3.4966
   14.520    3.3175
   14.535    3.1069
   14.550    3.3491
   14.565    3.0858
   14.580    3.3175
   14.595    3.3175
   14.610    3.2438
   14.625    3.4544
   14.640    3.4439
   14.655    3.4123
   14.670    3.3913
   14.685    3.2017
   14.700    3.4123
   14.715    3.4439
   14.730    3.3807
   14.745    3.3702
   14.760    3.5176
   14.775    3.5071
   14.790    3.5387
   14.805    3.2649
   14.820    3.4650
   14.835    3.5492
   14.850    3.5808
   14.865    3.2333
   14.880    3.3807
   14.895    3.4544
   14.910    3.3070
   14.925    3.4229
   14.940    3.3491
   14.955    3.3491
   14.970    3.4755
   14.985    3.4018
   15.000    3.1912
   15.015    3.0542
   15.030    3.0226
   15.045    3.5176
   15.060    3.1596
   15.075    3.2122
   15.090    3.5914
   15.105    3.6440
   15.120    3.3070
   15.135    3.2227
   15.150    3.2227
   15.165    3.5282
   15.180    3.4650
   15.195    3.4229
   15.210    3.4439
   15.225    3.5176
   15.240    3.6335
   15.255    3.4439
   15.270    3.1385
   15.285    3.1912
   15.300    3.3175
   15.315    3.3597
   15.330    3.4123
   15.345    3.1490
   15.360    3.1701
   15.375    3.3175
   15.390    3.1912
   15.405    3.4544
   15.420    3.3597
   15.435    3.5176
   15.450    3.2122
   15.465    3.2859
   15.480    3.2017
   15.495    3.2754
   15.510    3.3070
   15.525    3.2333
   15.540    3.3281
   15.555    3.2754
   15.570    3.4018
   15.585    3.2965
   15.600    3.3913
   15.615    3.7388
   15.630    3.4439
   15.645    3.5282
   15.660    3.6230
   15.675    3.2965
   15.690    3.0332
   15.705    3.2122
   15.720    3.4439
   15.735    3.3491
   15.750    3.4229
   15.765    3.4650
   15.780    3.5387
   15.795    3.2543
   15.810    3.2543
   15.825    3.6230
   15.840    3.3702
   15.855    3.2543
   15.870    3.6019
   15.885    3.4439
   15.900    3.2227
   15.915    3.6440
   15.930    3.5176
   15.945    3.4439
   15.960    3.5598
   15.975    3.2543
   15.990    3.3702
   16.005    3.4544
   16.020    3.3281
   16.035    3.3491
   16.050    3.4755
   16.065    3.3597
   16.080    3.5492
   16.095    3.2859
   16.110    3.5071
   16.125    3.5598
   16.140    3.3913
   16.155    3.3070
   16.170    3.2859
   16.185    3.4334
   16.200    3.5071
   16.215    3.4018
   16.230    3.4123
   16.245    3.4650
   16.260    3.3913
   16.275    3.5492
   16.290    3.4860
   16.305    3.3913
   16.320    3.4966
   16.335    3.3386
   16.350    3.4439
   16.365    3.4966
   16.380    3.5808
   16.395    3.4650
   16.410    3.5808
   16.425    3.4544
   16.440    3.7809
   16.455    3.5176
   16.470    3.5071
   16.485    3.3070
   16.500    3.2227
   16.515    3.4544
   16.530    3.2649
   16.545    3.5387
   16.560    3.2754
   16.575    3.5492
   16.590    3.5387
   16.605    3.2333
   16.620    3.2859
   16.635    3.6546
   16.650    3.5176
   16.665    3.2649
   16.680    3.4966
   16.695    3.5071
   16.710    3.2754
   16.725    3.2543
   16.740    3.4018
   16.755    3.4123
   16.770    3.4439
   16.785    3.2965
   16.800    3.3491
   16.815    3.4439
   16.830    3.2122
   16.845    3.2122
   16.860    3.3070
   16.875    3.4123
   16.890    3.3386
   16.905    3.3070
   16.920    3.2649
   16.935    3.3281
   16.950    3.3281
   16.965    3.4018
   16.980    3.4123
   16.995    3.3070
   17.010    3.4334
   17.025    3.4966
   17.040    3.3597
   17.055    3.5914
   17.070    3.5071
   17.085    3.5808
   17.100    3.4755
   17.115    3.5282
   17.130    3.5071
   17.145    3.6124
   17.160    3.6019
   17.175    3.5387
   17.190    3.6862
   17.205    3.4439
   17.220    3.3702
   17.235    3.5703
   17.250    3.2859
   17.265    3.5071
   17.280    3.4860
   17.295    3.4860
   17.310    3.5598
   17.325    3.5808
   17.340    3.5071
   17.355    3.3491
   17.370    3.1806
   17.385    3.2754
   17.400    3.3807
   17.415    3.3491
   17.430    3.2965
   17.445    3.1385
   17.460    3.1490
   17.475    3.4860
   17.490    3.2543
   17.505    3.5176
   17.520    3.5282
   17.535    3.5387
   17.550    3.6019
   17.565    3.4018
   17.580    3.4544
   17.595    3.5176
   17.610    3.6440
   17.625    3.3597
   17.640    3.3281
   17.655    3.4334
   17.670    3.5598
   17.685    3.1701
   17.700    3.3070
   17.715    3.2017
   17.730    3.5176
   17.745    3.6019
   17.760    3.4439
   17.775    3.4229
   17.790    3.4334
   17.805    3.4966
   17.820    3.3281
   17.835    3.5703
   17.850    3.3807
   17.865    3.6124
   17.880    3.3491
   17.895    3.3913
   17.910    3.7177
   17.925    3.7599
   17.940    3.5808
   17.955    3.5176
   17.970    3.4123
   17.985    3.5703
   18.000    3.5176
   18.015    3.4334
   18.030    3.2333
   18.045    3.2017
   18.060    3.5492
   18.075    3.7915
   18.090    3.8020
   18.105    3.6440
   18.120    3.3597
   18.135    3.2122
   18.150    3.5176
   18.165    3.5071
   18.180    3.6651
   18.195    3.5914
   18.210    3.5387
   18.225    3.5071
   18.240    3.4544
   18.255    3.3913
   18.270    3.3597
   18.285    3.3807
   18.300    3.1701
   18.315    3.4755
   18.330    3.6546
   18.345    3.6651
   18.360    3.4755
   18.375    3.3913
   18.390    3.6651
   18.405    3.8863
   18.420    3.5176
   18.435    3.3807
   18.450    3.0858
   18.465    3.2859
   18.480    3.4123
   18.495    3.2438
   18.510    3.2438
   18.525    3.4650
   18.540    3.5282
   18.555    3.1806
   18.570    3.6651
   18.585    3.6546
   18.600    3.6651
   18.615    3.5808
   18.630    3.7283
   18.645    3.4123
   18.660    3.3597
   18.675    3.2965
   18.690    3.2754
   18.705    3.3597
   18.720    3.2859
   18.735    3.1701
   18.750    3.3386
   18.765    3.6230
   18.780    3.4966
   18.795    3.7493
   18.810    3.4544
   18.825    3.3175
   18.840    3.1912
   18.855    3.7177
   18.870    3.6546
   18.885    3.5703
   18.900    3.4334
   18.915    3.5703
   18.930    3.6019
   18.945    3.5492
   18.960    3.4229
   18.975    3.7704
   18.990    3.8125
   19.005    3.5703
   19.020    3.6335
   19.035    3.6651
   19.050    3.4544
   19.065    3.6335
   19.080    3.4439
   19.095    3.3597
   19.110    3.3597
   19.125    3.1596
   19.140    3.5598
   19.155    3.6019
   19.170    3.4650
   19.185    3.2859
   19.200    3.1912
   19.215    3.4650
   19.230    3.6440
   19.245    3.5176
   19.260    3.8652
   19.275    3.4334
   19.290    3.1912
   19.305    3.6019
   19.320    3.6651
   19.335    3.2754
   19.350    3.4860
   19.365    3.1490
   19.380    3.4544
   19.395    3.7704
   19.410    3.5282
   19.425    3.6019
   19.440    3.7177
   19.455    3.6967
   19.470    3.6230
   19.485    3.7704
   19.500    3.7072
   19.515    3.7072
   19.530    3.4755
   19.545    3.5914
   19.560    3.4755
   19.575    3.8231
   19.590    3.5808
   19.605    3.6546
   19.620    3.7388
   19.635    3.5176
   19.650    3.5071
   19.665    3.6335
   19.680    3.6440
   19.695    3.7599
   19.710    3.7177
   19.725    3.8863
   19.740    3.5598
   19.755    3.5387
   19.770    3.8231
   19.785    3.4860
   19.800    3.5914
   19.815    3.3281
   19.830    3.7177
   19.845    3.6230
   19.860    3.5914
   19.875    3.5703
   19.890    4.0548
   19.905    3.7915
   19.920    3.7809
   19.935    3.6019
   19.950    3.5387
   19.965    3.4860
   19.980    3.8547
   19.995    3.4966
   20.010    3.6019
   20.025    3.9179
   20.040    3.7809
   20.055    3.7599
   20.070    3.7177
   20.085    3.6756
   20.100    3.5492
   20.115    3.6967
   20.130    3.6967
   20.145    3.5808
   20.160    3.8652
   20.175    3.7388
   20.190    3.6546
   20.205    3.5598
   20.220    3.4966
   20.235    3.5071
   20.250    3.6124
   20.265    3.6019
   20.280    3.7177
   20.295    3.8020
   20.310    3.5282
   20.325    3.8125
   20.340    3.9600
   20.355    3.7493
   20.370    4.0969
   20.385    3.9179
   20.400    3.6019
   20.415    3.5387
   20.430    3.6124
   20.445    3.6862
   20.460    3.5598
   20.475    3.7809
   20.490    3.7388
   20.505    3.7493
   20.520    3.7072
   20.535    3.3386
   20.550    3.4439
   20.565    3.6019
   20.580    3.5808
   20.595    3.5387
   20.610    3.6019
   20.625    3.7072
   20.640    3.5176
   20.655    3.5282
   20.670    3.3807
   20.685    3.6019
   20.700    3.9916
   20.715    3.7704
   20.730    3.7599
   20.745    3.7704
   20.760    3.8125
   20.775    4.0969
   20.790    3.7493
   20.805    4.0021
   20.820    3.7915
   20.835    3.7704
   20.850    4.0232
   20.865    3.8863
   20.880    3.7072
   20.895    3.8231
   20.910    3.8441
   20.925    3.8441
   20.940    3.9600
   20.955    3.7283
   20.970    3.7283
   20.985    3.7599
   21.000    3.8020
   21.015    4.0864
   21.030    3.8547
   21.045    3.8231
   21.060    3.6967
   21.075    3.6862
   21.090    3.9389
   21.105    3.7915
   21.120    3.8757
   21.135    4.0442
   21.150    3.8125
   21.165    3.7283
   21.180    3.8968
   21.195    3.7915
   21.210    3.8336
   21.225    3.8020
   21.240    3.9179
   21.255    3.8336
   21.270    3.5598
   21.285    3.9073
   21.300    3.6440
   21.315    3.7388
   21.330    3.7177
   21.345    3.7809
   21.360    3.4966
   21.375    3.4966
   21.390    3.6335
   21.405    3.9073
   21.420    3.7599
   21.435    3.9284
   21.450    4.0337
   21.465    3.6546
   21.480    3.7704
   21.495    3.6862
   21.510    3.6124
   21.525    3.8441
   21.540    3.6440
   21.555    3.7283
   21.570    3.9600
   21.585    3.7599
   21.600    3.9179
   21.615    3.9179
   21.630    3.5808
   21.645    3.6967
   21.660    3.7809
   21.675    3.6546
   21.690    3.7599
   21.705    3.8757
   21.720    3.1912
   21.735    3.6862
   21.750    4.0126
   21.765    3.6967
   21.780    3.4860
   21.795    3.8652
   21.810    3.9179
   21.825    3.7072
   21.840    3.5071
   21.855    3.6651
   21.870    3.4334
   21.885    3.4755
   21.900    3.6335
   21.915    3.6967
   21.930    3.9284
   21.945    3.7493
   21.960    3.6862
   21.975    3.8231
   21.990    4.0969
   22.005    3.7177
   22.020    4.0442
   22.035    3.5598
   22.050    3.9916
   22.065    3.9600
   22.080    3.6440
   22.095    3.6440
   22.110    3.5282
   22.125    3.8547
   22.140    3.7809
   22.155    3.6862
   22.170    3.6230
   22.185    3.6862
   22.200    3.7704
   22.215    3.9494
   22.230    3.8968
   22.245    3.6230
   22.260    3.8757
   22.275    4.0758
   22.290    4.0442
   22.305    4.0969
   22.320    4.0548
   22.335    3.9600
   22.350    3.9284
   22.365    3.8757
   22.380    3.8441
   22.395    3.4123
   22.410    3.6230
   22.425    3.7283
   22.440    4.1917
   22.455    3.9073
   22.470    3.9810
   22.485    3.9600
   22.500    3.7915
   22.515    3.6230
   22.530    3.8125
   22.545    3.9916
   22.560    3.9179
   22.575    3.9494
   22.590    3.7704
   22.605    3.8757
   22.620    3.9705
   22.635    3.7283
   22.650    3.9810
   22.665    3.7599
   22.680    3.6862
   22.695    3.6967
   22.710    3.6756
   22.725    3.5176
   22.740    3.5492
   22.755    4.0021
   22.770    3.6756
   22.785    3.6546
   22.800    3.8020
   22.815    4.0126
   22.830    3.6230
   22.845    3.6651
   22.860    3.5492
   22.875    3.3597
   22.890    3.8125
   22.905    3.6440
   22.920    3.5176
   22.935    3.7177
   22.950    3.7599
   22.965    4.0548
   22.980    3.7599
   22.995    4.0337
   23.010    3.9389
   23.025    3.9494
   23.040    3.9073
   23.055    4.0232
   23.070    3.7704
   23.085    3.8336
   23.100    3.6756
   23.115    3.6546
   23.130    3.8336
   23.145    4.0548
   23.160    3.6546
   23.175    3.9600
   23.190    4.1601
   23.205    3.6124
   23.220    3.6230
   23.235    3.8336
   23.250    3.9179
   23.265    3.9179
   23.280    3.9389
   23.295    3.8968
   23.310    3.6862
   23.325    3.5071
   23.340    3.3597
   23.355    3.8968
   23.370    3.6756
   23.385    3.5071
   23.400    3.7283
   23.415    3.8652
   23.430    4.0758
   23.445    3.6124
   23.460    3.8652
   23.475    3.8441
   23.490    3.7283
   23.505    3.5492
   23.520    3.8336
   23.535    3.6546
   23.550    4.0969
   23.565    3.7177
   23.580    3.7388
   23.595    3.8968
   23.610    3.9494
   23.625    4.0232
   23.640    3.7915
   23.655    3.8020
   23.670    3.4966
   23.685    3.7599
   23.700    4.1074
   23.715    3.7283
   23.730    3.5176
   23.745    3.5176
   23.760    3.5914
   23.775    3.6335
   23.790    3.6124
   23.805    3.8547
   23.820    3.9073
   23.835    3.7493
   23.850    3.8020
   23.865    3.6335
   23.880    3.6440
   23.895    3.6440
   23.910    3.6862
   23.925    3.6862
   23.940    3.5282
   23.955    3.6440
   23.970    3.4860
   23.985    3.5176
   24.000    3.4123
   24.015    3.5492
   24.030    3.5703
   24.045    3.7915
   24.060    3.5387
   24.075    3.7072
   24.090    3.7493
   24.105    3.7809
   24.120    3.6335
   24.135    3.6967
   24.150    3.8968
   24.165    3.8336
   24.180    3.6546
   24.195    3.6124
   24.210    3.4123
   24.225    3.5703
   24.240    3.6019
   24.255    3.6546
   24.270    3.7388
   24.285    4.0337
   24.300    4.1496
   24.315    3.9389
   24.330    3.3597
   24.345    3.4229
   24.360    3.8863
   24.375    3.6335
   24.390    3.4123
   24.405    3.7704
   24.420    3.6546
   24.435    3.8336
   24.450    3.8757
   24.465    3.5387
   24.480    3.3597
   24.495    3.5598
   24.510    3.4439
   24.525    3.6440
   24.540    3.6651
   24.555    3.4755
   24.570    3.8547
   24.585    3.6124
   24.600    3.6862
   24.615    3.9600
   24.630    3.7809
   24.645    3.4334
   24.660    3.6967
   24.675    3.6019
   24.690    3.6230
   24.705    3.6230
   24.720    3.3702
   24.735    3.7388
   24.750    3.7599
   24.765    3.4755
   24.780    3.5176
   24.795    3.6546
   24.810    3.7388
   24.825    3.5808
   24.840    3.3807
   24.855    3.4439
   24.870    3.6967
   24.885    3.5598
   24.900    3.5808
   24.915    3.8336
   24.930    3.5176
   24.945    3.6335
   24.960    3.4544
   24.975    3.4755
   24.990    3.7809
   25.005    3.5282
   25.020    3.7599
   25.035    3.5808
   25.050    3.5387
   25.065    3.8231
   25.080    3.7915
   25.095    3.5176
   25.110    3.5703
   25.125    3.4018
   25.140    3.3281
   25.155    3.3386
   25.170    3.3807
   25.185    3.6230
   25.200    3.6230
   25.215    3.8231
   25.230    3.7388
   25.245    3.2649
   25.260    3.4018
   25.275    3.6967
   25.290    3.3070
   25.305    3.7072
   25.320    3.6124
   25.335    3.2227
   25.350    3.4755
   25.365    3.4650
   25.380    3.4755
   25.395    3.5176
   25.410    3.4544
   25.425    3.7177
   25.440    3.8020
   25.455    3.4334
   25.470    3.6651
   25.485    3.5703
   25.500    3.8547
   25.515    3.5598
   25.530    3.2754
   25.545    3.3175
   25.560    3.2649
   25.575    3.3281
   25.590    3.5176
   25.605    3.2438
   25.620    3.5808
   25.635    3.7493
   25.650    3.7599
   25.665    3.5282
   25.680    3.6546
   25.695    3.4966
   25.710    3.5282
   25.725    3.4966
   25.740    3.3913
   25.755    3.8231
   25.770    3.5914
   25.785    3.4439
   25.800    3.5176
   25.815    3.5387
   25.830    3.6440
   25.845    3.7388
   25.860    3.6756
   25.875    3.4650
   25.890    3.2438
   25.905    3.4544
   25.920    3.3175
   25.935    3.5492
   25.950    3.6230
   25.965    3.3386
   25.980    3.2227
   25.995    3.2333
   26.010    3.4334
   26.025    3.4966
   26.040    3.6440
   26.055    3.3491
   26.070    3.1596
   26.085    3.2649
   26.100    3.4018
   26.115    3.6967
   26.130    3.5387
   26.145    3.3597
   26.160    3.2543
   26.175    3.2543
   26.190    3.3070
   26.205    3.3281
   26.220    3.3386
   26.235    3.4755
   26.250    3.5492
   26.265    3.5492
   26.280    3.2859
   26.295    3.2122
   26.310    3.2227
   26.325    3.0964
   26.340    3.3702
   26.355    3.2333
   26.370    3.2859
   26.385    3.3281
   26.400    3.5387
   26.415    3.6230
   26.430    3.2649
   26.445    3.4650
   26.460    3.5071
   26.475    3.3281
   26.490    3.4334
   26.505    3.2649
   26.520    3.4018
   26.535    3.2543
   26.550    3.4439
   26.565    3.3913
   26.580    3.1912
   26.595    3.5387
   26.610    3.3913
   26.625    3.3702
   26.640    3.2438
   26.655    3.4966
   26.670    3.2543
   26.685    3.1701
   26.700    3.0121
   26.715    3.4229
   26.730    3.4755
   26.745    3.4334
   26.760    3.4544
   26.775    3.3281
   26.790    3.0332
   26.805    3.3491
   26.820    3.3702
   26.835    3.4229
   26.850    2.9805
   26.865    3.0016
   26.880    2.9595
   26.895    3.2122
   26.910    3.1280
   26.925    3.5703
   26.940    3.4018
   26.955    3.2859
   26.970    3.1806
   26.985    3.1596
   27.000    3.3807
   27.015    3.1912
   27.030    3.3702
   27.045    3.1912
   27.060    3.2333
   27.075    3.1912
   27.090    3.2017
   27.105    3.3913
   27.120    3.3491
   27.135    3.2227
   27.150    3.2543
   27.165    3.4544
   27.180    3.1912
   27.195    3.3070
   27.210    3.2649
   27.225    3.3597
   27.240    3.3070
   27.255    3.3807
   27.270    2.9910
   27.285    3.5071
   27.300    3.1912
   27.315    3.4123
   27.330    3.2965
   27.345    3.2333
   27.360    3.5703
   27.375    3.4860
   27.390    3.3175
   27.405    3.1174
   27.420    3.3386
   27.435    3.4544
   27.450    3.0121
   27.465    3.0332
   27.480    3.3491
   27.495    3.0964
   27.510    2.9595
   27.525    3.0332
   27.540    2.9489
   27.555    3.1596
   27.570    3.4544
   27.585    3.3386
   27.600    3.2227
   27.615    3.1596
   27.630    3.1069
   27.645    3.2017
   27.660    3.1596
   27.675    3.4966
   27.690    3.4755
   27.705    3.1701
   27.720    3.1701
   27.735    3.2438
   27.750    3.5598
   27.765    3.3913
   27.780    3.5387
   27.795    3.5071
   27.810    3.1596
   27.825    3.0332
   27.840    3.3702
   27.855    3.3597
   27.870    3.4123
   27.885    3.4123
   27.900    3.1701
   27.915    3.1280
   27.930    3.4229
   27.945    3.3175
   27.960    3.2333
   27.975    3.2227
   27.990    3.2227
   28.005    3.3175
   28.020    3.2754
   28.035    3.4018
   28.050    3.3281
   28.065    3.4650
   28.080    3.2543
   28.095    3.2649
   28.110    3.5387
   28.125    3.2543
   28.140    3.1596
   28.155    2.8963
   28.170    3.2438
   28.185    3.2859
   28.200    3.3807
   28.215    3.2438
   28.230    3.2649
   28.245    3.4439
   28.260    3.2333
   28.275    3.3807
   28.290    3.2543
   28.305    3.3386
   28.320    3.1069
   28.335    3.1596
   28.350    3.4334
   28.365    3.3702
   28.380    3.2649
   28.395    3.2649
   28.410    3.2333
   28.425    2.9595
   28.440    3.3070
   28.455    3.1280
   28.470    3.0648
   28.485    3.2017
   28.500    3.3281
   28.515    3.2649
   28.530    3.0753
   28.545    3.3597
   28.560    3.4123
   28.575    3.5598
   28.590    3.2649
   28.605    3.3070
   28.620    3.2438
   28.635    3.2438
   28.650    3.2754
   28.665    3.2543
   28.680    3.0753
   28.695    3.2017
   28.710    2.8752
   28.725    3.2333
   28.740    3.6756
   28.755    3.2333
   28.770    3.2438
   28.785    3.3702
   28.800    3.0121
   28.815    3.1596
   28.830    3.1280
   28.845    3.0332
   28.860    3.0964
   28.875    3.2017
   28.890    3.0542
   28.905    3.2649
   28.920    3.2227
   28.935    3.3386
   28.950    3.0437
   28.965    3.4544
   28.980    3.0226
   28.995    3.1385
   29.010    3.1280
   29.025    3.3070
   29.040    3.1701
   29.055    3.1596
   29.070    2.9173
   29.085    3.1490
   29.100    3.1280
   29.115    2.9805
   29.130    2.8857
   29.145    3.2227
   29.160    3.0964
   29.175    3.2543
   29.190    2.7383
   29.205    2.9489
   29.220    3.0753
   29.235    3.0121
   29.250    3.0016
   29.265    3.0332
   29.280    3.0753
   29.295    3.3281
   29.310    3.1174
   29.325    3.1385
   29.340    3.0542
   29.355    3.1490
   29.370    3.4123
   29.385    3.1806
   29.400    2.8963
   29.415    3.1701
   29.430    3.1385
   29.445    3.1174
   29.460    3.2754
   29.475    3.2122
   29.490    3.1596
   29.505    3.0648
   29.520    3.0542
   29.535    3.0964
   29.550    3.0858
   29.565    3.2543
   29.580    3.0964
   29.595    3.0121
   29.610    3.0016
   29.625    3.2333
   29.640    3.3281
   29.655    3.0858
   29.670    2.9700
   29.685    2.8225
   29.700    3.0332
   29.715    3.0858
   29.730    3.0332
   29.745    3.1280
   29.760    2.9489
   29.775    2.9700
   29.790    3.0016
   29.805    3.1806
   29.820    2.9384
   29.835    3.0332
   29.850    3.1596
   29.865    2.9279
   29.880    2.9279
   29.895    2.9910
   29.910    3.0648
   29.925    3.0437
   29.940    3.0016
   29.955    2.9279
   29.970    2.9700
   29.985    2.9279
   30.000    2.9700
   30.015    2.9489
   30.030    3.0542
   30.045    2.7383
   30.060    3.0964
   30.075    3.1701
   30.090    3.0121
   30.105    2.9173
   30.120    3.0121
   30.135    3.0016
   30.150    3.1596
   30.165    2.8015
   30.180    3.0648
   30.195    3.0648
   30.210    2.9384
   30.225    3.2017
   30.240    3.2227
   30.255    2.8857
   30.270    2.7383
   30.285    3.0332
   30.300    3.0332
   30.315    3.3175
   30.330    3.0858
   30.345    3.0648
   30.360    3.0016
   30.375    2.7172
   30.390    2.7278
   30.405    2.8436
   30.420    2.9173
   30.435    3.2017
   30.450    3.1596
   30.465    2.8225
   30.480    2.7909
   30.495    3.1490
   30.510    3.0753
   30.525    3.0121
   30.540    3.0226
   30.555    3.0016
   30.570    3.0542
   30.585    2.8963
   30.600    2.9805
   30.615    2.9279
   30.630    2.9173
   30.645    2.8436
   30.660    3.0016
   30.675    2.7278
   30.690    2.9700
   30.705    2.8225
   30.720    3.0226
   30.735    2.8436
   30.750    2.7593
   30.765    2.8857
   30.780    2.8857
   30.795    2.9805
   30.810    2.8331
   30.825    2.6751
   30.840    3.0332
   30.855    2.9700
   30.870    2.9910
   30.885    2.7593
   30.900    2.8647
   30.915    3.1701
   30.930    2.7909
   30.945    2.8752
   30.960    2.8647
   30.975    2.8752
   30.990    2.7909
   31.005    2.7593
   31.020    3.0648
   31.035    3.2122
   31.050    2.8647
   31.065    2.8120
   31.080    2.7909
   31.095    2.7172
   31.110    2.8857
   31.125    2.7804
   31.140    3.0964
   31.155    2.9279
   31.170    2.8436
   31.185    2.9595
   31.200    2.6540
   31.215    2.7278
   31.230    2.4961
   31.245    2.7067
   31.260    2.8120
   31.275    2.9384
   31.290    2.9173
   31.305    3.0542
   31.320    2.9700
   31.335    2.9595
   31.350    2.9700
   31.365    2.9910
   31.380    2.8857
   31.395    2.8331
   31.410    3.2754
   31.425    2.8963
   31.440    2.9068
   31.455    2.9805
   31.470    2.8436
   31.485    2.6540
   31.500    2.9489
   31.515    2.8015
   31.530    2.9805
   31.545    2.6540
   31.560    2.7488
   31.575    2.9805
   31.590    2.8541
   31.605    2.7909
   31.620    2.7593
   31.635    2.8225
   31.650    2.8436
   31.665    3.0437
   31.680    3.1069
   31.695    2.8857
   31.710    3.1280
   31.725    2.8963
   31.740    2.9595
   31.755    2.8541
   31.770    2.8436
   31.785    3.0121
   31.800    2.7278
   31.815    2.8541
   31.830    3.0858
   31.845    2.7383
   31.860    2.8120
   31.875    2.9805
   31.890    2.8541
   31.905    2.8647
   31.920    2.9805
   31.935    2.9910
   31.950    2.8120
   31.965    2.7909
   31.980    2.9068
   31.995    2.9384
   32.010    3.2122
   32.025    2.8120
   32.040    2.8120
   32.055    2.8752
   32.070    3.1701
   32.085    3.2438
   32.100    3.2122
   32.115    3.0121
   32.130    2.8752
   32.145    3.1806
   32.160    3.0753
   32.175    2.8225
   32.190    2.9384
   32.205    2.8647
   32.220    2.7804
   32.235    2.8857
   32.250    2.9068
   32.265    2.6962
   32.280    2.8225
   32.295    2.7488
   32.310    2.9700
   32.325    2.5698
   32.340    2.4750
   32.355    2.4645
   32.370    2.5908
   32.385    2.8647
   32.400    2.6856
   32.415    2.6751
   32.430    2.5276
   32.445    2.8225
   32.460    2.8963
   32.475    2.3381
   32.490    2.8225
   32.505    2.7804
   32.520    2.7067
   32.535    2.7278
   32.550    2.7278
   32.565    2.9384
   32.580    2.7278
   32.595    2.4961
   32.610    2.6224
   32.625    2.8015
   32.640    2.7067
   32.655    2.8963
   32.670    2.7593
   32.685    2.7593
   32.700    2.6224
   32.715    2.6224
   32.730    2.7278
   32.745    2.6014
   32.760    2.7804
   32.775    2.6962
   32.790    2.7067
   32.805    2.6540
   32.820    2.6435
   32.835    2.6119
   32.850    2.6751
   32.865    2.6435
   32.880    2.5698
   32.895    2.6540
   32.910    2.5908
   32.925    2.6540
   32.940    2.7699
   32.955    2.4961
   32.970    2.5908
   32.985    3.0226
   33.000    2.6856
   33.015    2.5803
   33.030    2.6014
   33.045    2.7383
   33.060    2.5171
   33.075    2.6856
   33.090    2.4645
   33.105    2.6119
   33.120    2.4329
   33.135    2.4118
   33.150    2.7699
   33.165    2.5698
   33.180    2.5066
   33.195    2.4645
   33.210    2.6540
   33.225    2.6014
   33.240    2.6224
   33.255    2.8120
   33.270    2.4855
   33.285    2.4961
   33.300    2.4855
   33.315    2.4961
   33.330    2.5592
   33.345    2.6119
   33.360    2.3275
   33.375    2.3486
   33.390    2.8225
   33.405    2.7909
   33.420    2.7488
   33.435    2.4961
   33.450    2.5908
   33.465    2.5803
   33.480    2.7172
   33.495    2.6014
   33.510    2.3486
   33.525    2.5908
   33.540    2.6014
   33.555    2.6540
   33.570    2.6224
   33.585    2.5698
   33.600    2.5171
   33.615    2.4223
   33.630    2.4329
   33.645    2.6856
   33.660    2.6119
   33.675    2.7699
   33.690    2.6119
   33.705    2.2643
   33.720    2.3170
   33.735    2.5487
   33.750    2.3802
   33.765    2.7172
   33.780    2.6646
   33.795    2.7383
   33.810    2.8857
   33.825    2.6435
   33.840    2.6330
   33.855    2.6540
   33.870    2.7172
   33.885    2.7278
   33.900    2.4539
   33.915    2.5698
   33.930    2.6540
   33.945    2.6224
   33.960    2.6330
   33.975    2.6119
   33.990    2.6962
   34.005    2.5908
   34.020    2.4645
   34.035    2.6330
   34.050    2.6224
   34.065    2.4539
   34.080    2.6014
   34.095    2.5592
   34.110    2.3907
   34.125    2.4855
   34.140    2.7488
   34.155    2.5592
   34.170    2.6540
   34.185    2.4645
   34.200    2.3907
   34.215    2.2854
   34.230    2.3697
   34.245    2.1696
   34.260    2.3697
   34.275    2.5592
   34.290    2.4855
   34.305    2.4329
   34.320    2.5803
   34.335    2.3907
   34.350    2.7278
   34.365    2.7172
   34.380    2.4750
   34.395    2.6856
   34.410    2.5066
   34.425    2.3907
   34.440    2.3065
   34.455    2.3591
   34.470    2.4961
   34.485    2.5698
   34.500    2.4961
   34.515    2.3381
   34.530    2.5066
   34.545    2.6014
   34.560    2.4961
   34.575    2.3275
   34.590    2.3486
   34.605    2.5592
   34.620    2.5698
   34.635    2.4013
   34.650    2.2749
   34.665    2.3907
   34.680    2.4961
   34.695    2.3486
   34.710    2.4539
   34.725    2.4013
   34.740    2.2749
   34.755    2.3591
   34.770    2.3065
   34.785    2.2643
   34.800    2.2222
   34.815    2.3697
   34.830    2.5803
   34.845    2.3381
   34.860    2.3802
   34.875    2.1696
   34.890    2.3907
   34.905    2.5276
   34.920    2.4750
   34.935    2.6330
   34.950    2.3802
   34.965    2.2433
   34.980    2.1801
   34.995    2.4118
   35.010    2.3907
   35.025    2.1064
   35.040    2.2643
   35.055    2.6646
   35.070    2.3275
   35.085    2.1906
   35.100    2.2749
   35.115    2.2222
   35.130    2.3170
   35.145    2.2643
   35.160    2.1590
   35.175    2.2222
   35.190    2.2433
   35.205    2.3065
   35.220    2.3065
   35.235    2.3907
   35.250    2.4118
   35.265    2.2117
   35.280    2.5066
   35.295    2.2538
   35.310    2.2117
   35.325    2.3381
   35.340    2.3486
   35.355    2.4539
   35.370    2.2749
   35.385    2.4013
   35.400    2.1485
   35.415    2.0642
   35.430    2.3275
   35.445    2.3591
   35.460    2.4539
   35.475    2.4961
   35.490    2.4013
   35.505    2.3802
   35.520    2.5382
   35.535    2.3275
   35.550    2.1274
   35.565    2.3591
   35.580    2.3907
   35.595    2.2749
   35.610    2.2643
   35.625    2.1590
   35.640    2.3170
   35.655    2.5487
   35.670    2.1485
   35.685    2.1906
   35.700    2.1906
   35.715    2.2538
   35.730    2.1696
   35.745    2.3907
   35.760    2.2643
   35.775    2.2328
   35.790    2.2643
   35.805    2.2749
   35.820    2.1696
   35.835    2.1906
   35.850    2.2117
   35.865    2.3275
   35.880    2.1169
   35.895    2.1380
   35.910    2.4223
   35.925    2.1485
   35.940    2.2643
   35.955    2.2433
   35.970    2.3065
   35.985    2.0853
   36.000    2.1064
   36.015    2.2854
   36.030    2.1274
   36.045    2.1696
   36.060    2.3591
   36.075    2.2222
   36.090    2.3381
   36.105    2.2433
   36.120    2.2854
   36.135    2.2328
   36.150    2.1906
   36.165    2.2749
   36.180    2.2749
   36.195    2.4329
   36.210    2.1485
   36.225    2.1169
   36.240    2.1906
   36.255    2.2328
   36.270    2.4329
   36.285    2.2749
   36.300    2.2959
   36.315    2.1906
   36.330    2.3275
   36.345    2.1485
   36.360    2.2433
   36.375    2.1485
   36.390    2.0537
   36.405    2.1906
   36.420    2.3802
   36.435    2.2538
   36.450    2.2117
   36.465    2.2012
   36.480    2.0958
   36.495    2.1590
   36.510    2.3802
   36.525    2.3381
   36.540    2.2328
   36.555    2.0326
   36.570    2.2012
   36.585    2.2433
   36.600    2.2222
   36.615    2.3275
   36.630    2.2854
   36.645    2.1274
   36.660    2.2959
   36.675    2.2328
   36.690    2.0958
   36.705    1.9168
   36.720    2.0958
   36.735    2.0221
   36.750    2.2433
   36.765    2.1906
   36.780    2.0748
   36.795    2.1169
   36.810    2.3065
   36.825    2.2222
   36.840    2.1380
   36.855    2.2433
   36.870    2.1064
   36.885    2.0748
   36.900    2.2643
   36.915    2.0958
   36.930    2.2854
   36.945    2.1485
   36.960    2.2959
   36.975    2.2749
   36.990    2.3275
   37.005    2.2433
   37.020    2.0537
   37.035    2.1801
   37.050    2.0537
   37.065    1.9589
   37.080    2.1274
   37.095    2.1274
   37.110    1.9800
   37.125    2.1801
   37.140    2.1485
   37.155    2.1274
   37.170    2.0853
   37.185    1.9695
   37.200    2.0011
   37.215    2.0221
   37.230    2.2749
   37.245    2.0432
   37.260    2.0958
   37.275    1.9905
   37.290    2.2538
   37.305    2.4329
   37.320    2.2222
   37.335    2.2117
   37.350    2.3697
   37.365    2.3907
   37.380    2.1380
   37.395    2.1590
   37.410    1.9800
   37.425    2.0958
   37.440    1.8431
   37.455    2.0642
   37.470    2.1169
   37.485    1.9379
   37.500    1.9905
   37.515    2.0116
   37.530    2.1906
   37.545    2.1380
   37.560    1.9484
   37.575    2.0116
   37.590    2.0748
   37.605    2.0011
   37.620    2.1169
   37.635    2.0642
   37.650    2.2433
   37.665    2.2328
   37.680    2.0011
   37.695    2.0958
   37.710    1.8220
   37.725    2.2012
   37.740    2.1696
   37.755    2.0958
   37.770    2.1064
   37.785    2.2328
   37.800    2.2749
   37.815    2.3802
   37.830    2.2012
   37.845    2.2117
   37.860    2.0432
   37.875    1.9589
   37.890    2.0853
   37.905    2.1274
   37.920    2.2328
   37.935    2.1064
   37.950    2.0748
   37.965    1.9379
   37.980    1.9800
   37.995    2.0642
   38.010    2.1590
   38.025    2.0011
   38.040    1.9379
   38.055    1.9905
   38.070    2.0853
   38.085    2.0748
   38.100    1.8325
   38.115    2.1696
   38.130    2.0748
   38.145    1.8641
   38.160    2.2012
   38.175    2.0748
   38.190    1.9800
   38.205    1.9695
   38.220    1.9905
   38.235    2.2012
   38.250    1.9168
   38.265    1.8852
   38.280    2.2012
   38.295    1.9273
   38.310    1.8325
   38.325    1.9589
   38.340    2.0853
   38.355    2.1064
   38.370    2.0432
   38.385    2.0537
   38.400    2.2749
   38.415    1.8852
   38.430    1.8957
   38.445    2.0958
   38.460    2.0116
   38.475    2.0642
   38.490    1.8641
   38.505    1.8536
   38.520    1.9800
   38.535    2.0011
   38.550    2.1064
   38.565    2.1064
   38.580    1.9905
   38.595    2.1590
   38.610    2.1169
   38.625    2.1906
   38.640    2.0326
   38.655    2.0642
   38.670    2.1274
   38.685    2.1380
   38.700    1.8641
   38.715    2.0853
   38.730    2.0326
   38.745    2.0116
   38.760    2.2959
   38.775    2.0958
   38.790    2.0748
   38.805    2.0011
   38.820    2.0116
   38.835    2.1485
   38.850    2.0537
   38.865    1.9063
   38.880    2.1801
   38.895    2.2749
   38.910    2.0432
   38.925    2.0116
   38.940    1.9800
   38.955    1.9379
   38.970    2.0958
   38.985    2.1274
   39.000    1.9168
   39.015    1.9695
   39.030    1.8852
   39.045    1.8852
   39.060    1.9589
   39.075    1.9379
   39.090    2.0958
   39.105    1.8536
   39.120    1.9589
   39.135    1.8009
   39.150    1.8747
   39.165    2.1274
   39.180    2.0011
   39.195    2.0116
   39.210    2.3381
   39.225    2.2328
   39.240    1.8641
   39.255    1.8325
   39.270    2.0221
   39.285    1.9800
   39.300    1.7694
   39.315    2.1274
   39.330    2.0748
   39.345    2.0221
   39.360    1.8852
   39.375    2.1380
   39.390    2.0326
   39.405    1.8220
   39.420    2.0326
   39.435    1.9063
   39.450    1.7904
   39.465    1.9063
   39.480    2.1590
   39.495    2.0221
   39.510    2.1485
   39.525    2.2433
   39.540    2.2749
   39.555    2.2854
   39.570    2.0853
   39.585    1.9484
   39.600    1.7904
   39.615    2.0748
   39.630    2.1274
   39.645    2.0221
   39.660    2.3170
   39.675    2.0221
   39.690    2.0853
   39.705    1.9273
   39.720    1.9484
   39.735    2.0537
   39.750    2.0116
   39.765    1.8325
   39.780    1.8852
   39.795    2.0432
   39.810    2.1169
   39.825    1.7799
   39.840    2.0748
   39.855    2.1064
   39.870    2.1380
   39.885    2.0642
   39.900    1.8009
   39.915    1.8536
   39.930    2.0853
   39.945    1.8747
   39.960    2.1380
   39.975    2.0221
   39.990    1.9273
