    1.500   17.6565
    1.515   17.6458
    1.530   17.6672
    1.545   17.4211
    1.560   16.9823
    1.575   16.3189
    1.590   15.8694
    1.605   16.3082
    1.620   15.7838
    1.635   15.2702
    1.650   15.2595
    1.665   14.7352
    1.680   14.4355
    1.695   13.7721
    1.710   13.6437
    1.725   13.4510
    1.740   13.1621
    1.755   13.3761
    1.770   13.0444
    1.785   12.3167
    1.800   11.9422
    1.815   12.1990
    1.830   11.8994
    1.845   11.4928
    1.860   11.1932
    1.875   11.6854
    1.890   11.3323
    1.905   10.3585
    1.920   10.0696
    1.935   10.4762
    1.950   10.5297
    1.965    9.8983
    1.980    9.7485
    1.995    9.8341
    2.010    9.5238
    2.025    9.4489
    2.040    8.9460
    2.055    8.9032
    2.070    8.9781
    2.085    9.0958
    2.100    8.6035
    2.115    8.1755
    2.130    7.9936
    2.145    7.7261
    2.160    7.2231
    2.175    7.5227
    2.190    7.2017
    2.205    6.8807
    2.220    6.6560
    2.235    7.3729
    2.250    7.4264
    2.265    7.5013
    2.280    6.5918
    2.295    6.4098
    2.310    6.6025
    2.325    6.2921
    2.340    6.1530
    2.355    6.2386
    2.370    5.8641
    2.385    6.3884
    2.400    5.8106
    2.415    5.8962
    2.430    5.8106
    2.445    5.5752
    2.460    5.6715
    2.475    5.6822
    2.490    5.4040
    2.505    5.5110
    2.520    5.3612
    2.535    5.2970
    2.550    4.9866
    2.565    4.4730
    2.580    4.7619
    2.595    5.1364
    2.610    5.0187
    2.625    4.8047
    2.640    4.7191
    2.655    4.8689
    2.670    4.2590
    2.685    4.8154
    2.700    4.4837
    2.715    4.7084
    2.730    4.5907
    2.745    4.4623
    2.760    4.5693
    2.775    4.4088
    2.790    4.0342
    2.805    4.1199
    2.820    3.8309
    2.835    3.8095
    2.850    3.9700
    2.865    3.8523
    2.880    3.8309
    2.895    4.1091
    2.910    4.0770
    2.925    3.3922
    2.940    3.8523
    2.955    3.6169
    2.970    3.6276
    2.985    3.8416
    3.000    3.5313
    3.015    3.6062
    3.030    3.7453
    3.045    3.3922
    3.060    3.7560
    3.075    3.9058
    3.090    3.7346
    3.105    3.7346
    3.120    3.5955
    3.135    3.6704
    3.150    3.7988
    3.165    3.7988
    3.180    3.8095
    3.195    3.7132
    3.210    3.6918
    3.225    3.7025
    3.240    3.9486
    3.255    3.5634
    3.270    3.6704
    3.285    3.6383
    3.300    3.7025
    3.315    3.9379
    3.330    3.9272
    3.345    4.0770
    3.360    3.8951
    3.375    3.9379
    3.390    3.8630
    3.405    3.5741
    3.420    3.7025
    3.435    3.7560
    3.450    4.0877
    3.465    3.9700
    3.480    4.1091
    3.495    4.1306
    3.510    4.1948
    3.525    4.1520
    3.540    4.6228
    3.555    4.5693
    3.570    4.6442
    3.585    4.4730
    3.600    4.4944
    3.615    4.8154
    3.630    4.7619
    3.645    4.8903
    3.660    4.6442
    3.675    4.4730
    3.690    5.1471
    3.705    5.1364
    3.720    5.3184
    3.735    5.7892
    3.750    5.8534
    3.765    6.1744
    3.780    6.5276
    3.795    6.4526
    3.810    6.5276
    3.825    7.0305
    3.840    7.2124
    3.855    7.6619
    3.870    7.5441
    3.885    7.9829
    3.900    8.6142
    3.915    8.7961
    3.930    9.8127
    3.945    9.7699
    3.960   10.4976
    3.975   11.1932
    3.990   12.3810
    4.005   12.5950
    4.020   14.4355
    4.035   14.2215
    4.050   13.4831
    4.065   12.3382
    4.080   10.3050
    4.095    8.5393
    4.110    7.3729
    4.125    6.3670
    4.140    5.4789
    4.155    5.1043
    4.170    4.7940
    4.185    4.5479
    4.200    4.2483
    4.215    4.1199
    4.230    3.7560
    4.245    3.5099
    4.260    3.6811
    4.275    4.0235
    4.290    3.8416
    4.305    3.7560
    4.320    3.6490
    4.335    3.5848
    4.350    3.7239
    4.365    3.8095
    4.380    3.5955
    4.395    3.7560
    4.410    3.8309
    4.425    3.9379
    4.440    3.8737
    4.455    3.9593
    4.470    3.8951
    4.485    4.0235
    4.500    4.3125
    4.515    4.5693
    4.530    4.7833
    4.545    4.9224
    4.560    4.7726
    4.575    4.8796
    4.590    4.7191
    4.605    4.6442
    4.620    5.2327
    4.635    5.5217
    4.650    5.3933
    4.665    5.5217
    4.680    5.5003
    4.695    5.4575
    4.710    5.3933
    4.725    6.0674
    4.740    5.8106
    4.755    5.7036
    4.770    5.3612
    4.785    5.5859
    4.800    5.3933
    4.815    5.2862
    4.830    5.0722
    4.845    4.9545
    4.860    4.6549
    4.875    4.8368
    4.890    4.6656
    4.905    4.3018
    4.920    4.5800
    4.935    4.4944
    4.950    4.0556
    4.965    4.3981
    4.980    3.5634
    4.995    3.3601
    5.010    3.6490
    5.025    3.3387
    5.040    2.7822
    5.055    3.0605
    5.070    3.0712
    5.085    3.0070
    5.100    2.6217
    5.115    2.4612
    5.130    2.4077
    5.145    2.4719
    5.160    2.1830
    5.175    2.1723
    5.190    2.0974
    5.205    1.9690
    5.220    1.9583
    5.235    1.8192
    5.250    1.6693
    5.265    1.6265
    5.280    1.6372
    5.295    1.4339
    5.310    1.5623
    5.325    1.8620
    5.340    1.5730
    5.355    1.4981
    5.370    1.4446
    5.385    1.5302
    5.400    1.6372
    5.415    1.4018
    5.430    1.4767
    5.445    1.3590
    5.460    1.5944
    5.475    1.4446
    5.490    1.5302
    5.505    1.6265
    5.520    1.3697
    5.535    1.4660
    5.550    1.4553
    5.565    1.4018
    5.580    1.4018
    5.595    1.5195
    5.610    1.3483
    5.625    1.4018
    5.640    1.5837
    5.655    1.2306
    5.670    1.3483
    5.685    1.2092
    5.700    1.3483
    5.715    1.2841
    5.730    1.2306
    5.745    1.1022
    5.760    1.1664
    5.775    1.1985
    5.790    1.2199
    5.805    1.3697
    5.820    1.0915
    5.835    1.2734
    5.850    1.0487
    5.865    1.0808
    5.880    1.2841
    5.895    1.2520
    5.910    1.1557
    5.925    1.1022
    5.940    1.2092
    5.955    1.2841
    5.970    1.3376
    5.985    1.0166
    6.000    1.1343
    6.015    1.1771
    6.030    1.0594
    6.045    1.0380
    6.060    1.1771
    6.075    0.9952
    6.090    1.1022
    6.105    1.0487
    6.120    1.0059
    6.135    1.1985
    6.150    1.2520
    6.165    1.2734
    6.180    1.3804
    6.195    1.1664
    6.210    1.0380
    6.225    1.0166
    6.240    1.2520
    6.255    1.1664
    6.270    1.1771
    6.285    1.1022
    6.300    0.8989
    6.315    1.0166
    6.330    1.1343
    6.345    0.9845
    6.360    0.9952
    6.375    1.1557
    6.390    1.1450
    6.405    1.1022
    6.420    1.0380
    6.435    0.8775
    6.450    1.0701
    6.465    1.1129
    6.480    1.0701
    6.495    1.1343
    6.510    1.0808
    6.525    1.1878
    6.540    1.1985
    6.555    1.1771
    6.570    1.1664
    6.585    1.1985
    6.600    1.1450
    6.615    1.0701
    6.630    1.1022
    6.645    1.1878
    6.660    1.1450
    6.675    1.1343
    6.690    1.1664
    6.705    1.0594
    6.720    1.0273
    6.735    1.1022
    6.750    1.0059
    6.765    0.8133
    6.780    1.1664
    6.795    0.9417
    6.810    1.2520
    6.825    0.9310
    6.840    1.0273
    6.855    1.0166
    6.870    1.1557
    6.885    1.2948
    6.900    1.1771
    6.915    1.0380
    6.930    0.9952
    6.945    1.1129
    6.960    1.1878
    6.975    1.1771
    6.990    1.2627
    7.005    1.2092
    7.020    0.8989
    7.035    1.0808
    7.050    1.1450
    7.065    1.1664
    7.080    1.1022
    7.095    0.9096
    7.110    0.9738
    7.125    0.9845
    7.140    1.2199
    7.155    1.3162
    7.170    1.0059
    7.185    1.1343
    7.200    1.1236
    7.215    0.8989
    7.230    0.9952
    7.245    1.0487
    7.260    1.0059
    7.275    1.1450
    7.290    1.0273
    7.305    0.9845
    7.320    1.1450
    7.335    1.0808
    7.350    1.0701
    7.365    1.0594
    7.380    1.1236
    7.395    1.1022
    7.410    1.0701
    7.425    1.2948
    7.440    1.1771
    7.455    1.2306
    7.470    1.1129
    7.485    1.0380
    7.500    1.0808
    7.515    1.1022
    7.530    1.0166
    7.545    1.0701
    7.560    1.0594
    7.575    1.1022
    7.590    1.2199
    7.605    1.1022
    7.620    1.1664
    7.635    1.1343
    7.650    1.1557
    7.665    1.1664
    7.680    1.1985
    7.695    1.2627
    7.710    1.0808
    7.725    1.1878
    7.740    1.2841
    7.755    1.2199
    7.770    1.1236
    7.785    1.2520
    7.800    1.2520
    7.815    1.3376
    7.830    1.3162
    7.845    1.3055
    7.860    1.2199
    7.875    1.3590
    7.890    1.4232
    7.905    1.6586
    7.920    1.5088
    7.935    1.4018
    7.950    1.4125
    7.965    1.7014
    7.980    1.7657
    7.995    1.8085
    8.010    1.9262
    8.025    2.0653
    8.040    1.9262
    8.055    2.1402
    8.070    2.3435
    8.085    2.1723
    8.100    2.0011
    8.115    2.1937
    8.130    2.2579
    8.145    2.0653
    8.160    1.6372
    8.175    1.7121
    8.190    1.6372
    8.205    1.3055
    8.220    1.2948
    8.235    1.3269
    8.250    1.1985
    8.265    1.1450
    8.280    1.1450
    8.295    1.2306
    8.310    1.0915
    8.325    1.1129
    8.340    1.3697
    8.355    1.1771
    8.370    1.1450
    8.385    1.1129
    8.400    1.1985
    8.415    1.2092
    8.430    1.1557
    8.445    1.0808
    8.460    1.2199
    8.475    1.0166
    8.490    1.1022
    8.505    1.2306
    8.520    1.1129
    8.535    0.9738
    8.550    1.0166
    8.565    0.9524
    8.580    1.0166
    8.595    1.0487
    8.610    1.0808
    8.625    1.3376
    8.640    1.2306
    8.655    1.1022
    8.670    1.1664
    8.685    1.0059
    8.700    1.1985
    8.715    1.1771
    8.730    1.1878
    8.745    1.0273
    8.760    1.2199
    8.775    1.2092
    8.790    1.1129
    8.805    1.1450
    8.820    1.0594
    8.835    1.2092
    8.850    1.1450
    8.865    1.1878
    8.880    1.1664
    8.895    1.3483
    8.910    1.2092
    8.925    1.1878
    8.940    1.0915
    8.955    1.0487
    8.970    1.1985
    8.985    1.0701
    9.000    1.1450
    9.015    1.0273
    9.030    1.1664
    9.045    1.1985
    9.060    1.3269
    9.075    1.3162
    9.090    1.1664
    9.105    1.2413
    9.120    1.2520
    9.135    1.2627
    9.150    1.3162
    9.165    1.3590
    9.180    1.0915
    9.195    1.1664
    9.210    1.0808
    9.225    1.2306
    9.240    1.2948
    9.255    1.1771
    9.270    1.2413
    9.285    1.4339
    9.300    1.4125
    9.315    1.4232
    9.330    1.4660
    9.345    1.3162
    9.360    1.3590
    9.375    1.3162
    9.390    1.3804
    9.405    1.3590
    9.420    1.4446
    9.435    1.4232
    9.450    1.3269
    9.465    1.1022
    9.480    1.5302
    9.495    1.5088
    9.510    1.3911
    9.525    1.4125
    9.540    1.3376
    9.555    1.5516
    9.570    1.6372
    9.585    1.3590
    9.600    1.2413
    9.615    1.2199
    9.630    1.1664
    9.645    1.2199
    9.660    1.2199
    9.675    1.3055
    9.690    1.3697
    9.705    1.3162
    9.720    1.3269
    9.735    1.2734
    9.750    1.2520
    9.765    1.2841
    9.780    1.2948
    9.795    1.4125
    9.810    1.4018
    9.825    1.5088
    9.840    1.3269
    9.855    1.3697
    9.870    1.2092
    9.885    1.4767
    9.900    1.2627
    9.915    1.2627
    9.930    1.3269
    9.945    1.2948
    9.960    1.3697
    9.975    1.2413
    9.990    1.4232
   10.005    1.2734
   10.020    1.2306
   10.035    1.2734
   10.050    1.3376
   10.065    1.4339
   10.080    1.3055
   10.095    1.3376
   10.110    1.2413
   10.125    1.2092
   10.140    1.0808
   10.155    1.3590
   10.170    1.2306
   10.185    1.2948
   10.200    1.2627
   10.215    1.1343
   10.230    1.0594
   10.245    1.2413
   10.260    1.0594
   10.275    1.1129
   10.290    1.2092
   10.305    1.2092
   10.320    1.0273
   10.335    1.0808
   10.350    1.1985
   10.365    1.1343
   10.380    1.0059
   10.395    1.0808
   10.410    1.2413
   10.425    1.0808
   10.440    1.0487
   10.455    0.9631
   10.470    1.1022
   10.485    1.2092
   10.500    1.0915
   10.515    1.0273
   10.530    1.1343
   10.545    1.0380
   10.560    1.2092
   10.575    1.1236
   10.590    1.1343
   10.605    1.1129
   10.620    1.3590
   10.635    1.0594
   10.650    1.1771
   10.665    1.2199
   10.680    1.2841
   10.695    1.0059
   10.710    1.0059
   10.725    1.1450
   10.740    1.1236
   10.755    1.0701
   10.770    0.9738
   10.785    0.9845
   10.800    1.1022
   10.815    1.0059
   10.830    0.9952
   10.845    1.1557
   10.860    1.1664
   10.875    1.1343
   10.890    1.0808
   10.905    1.0273
   10.920    1.1022
   10.935    1.0701
   10.950    1.0487
   10.965    1.0273
   10.980    1.0273
   10.995    1.1129
   11.010    1.0487
   11.025    1.1129
   11.040    1.1450
   11.055    1.0487
   11.070    1.1343
   11.085    1.0380
   11.100    1.0059
   11.115    1.1343
   11.130    1.2627
   11.145    1.0059
   11.160    1.0915
   11.175    1.1022
   11.190    1.1236
   11.205    0.9310
   11.220    1.0808
   11.235    0.9417
   11.250    1.1236
   11.265    1.2306
   11.280    1.0059
   11.295    1.1557
   11.310    0.9845
   11.325    1.0594
   11.340    0.9952
   11.355    1.1878
   11.370    1.0487
   11.385    0.9631
   11.400    0.9631
   11.415    1.0380
   11.430    1.0380
   11.445    0.9631
   11.460    1.0059
   11.475    1.1022
   11.490    1.1557
   11.505    0.9524
   11.520    0.8775
   11.535    0.9310
   11.550    1.0166
   11.565    1.0487
   11.580    0.9738
   11.595    0.9845
   11.610    1.0273
   11.625    0.9631
   11.640    1.0273
   11.655    1.1129
   11.670    1.0059
   11.685    1.1557
   11.700    1.0166
   11.715    1.0701
   11.730    1.1985
   11.745    1.2627
   11.760    0.9952
   11.775    1.0487
   11.790    1.0808
   11.805    1.0808
   11.820    1.0273
   11.835    0.9417
   11.850    1.0808
   11.865    1.0166
   11.880    1.0701
   11.895    0.9952
   11.910    0.8561
   11.925    0.9524
   11.940    1.0594
   11.955    1.0594
   11.970    1.0059
   11.985    1.0594
   12.000    1.1236
   12.015    0.8989
   12.030    1.1022
   12.045    0.9631
   12.060    1.0273
   12.075    1.0059
   12.090    1.1022
   12.105    1.0594
   12.120    1.0808
   12.135    1.1343
   12.150    1.1878
   12.165    1.2627
   12.180    1.1236
   12.195    1.0380
   12.210    1.0808
   12.225    1.1236
   12.240    1.0273
   12.255    1.0380
   12.270    1.0273
   12.285    1.0701
   12.300    1.0273
   12.315    0.9738
   12.330    0.9310
   12.345    1.0808
   12.360    0.9417
   12.375    1.0166
   12.390    0.9738
   12.405    1.1236
   12.420    0.9631
   12.435    1.0059
   12.450    1.0273
   12.465    0.8454
   12.480    1.0273
   12.495    1.0915
   12.510    1.0380
   12.525    1.0487
   12.540    0.9417
   12.555    1.0273
   12.570    1.0594
   12.585    1.0273
   12.600    1.0487
   12.615    0.9845
   12.630    1.0915
   12.645    0.9845
   12.660    0.7705
   12.675    0.9952
   12.690    1.0701
   12.705    0.8347
   12.720    1.0166
   12.735    1.0380
   12.750    1.0273
   12.765    1.1985
   12.780    1.0059
   12.795    0.9845
   12.810    1.0059
   12.825    0.9203
   12.840    1.1236
   12.855    0.9417
   12.870    0.9096
   12.885    0.9845
   12.900    0.8240
   12.915    1.0166
   12.930    1.0701
   12.945    0.9524
   12.960    0.9310
   12.975    1.0380
   12.990    1.0701
   13.005    0.9096
   13.020    1.1022
   13.035    1.0808
   13.050    1.0380
   13.065    0.8561
   13.080    1.0166
   13.095    0.9524
   13.110    0.9631
   13.125    0.9738
   13.140    1.1985
   13.155    1.0808
   13.170    0.9096
   13.185    0.8775
   13.200    1.0166
   13.215    0.9524
   13.230    1.0701
   13.245    0.9845
   13.260    0.9952
   13.275    0.9096
   13.290    1.0380
   13.305    0.9310
   13.320    0.9524
   13.335    0.9738
   13.350    0.8668
   13.365    1.0166
   13.380    0.8882
   13.395    0.8989
   13.410    1.0273
   13.425    0.8668
   13.440    0.9845
   13.455    0.9738
   13.470    0.9524
   13.485    0.9203
   13.500    0.9952
   13.515    1.1878
   13.530    0.9203
   13.545    0.9952
   13.560    0.9952
   13.575    0.9845
   13.590    0.8882
   13.605    0.9738
   13.620    0.9952
   13.635    1.0059
   13.650    0.9417
   13.665    0.9845
   13.680    1.1022
   13.695    0.9096
   13.710    0.9952
   13.725    1.0059
   13.740    1.0166
   13.755    1.0166
   13.770    1.0166
   13.785    1.0273
   13.800    1.0701
   13.815    0.9524
   13.830    0.7919
   13.845    0.9631
   13.860    1.0487
   13.875    0.8240
   13.890    0.9417
   13.905    0.9310
   13.920    0.9845
   13.935    0.8775
   13.950    1.0059
   13.965    1.0166
   13.980    0.9417
   13.995    1.0594
   14.010    0.8882
   14.025    1.0701
   14.040    1.0059
   14.055    0.9524
   14.070    1.0166
   14.085    0.9738
   14.100    1.0166
   14.115    1.0166
   14.130    0.9738
   14.145    0.9203
   14.160    1.0487
   14.175    1.0059
   14.190    1.0166
   14.205    0.9417
   14.220    1.0166
   14.235    0.9310
   14.250    1.0166
   14.265    1.1771
   14.280    0.9738
   14.295    0.9631
   14.310    1.0273
   14.325    0.8882
   14.340    0.9631
   14.355    1.0487
   14.370    1.0059
   14.385    0.9417
   14.400    1.0594
   14.415    0.8989
   14.430    0.9524
   14.445    0.8454
   14.460    0.9310
   14.475    1.0487
   14.490    1.0059
   14.505    0.9417
   14.520    0.9310
   14.535    0.9096
   14.550    0.8775
   14.565    1.0166
   14.580    1.1878
   14.595    1.1771
   14.610    1.0915
   14.625    1.0166
   14.640    1.1771
   14.655    1.0380
   14.670    0.9417
   14.685    0.9417
   14.700    0.9417
   14.715    1.0273
   14.730    0.9738
   14.745    1.0380
   14.760    0.9738
   14.775    1.0487
   14.790    1.0380
   14.805    1.0701
   14.820    0.9845
   14.835    0.9417
   14.850    1.0487
   14.865    1.0808
   14.880    0.9203
   14.895    0.8454
   14.910    0.8240
   14.925    0.9631
   14.940    1.0059
   14.955    0.9952
   14.970    1.0380
   14.985    1.0487
   15.000    1.0059
   15.015    1.0487
   15.030    1.0594
   15.045    1.0166
   15.060    0.9417
   15.075    0.8989
   15.090    0.9524
   15.105    0.8668
   15.120    0.9096
   15.135    0.9952
   15.150    0.9845
   15.165    1.2520
   15.180    1.0915
   15.195    1.1236
   15.210    0.9203
   15.225    0.8026
   15.240    1.0273
   15.255    0.9738
   15.270    0.9631
   15.285    0.8989
   15.300    0.9096
   15.315    1.0594
   15.330    0.9203
   15.345    0.9417
   15.360    0.9096
   15.375    0.8454
   15.390    0.9738
   15.405    1.0380
   15.420    0.8989
   15.435    0.9096
   15.450    1.0166
   15.465    1.0380
   15.480    0.9203
   15.495    1.0059
   15.510    0.9952
   15.525    0.8133
   15.540    1.0273
   15.555    0.9310
   15.570    0.9845
   15.585    0.9738
   15.600    0.9738
   15.615    0.9738
   15.630    0.9417
   15.645    0.9952
   15.660    0.9845
   15.675    1.0273
   15.690    0.9952
   15.705    0.9738
   15.720    0.9417
   15.735    0.9096
   15.750    1.0701
   15.765    0.9738
   15.780    0.8989
   15.795    1.1450
   15.810    0.8347
   15.825    0.9524
   15.840    0.9631
   15.855    0.9631
   15.870    0.9845
   15.885    0.8775
   15.900    0.9310
   15.915    0.9738
   15.930    0.8347
   15.945    0.9524
   15.960    1.0166
   15.975    0.9631
   15.990    0.8775
   16.005    0.9310
   16.020    0.9096
   16.035    0.8668
   16.050    0.8454
   16.065    0.8775
   16.080    0.9631
   16.095    1.0380
   16.110    0.8989
   16.125    0.9310
   16.140    0.7812
   16.155    0.9524
   16.170    0.8989
   16.185    1.0487
   16.200    1.0166
   16.215    0.9417
   16.230    0.9417
   16.245    0.8775
   16.260    0.8882
   16.275    0.9203
   16.290    0.9738
   16.305    0.9524
   16.320    0.9203
   16.335    0.7919
   16.350    0.9096
   16.365    0.9417
   16.380    1.0166
   16.395    0.8561
   16.410    0.9417
   16.425    1.0059
   16.440    1.0915
   16.455    0.9952
   16.470    0.9417
   16.485    0.9203
   16.500    0.8454
   16.515    0.8882
   16.530    1.0166
   16.545    0.9524
   16.560    0.9203
   16.575    0.8775
   16.590    0.9631
   16.605    1.0487
   16.620    0.9952
   16.635    0.9631
   16.650    1.0380
   16.665    0.9310
   16.680    0.9524
   16.695    0.9524
   16.710    0.8989
   16.725    0.8882
   16.740    0.8133
   16.755    0.8026
   16.770    0.9524
   16.785    0.9310
   16.800    1.0915
   16.815    1.1985
   16.830    0.9417
   16.845    1.0487
   16.860    0.8882
   16.875    0.8454
   16.890    0.9524
   16.905    0.9203
   16.920    0.9310
   16.935    0.9310
   16.950    0.9096
   16.965    0.8989
   16.980    0.8454
   16.995    0.9096
   17.010    0.9417
   17.025    0.9631
   17.040    0.9524
   17.055    0.9096
   17.070    1.0059
   17.085    0.9738
   17.100    0.9417
   17.115    0.9952
   17.130    1.0487
   17.145    0.9952
   17.160    0.8668
   17.175    1.0273
   17.190    0.9203
   17.205    0.9845
   17.220    0.9952
   17.235    1.0166
   17.250    0.9524
   17.265    0.9417
   17.280    0.9096
   17.295    0.8561
   17.310    0.9203
   17.325    0.9952
   17.340    0.9845
   17.355    0.8240
   17.370    0.9631
   17.385    0.9845
   17.400    0.9845
   17.415    0.8882
   17.430    0.9310
   17.445    0.9310
   17.460    0.9203
   17.475    0.9952
   17.490    1.0273
   17.505    1.1343
   17.520    0.9952
   17.535    1.1022
   17.550    0.9203
   17.565    0.9203
   17.580    0.9203
   17.595    1.0701
   17.610    0.9631
   17.625    0.8989
   17.640    0.9524
   17.655    0.8775
   17.670    1.0273
   17.685    0.8133
   17.700    1.0059
   17.715    0.8989
   17.730    0.8668
   17.745    1.0808
   17.760    1.1129
   17.775    0.8882
   17.790    0.9524
   17.805    0.9096
   17.820    0.7598
   17.835    0.8989
   17.850    0.7812
   17.865    0.9096
   17.880    0.8347
   17.895    1.0594
   17.910    1.1022
   17.925    0.9203
   17.940    1.0273
   17.955    0.9845
   17.970    0.8775
   17.985    0.9417
   18.000    0.8989
   18.015    1.0166
   18.030    0.9096
   18.045    1.0594
   18.060    0.8454
   18.075    0.9738
   18.090    0.8989
   18.105    0.8775
   18.120    1.0059
   18.135    0.8240
   18.150    0.8882
   18.165    0.9524
   18.180    0.9738
   18.195    0.9096
   18.210    0.9310
   18.225    0.9738
   18.240    1.0380
   18.255    0.8882
   18.270    0.8668
   18.285    0.9310
   18.300    1.0380
   18.315    0.8775
   18.330    0.9203
   18.345    0.8882
   18.360    0.8026
   18.375    0.9310
   18.390    0.9952
   18.405    0.9417
   18.420    0.9524
   18.435    0.8882
   18.450    0.8989
   18.465    0.7919
   18.480    1.0273
   18.495    0.9738
   18.510    0.7919
   18.525    0.8989
   18.540    0.7919
   18.555    0.9631
   18.570    0.9096
   18.585    0.8026
   18.600    0.8133
   18.615    0.8347
   18.630    0.9952
   18.645    0.7812
   18.660    0.8454
   18.675    0.9524
   18.690    1.0059
   18.705    0.9096
   18.720    0.9310
   18.735    0.9631
   18.750    0.9738
   18.765    0.9524
   18.780    0.8989
   18.795    0.9310
   18.810    0.8561
   18.825    0.8240
   18.840    0.8347
   18.855    1.0594
   18.870    0.9738
   18.885    0.9524
   18.900    0.8989
   18.915    0.9524
   18.930    1.0380
   18.945    0.8989
   18.960    0.8775
   18.975    0.8882
   18.990    0.9952
   19.005    0.9845
   19.020    0.9417
   19.035    0.8989
   19.050    0.9310
   19.065    0.9203
   19.080    1.0487
   19.095    0.8133
   19.110    0.9845
   19.125    0.9845
   19.140    0.9952
   19.155    1.0487
   19.170    0.9524
   19.185    0.9738
   19.200    0.9524
   19.215    0.9952
   19.230    0.8775
   19.245    0.9631
   19.260    1.0273
   19.275    0.9738
   19.290    0.9417
   19.305    0.9203
   19.320    0.9631
   19.335    0.9952
   19.350    0.9417
   19.365    0.9952
   19.380    1.0059
   19.395    0.8882
   19.410    1.0380
   19.425    1.0166
   19.440    0.9203
   19.455    0.8775
   19.470    1.0273
   19.485    0.8668
   19.500    0.8561
   19.515    0.7919
   19.530    0.7598
   19.545    1.0059
   19.560    1.0166
   19.575    0.9631
   19.590    1.1022
   19.605    1.0273
   19.620    1.0273
   19.635    1.0701
   19.650    0.9952
   19.665    1.1236
   19.680    1.2199
   19.695    0.9524
   19.710    1.0808
   19.725    0.9952
   19.740    0.8882
   19.755    0.8133
   19.770    0.9738
   19.785    0.8668
   19.800    0.9952
   19.815    1.0273
   19.830    0.8668
   19.845    0.8347
   19.860    0.9738
   19.875    0.9310
   19.890    1.0808
   19.905    1.0915
   19.920    1.1557
   19.935    0.9096
   19.950    0.8775
   19.965    1.0273
   19.980    0.8454
   19.995    1.0059
   20.010    0.8882
   20.025    0.8133
   20.040    0.8668
   20.055    0.9524
   20.070    1.0701
   20.085    0.9417
   20.100    0.9096
   20.115    0.8989
   20.130    0.8454
   20.145    0.8240
   20.160    0.8775
   20.175    1.0487
   20.190    0.9738
   20.205    0.9631
   20.220    1.0166
   20.235    0.9952
   20.250    1.0059
   20.265    0.8775
   20.280    1.0166
   20.295    0.9524
   20.310    0.8561
   20.325    0.8454
   20.340    0.9524
   20.355    0.9738
   20.370    1.0701
   20.385    0.9524
   20.400    0.8347
   20.415    0.9310
   20.430    0.9310
   20.445    0.9417
   20.460    1.0701
   20.475    0.9845
   20.490    0.9845
   20.505    0.8989
   20.520    0.8561
   20.535    0.8882
   20.550    0.9096
   20.565    1.0487
   20.580    1.0701
   20.595    0.9310
   20.610    1.1343
   20.625    0.9845
   20.640    0.8668
   20.655    0.9417
   20.670    0.9631
   20.685    1.0487
   20.700    1.0059
   20.715    0.9524
   20.730    0.8561
   20.745    1.2413
   20.760    0.9845
   20.775    0.9096
   20.790    0.9952
   20.805    0.9417
   20.820    0.9417
   20.835    1.0166
   20.850    1.0915
   20.865    0.8989
   20.880    1.1236
   20.895    1.0701
   20.910    1.0701
   20.925    1.1664
   20.940    1.1450
   20.955    1.2520
   20.970    1.1664
   20.985    1.2520
   21.000    1.2092
   21.015    1.2627
   21.030    1.1450
   21.045    1.2092
   21.060    1.2948
   21.075    1.1771
   21.090    0.9631
   21.105    1.0808
   21.120    1.1236
   21.135    1.0273
   21.150    1.0273
   21.165    1.1236
   21.180    1.0166
   21.195    0.9845
   21.210    0.8133
   21.225    0.9738
   21.240    0.9738
   21.255    1.0166
   21.270    0.9952
   21.285    0.8454
   21.300    0.9845
   21.315    1.0273
   21.330    1.0808
   21.345    1.0915
   21.360    0.8775
   21.375    0.8347
   21.390    0.9738
   21.405    0.8775
   21.420    0.8026
   21.435    0.8668
   21.450    0.8240
   21.465    0.9417
   21.480    0.9524
   21.495    0.9203
   21.510    0.9096
   21.525    0.9417
   21.540    1.0594
   21.555    0.9845
   21.570    1.0166
   21.585    0.8026
   21.600    0.8454
   21.615    0.9845
   21.630    0.9952
   21.645    0.8775
   21.660    1.0059
   21.675    0.9524
   21.690    0.8026
   21.705    1.0059
   21.720    0.9738
   21.735    0.7919
   21.750    0.9310
   21.765    0.9738
   21.780    0.9096
   21.795    0.9952
   21.810    1.0166
   21.825    0.9631
   21.840    0.9417
   21.855    1.0166
   21.870    0.9203
   21.885    0.9310
   21.900    0.8668
   21.915    0.9203
   21.930    0.8026
   21.945    0.9952
   21.960    1.0380
   21.975    1.0487
   21.990    1.1557
   22.005    0.9738
   22.020    0.8989
   22.035    0.9738
   22.050    1.1236
   22.065    1.1343
   22.080    1.0487
   22.095    0.9524
   22.110    0.8775
   22.125    0.9524
   22.140    0.8668
   22.155    0.8133
   22.170    0.8989
   22.185    1.0059
   22.200    0.9096
   22.215    0.8775
   22.230    0.9310
   22.245    0.8989
   22.260    0.8454
   22.275    1.0059
   22.290    1.0594
   22.305    0.8668
   22.320    0.8133
   22.335    1.0059
   22.350    0.9203
   22.365    0.9631
   22.380    1.0059
   22.395    0.9310
   22.410    0.9738
   22.425    0.9417
   22.440    0.8989
   22.455    1.0487
   22.470    0.9524
   22.485    0.8454
   22.500    1.1343
   22.515    1.0701
   22.530    1.0273
   22.545    1.0059
   22.560    1.1771
   22.575    0.8454
   22.590    0.9096
   22.605    0.9952
   22.620    0.9203
   22.635    0.9952
   22.650    1.1557
   22.665    1.0487
   22.680    0.9631
   22.695    0.9524
   22.710    0.9845
   22.725    1.0059
   22.740    0.8989
   22.755    0.9738
   22.770    0.9096
   22.785    1.0380
   22.800    0.9845
   22.815    1.0380
   22.830    1.0273
   22.845    1.0915
   22.860    1.0487
   22.875    1.0380
   22.890    1.0166
   22.905    0.9417
   22.920    0.9310
   22.935    1.0166
   22.950    0.9203
   22.965    0.8882
   22.980    1.0166
   22.995    1.1022
   23.010    1.0059
   23.025    1.0273
   23.040    1.0166
   23.055    1.0487
   23.070    1.0487
   23.085    1.0915
   23.100    0.9845
   23.115    1.0273
   23.130    1.0273
   23.145    1.0059
   23.160    0.9310
   23.175    1.1022
   23.190    0.9738
   23.205    0.9845
   23.220    1.1236
   23.235    1.1236
   23.250    1.0701
   23.265    1.0487
   23.280    1.0594
   23.295    1.0380
   23.310    0.8454
   23.325    0.9738
   23.340    0.9631
   23.355    0.8882
   23.370    0.8454
   23.385    0.8989
   23.400    0.9310
   23.415    1.0059
   23.430    1.1129
   23.445    0.9952
   23.460    1.0380
   23.475    0.9096
   23.490    0.9524
   23.505    0.9524
   23.520    1.0059
   23.535    0.9631
   23.550    1.0380
   23.565    0.9952
   23.580    0.9631
   23.595    1.0166
   23.610    0.9631
   23.625    1.0701
   23.640    0.9845
   23.655    0.8989
   23.670    0.9203
   23.685    0.9417
   23.700    0.9417
   23.715    0.9417
   23.730    0.8347
   23.745    0.8454
   23.760    1.0380
   23.775    0.9310
   23.790    0.9096
   23.805    0.9310
   23.820    1.0166
   23.835    1.0273
   23.850    1.1343
   23.865    0.9203
   23.880    0.9631
   23.895    1.0059
   23.910    0.9952
   23.925    0.8989
   23.940    0.9096
   23.955    1.1664
   23.970    0.9952
   23.985    0.9417
   24.000    1.0594
   24.015    0.8989
   24.030    1.0594
   24.045    0.9738
   24.060    0.9738
   24.075    1.1236
   24.090    0.9096
   24.105    0.9631
   24.120    0.8668
   24.135    1.0166
   24.150    1.1022
   24.165    0.8989
   24.180    1.0273
   24.195    1.0166
   24.210    0.9524
   24.225    0.9310
   24.240    0.9845
   24.255    0.8775
   24.270    0.9631
   24.285    1.1557
   24.300    1.0487
   24.315    0.9845
   24.330    1.0059
   24.345    0.9203
   24.360    0.9524
   24.375    0.9096
   24.390    0.9417
   24.405    0.9524
   24.420    0.9203
   24.435    0.9203
   24.450    1.0701
   24.465    1.0166
   24.480    1.0059
   24.495    0.9310
   24.510    1.1236
   24.525    0.8561
   24.540    0.9310
   24.555    0.9310
   24.570    0.9524
   24.585    1.1878
   24.600    1.2199
   24.615    1.0701
   24.630    1.0273
   24.645    0.8989
   24.660    1.0273
   24.675    1.1343
   24.690    1.0915
   24.705    1.0273
   24.720    0.9310
   24.735    0.8989
   24.750    0.8882
   24.765    0.8561
   24.780    0.9631
   24.795    0.9203
   24.810    0.9952
   24.825    0.9203
   24.840    0.9096
   24.855    1.0808
   24.870    1.0594
   24.885    1.0594
   24.900    0.8882
   24.915    1.1878
   24.930    1.1343
   24.945    0.9631
   24.960    0.9738
   24.975    1.0915
   24.990    0.9631
   25.005    0.8989
   25.020    1.0701
   25.035    0.9310
   25.050    0.9952
   25.065    1.0273
   25.080    0.9952
   25.095    0.8347
   25.110    1.0273
   25.125    1.0166
   25.140    0.9096
   25.155    0.8775
   25.170    0.8882
   25.185    0.9631
   25.200    1.0166
   25.215    1.1878
   25.230    0.9952
   25.245    1.0059
   25.260    0.9417
   25.275    1.0594
   25.290    0.9738
   25.305    0.8454
   25.320    0.9203
   25.335    1.0380
   25.350    1.0273
   25.365    0.9310
   25.380    0.8775
   25.395    1.0273
   25.410    0.9096
   25.425    0.9738
   25.440    0.9096
   25.455    1.0380
   25.470    0.9203
   25.485    1.0166
   25.500    1.0059
   25.515    1.0380
   25.530    0.9524
   25.545    1.0594
   25.560    1.0701
   25.575    0.8882
   25.590    1.0380
   25.605    0.7598
   25.620    0.8775
   25.635    0.9417
   25.650    0.9738
   25.665    0.9096
   25.680    0.9952
   25.695    0.8026
   25.710    0.9096
   25.725    1.0487
   25.740    1.0273
   25.755    0.9631
   25.770    1.0166
   25.785    0.9631
   25.800    1.1450
   25.815    0.9631
   25.830    0.9524
   25.845    0.9203
   25.860    0.8882
   25.875    0.8989
   25.890    1.0273
   25.905    0.9738
   25.920    0.9952
   25.935    1.0059
   25.950    0.9631
   25.965    0.9631
   25.980    0.9845
   25.995    0.9631
   26.010    1.0701
   26.025    0.9417
   26.040    0.8882
   26.055    0.9524
   26.070    0.9310
   26.085    0.9096
   26.100    0.7598
   26.115    0.9952
   26.130    1.0487
   26.145    1.0808
   26.160    0.9738
   26.175    0.9738
   26.190    0.8882
   26.205    0.9845
   26.220    1.0273
   26.235    1.0380
   26.250    0.8882
   26.265    0.8882
   26.280    0.9845
   26.295    1.0166
   26.310    0.8989
   26.325    0.8775
   26.340    0.8668
   26.355    1.0059
   26.370    1.0166
   26.385    0.8989
   26.400    0.9310
   26.415    0.9524
   26.430    0.8989
   26.445    1.1022
   26.460    1.0273
   26.475    0.8989
   26.490    0.7812
   26.505    0.8882
   26.520    0.9845
   26.535    0.7705
   26.550    0.8133
   26.565    0.8989
   26.580    0.8668
   26.595    0.9203
   26.610    0.9310
   26.625    0.9417
   26.640    0.9738
   26.655    0.9738
   26.670    0.9845
   26.685    0.9738
   26.700    0.9952
   26.715    0.9952
   26.730    0.9203
   26.745    0.7277
   26.760    0.9096
   26.775    0.8240
   26.790    0.8240
   26.805    0.8775
   26.820    0.9845
   26.835    0.9096
   26.850    0.8668
   26.865    0.9738
   26.880    0.9203
   26.895    0.7919
   26.910    0.9952
   26.925    0.9952
   26.940    0.8026
   26.955    0.7491
   26.970    0.9738
   26.985    0.8989
   27.000    1.0915
   27.015    1.0487
   27.030    0.9310
   27.045    0.8668
   27.060    0.7812
   27.075    0.9310
   27.090    1.0273
   27.105    0.8882
   27.120    0.8989
   27.135    0.9096
   27.150    0.8561
   27.165    0.8133
   27.180    0.7063
   27.195    0.8561
   27.210    0.8240
   27.225    0.8668
   27.240    0.9203
   27.255    0.8882
   27.270    0.8347
   27.285    0.8133
   27.300    0.8989
   27.315    0.8989
   27.330    0.9310
   27.345    0.8668
   27.360    0.8775
   27.375    0.8561
   27.390    0.8989
   27.405    0.8775
   27.420    0.8026
   27.435    0.8347
   27.450    0.8454
   27.465    0.8775
   27.480    0.8668
   27.495    0.9096
   27.510    1.0594
   27.525    1.0059
   27.540    0.9417
   27.555    0.8347
   27.570    0.7598
   27.585    0.9096
   27.600    0.9203
   27.615    0.8026
   27.630    0.8668
   27.645    0.9203
   27.660    0.9417
   27.675    0.8775
   27.690    1.0059
   27.705    0.8668
   27.720    0.8775
   27.735    0.8454
   27.750    0.8347
   27.765    0.7277
   27.780    0.9845
   27.795    1.0166
   27.810    0.8026
   27.825    0.9310
   27.840    0.9417
   27.855    0.8240
   27.870    0.7705
   27.885    0.7277
   27.900    0.9845
   27.915    0.9845
   27.930    0.7063
   27.945    0.8454
   27.960    0.8882
   27.975    0.9524
   27.990    0.7812
   28.005    0.9631
   28.020    0.8668
   28.035    0.9203
   28.050    0.8026
   28.065    0.8026
   28.080    0.8561
   28.095    0.8989
   28.110    0.7598
   28.125    0.7598
   28.140    0.8882
   28.155    0.8989
   28.170    0.9096
   28.185    0.9203
   28.200    0.8668
   28.215    0.8133
   28.230    0.8347
   28.245    0.8133
   28.260    0.7812
   28.275    0.7705
   28.290    0.8347
   28.305    0.9096
   28.320    0.8347
   28.335    0.8989
   28.350    0.8240
   28.365    0.7598
   28.380    0.8347
   28.395    0.7812
   28.410    0.8561
   28.425    0.9203
   28.440    0.6849
   28.455    0.8240
   28.470    0.8668
   28.485    0.8882
   28.500    0.7705
   28.515    0.8347
   28.530    0.8989
   28.545    0.7812
   28.560    0.8026
   28.575    0.6956
   28.590    0.8347
   28.605    0.9952
   28.620    0.9417
   28.635    0.8454
   28.650    0.7170
   28.665    0.6956
   28.680    0.9417
   28.695    0.8668
   28.710    0.9310
   28.725    0.8347
   28.740    0.8561
   28.755    0.9310
   28.770    0.8133
   28.785    0.8882
   28.800    0.8026
   28.815    0.7812
   28.830    0.8775
   28.845    0.9203
   28.860    0.8026
   28.875    0.7598
   28.890    0.7705
   28.905    0.8026
   28.920    0.7491
   28.935    0.7919
   28.950    0.7812
   28.965    0.7812
   28.980    0.9738
   28.995    0.9952
   29.010    0.8240
   29.025    0.7063
   29.040    0.7491
   29.055    0.8454
   29.070    0.7384
   29.085    0.7812
   29.100    0.8133
   29.115    0.8561
   29.130    0.8347
   29.145    0.8133
   29.160    0.8026
   29.175    0.7277
   29.190    0.8133
   29.205    0.8989
   29.220    0.7812
   29.235    0.9631
   29.250    0.9845
   29.265    0.7063
   29.280    0.9845
   29.295    0.9310
   29.310    0.7491
   29.325    0.7812
   29.340    0.6849
   29.355    0.6528
   29.370    0.8454
   29.385    0.8347
   29.400    0.8454
   29.415    0.8133
   29.430    0.8240
   29.445    0.8026
   29.460    0.7491
   29.475    0.8561
   29.490    0.8561
   29.505    0.8454
   29.520    0.7170
   29.535    0.8133
   29.550    0.9096
   29.565    0.8989
   29.580    0.9096
   29.595    0.8240
   29.610    0.8775
   29.625    0.7491
   29.640    0.7705
   29.655    0.7919
   29.670    0.7705
   29.685    0.8882
   29.700    0.7919
   29.715    0.7491
   29.730    0.7384
   29.745    0.7705
   29.760    0.9310
   29.775    0.8133
   29.790    0.6742
   29.805    0.8347
   29.820    0.7705
   29.835    0.7384
   29.850    0.6314
   29.865    0.7705
   29.880    0.7812
   29.895    0.7705
   29.910    0.8347
   29.925    0.8561
   29.940    0.8668
   29.955    0.9845
   29.970    0.7919
   29.985    0.8989
   30.000    0.8133
   30.015    0.7705
   30.030    0.7277
   30.045    0.5457
   30.060    0.7812
   30.075    0.7384
   30.090    0.7491
   30.105    0.7812
   30.120    0.7812
   30.135    0.8240
   30.150    0.8561
   30.165    0.6849
   30.180    0.8240
   30.195    0.6421
   30.210    0.7170
   30.225    0.9096
   30.240    0.7277
   30.255    0.7812
   30.270    0.7063
   30.285    0.6528
   30.300    0.8561
   30.315    0.7598
   30.330    0.8026
   30.345    0.6956
   30.360    0.7812
   30.375    0.6635
   30.390    0.7384
   30.405    0.8347
   30.420    0.7598
   30.435    0.7384
   30.450    0.7170
   30.465    0.6849
   30.480    0.6314
   30.495    0.6742
   30.510    0.6635
   30.525    0.7277
   30.540    0.7598
   30.555    0.7812
   30.570    0.6528
   30.585    0.5993
   30.600    0.7491
   30.615    0.6528
   30.630    0.8347
   30.645    0.7170
   30.660    0.6849
   30.675    0.6207
   30.690    0.6956
   30.705    0.7277
   30.720    0.8133
   30.735    0.8668
   30.750    0.6956
   30.765    0.7598
   30.780    0.6956
   30.795    0.6100
   30.810    0.7277
   30.825    0.7919
   30.840    0.6635
   30.855    0.7812
   30.870    0.7491
   30.885    0.6528
   30.900    0.5671
   30.915    0.7277
   30.930    0.7063
   30.945    0.7277
   30.960    0.5671
   30.975    0.7063
   30.990    0.6635
   31.005    0.7170
   31.020    0.7491
   31.035    0.6528
   31.050    0.6635
   31.065    0.6635
   31.080    0.6528
   31.095    0.8026
   31.110    0.6849
   31.125    0.7063
   31.140    0.8133
   31.155    0.8668
   31.170    0.6528
   31.185    0.7277
   31.200    0.6849
   31.215    0.6849
   31.230    0.6742
   31.245    0.6635
   31.260    0.7384
   31.275    0.7063
   31.290    0.6742
   31.305    0.6528
   31.320    0.7491
   31.335    0.7491
   31.350    0.6849
   31.365    0.6207
   31.380    0.7170
   31.395    0.6421
   31.410    0.5886
   31.425    0.7491
   31.440    0.6956
   31.455    0.6100
   31.470    0.7491
   31.485    0.7491
   31.500    0.6742
   31.515    0.7063
   31.530    0.6742
   31.545    0.6635
   31.560    0.8026
   31.575    0.7919
   31.590    0.7063
   31.605    0.8454
   31.620    0.6849
   31.635    0.6742
   31.650    0.7170
   31.665    0.6635
   31.680    0.6314
   31.695    0.6528
   31.710    0.7063
   31.725    0.7384
   31.740    0.6421
   31.755    0.8026
   31.770    0.7919
   31.785    0.5564
   31.800    0.7063
   31.815    0.7063
   31.830    0.8133
   31.845    0.6100
   31.860    0.6849
   31.875    0.7491
   31.890    0.6849
   31.905    0.7170
   31.920    0.6314
   31.935    0.5993
   31.950    0.6207
   31.965    0.6314
   31.980    0.7384
   31.995    0.6956
   32.010    0.7919
   32.025    0.6528
   32.040    0.6849
   32.055    0.6635
   32.070    0.6421
   32.085    0.7812
   32.100    0.6849
   32.115    0.6956
   32.130    0.7170
   32.145    0.6421
   32.160    0.5993
   32.175    0.7063
   32.190    0.6314
   32.205    0.7277
   32.220    0.7491
   32.235    0.8347
   32.250    0.8133
   32.265    0.6849
   32.280    0.6314
   32.295    0.5778
   32.310    0.6849
   32.325    0.8133
   32.340    0.7384
   32.355    0.7705
   32.370    0.5993
   32.385    0.5564
   32.400    0.7063
   32.415    0.6956
   32.430    0.6635
   32.445    0.6207
   32.460    0.6849
   32.475    0.6742
   32.490    0.7063
   32.505    0.5886
   32.520    0.7063
   32.535    0.7063
   32.550    0.7705
   32.565    0.6314
   32.580    0.6421
   32.595    0.5993
   32.610    0.5993
   32.625    0.6207
   32.640    0.6528
   32.655    0.8240
   32.670    0.7384
   32.685    0.6635
   32.700    0.6314
   32.715    0.6421
   32.730    0.4494
   32.745    0.5671
   32.760    0.6849
   32.775    0.6207
   32.790    0.7598
   32.805    0.7063
   32.820    0.7598
   32.835    0.6956
   32.850    0.6742
   32.865    0.5993
   32.880    0.8561
   32.895    0.7170
   32.910    0.6742
   32.925    0.7063
   32.940    0.8454
   32.955    0.6100
   32.970    0.7277
   32.985    0.8026
   33.000    0.5886
   33.015    0.6314
   33.030    0.6528
   33.045    0.7598
   33.060    0.5564
   33.075    0.5350
   33.090    0.6314
   33.105    0.7705
   33.120    0.6421
   33.135    0.6100
   33.150    0.5457
   33.165    0.5671
   33.180    0.5886
   33.195    0.5671
   33.210    0.7063
   33.225    0.5671
   33.240    0.5886
   33.255    0.7063
   33.270    0.5778
   33.285    0.5993
   33.300    0.7170
   33.315    0.6742
   33.330    0.5886
   33.345    0.4922
   33.360    0.6956
   33.375    0.6742
   33.390    0.5671
   33.405    0.6314
   33.420    0.6635
   33.435    0.6100
   33.450    0.5778
   33.465    0.5671
   33.480    0.5671
   33.495    0.5993
   33.510    0.5457
   33.525    0.5993
   33.540    0.5778
   33.555    0.6742
   33.570    0.5993
   33.585    0.5993
   33.600    0.6314
   33.615    0.5564
   33.630    0.6314
   33.645    0.6100
   33.660    0.4922
   33.675    0.6421
   33.690    0.6421
   33.705    0.6742
   33.720    0.6314
   33.735    0.6314
   33.750    0.5457
   33.765    0.6635
   33.780    0.6421
   33.795    0.5993
   33.810    0.5457
   33.825    0.5993
   33.840    0.5243
   33.855    0.5350
   33.870    0.7919
   33.885    0.6956
   33.900    0.5886
   33.915    0.6956
   33.930    0.6314
   33.945    0.5993
   33.960    0.6207
   33.975    0.5457
   33.990    0.6314
   34.005    0.7063
   34.020    0.6421
   34.035    0.5993
   34.050    0.5350
   34.065    0.4387
   34.080    0.5029
   34.095    0.6100
   34.110    0.4494
   34.125    0.5350
   34.140    0.5350
   34.155    0.7491
   34.170    0.6100
   34.185    0.6100
   34.200    0.5671
   34.215    0.5993
   34.230    0.6528
   34.245    0.6421
   34.260    0.6635
   34.275    0.6421
   34.290    0.7598
   34.305    0.6635
   34.320    0.6207
   34.335    0.6207
   34.350    0.6742
   34.365    0.5671
   34.380    0.6849
   34.395    0.6100
   34.410    0.6314
   34.425    0.5350
   34.440    0.6207
   34.455    0.6100
   34.470    0.5671
   34.485    0.5350
   34.500    0.6314
   34.515    0.5457
   34.530    0.5029
   34.545    0.4708
   34.560    0.6100
   34.575    0.6635
   34.590    0.6314
   34.605    0.5671
   34.620    0.5029
   34.635    0.5886
   34.650    0.7384
   34.665    0.5350
   34.680    0.6314
   34.695    0.6956
   34.710    0.6742
   34.725    0.5564
   34.740    0.5029
   34.755    0.5671
   34.770    0.6207
   34.785    0.5564
   34.800    0.6314
   34.815    0.7277
   34.830    0.6742
   34.845    0.6314
   34.860    0.5350
   34.875    0.5778
   34.890    0.4387
   34.905    0.5886
   34.920    0.5564
   34.935    0.5457
   34.950    0.5564
   34.965    0.5457
   34.980    0.5886
   34.995    0.5457
   35.010    0.4922
   35.025    0.6207
   35.040    0.5136
   35.055    0.6207
   35.070    0.5778
   35.085    0.5671
   35.100    0.5886
   35.115    0.5457
   35.130    0.5886
   35.145    0.5243
   35.160    0.5886
   35.175    0.4922
   35.190    0.6742
   35.205    0.5243
   35.220    0.5671
   35.235    0.6528
   35.250    0.5136
   35.265    0.5243
   35.280    0.5029
   35.295    0.6100
   35.310    0.6421
   35.325    0.5886
   35.340    0.5457
   35.355    0.5993
   35.370    0.7170
   35.385    0.5350
   35.400    0.5457
   35.415    0.5136
   35.430    0.3638
   35.445    0.4494
   35.460    0.4815
   35.475    0.5564
   35.490    0.6421
   35.505    0.6100
   35.520    0.6528
   35.535    0.6207
   35.550    0.5243
   35.565    0.5029
   35.580    0.6100
   35.595    0.4601
   35.610    0.6100
   35.625    0.5671
   35.640    0.5778
   35.655    0.5671
   35.670    0.6314
   35.685    0.5778
   35.700    0.5778
   35.715    0.5778
   35.730    0.5243
   35.745    0.6314
   35.760    0.5778
   35.775    0.5671
   35.790    0.5457
   35.805    0.5778
   35.820    0.4708
   35.835    0.4815
   35.850    0.6635
   35.865    0.6421
   35.880    0.5136
   35.895    0.5243
   35.910    0.4708
   35.925    0.5029
   35.940    0.5350
   35.955    0.4815
   35.970    0.5029
   35.985    0.6100
   36.000    0.5671
   36.015    0.5457
   36.030    0.5457
   36.045    0.5778
   36.060    0.4922
   36.075    0.4601
   36.090    0.5029
   36.105    0.4815
   36.120    0.5457
   36.135    0.4387
   36.150    0.4066
   36.165    0.4815
   36.180    0.4922
   36.195    0.6100
   36.210    0.4922
   36.225    0.5243
   36.240    0.5243
   36.255    0.6207
   36.270    0.5778
   36.285    0.5029
   36.300    0.5029
   36.315    0.5457
   36.330    0.6314
   36.345    0.4494
   36.360    0.5886
   36.375    0.6100
   36.390    0.5564
   36.405    0.5350
   36.420    0.4922
   36.435    0.4815
   36.450    0.5029
   36.465    0.5457
   36.480    0.5350
   36.495    0.5564
   36.510    0.5564
   36.525    0.5457
   36.540    0.4708
   36.555    0.5778
   36.570    0.5457
   36.585    0.5350
   36.600    0.4922
   36.615    0.6100
   36.630    0.4601
   36.645    0.5457
   36.660    0.4922
   36.675    0.5350
   36.690    0.5564
   36.705    0.5993
   36.720    0.5029
   36.735    0.5993
   36.750    0.3852
   36.765    0.5886
   36.780    0.5564
   36.795    0.5886
   36.810    0.4815
   36.825    0.4708
   36.840    0.4601
   36.855    0.5136
   36.870    0.5136
   36.885    0.4601
   36.900    0.5457
   36.915    0.5029
   36.930    0.4387
   36.945    0.5778
   36.960    0.5457
   36.975    0.5243
   36.990    0.4922
   37.005    0.5886
   37.020    0.5993
   37.035    0.5778
   37.050    0.5243
   37.065    0.5564
   37.080    0.5886
   37.095    0.5457
   37.110    0.5564
   37.125    0.5350
   37.140    0.4708
   37.155    0.4494
   37.170    0.4708
   37.185    0.5671
   37.200    0.5243
   37.215    0.4601
   37.230    0.5671
   37.245    0.5243
   37.260    0.4815
   37.275    0.4601
   37.290    0.4387
   37.305    0.5029
   37.320    0.4922
   37.335    0.4601
   37.350    0.4815
   37.365    0.5243
   37.380    0.5029
   37.395    0.5671
   37.410    0.5243
   37.425    0.4922
   37.440    0.4922
   37.455    0.5671
   37.470    0.4494
   37.485    0.5457
   37.500    0.4922
   37.515    0.5457
   37.530    0.5350
   37.545    0.5029
   37.560    0.4708
   37.575    0.5457
   37.590    0.4280
   37.605    0.5993
   37.620    0.5886
   37.635    0.5457
   37.650    0.5350
   37.665    0.5350
   37.680    0.5671
   37.695    0.6849
   37.710    0.6635
   37.725    0.5457
   37.740    0.4815
   37.755    0.4922
   37.770    0.5029
   37.785    0.4922
   37.800    0.4815
   37.815    0.4280
   37.830    0.5350
   37.845    0.5243
   37.860    0.5136
   37.875    0.5350
   37.890    0.4387
   37.905    0.5029
   37.920    0.4922
   37.935    0.4601
   37.950    0.4173
   37.965    0.4173
   37.980    0.5029
   37.995    0.4815
   38.010    0.5457
   38.025    0.4815
   38.040    0.4601
   38.055    0.5029
   38.070    0.4494
   38.085    0.5886
   38.100    0.4173
   38.115    0.5136
   38.130    0.5136
   38.145    0.5029
   38.160    0.4815
   38.175    0.4494
   38.190    0.4815
   38.205    0.5350
   38.220    0.4708
   38.235    0.3852
   38.250    0.3959
   38.265    0.5671
   38.280    0.5243
   38.295    0.5671
   38.310    0.4494
   38.325    0.5243
   38.340    0.5136
   38.355    0.3103
   38.370    0.4387
   38.385    0.4601
   38.400    0.4922
   38.415    0.5778
   38.430    0.5350
   38.445    0.5136
   38.460    0.5029
   38.475    0.4173
   38.490    0.4387
   38.505    0.4173
   38.520    0.3852
   38.535    0.4173
   38.550    0.5457
   38.565    0.4066
   38.580    0.4601
   38.595    0.5136
   38.610    0.5671
   38.625    0.4494
   38.640    0.4494
   38.655    0.4601
   38.670    0.5886
   38.685    0.4815
   38.700    0.5350
   38.715    0.5243
   38.730    0.4280
   38.745    0.4494
   38.760    0.5564
   38.775    0.4708
   38.790    0.3959
   38.805    0.4601
   38.820    0.4815
   38.835    0.4387
   38.850    0.4601
   38.865    0.3103
   38.880    0.4066
   38.895    0.3852
   38.910    0.4173
   38.925    0.5243
   38.940    0.6100
   38.955    0.5564
   38.970    0.5029
   38.985    0.3745
   39.000    0.5243
   39.015    0.4387
   39.030    0.5564
   39.045    0.3745
   39.060    0.4173
   39.075    0.3852
   39.090    0.4601
   39.105    0.4173
   39.120    0.4815
   39.135    0.4387
   39.150    0.5136
   39.165    0.5029
   39.180    0.4494
   39.195    0.5886
   39.210    0.5029
   39.225    0.5457
   39.240    0.5136
   39.255    0.3638
   39.270    0.4280
   39.285    0.4066
   39.300    0.5350
   39.315    0.4494
   39.330    0.4387
   39.345    0.4066
   39.360    0.4280
   39.375    0.3638
   39.390    0.4922
   39.405    0.5243
   39.420    0.4815
   39.435    0.5029
   39.450    0.3210
   39.465    0.3959
   39.480    0.3424
   39.495    0.4280
   39.510    0.4066
   39.525    0.4494
   39.540    0.4494
   39.555    0.3959
   39.570    0.4494
   39.585    0.3852
   39.600    0.3959
   39.615    0.4387
   39.630    0.3317
   39.645    0.3852
   39.660    0.3317
   39.675    0.3531
   39.690    0.3531
   39.705    0.3210
   39.720    0.3852
   39.735    0.4387
   39.750    0.4708
   39.765    0.4815
   39.780    0.5886
   39.795    0.5350
   39.810    0.4280
   39.825    0.5136
   39.840    0.5029
   39.855    0.4708
   39.870    0.5671
   39.885    0.4708
   39.900    0.4387
   39.915    0.4601
   39.930    0.3745
   39.945    0.4708
   39.960    0.4280
   39.975    0.3745
   39.990    0.3959
