    1.500   35.8926
    1.515   36.0611
    1.530   35.7135
    1.545   33.8494
    1.560   33.0595
    1.575   32.1538
    1.590   32.2801
    1.605   30.8583
    1.620   30.5845
    1.635   30.5003
    1.650   29.8684
    1.665   28.4571
    1.680   28.2675
    1.695   28.1622
    1.710   27.9726
    1.725   27.4460
    1.740   26.5719
    1.755   26.0348
    1.770   25.8031
    1.785   25.2554
    1.800   24.1390
    1.815   24.1390
    1.830   23.7704
    1.845   23.5176
    1.860   23.5703
    1.875   22.8331
    1.890   22.1801
    1.905   22.1485
    1.920   21.4639
    1.935   22.0011
    1.950   21.0743
    1.965   20.3581
    1.980   20.6003
    1.995   20.1474
    2.010   19.8631
    2.025   19.5261
    2.040   20.2528
    2.055   19.0100
    2.070   19.4102
    2.085   18.8942
    2.100   17.7251
    2.115   18.2728
    2.130   18.1043
    2.145   18.2412
    2.160   17.6935
    2.175   18.1569
    2.190   17.1669
    2.205   17.4302
    2.220   18.0095
    2.235   17.1459
    2.250   16.5982
    2.265   16.9142
    2.280   16.8510
    2.295   16.4718
    2.310   16.0506
    2.325   15.6503
    2.340   16.0400
    2.355   16.2296
    2.370   16.5561
    2.385   15.9242
    2.400   15.3344
    2.415   16.0716
    2.430   16.2085
    2.445   16.1032
    2.460   15.4397
    2.475   15.6293
    2.490   16.1559
    2.505   15.8715
    2.520   15.9136
    2.535   15.3660
    2.550   15.5977
    2.565   15.8715
    2.580   15.9347
    2.595   16.0821
    2.610   15.6503
    2.625   15.1027
    2.640   15.2501
    2.655   15.2501
    2.670   15.4502
    2.685   15.8189
    2.700   16.9036
    2.715   16.5350
    2.730   16.0295
    2.745   15.9558
    2.760   16.1875
    2.775   16.8510
    2.790   16.8720
    2.805   16.7035
    2.820   16.7246
    2.835   17.3144
    2.850   16.8088
    2.865   16.9668
    2.880   17.3038
    2.895   17.2828
    2.910   18.2622
    2.925   17.8410
    2.940   19.0732
    2.955   18.5150
    2.970   19.1259
    2.985   19.3786
    3.000   19.4207
    3.015   19.5471
    3.030   20.0421
    3.045   20.6951
    3.060   20.7372
    3.075   20.6003
    3.090   20.6214
    3.105   21.5587
    3.120   22.0326
    3.135   23.2017
    3.150   22.5698
    3.165   23.6440
    3.180   24.9605
    3.195   25.0869
    3.210   26.8141
    3.225   26.4982
    3.240   27.1406
    3.255   26.7299
    3.270   28.5940
    3.285   28.6677
    3.300   30.0790
    3.315   31.0795
    3.330   32.0590
    3.345   32.5434
    3.360   32.9753
    3.375   33.8178
    3.390   35.1132
    3.405   35.3555
    3.420   36.4718
    3.435   36.2823
    3.450   36.4402
    3.465   36.6509
    3.480   36.4718
    3.495   35.5240
    3.510   36.7457
    3.525   36.2928
    3.540   35.8399
    3.555   33.5229
    3.570   31.9221
    3.585   31.8062
    3.600   30.8268
    3.615   29.6051
    3.630   28.2570
    3.645   28.2675
    3.660   28.2254
    3.675   27.5724
    3.690   25.9084
    3.705   25.1922
    3.720   24.1601
    3.735   23.6651
    3.750   23.4229
    3.765   23.6124
    3.780   22.6435
    3.795   22.2959
    3.810   21.5482
    3.825   20.9795
    3.840   20.8636
    3.855   20.0527
    3.870   20.4739
    3.885   19.8526
    3.900   18.9679
    3.915   19.2101
    3.930   19.8104
    3.945   18.9047
    3.960   18.7678
    3.975   18.1359
    3.990   18.8520
    4.005   18.6835
    4.020   17.9252
    4.035   16.6930
    4.050   16.8404
    4.065   16.4086
    4.080   16.7141
    4.095   16.5245
    4.110   15.8504
    4.125   15.8399
    4.140   15.8715
    4.155   15.1553
    4.170   14.4392
    4.185   14.5445
    4.200   14.3233
    4.215   13.8073
    4.230   13.7230
    4.245   13.6388
    4.260   13.6072
    4.275   12.9331
    4.290   12.5645
    4.305   12.1327
    4.320   12.2696
    4.335   12.4381
    4.350   11.7114
    4.365   11.4376
    4.380   11.1532
    4.395   11.2902
    4.410   11.2270
    4.425   11.3533
    4.440   10.5845
    4.455   10.6372
    4.470   10.1527
    4.485   10.4160
    4.500    9.9631
    4.515   10.0474
    4.530    9.6998
    4.545    9.2786
    4.560    9.3312
    4.575    9.0574
    4.590    8.7520
    4.605    8.8889
    4.620    9.0995
    4.635    8.6888
    4.650    9.1206
    4.665    9.0890
    4.680    8.6151
    4.695    8.2675
    4.710    8.2043
    4.725    8.5203
    4.740    8.3623
    4.755    7.9094
    4.770    7.7514
    4.785    7.6988
    4.800    7.5092
    4.815    7.8146
    4.830    7.7409
    4.845    8.0358
    4.860    7.4882
    4.875    7.4144
    4.890    7.6251
    4.905    7.7725
    4.920    7.4566
    4.935    7.2986
    4.950    7.3302
    4.965    6.8668
    4.980    7.0142
    4.995    7.1722
    5.010    7.0879
    5.025    7.4460
    5.040    7.3196
    5.055    6.8984
    5.070    7.0774
    5.085    7.1933
    5.100    7.3723
    5.115    6.8141
    5.130    7.2986
    5.145    7.2143
    5.160    6.7509
    5.175    7.1301
    5.190    6.7404
    5.205    6.5508
    5.220    6.4876
    5.235    6.8246
    5.250    6.7509
    5.265    7.0985
    5.280    7.0142
    5.295    6.4982
    5.310    6.4455
    5.325    6.4139
    5.340    6.4560
    5.355    6.4244
    5.370    6.4139
    5.385    6.6456
    5.400    6.8246
    5.415    6.4876
    5.430    6.7088
    5.445    6.4350
    5.460    6.5087
    5.475    6.2138
    5.490    6.3823
    5.505    6.4666
    5.520    6.7615
    5.535    6.5613
    5.550    6.1717
    5.565    5.9084
    5.580    6.0979
    5.595    6.3086
    5.610    6.2349
    5.625    6.2454
    5.640    6.5508
    5.655    6.2875
    5.670    6.1927
    5.685    6.2138
    5.700    6.0137
    5.715    6.1611
    5.730    6.1927
    5.745    6.4244
    5.760    6.4455
    5.775    6.6667
    5.790    6.3928
    5.805    5.9716
    5.820    6.2138
    5.835    6.1717
    5.850    5.7820
    5.865    5.6451
    5.880    5.8031
    5.895    6.0664
    5.910    6.2665
    5.925    6.3612
    5.940    6.3823
    5.955    5.9084
    5.970    5.9189
    5.985    6.0874
    6.000    6.2454
    6.015    6.3823
    6.030    6.3823
    6.045    6.0558
    6.060    5.9400
    6.075    6.4771
    6.090    6.2559
    6.105    6.0348
    6.120    5.6872
    6.135    5.9294
    6.150    5.9926
    6.165    6.0453
    6.180    6.1611
    6.195    5.8136
    6.210    6.1190
    6.225    6.1190
    6.240    6.2349
    6.255    5.5924
    6.270    5.6872
    6.285    5.8557
    6.300    5.8557
    6.315    6.1401
    6.330    6.2981
    6.345    5.9926
    6.360    5.7399
    6.375    5.9294
    6.390    5.9610
    6.405    6.3086
    6.420    6.3191
    6.435    6.0979
    6.450    6.1611
    6.465    5.9821
    6.480    6.0348
    6.495    6.1506
    6.510    6.0453
    6.525    6.3928
    6.540    6.2138
    6.555    6.2559
    6.570    6.2770
    6.585    6.2665
    6.600    6.0979
    6.615    5.8978
    6.630    6.5719
    6.645    6.4244
    6.660    6.6245
    6.675    6.6140
    6.690    6.6877
    6.705    6.7930
    6.720    6.9616
    6.735    6.8878
    6.750    6.8457
    6.765    6.8984
    6.780    6.7193
    6.795    7.1827
    6.810    7.0353
    6.825    7.1301
    6.840    6.8246
    6.855    7.2249
    6.870    7.2986
    6.885    7.2143
    6.900    7.7620
    6.915    7.8673
    6.930    7.3934
    6.945    7.4355
    6.960    7.5619
    6.975    7.1933
    6.990    7.7093
    7.005    7.9831
    7.020    7.9200
    7.035    7.6883
    7.050    7.5408
    7.065    7.5724
    7.080    7.5724
    7.095    7.3512
    7.110    7.0879
    7.125    6.9089
    7.140    7.4987
    7.155    7.1722
    7.170    7.3723
    7.185    6.9300
    7.200    6.9826
    7.215    6.7930
    7.230    6.5087
    7.245    6.6772
    7.260    6.5508
    7.275    6.7193
    7.290    6.4666
    7.305    6.8984
    7.320    6.4244
    7.335    5.9716
    7.350    6.3823
    7.365    6.1401
    7.380    6.4560
    7.395    6.1611
    7.410    6.5192
    7.425    6.6877
    7.440    6.4350
    7.455    6.6561
    7.470    6.7509
    7.485    6.1401
    7.500    6.1295
    7.515    6.5929
    7.530    6.3612
    7.545    6.4560
    7.560    6.5613
    7.575    6.5613
    7.590    6.4244
    7.605    6.4876
    7.620    6.8457
    7.635    6.4876
    7.650    6.7720
    7.665    6.9932
    7.680    6.3191
    7.695    6.3296
    7.710    6.3296
    7.725    6.1611
    7.740    6.2875
    7.755    6.1401
    7.770    6.5719
    7.785    6.3296
    7.800    6.5403
    7.815    6.7509
    7.830    6.5508
    7.845    6.5719
    7.860    6.3823
    7.875    6.4034
    7.890    6.7404
    7.905    6.6772
    7.920    6.4666
    7.935    6.6561
    7.950    6.4139
    7.965    6.2349
    7.980    6.5824
    7.995    6.8457
    8.010    6.6561
    8.025    6.4350
    8.040    6.5403
    8.055    6.6772
    8.070    6.3718
    8.085    6.4034
    8.100    6.4666
    8.115    6.4034
    8.130    6.3296
    8.145    6.4982
    8.160    6.5298
    8.175    6.7404
    8.190    6.8036
    8.205    6.5087
    8.220    6.6140
    8.235    6.3402
    8.250    6.3928
    8.265    6.5087
    8.280    6.0874
    8.295    6.1085
    8.310    5.8662
    8.325    6.3612
    8.340    6.4139
    8.355    6.2981
    8.370    6.2770
    8.385    6.1611
    8.400    6.2454
    8.415    6.8773
    8.430    6.7509
    8.445    6.4139
    8.460    6.1611
    8.475    6.1295
    8.490    6.0979
    8.505    5.9821
    8.520    6.1611
    8.535    6.2243
    8.550    6.3507
    8.565    6.1295
    8.580    6.2981
    8.595    6.6351
    8.610    6.2559
    8.625    6.2875
    8.640    6.2981
    8.655    6.1295
    8.670    6.1401
    8.685    6.2349
    8.700    6.2243
    8.715    5.9610
    8.730    6.2349
    8.745    6.2665
    8.760    5.8031
    8.775    5.8768
    8.790    6.2665
    8.805    6.1190
    8.820    5.9926
    8.835    5.7820
    8.850    5.8347
    8.865    6.0874
    8.880    6.2138
    8.895    6.0769
    8.910    5.8873
    8.925    5.8662
    8.940    5.8031
    8.955    6.1822
    8.970    6.3296
    8.985    5.9084
    9.000    5.8031
    9.015    5.6135
    9.030    5.5819
    9.045    5.7188
    9.060    5.8978
    9.075    5.7293
    9.090    5.7715
    9.105    5.9505
    9.120    5.5714
    9.135    6.0032
    9.150    5.7293
    9.165    5.6661
    9.180    5.6240
    9.195    5.9084
    9.210    5.9400
    9.225    5.6135
    9.240    5.8452
    9.255    5.6135
    9.270    5.3818
    9.285    6.0137
    9.300    6.2033
    9.315    5.6767
    9.330    5.6977
    9.345    5.7188
    9.360    5.4028
    9.375    5.5187
    9.390    5.7188
    9.405    5.5819
    9.420    5.8241
    9.435    5.6661
    9.450    5.4134
    9.465    5.7399
    9.480    5.5608
    9.495    5.5398
    9.510    5.5398
    9.525    5.4344
    9.540    5.3607
    9.555    5.6556
    9.570    5.6767
    9.585    5.6135
    9.600    5.7925
    9.615    5.8241
    9.630    5.4239
    9.645    5.6661
    9.660    5.6345
    9.675    6.0242
    9.690    5.8978
    9.705    5.9189
    9.720    5.3081
    9.735    5.4344
    9.750    5.7399
    9.765    5.6872
    9.780    5.3081
    9.795    5.4450
    9.810    5.6345
    9.825    5.5503
    9.840    5.0237
    9.855    5.3818
    9.870    5.4660
    9.885    5.7293
    9.900    5.6029
    9.915    5.9926
    9.930    5.3502
    9.945    5.3081
    9.960    5.3081
    9.975    5.8557
    9.990    5.8662
   10.005    5.9294
   10.020    5.8452
   10.035    5.6451
   10.050    5.6661
   10.065    5.6240
   10.080    5.6345
   10.095    5.6240
   10.110    5.7083
   10.125    5.4555
   10.140    5.4028
   10.155    5.5924
   10.170    5.3923
   10.185    5.5292
   10.200    5.2449
   10.215    5.1711
   10.230    5.7293
   10.245    5.6345
   10.260    5.8136
   10.275    5.8978
   10.290    5.5398
   10.305    5.7188
   10.320    5.3712
   10.335    5.4134
   10.350    5.7820
   10.365    5.1711
   10.380    5.6872
   10.395    5.4344
   10.410    5.8557
   10.425    5.8347
   10.440    5.4871
   10.455    5.4871
   10.470    5.6135
   10.485    5.3186
   10.500    5.8136
   10.515    5.6240
   10.530    5.7609
   10.545    5.5398
   10.560    5.8241
   10.575    5.5819
   10.590    5.8031
   10.605    5.7083
   10.620    5.4660
   10.635    5.5187
   10.650    5.8452
   10.665    5.4976
   10.680    5.5924
   10.695    5.7504
   10.710    5.3923
   10.725    5.5714
   10.740    5.4976
   10.755    5.3712
   10.770    5.4134
   10.785    5.1290
   10.800    5.3607
   10.815    5.6451
   10.830    5.4134
   10.845    5.7293
   10.860    5.5924
   10.875    5.8662
   10.890    5.3607
   10.905    5.4660
   10.920    5.3923
   10.935    5.4239
   10.950    5.7504
   10.965    5.5819
   10.980    5.4344
   10.995    5.3186
   11.010    5.4239
   11.025    5.2659
   11.040    5.4344
   11.055    5.2133
   11.070    5.2870
   11.085    5.4028
   11.100    5.5292
   11.115    5.4239
   11.130    5.1395
   11.145    5.3607
   11.160    5.9926
   11.175    5.8347
   11.190    5.2870
   11.205    5.6451
   11.220    5.6977
   11.235    5.4976
   11.250    5.9610
   11.265    5.5924
   11.280    5.6135
   11.295    5.4344
   11.310    5.4555
   11.325    5.5398
   11.340    5.3818
   11.355    5.4344
   11.370    5.3923
   11.385    5.2659
   11.400    5.3607
   11.415    5.4028
   11.430    5.1711
   11.445    5.5714
   11.460    5.6345
   11.475    5.4660
   11.490    5.6029
   11.505    5.6767
   11.520    5.3818
   11.535    5.2449
   11.550    5.5503
   11.565    5.2343
   11.580    5.5924
   11.595    5.6240
   11.610    5.2765
   11.625    5.2870
   11.640    5.6451
   11.655    5.4976
   11.670    5.6345
   11.685    5.1922
   11.700    5.4660
   11.715    5.7188
   11.730    5.5924
   11.745    5.4871
   11.760    5.2449
   11.775    5.1711
   11.790    5.5819
   11.805    5.5398
   11.820    5.6345
   11.835    4.9078
   11.850    4.8973
   11.865    5.3397
   11.880    5.6345
   11.895    5.5398
   11.910    5.0658
   11.925    5.3081
   11.940    5.5292
   11.955    5.6451
   11.970    5.3607
   11.985    5.6029
   12.000    5.2554
   12.015    5.3081
   12.030    5.4134
   12.045    5.4766
   12.060    5.5608
   12.075    5.6029
   12.090    5.3712
   12.105    5.4976
   12.120    5.4976
   12.135    5.9294
   12.150    5.5398
   12.165    5.1080
   12.180    5.5819
   12.195    5.3081
   12.210    5.3397
   12.225    5.4450
   12.240    5.4344
   12.255    5.7083
   12.270    5.6556
   12.285    5.3502
   12.300    5.6135
   12.315    5.3502
   12.330    5.2238
   12.345    5.0764
   12.360    5.3291
   12.375    5.0764
   12.390    5.4976
   12.405    5.5398
   12.420    5.5292
   12.435    5.2975
   12.450    5.4028
   12.465    5.3923
   12.480    5.3081
   12.495    5.3291
   12.510    5.1185
   12.525    5.1501
   12.540    5.5187
   12.555    5.1501
   12.570    5.2343
   12.585    5.5608
   12.600    5.2238
   12.615    5.1817
   12.630    5.1711
   12.645    5.5398
   12.660    5.7399
   12.675    5.1290
   12.690    5.3081
   12.705    5.5608
   12.720    5.1922
   12.735    5.3712
   12.750    5.4028
   12.765    5.3397
   12.780    5.2765
   12.795    5.5082
   12.810    5.3186
   12.825    5.4450
   12.840    5.5398
   12.855    5.0658
   12.870    5.2870
   12.885    5.2659
   12.900    5.4028
   12.915    5.5187
   12.930    5.3291
   12.945    5.0869
   12.960    5.3818
   12.975    5.4976
   12.990    5.4344
   13.005    5.5714
   13.020    5.5292
   13.035    5.3712
   13.050    5.0448
   13.065    5.6029
   13.080    5.5714
   13.095    5.2027
   13.110    5.1817
   13.125    5.0026
   13.140    5.2238
   13.155    5.3291
   13.170    5.1711
   13.185    4.7815
   13.200    5.1395
   13.215    4.9921
   13.230    5.1185
   13.245    5.4028
   13.260    5.1290
   13.275    4.8447
   13.290    5.0974
   13.305    5.3502
   13.320    5.2765
   13.335    5.0026
   13.350    5.1395
   13.365    5.2554
   13.380    5.4028
   13.395    5.3818
   13.410    5.2449
   13.425    5.4976
   13.440    5.8662
   13.455    5.3291
   13.470    5.3712
   13.485    5.3818
   13.500    5.3712
   13.515    5.2765
   13.530    5.4239
   13.545    5.1606
   13.560    5.0026
   13.575    5.3291
   13.590    5.4239
   13.605    5.5503
   13.620    5.3397
   13.635    5.1711
   13.650    5.4766
   13.665    4.8763
   13.680    5.1501
   13.695    5.3081
   13.710    5.2975
   13.725    5.2449
   13.740    5.3186
   13.755    5.2554
   13.770    5.0764
   13.785    5.0553
   13.800    5.5187
   13.815    5.4871
   13.830    5.2133
   13.845    5.4450
   13.860    5.4344
   13.875    5.1817
   13.890    5.3502
   13.905    5.3923
   13.920    5.2975
   13.935    5.2554
   13.950    5.0869
   13.965    5.0342
   13.980    5.1080
   13.995    5.1290
   14.010    5.2343
   14.025    5.5608
   14.040    5.3081
   14.055    5.3186
   14.070    5.3291
   14.085    5.8347
   14.100    5.1395
   14.115    5.1922
   14.130    5.2659
   14.145    4.8763
   14.160    5.0342
   14.175    5.1606
   14.190    5.3818
   14.205    5.2765
   14.220    5.5082
   14.235    5.2659
   14.250    5.2554
   14.265    4.9394
   14.280    5.1185
   14.295    5.1080
   14.310    5.2027
   14.325    5.0764
   14.340    5.2449
   14.355    5.3291
   14.370    5.1922
   14.385    5.4028
   14.400    5.3607
   14.415    5.0342
   14.430    5.2343
   14.445    5.3397
   14.460    5.6345
   14.475    5.6345
   14.490    5.2659
   14.505    5.2238
   14.520    5.2027
   14.535    5.1606
   14.550    5.2343
   14.565    5.6451
   14.580    5.4766
   14.595    5.3502
   14.610    5.4766
   14.625    5.2133
   14.640    5.1395
   14.655    5.0869
   14.670    4.9921
   14.685    4.8552
   14.700    5.1606
   14.715    4.9078
   14.730    4.6867
   14.745    5.3291
   14.760    5.0448
   14.775    5.5608
   14.790    5.1817
   14.805    5.0869
   14.820    5.1501
   14.835    5.5082
   14.850    5.4028
   14.865    5.0448
   14.880    5.0342
   14.895    5.0026
   14.910    4.9500
   14.925    5.1817
   14.940    5.3712
   14.955    5.7188
   14.970    5.4766
   14.985    5.2659
   15.000    4.9710
   15.015    5.1922
   15.030    4.9184
   15.045    5.1501
   15.060    5.2975
   15.075    5.1501
   15.090    5.1922
   15.105    5.4871
   15.120    5.2870
   15.135    5.1080
   15.150    5.3818
   15.165    5.1606
   15.180    5.2975
   15.195    4.7393
   15.210    5.0869
   15.225    4.9500
   15.240    4.7920
   15.255    5.2554
   15.270    5.3818
   15.285    5.2765
   15.300    5.1395
   15.315    5.3081
   15.330    5.3607
   15.345    5.2554
   15.360    5.0658
   15.375    5.1606
   15.390    5.2554
   15.405    5.1922
   15.420    4.9078
   15.435    5.3291
   15.450    5.3397
   15.465    5.5082
   15.480    5.3712
   15.495    5.2238
   15.510    5.6451
   15.525    5.2449
   15.540    5.2238
   15.555    5.2027
   15.570    5.2238
   15.585    5.0974
   15.600    5.0342
   15.615    5.2975
   15.630    5.2870
   15.645    4.9394
   15.660    5.3502
   15.675    4.8763
   15.690    5.0869
   15.705    5.1606
   15.720    5.0553
   15.735    5.0342
   15.750    5.3923
   15.765    5.1185
   15.780    5.1606
   15.795    5.3291
   15.810    5.0132
   15.825    5.0974
   15.840    5.1395
   15.855    5.0658
   15.870    5.0658
   15.885    5.0132
   15.900    5.0553
   15.915    5.3712
   15.930    5.6240
   15.945    5.7188
   15.960    5.3397
   15.975    5.0869
   15.990    4.9500
   16.005    5.0974
   16.020    5.4660
   16.035    5.5503
   16.050    5.0869
   16.065    5.2027
   16.080    5.5082
   16.095    5.5187
   16.110    5.3923
   16.125    5.5924
   16.140    5.2343
   16.155    5.5187
   16.170    4.9921
   16.185    5.2343
   16.200    5.2975
   16.215    5.3397
   16.230    5.4976
   16.245    5.1922
   16.260    4.8763
   16.275    4.9184
   16.290    5.4134
   16.305    5.1290
   16.320    5.2133
   16.335    5.0132
   16.350    5.0658
   16.365    5.3186
   16.380    5.1606
   16.395    5.3397
   16.410    4.8025
   16.425    5.1080
   16.440    5.5819
   16.455    5.1185
   16.470    5.2765
   16.485    5.0764
   16.500    5.2343
   16.515    5.1185
   16.530    4.8973
   16.545    5.2133
   16.560    5.3818
   16.575    4.8868
   16.590    5.1080
   16.605    5.2449
   16.620    5.3712
   16.635    5.3186
   16.650    5.0237
   16.665    5.1080
   16.680    5.5924
   16.695    5.6135
   16.710    5.3081
   16.725    5.3081
   16.740    5.7399
   16.755    5.2238
   16.770    4.7604
   16.785    5.2975
   16.800    5.1606
   16.815    5.1290
   16.830    5.2449
   16.845    5.2027
   16.860    5.0869
   16.875    5.2554
   16.890    5.1080
   16.905    5.1817
   16.920    4.9816
   16.935    5.1395
   16.950    4.8657
   16.965    5.2765
   16.980    5.2343
   16.995    4.9500
   17.010    5.1080
   17.025    5.0658
   17.040    5.1080
   17.055    5.3081
   17.070    5.2238
   17.085    4.9289
   17.100    5.0764
   17.115    5.3397
   17.130    5.2554
   17.145    5.2238
   17.160    5.1290
   17.175    5.2449
   17.190    5.3397
   17.205    5.0658
   17.220    5.5503
   17.235    5.3291
   17.250    5.2133
   17.265    5.2659
   17.280    4.8447
   17.295    5.2765
   17.310    4.8236
   17.325    5.1711
   17.340    5.1501
   17.355    5.7399
   17.370    5.3397
   17.385    5.4766
   17.400    5.1711
   17.415    5.2765
   17.430    5.0974
   17.445    5.1395
   17.460    5.3291
   17.475    5.1290
   17.490    5.0237
   17.505    5.0764
   17.520    4.9078
   17.535    5.2133
   17.550    5.2554
   17.565    5.2765
   17.580    5.4871
   17.595    5.4555
   17.610    5.4660
   17.625    5.4239
   17.640    5.2449
   17.655    5.4555
   17.670    5.0237
   17.685    5.1290
   17.700    5.7083
   17.715    5.6240
   17.730    5.6345
   17.745    5.6135
   17.760    5.2027
   17.775    5.2238
   17.790    4.9816
   17.805    5.0764
   17.820    5.1817
   17.835    5.1395
   17.850    5.2554
   17.865    5.5608
   17.880    5.4555
   17.895    4.9289
   17.910    5.2449
   17.925    5.4766
   17.940    5.1817
   17.955    5.0553
   17.970    5.0132
   17.985    5.0132
   18.000    5.2554
   18.015    5.3607
   18.030    5.6872
   18.045    5.5924
   18.060    5.4766
   18.075    5.4344
   18.090    5.3818
   18.105    5.0026
   18.120    4.8552
   18.135    5.0869
   18.150    5.1185
   18.165    5.2343
   18.180    4.9921
   18.195    5.6135
   18.210    5.2027
   18.225    5.3607
   18.240    5.2027
   18.255    5.1290
   18.270    5.3186
   18.285    5.0448
   18.300    5.3291
   18.315    5.1817
   18.330    5.6029
   18.345    4.8341
   18.360    5.2870
   18.375    5.5819
   18.390    5.0974
   18.405    5.1711
   18.420    5.3818
   18.435    5.3818
   18.450    5.2027
   18.465    5.3397
   18.480    5.4344
   18.495    5.1922
   18.510    5.1290
   18.525    5.0026
   18.540    5.1606
   18.555    5.2659
   18.570    5.4239
   18.585    5.4660
   18.600    5.5082
   18.615    5.3607
   18.630    5.3712
   18.645    5.7188
   18.660    5.6345
   18.675    5.3502
   18.690    5.6556
   18.705    5.2765
   18.720    5.2133
   18.735    4.9710
   18.750    5.2343
   18.765    5.3923
   18.780    5.7083
   18.795    5.4028
   18.810    5.2133
   18.825    5.2554
   18.840    5.2343
   18.855    5.2027
   18.870    5.4450
   18.885    5.4766
   18.900    5.1395
   18.915    4.9816
   18.930    5.5187
   18.945    5.3712
   18.960    5.0448
   18.975    5.1817
   18.990    5.5608
   19.005    5.4028
   19.020    5.5608
   19.035    5.3923
   19.050    5.6240
   19.065    5.6240
   19.080    5.6872
   19.095    5.6556
   19.110    5.5503
   19.125    5.4976
   19.140    5.0132
   19.155    5.2343
   19.170    5.3291
   19.185    5.3186
   19.200    5.2449
   19.215    5.3291
   19.230    5.4555
   19.245    5.1501
   19.260    5.3923
   19.275    5.4660
   19.290    5.0974
   19.305    5.5082
   19.320    5.1817
   19.335    5.2027
   19.350    5.5503
   19.365    5.2765
   19.380    5.4555
   19.395    5.4660
   19.410    5.7715
   19.425    5.5292
   19.440    5.3607
   19.455    5.4450
   19.470    5.3923
   19.485    5.4976
   19.500    5.4976
   19.515    5.3607
   19.530    5.5608
   19.545    5.5082
   19.560    5.6240
   19.575    5.3502
   19.590    5.4028
   19.605    5.5082
   19.620    5.2870
   19.635    5.1711
   19.650    6.0032
   19.665    5.5714
   19.680    5.4766
   19.695    5.5503
   19.710    5.7188
   19.725    5.4450
   19.740    5.5292
   19.755    5.6767
   19.770    5.5819
   19.785    5.6451
   19.800    5.3712
   19.815    5.4871
   19.830    5.3923
   19.845    5.5292
   19.860    5.2870
   19.875    5.5819
   19.890    5.6872
   19.905    5.7715
   19.920    5.6135
   19.935    5.4028
   19.950    5.4028
   19.965    5.2554
   19.980    5.5292
   19.995    5.4239
   20.010    5.5082
   20.025    5.4450
   20.040    5.5608
   20.055    5.7188
   20.070    5.4239
   20.085    5.2765
   20.100    5.5503
   20.115    5.4028
   20.130    5.4766
   20.145    5.4660
   20.160    5.2133
   20.175    5.7293
   20.190    5.4344
   20.205    5.4871
   20.220    5.6556
   20.235    5.6661
   20.250    5.5398
   20.265    5.5819
   20.280    5.2343
   20.295    5.9716
   20.310    5.6240
   20.325    5.3923
   20.340    5.3818
   20.355    5.1922
   20.370    5.8557
   20.385    5.6556
   20.400    5.5924
   20.415    5.2659
   20.430    5.5819
   20.445    5.1606
   20.460    5.3923
   20.475    5.6135
   20.490    5.3818
   20.505    5.3081
   20.520    5.3712
   20.535    5.4239
   20.550    5.7504
   20.565    5.3397
   20.580    5.5292
   20.595    5.6345
   20.610    5.6345
   20.625    5.6556
   20.640    5.3502
   20.655    5.4344
   20.670    5.5714
   20.685    5.6451
   20.700    5.5608
   20.715    5.5714
   20.730    5.4134
   20.745    5.3081
   20.760    5.2975
   20.775    5.5714
   20.790    5.4450
   20.805    5.7925
   20.820    5.7609
   20.835    5.7083
   20.850    5.6661
   20.865    5.3186
   20.880    5.2133
   20.895    5.1290
   20.910    5.6345
   20.925    5.4871
   20.940    5.4766
   20.955    5.3923
   20.970    5.6451
   20.985    5.4766
   21.000    5.3081
   21.015    5.4239
   21.030    5.5187
   21.045    5.1817
   21.060    5.3186
   21.075    5.7188
   21.090    5.8347
   21.105    5.8241
   21.120    5.7925
   21.135    5.7293
   21.150    5.5714
   21.165    5.4976
   21.180    5.7188
   21.195    5.2765
   21.210    5.5082
   21.225    5.6029
   21.240    5.4344
   21.255    5.4976
   21.270    5.4134
   21.285    5.5503
   21.300    5.5924
   21.315    5.7820
   21.330    5.7715
   21.345    5.8557
   21.360    5.6029
   21.375    5.3291
   21.390    5.5503
   21.405    5.4450
   21.420    5.3186
   21.435    5.6556
   21.450    5.8452
   21.465    5.4450
   21.480    5.2975
   21.495    5.5187
   21.510    5.5503
   21.525    5.6767
   21.540    5.5819
   21.555    5.5714
   21.570    5.4028
   21.585    5.6135
   21.600    5.8768
   21.615    5.6767
   21.630    5.6345
   21.645    5.2027
   21.660    5.3186
   21.675    5.6767
   21.690    5.6029
   21.705    5.4134
   21.720    5.3291
   21.735    5.3081
   21.750    5.5608
   21.765    5.4134
   21.780    5.2659
   21.795    5.8557
   21.810    5.6240
   21.825    5.5924
   21.840    5.6240
   21.855    5.2449
   21.870    5.2449
   21.885    5.5714
   21.900    5.6767
   21.915    5.3607
   21.930    5.4134
   21.945    6.0032
   21.960    5.6135
   21.975    5.7925
   21.990    5.6977
   22.005    5.7609
   22.020    5.5608
   22.035    5.4555
   22.050    5.4028
   22.065    5.6977
   22.080    5.6977
   22.095    5.5819
   22.110    5.4450
   22.125    5.6556
   22.140    5.6872
   22.155    5.4660
   22.170    5.4871
   22.185    5.7293
   22.200    5.3081
   22.215    5.5398
   22.230    5.4239
   22.245    5.4239
   22.260    5.4766
   22.275    5.5082
   22.290    5.4028
   22.305    5.5503
   22.320    5.7820
   22.335    5.7609
   22.350    5.4028
   22.365    5.8241
   22.380    6.0874
   22.395    5.7820
   22.410    5.8662
   22.425    5.9821
   22.440    5.4344
   22.455    5.4871
   22.470    5.5714
   22.485    5.6240
   22.500    5.6135
   22.515    5.7609
   22.530    5.5292
   22.545    5.6029
   22.560    5.5503
   22.575    5.3923
   22.590    5.4871
   22.605    5.7293
   22.620    5.9821
   22.635    5.8136
   22.650    5.5608
   22.665    5.2870
   22.680    5.6556
   22.695    5.5398
   22.710    5.2870
   22.725    5.4239
   22.740    5.5924
   22.755    5.4660
   22.770    5.2975
   22.785    5.2449
   22.800    5.6767
   22.815    5.7820
   22.830    5.6345
   22.845    5.8241
   22.860    5.9400
   22.875    5.5819
   22.890    5.5608
   22.905    5.5714
   22.920    5.3712
   22.935    5.6345
   22.950    5.6135
   22.965    5.7820
   22.980    5.4028
   22.995    5.5292
   23.010    5.4766
   23.025    5.6345
   23.040    5.3923
   23.055    5.5819
   23.070    5.2133
   23.085    5.0764
   23.100    5.7820
   23.115    5.5187
   23.130    5.2659
   23.145    5.4344
   23.160    5.6661
   23.175    5.6767
   23.190    5.5714
   23.205    5.7188
   23.220    5.3923
   23.235    5.5819
   23.250    5.6661
   23.265    5.6556
   23.280    5.3397
   23.295    5.2238
   23.310    5.4028
   23.325    5.5819
   23.340    5.4028
   23.355    5.4450
   23.370    5.1606
   23.385    5.3818
   23.400    5.2659
   23.415    5.5608
   23.430    5.8768
   23.445    5.7083
   23.460    5.1922
   23.475    5.3712
   23.490    4.9921
   23.505    5.4660
   23.520    5.5187
   23.535    5.6556
   23.550    5.6661
   23.565    5.4766
   23.580    5.0974
   23.595    5.1817
   23.610    5.5503
   23.625    5.3081
   23.640    5.0026
   23.655    5.2659
   23.670    5.7188
   23.685    5.4766
   23.700    5.3291
   23.715    5.4239
   23.730    5.3607
   23.745    5.5187
   23.760    5.4239
   23.775    5.6661
   23.790    5.7293
   23.805    5.4660
   23.820    5.1395
   23.835    5.2343
   23.850    5.3712
   23.865    5.2870
   23.880    5.3607
   23.895    5.6135
   23.910    5.4028
   23.925    5.3712
   23.940    5.2133
   23.955    5.2449
   23.970    5.5503
   23.985    5.6556
   24.000    5.2659
   24.015    5.4871
   24.030    5.5714
   24.045    5.3081
   24.060    5.1711
   24.075    5.4660
   24.090    5.4660
   24.105    5.1606
   24.120    5.3397
   24.135    5.6240
   24.150    5.4766
   24.165    5.6029
   24.180    5.1606
   24.195    5.3712
   24.210    5.5398
   24.225    5.1290
   24.240    5.2765
   24.255    5.2765
   24.270    5.5187
   24.285    5.3291
   24.300    5.2554
   24.315    5.9294
   24.330    5.4871
   24.345    5.2133
   24.360    5.6029
   24.375    5.4450
   24.390    5.3502
   24.405    5.2975
   24.420    5.0026
   24.435    5.1080
   24.450    5.0764
   24.465    4.8657
   24.480    5.4028
   24.495    5.4555
   24.510    5.4028
   24.525    5.4028
   24.540    5.1817
   24.555    5.2554
   24.570    5.0869
   24.585    5.2133
   24.600    5.4660
   24.615    5.5082
   24.630    5.4344
   24.645    5.2554
   24.660    5.2133
   24.675    5.0448
   24.690    5.1395
   24.705    5.3291
   24.720    5.0237
   24.735    5.0974
   24.750    5.1501
   24.765    5.2554
   24.780    5.0764
   24.795    5.2975
   24.810    5.7504
   24.825    5.1185
   24.840    5.3712
   24.855    5.1501
   24.870    5.0869
   24.885    5.2870
   24.900    5.3081
   24.915    5.4555
   24.930    5.5187
   24.945    5.3818
   24.960    5.1395
   24.975    5.3502
   24.990    5.4555
   25.005    5.0869
   25.020    5.2975
   25.035    5.5714
   25.050    5.4344
   25.065    5.3712
   25.080    5.1395
   25.095    5.1290
   25.110    5.2238
   25.125    5.4028
   25.140    5.4239
   25.155    5.0869
   25.170    5.2133
   25.185    5.3291
   25.200    5.1185
   25.215    5.1080
   25.230    5.1395
   25.245    5.1711
   25.260    5.1395
   25.275    4.9605
   25.290    5.1080
   25.305    5.2449
   25.320    5.3923
   25.335    5.3818
   25.350    5.3397
   25.365    5.2027
   25.380    5.1185
   25.395    5.3186
   25.410    5.2027
   25.425    5.0026
   25.440    5.1290
   25.455    5.3397
   25.470    5.0342
   25.485    5.3186
   25.500    5.2659
   25.515    5.3712
   25.530    5.1395
   25.545    5.2133
   25.560    5.4344
   25.575    5.3291
   25.590    5.1817
   25.605    5.2238
   25.620    4.9500
   25.635    5.4344
   25.650    5.3607
   25.665    5.2554
   25.680    4.9816
   25.695    4.6340
   25.710    4.7815
   25.725    5.2765
   25.740    4.9816
   25.755    5.1922
   25.770    5.2765
   25.785    5.0869
   25.800    5.2343
   25.815    5.4134
   25.830    5.3186
   25.845    5.2238
   25.860    4.7815
   25.875    5.0974
   25.890    4.8973
   25.905    4.7815
   25.920    4.9921
   25.935    5.0764
   25.950    5.2554
   25.965    4.9500
   25.980    5.1711
   25.995    5.2659
   26.010    5.1606
   26.025    4.9605
   26.040    5.1185
   26.055    5.1817
   26.070    4.8973
   26.085    5.0764
   26.100    5.0026
   26.115    5.2027
   26.130    5.7504
   26.145    5.3291
   26.160    4.9078
   26.175    5.0026
   26.190    5.3607
   26.205    5.3186
   26.220    5.2765
   26.235    5.0764
   26.250    5.0448
   26.265    4.8131
   26.280    4.8973
   26.295    5.2343
   26.310    5.3291
   26.325    5.0974
   26.340    5.0132
   26.355    5.1817
   26.370    5.4555
   26.385    5.1501
   26.400    4.9289
   26.415    5.0132
   26.430    4.7077
   26.445    5.0132
   26.460    5.0237
   26.475    4.7499
   26.490    4.6024
   26.505    5.0448
   26.520    4.8868
   26.535    4.7920
   26.550    5.0026
   26.565    4.8025
   26.580    4.8763
   26.595    5.1395
   26.610    4.9605
   26.625    4.5603
   26.640    5.1080
   26.655    4.6867
   26.670    5.1501
   26.685    4.9921
   26.700    5.1290
   26.715    5.4555
   26.730    4.9816
   26.745    4.5919
   26.760    5.0658
   26.775    4.9394
   26.790    4.6024
   26.805    5.1395
   26.820    5.1711
   26.835    5.0869
   26.850    4.9289
   26.865    5.2238
   26.880    4.8973
   26.895    4.8236
   26.910    5.0764
   26.925    4.9816
   26.940    4.9710
   26.955    4.8657
   26.970    4.7077
   26.985    4.8868
   27.000    4.9394
   27.015    4.8657
   27.030    4.5708
   27.045    4.9816
   27.060    5.1080
   27.075    5.3607
   27.090    5.0974
   27.105    4.9605
   27.120    4.9816
   27.135    5.4660
   27.150    4.9394
   27.165    4.9394
   27.180    5.0342
   27.195    5.1185
   27.210    4.8973
   27.225    4.9289
   27.240    4.8131
   27.255    5.0237
   27.270    4.8973
   27.285    4.5814
   27.300    4.6024
   27.315    4.6867
   27.330    4.6235
   27.345    4.7709
   27.360    5.1185
   27.375    4.9710
   27.390    4.6445
   27.405    4.7815
   27.420    4.7288
   27.435    4.9605
   27.450    4.7077
   27.465    4.6551
   27.480    4.8868
   27.495    4.9605
   27.510    5.2133
   27.525    5.0764
   27.540    4.5287
   27.555    4.7393
   27.570    4.7604
   27.585    4.8763
   27.600    4.8973
   27.615    4.8552
   27.630    4.9605
   27.645    4.7288
   27.660    4.9184
   27.675    4.5708
   27.690    4.6972
   27.705    4.4339
   27.720    4.3918
   27.735    4.6551
   27.750    4.7815
   27.765    4.8236
   27.780    4.6024
   27.795    4.9500
   27.810    4.7393
   27.825    4.6235
   27.840    4.7604
   27.855    4.9816
   27.870    4.9078
   27.885    4.8131
   27.900    4.6656
   27.915    5.1606
   27.930    5.2027
   27.945    5.0132
   27.960    5.0764
   27.975    4.7393
   27.990    4.9394
   28.005    4.9078
   28.020    4.9710
   28.035    4.7709
   28.050    5.1501
   28.065    5.0237
   28.080    5.2870
   28.095    4.8763
   28.110    4.6340
   28.125    4.6024
   28.140    4.5603
   28.155    4.7183
   28.170    4.5287
   28.185    4.7077
   28.200    4.9921
   28.215    4.9394
   28.230    4.8025
   28.245    4.8341
   28.260    4.7393
   28.275    4.7604
   28.290    4.6761
   28.305    4.5708
   28.320    4.8025
   28.335    4.8447
   28.350    4.8868
   28.365    4.6340
   28.380    4.7709
   28.395    4.6551
   28.410    4.6551
   28.425    4.5919
   28.440    4.5708
   28.455    4.8657
   28.470    4.5814
   28.485    4.6972
   28.500    4.4655
   28.515    4.6867
   28.530    4.4971
   28.545    4.4866
   28.560    4.8973
   28.575    5.0237
   28.590    4.6024
   28.605    4.6235
   28.620    4.6340
   28.635    4.9500
   28.650    4.5182
   28.665    4.8657
   28.680    5.0132
   28.695    4.7604
   28.710    4.6445
   28.725    4.4760
   28.740    4.7920
   28.755    4.7393
   28.770    4.8236
   28.785    4.8025
   28.800    4.7920
   28.815    4.6972
   28.830    4.7393
   28.845    4.8657
   28.860    4.7709
   28.875    4.7499
   28.890    4.6972
   28.905    4.7183
   28.920    4.7920
   28.935    4.4971
   28.950    4.5392
   28.965    5.0342
   28.980    4.7183
   28.995    4.7604
   29.010    4.7604
   29.025    4.6867
   29.040    4.4234
   29.055    4.9184
   29.070    4.9394
   29.085    4.1074
   29.100    4.6867
   29.115    4.7709
   29.130    4.6130
   29.145    4.4339
   29.160    4.4760
   29.175    4.6445
   29.190    4.6761
   29.205    4.6340
   29.220    4.2338
   29.235    4.7288
   29.250    4.5392
   29.265    4.6340
   29.280    4.8763
   29.295    4.8868
   29.310    4.7183
   29.325    4.7709
   29.340    4.8025
   29.355    4.3707
   29.370    4.1917
   29.385    4.1285
   29.400    4.6340
   29.415    4.7709
   29.430    4.6024
   29.445    4.8131
   29.460    4.3918
   29.475    4.4339
   29.490    4.6761
   29.505    4.5708
   29.520    4.5708
   29.535    4.9605
   29.550    4.8236
   29.565    4.7288
   29.580    4.4655
   29.595    4.7288
   29.610    4.8973
   29.625    4.8973
   29.640    4.2759
   29.655    4.8236
   29.670    4.2338
   29.685    4.4128
   29.700    4.6024
   29.715    4.6972
   29.730    4.6024
   29.745    4.4023
   29.760    4.6761
   29.775    4.6445
   29.790    4.3075
   29.805    4.3813
   29.820    4.5603
   29.835    4.5182
   29.850    4.5603
   29.865    4.4550
   29.880    4.4760
   29.895    4.5182
   29.910    4.4655
   29.925    4.6130
   29.940    4.3497
   29.955    4.5076
   29.970    4.5919
   29.985    4.7920
   30.000    4.3918
   30.015    4.3391
   30.030    4.4550
   30.045    4.5498
   30.060    4.6972
   30.075    4.6656
   30.090    4.4339
   30.105    4.4023
   30.120    4.5498
   30.135    4.3707
   30.150    4.3918
   30.165    4.8447
   30.180    4.3918
   30.195    4.1496
   30.210    4.7920
   30.225    4.5708
   30.240    4.4444
   30.255    4.6340
   30.270    4.6867
   30.285    4.4128
   30.300    4.6867
   30.315    4.6867
   30.330    4.3707
   30.345    4.6656
   30.360    4.4550
   30.375    4.2865
   30.390    4.2443
   30.405    4.2759
   30.420    4.5182
   30.435    4.5498
   30.450    4.6130
   30.465    4.3391
   30.480    4.4550
   30.495    4.5603
   30.510    4.3497
   30.525    4.5076
   30.540    4.4128
   30.555    4.4234
   30.570    4.1390
   30.585    4.4444
   30.600    4.5498
   30.615    4.3181
   30.630    4.1601
   30.645    4.3391
   30.660    4.4550
   30.675    4.0864
   30.690    4.4550
   30.705    4.4866
   30.720    4.3391
   30.735    4.4444
   30.750    4.2865
   30.765    4.5287
   30.780    4.3391
   30.795    4.2865
   30.810    4.3497
   30.825    4.6024
   30.840    4.7709
   30.855    4.5182
   30.870    4.6972
   30.885    4.4760
   30.900    4.6761
   30.915    4.3602
   30.930    4.2127
   30.945    4.6340
   30.960    4.5287
   30.975    4.3181
   30.990    4.4339
   31.005    4.4444
   31.020    4.2127
   31.035    4.3497
   31.050    4.8236
   31.065    4.5076
   31.080    4.3391
   31.095    4.4444
   31.110    4.3497
   31.125    4.5603
   31.140    4.4971
   31.155    4.1811
   31.170    4.2127
   31.185    4.2759
   31.200    4.5076
   31.215    4.3813
   31.230    4.2233
   31.245    4.3286
   31.260    4.4655
   31.275    4.2338
   31.290    4.2865
   31.305    4.1601
   31.320    4.6130
   31.335    4.3286
   31.350    4.5919
   31.365    4.6130
   31.380    4.4444
   31.395    4.5708
   31.410    4.3918
   31.425    4.1811
   31.440    4.3075
   31.455    4.5076
   31.470    4.4550
   31.485    4.4760
   31.500    4.2443
   31.515    4.5814
   31.530    4.6445
   31.545    4.2654
   31.560    4.0864
   31.575    4.3075
   31.590    4.1074
   31.605    3.9810
   31.620    4.3813
   31.635    4.3918
   31.650    4.4655
   31.665    4.3813
   31.680    4.4971
   31.695    4.7920
   31.710    4.2338
   31.725    4.5814
   31.740    4.5919
   31.755    4.5076
   31.770    4.4550
   31.785    4.5287
   31.800    4.5076
   31.815    4.2338
   31.830    4.5498
   31.845    4.4760
   31.860    4.5287
   31.875    4.6130
   31.890    4.5392
   31.905    4.5919
   31.920    4.6551
   31.935    4.2970
   31.950    4.2233
   31.965    4.7077
   31.980    4.3075
   31.995    4.5287
   32.010    4.3286
   32.025    4.3181
   32.040    4.1706
   32.055    4.6551
   32.070    4.7499
   32.085    4.7499
   32.100    4.8868
   32.115    4.6972
   32.130    5.0237
   32.145    4.7393
   32.160    4.3075
   32.175    4.4760
   32.190    4.2127
   32.205    4.2970
   32.220    4.0864
   32.235    4.4655
   32.250    4.3497
   32.265    3.9916
   32.280    4.3075
   32.295    4.3286
   32.310    4.2970
   32.325    4.2865
   32.340    4.4866
   32.355    4.4866
   32.370    4.3918
   32.385    4.2233
   32.400    4.1180
   32.415    3.9916
   32.430    4.3286
   32.445    4.2549
   32.460    4.3707
   32.475    4.2654
   32.490    4.2865
   32.505    4.1180
   32.520    4.3707
   32.535    4.4234
   32.550    4.2443
   32.565    4.2549
   32.580    4.0653
   32.595    4.1074
   32.610    3.9916
   32.625    3.9284
   32.640    4.3391
   32.655    4.2127
   32.670    4.3391
   32.685    4.4550
   32.700    4.3497
   32.715    4.3075
   32.730    4.1811
   32.745    4.1706
   32.760    4.2759
   32.775    3.8757
   32.790    4.2970
   32.805    4.2127
   32.820    3.7599
   32.835    4.0337
   32.850    4.0548
   32.865    4.2865
   32.880    4.1285
   32.895    4.0126
   32.910    4.3181
   32.925    4.3286
   32.940    4.3391
   32.955    4.2338
   32.970    4.1496
   32.985    4.1285
   33.000    3.8231
   33.015    4.0337
   33.030    4.3075
   33.045    4.2127
   33.060    4.4234
   33.075    4.2022
   33.090    4.1811
   33.105    4.0548
   33.120    4.3497
   33.135    4.2865
   33.150    4.2338
   33.165    4.2127
   33.180    4.2865
   33.195    3.7915
   33.210    4.1074
   33.225    4.2970
   33.240    4.2759
   33.255    4.2338
   33.270    4.0021
   33.285    4.2127
   33.300    4.2127
   33.315    4.1601
   33.330    4.2233
   33.345    4.3181
   33.360    3.9705
   33.375    4.1601
   33.390    4.6024
   33.405    4.4866
   33.420    4.1811
   33.435    4.1074
   33.450    4.2443
   33.465    3.9600
   33.480    3.9494
   33.495    4.4339
   33.510    4.3602
   33.525    4.1706
   33.540    4.1496
   33.555    4.3497
   33.570    4.1285
   33.585    3.9916
   33.600    4.2759
   33.615    4.4971
   33.630    4.1180
   33.645    4.0021
   33.660    3.8863
   33.675    3.9705
   33.690    4.1496
   33.705    4.3918
   33.720    4.0758
   33.735    4.1706
   33.750    3.8231
   33.765    4.1180
   33.780    4.2865
   33.795    4.0126
   33.810    4.2443
   33.825    4.3181
   33.840    4.1074
   33.855    4.3602
   33.870    4.4971
   33.885    4.2549
   33.900    4.2970
   33.915    4.2233
   33.930    4.0758
   33.945    4.4760
   33.960    4.2654
   33.975    4.0758
   33.990    3.8547
   34.005    3.9600
   34.020    4.0758
   34.035    3.9600
   34.050    4.1180
   34.065    4.1706
   34.080    3.9179
   34.095    3.7493
   34.110    3.9494
   34.125    4.1180
   34.140    4.3075
   34.155    3.9389
   34.170    4.0864
   34.185    4.2970
   34.200    3.8652
   34.215    3.8863
   34.230    3.8231
   34.245    3.7704
   34.260    4.1285
   34.275    3.8968
   34.290    3.8020
   34.305    3.7493
   34.320    3.8441
   34.335    3.8020
   34.350    3.7072
   34.365    4.1917
   34.380    3.9284
   34.395    4.1601
   34.410    3.8863
   34.425    3.8441
   34.440    4.0864
   34.455    3.8968
   34.470    4.1496
   34.485    4.1390
   34.500    4.0969
   34.515    4.0337
   34.530    3.8441
   34.545    4.1074
   34.560    3.8757
   34.575    3.7704
   34.590    3.6756
   34.605    4.1074
   34.620    3.9284
   34.635    3.7809
   34.650    3.8020
   34.665    3.9810
   34.680    4.1180
   34.695    3.9494
   34.710    4.1917
   34.725    3.9494
   34.740    3.8336
   34.755    3.8757
   34.770    3.8336
   34.785    3.4439
   34.800    3.8336
   34.815    3.9916
   34.830    4.0758
   34.845    3.9494
   34.860    3.9073
   34.875    3.7915
   34.890    3.6230
   34.905    3.7599
   34.920    3.9810
   34.935    3.8863
   34.950    4.1180
   34.965    3.9179
   34.980    3.4860
   34.995    3.8020
   35.010    3.9810
   35.025    4.0126
   35.040    3.9179
   35.055    3.7493
   35.070    3.7809
   35.085    3.8125
   35.100    3.7704
   35.115    4.0758
   35.130    4.0232
   35.145    3.8863
   35.160    3.9284
   35.175    3.7283
   35.190    4.0021
   35.205    4.0442
   35.220    3.8652
   35.235    3.8968
   35.250    3.9810
   35.265    4.0864
   35.280    3.7704
   35.295    3.9494
   35.310    4.0548
   35.325    3.9389
   35.340    3.8231
   35.355    3.8863
   35.370    3.7177
   35.385    3.6124
   35.400    3.6230
   35.415    3.6124
   35.430    3.7704
   35.445    3.4966
   35.460    3.7388
   35.475    3.8336
   35.490    3.5914
   35.505    3.8968
   35.520    3.6440
   35.535    3.8863
   35.550    3.9705
   35.565    3.8652
   35.580    4.0653
   35.595    3.8231
   35.610    4.0969
   35.625    4.0548
   35.640    4.1180
   35.655    3.8441
   35.670    3.8020
   35.685    3.9494
   35.700    3.7809
   35.715    3.7072
   35.730    3.6230
   35.745    3.6335
   35.760    3.8125
   35.775    3.6546
   35.790    3.7493
   35.805    3.6019
   35.820    3.6230
   35.835    3.6862
   35.850    3.8863
   35.865    3.8547
   35.880    3.7493
   35.895    3.7493
   35.910    3.9916
   35.925    3.7599
   35.940    3.5176
   35.955    3.6440
   35.970    3.4755
   35.985    3.7493
   36.000    3.8863
   36.015    3.9600
   36.030    3.8547
   36.045    3.8125
   36.060    3.7283
   36.075    3.7283
   36.090    3.6546
   36.105    3.7388
   36.120    3.9916
   36.135    3.5808
   36.150    3.7388
   36.165    3.9284
   36.180    4.0864
   36.195    3.6440
   36.210    3.7283
   36.225    3.9494
   36.240    3.7388
   36.255    3.5492
   36.270    3.5808
   36.285    3.6967
   36.300    3.5282
   36.315    3.5914
   36.330    3.8968
   36.345    3.4439
   36.360    3.7493
   36.375    3.6967
   36.390    3.6756
   36.405    3.8652
   36.420    3.8231
   36.435    3.5703
   36.450    3.6862
   36.465    3.8547
   36.480    3.8020
   36.495    3.7915
   36.510    3.8547
   36.525    3.6756
   36.540    3.3913
   36.555    3.6335
   36.570    3.8231
   36.585    3.6862
   36.600    3.4755
   36.615    3.4755
   36.630    3.7704
   36.645    3.7072
   36.660    3.3913
   36.675    3.6756
   36.690    3.2438
   36.705    3.8231
   36.720    3.5492
   36.735    3.4439
   36.750    3.5914
   36.765    3.6335
   36.780    3.6546
   36.795    3.7388
   36.810    3.6440
   36.825    3.3913
   36.840    3.6967
   36.855    3.7493
   36.870    3.6756
   36.885    3.7072
   36.900    3.4439
   36.915    3.6862
   36.930    3.5176
   36.945    3.8020
   36.960    3.4544
   36.975    3.5071
   36.990    3.5703
   37.005    3.2122
   37.020    3.6124
   37.035    3.6546
   37.050    3.4439
   37.065    3.7704
   37.080    3.6230
   37.095    3.6335
   37.110    3.6651
   37.125    3.5176
   37.140    3.5808
   37.155    3.4229
   37.170    3.8863
   37.185    3.6440
   37.200    3.5914
   37.215    3.7599
   37.230    3.6335
   37.245    3.8125
   37.260    3.8020
   37.275    3.6756
   37.290    3.4018
   37.305    3.3386
   37.320    3.5387
   37.335    3.7493
   37.350    3.8863
   37.365    3.4018
   37.380    3.5387
   37.395    3.5808
   37.410    3.6651
   37.425    3.3913
   37.440    3.5808
   37.455    3.5492
   37.470    3.7388
   37.485    3.7493
   37.500    3.7388
   37.515    3.6440
   37.530    3.3702
   37.545    3.4123
   37.560    3.5176
   37.575    3.4650
   37.590    3.5387
   37.605    3.6019
   37.620    3.5282
   37.635    3.8020
   37.650    3.6335
   37.665    3.4755
   37.680    3.6124
   37.695    3.7599
   37.710    3.5282
   37.725    3.3807
   37.740    3.4439
   37.755    3.4860
   37.770    3.5703
   37.785    3.5071
   37.800    3.8547
   37.815    3.6124
   37.830    3.5598
   37.845    3.6230
   37.860    3.9073
   37.875    4.1285
   37.890    3.5387
   37.905    3.5282
   37.920    3.7599
   37.935    3.8231
   37.950    3.6335
   37.965    3.5598
   37.980    3.7072
   37.995    3.8863
   38.010    3.5703
   38.025    3.6019
   38.040    3.7915
   38.055    3.8231
   38.070    3.9284
   38.085    3.4755
   38.100    3.4334
   38.115    3.7915
   38.130    3.7072
   38.145    3.6230
   38.160    3.4966
   38.175    3.6967
   38.190    3.7072
   38.205    3.7283
   38.220    3.5598
   38.235    3.4229
   38.250    3.5282
   38.265    3.3070
   38.280    3.7704
   38.295    4.1390
   38.310    3.5808
   38.325    3.4229
   38.340    3.5387
   38.355    3.6230
   38.370    3.5598
   38.385    3.4439
   38.400    3.3597
   38.415    3.2965
   38.430    3.3386
   38.445    3.5808
   38.460    3.6124
   38.475    3.7599
   38.490    3.5598
   38.505    3.6756
   38.520    3.6335
   38.535    3.6335
   38.550    3.7177
   38.565    3.6651
   38.580    3.6124
   38.595    3.5914
   38.610    3.6651
   38.625    3.6546
   38.640    3.4334
   38.655    3.4755
   38.670    3.3491
   38.685    3.6440
   38.700    3.8652
   38.715    3.5282
   38.730    3.7388
   38.745    3.5703
   38.760    3.4229
   38.775    3.6546
   38.790    3.6756
   38.805    3.7599
   38.820    3.5282
   38.835    3.4755
   38.850    3.6546
   38.865    3.3807
   38.880    3.4650
   38.895    3.8020
   38.910    3.7915
   38.925    3.8757
   38.940    3.8336
   38.955    3.4229
   38.970    3.5071
   38.985    3.4229
   39.000    3.4334
   39.015    3.9073
   39.030    3.7809
   39.045    3.5387
   39.060    3.3913
   39.075    3.4018
   39.090    3.4229
   39.105    3.6756
   39.120    3.6230
   39.135    3.5176
   39.150    3.5598
   39.165    3.5492
   39.180    3.5071
   39.195    3.5387
   39.210    3.7177
   39.225    3.4544
   39.240    3.4860
   39.255    3.6440
   39.270    3.5808
   39.285    3.3913
   39.300    3.4334
   39.315    3.3386
   39.330    3.6230
   39.345    3.8757
   39.360    3.5598
   39.375    3.7283
   39.390    3.5387
   39.405    3.5808
   39.420    3.3491
   39.435    3.5387
   39.450    3.5492
   39.465    3.5387
   39.480    3.7599
   39.495    3.2859
   39.510    3.5808
   39.525    3.5914
   39.540    3.4755
   39.555    3.4650
   39.570    3.5387
   39.585    3.4650
   39.600    3.6230
   39.615    3.5282
   39.630    3.7704
   39.645    3.2859
   39.660    3.5808
   39.675    3.3702
   39.690    3.4966
   39.705    3.3281
   39.720    3.4544
   39.735    3.3702
   39.750    3.5914
   39.765    3.7809
   39.780    3.3597
   39.795    3.3386
   39.810    3.3807
   39.825    3.5492
   39.840    3.5282
   39.855    3.6019
   39.870    3.7177
   39.885    3.8757
   39.900    3.6546
   39.915    3.5703
   39.930    3.2754
   39.945    3.6124
   39.960    3.5598
   39.975    3.6019
   39.990    3.4229
