    1.500   22.4434
    1.515   22.0853
    1.530   22.8015
    1.545   22.4855
    1.560   22.2328
    1.575   22.1485
    1.590   22.1801
    1.605   22.0326
    1.620   21.6535
    1.635   21.9695
    1.650   20.5371
    1.665   20.7583
    1.680   20.4213
    1.695   20.4213
    1.710   20.6424
    1.725   20.9163
    1.740   19.6735
    1.755   19.1364
    1.770   19.8842
    1.785   19.5261
    1.800   18.9784
    1.815   18.6414
    1.830   18.5150
    1.845   18.7678
    1.860   18.8836
    1.875   18.7572
    1.890   18.0411
    1.905   17.7988
    1.920   17.8199
    1.935   18.0727
    1.950   17.4829
    1.965   18.1253
    1.980   17.5355
    1.995   17.8936
    2.010   18.1359
    2.025   18.1569
    2.040   18.0832
    2.055   17.3038
    2.070   16.8194
    2.085   16.6719
    2.100   17.2828
    2.115   17.1037
    2.130   17.2301
    2.145   17.2828
    2.160   17.2091
    2.175   16.9458
    2.190   17.0932
    2.205   16.9458
    2.220   17.4302
    2.235   17.4724
    2.250   17.5461
    2.265   17.7462
    2.280   17.4197
    2.295   17.3881
    2.310   17.3670
    2.325   18.3676
    2.340   17.3354
    2.355   17.0616
    2.370   17.8199
    2.385   17.7462
    2.400   17.6935
    2.415   17.9252
    2.430   17.7988
    2.445   17.5671
    2.460   18.2728
    2.475   18.5887
    2.490   18.3465
    2.505   18.3781
    2.520   18.5255
    2.535   19.0100
    2.550   18.7572
    2.565   19.7156
    2.580   19.4734
    2.595   19.6419
    2.610   19.6525
    2.625   19.2417
    2.640   19.3576
    2.655   19.9789
    2.670   20.0948
    2.685   19.7999
    2.700   21.2112
    2.715   21.2954
    2.730   21.6008
    2.745   22.0642
    2.760   22.6435
    2.775   23.5914
    2.790   22.9700
    2.805   23.4439
    2.820   23.7599
    2.835   24.5603
    2.850   24.6656
    2.865   25.5187
    2.880   25.5398
    2.895   26.2665
    2.910   26.8036
    2.925   27.3407
    2.940   27.2143
    2.955   28.0990
    2.970   29.3839
    2.985   30.0369
    3.000   30.9110
    3.015   31.6904
    3.030   32.1327
    3.045   32.2907
    3.060   33.9231
    3.075   34.2180
    3.090   35.5977
    3.105   36.5350
    3.120   37.1985
    3.135   37.7883
    3.150   40.2212
    3.165   41.5587
    3.180   43.3281
    3.195   43.6124
    3.210   46.0874
    3.225   47.2459
    3.240   49.9737
    3.255   51.9958
    3.270   53.2175
    3.285   56.2401
    3.300   59.3260
    3.315   61.9484
    3.330   63.4545
    3.345   67.1301
    3.360   72.6277
    3.375   77.5882
    3.390   79.8631
    3.405   84.8657
    3.420   89.4471
    3.435   94.8499
    3.450   95.5766
    3.465   96.0822
    3.480   94.4603
    3.495   88.8994
    3.510   80.4529
    3.525   72.4592
    3.540   61.2217
    3.555   54.8921
    3.570   48.6993
    3.585   44.5708
    3.600   41.2954
    3.615   38.0727
    3.630   37.7041
    3.645   37.5145
    3.660   36.7562
    3.675   35.6714
    3.690   35.9031
    3.705   35.8504
    3.720   36.1769
    3.735   37.3354
    3.750   36.1137
    3.765   36.6719
    3.780   38.0305
    3.795   39.9263
    3.810   41.2849
    3.825   43.2017
    3.840   44.6867
    3.855   45.7293
    3.870   45.8978
    3.885   46.6456
    3.900   45.3081
    3.915   44.3181
    3.930   43.8547
    3.945   42.0116
    3.960   41.4850
    3.975   40.3686
    3.990   40.8004
    4.005   40.7688
    4.020   39.7999
    4.035   38.3044
    4.050   38.4202
    4.065   36.3349
    4.080   35.6187
    4.095   34.0074
    4.110   32.7120
    4.125   31.8589
    4.140   29.3944
    4.155   29.1311
    4.170   28.2675
    4.185   26.0769
    4.200   24.8236
    4.215   23.9916
    4.230   23.0016
    4.245   21.4639
    4.260   21.1480
    4.275   19.4839
    4.290   19.5366
    4.305   18.1148
    4.320   17.4829
    4.335   16.5877
    4.350   15.9452
    4.365   15.1764
    4.380   14.7973
    4.395   13.9758
    4.410   13.5018
    4.425   12.7857
    4.440   12.3539
    4.455   11.8167
    4.470   11.4903
    4.485   11.3744
    4.500   11.3112
    4.515   10.6477
    4.530   10.3423
    4.545   10.6372
    4.560   10.2264
    4.575    9.6788
    4.590    9.9315
    4.605    9.3523
    4.620    9.2786
    4.635    9.4787
    4.650    9.6577
    4.665    9.5945
    4.680    9.2680
    4.695    9.2470
    4.710    8.4887
    4.725    9.1206
    4.740    9.1311
    4.755    8.6993
    4.770    8.5940
    4.785    8.8889
    4.800    8.6888
    4.815    8.5413
    4.830    8.2570
    4.845    8.6151
    4.860    8.5519
    4.875    8.4255
    4.890    7.7830
    4.905    8.0147
    4.920    8.1411
    4.935    8.1201
    4.950    8.2886
    4.965    8.3307
    4.980    7.6040
    4.995    7.8462
    5.010    7.9937
    5.025    7.7725
    5.040    8.3307
    5.055    8.0358
    5.070    7.9410
    5.085    8.1306
    5.100    7.8568
    5.115    7.7936
    5.130    7.6356
    5.145    7.9621
    5.160    7.7936
    5.175    8.1517
    5.190    8.0042
    5.205    8.0253
    5.220    8.0569
    5.235    7.9305
    5.250    8.1411
    5.265    8.0463
    5.280    7.7936
    5.295    7.7409
    5.310    8.0463
    5.325    8.1201
    5.340    7.8568
    5.355    8.1517
    5.370    8.4044
    5.385    8.4150
    5.400    8.5729
    5.415    8.7414
    5.430    8.4255
    5.445    9.1417
    5.460    9.2154
    5.475    9.3628
    5.490    9.4787
    5.505    9.5313
    5.520    9.2575
    5.535    8.6783
    5.550    7.9726
    5.565    7.5408
    5.580    7.1511
    5.595    7.2459
    5.610    6.8878
    5.625    6.7088
    5.640    6.8352
    5.655    7.2249
    5.670    7.0142
    5.685    7.1090
    5.700    7.1511
    5.715    6.8668
    5.730    6.7088
    5.745    6.8773
    5.760    6.6772
    5.775    6.8562
    5.790    6.7930
    5.805    6.7825
    5.820    7.0774
    5.835    6.9510
    5.850    7.0985
    5.865    6.8246
    5.880    6.9826
    5.895    7.5619
    5.910    7.2880
    5.925    6.9616
    5.940    6.9721
    5.955    7.2038
    5.970    6.8141
    5.985    6.5719
    6.000    6.9300
    6.015    6.8984
    6.030    6.8668
    6.045    7.0142
    6.060    7.3828
    6.075    6.6351
    6.090    7.3618
    6.105    6.8246
    6.120    6.8036
    6.135    6.8984
    6.150    6.9721
    6.165    7.5197
    6.180    7.1722
    6.195    7.4355
    6.210    7.3723
    6.225    7.4144
    6.240    7.3618
    6.255    7.0142
    6.270    7.0248
    6.285    6.8562
    6.300    7.0985
    6.315    7.0353
    6.330    6.7088
    6.345    7.3196
    6.360    7.4250
    6.375    6.9405
    6.390    7.2038
    6.405    7.4355
    6.420    7.4566
    6.435    7.4039
    6.450    7.7304
    6.465    7.6356
    6.480    7.5619
    6.495    8.1095
    6.510    7.7199
    6.525    7.9305
    6.540    8.0885
    6.555    8.1306
    6.570    8.2254
    6.585    8.0147
    6.600    8.4150
    6.615    7.9726
    6.630    8.1833
    6.645    8.7625
    6.660    9.0469
    6.675    9.3523
    6.690    9.3207
    6.705    9.6577
    6.720    9.6261
    6.735   10.0263
    6.750   10.2159
    6.765   10.0158
    6.780   10.5108
    6.795   10.7214
    6.810   10.8583
    6.825   11.5850
    6.840   11.2059
    6.855   11.7536
    6.870   12.1748
    6.885   12.7541
    6.900   13.2175
    6.915   13.1754
    6.930   14.2601
    6.945   14.5445
    6.960   14.6288
    6.975   14.5340
    6.990   14.7973
    7.005   13.4597
    7.020   12.4381
    7.035   12.3433
    7.050   11.6061
    7.065   10.3528
    7.080    9.7946
    7.095    9.0574
    7.110    8.8994
    7.125    8.9837
    7.140    8.9310
    7.155    8.2254
    7.170    7.9305
    7.185    8.0779
    7.200    7.9726
    7.215    7.9516
    7.230    7.9621
    7.245    7.7830
    7.260    8.0042
    7.275    7.6567
    7.290    7.8252
    7.305    8.0042
    7.320    7.7514
    7.335    7.6145
    7.350    7.6672
    7.365    7.6883
    7.380    7.5408
    7.395    7.7830
    7.410    7.8673
    7.425    7.6461
    7.440    7.4776
    7.455    7.4355
    7.470    7.4987
    7.485    7.4882
    7.500    7.6988
    7.515    7.8252
    7.530    7.5513
    7.545    7.9410
    7.560    8.2675
    7.575    8.3939
    7.590    7.9831
    7.605    8.1306
    7.620    8.1411
    7.635    7.9621
    7.650    8.4466
    7.665    8.6888
    7.680    8.7098
    7.695    8.6151
    7.710    8.5729
    7.725    8.9626
    7.740    8.8152
    7.755    8.4466
    7.770    8.8994
    7.785    9.1522
    7.800    9.2680
    7.815    9.2048
    7.830    8.9837
    7.845    9.0890
    7.860    9.3102
    7.875    8.9626
    7.890    9.2470
    7.905    9.6261
    7.920    9.3102
    7.935    9.8052
    7.950    9.8262
    7.965    9.2575
    7.980    9.5945
    7.995    9.3839
    8.010    9.1627
    8.025    8.8468
    8.040    9.4471
    8.055    9.5629
    8.070    9.3207
    8.085    9.3734
    8.100    9.5629
    8.115    9.2786
    8.130    9.4260
    8.145    8.8468
    8.160    9.1417
    8.175    9.0995
    8.190    9.0995
    8.205    8.8994
    8.220    9.3839
    8.235    9.3734
    8.250    8.9731
    8.265    8.8362
    8.280    8.7730
    8.295    8.9415
    8.310    8.7309
    8.325    8.8573
    8.340    8.6888
    8.355    8.6783
    8.370    8.7309
    8.385    8.4992
    8.400    8.7204
    8.415    8.1411
    8.430    8.0253
    8.445    8.2464
    8.460    8.1411
    8.475    8.1411
    8.490    8.2464
    8.505    8.4044
    8.520    7.8884
    8.535    7.7093
    8.550    7.6356
    8.565    7.7936
    8.580    7.5935
    8.595    7.6777
    8.610    7.7725
    8.625    8.0358
    8.640    7.7304
    8.655    7.6040
    8.670    7.3302
    8.685    7.1827
    8.700    7.8462
    8.715    7.8568
    8.730    7.4671
    8.745    6.9510
    8.760    7.6672
    8.775    7.2880
    8.790    7.3407
    8.805    7.4566
    8.820    7.3618
    8.835    6.9826
    8.850    6.8878
    8.865    7.0037
    8.880    6.7615
    8.895    6.5403
    8.910    7.0669
    8.925    7.6356
    8.940    7.3723
    8.955    7.1511
    8.970    6.7509
    8.985    7.1827
    9.000    6.9826
    9.015    7.1301
    9.030    6.6667
    9.045    6.4244
    9.060    6.5824
    9.075    6.7193
    9.090    6.6245
    9.105    6.6035
    9.120    6.8668
    9.135    6.7720
    9.150    6.8457
    9.165    7.0248
    9.180    6.6983
    9.195    6.6456
    9.210    6.7299
    9.225    6.5403
    9.240    6.5508
    9.255    6.7404
    9.270    6.7930
    9.285    6.8246
    9.300    6.7930
    9.315    6.6772
    9.330    6.4139
    9.345    6.8036
    9.360    6.8141
    9.375    7.2670
    9.390    6.9510
    9.405    6.9405
    9.420    6.9616
    9.435    7.1722
    9.450    7.0563
    9.465    7.0879
    9.480    6.8984
    9.495    7.0563
    9.510    7.0774
    9.525    7.5513
    9.540    7.7725
    9.555    7.5092
    9.570    7.4987
    9.585    7.4460
    9.600    6.9616
    9.615    7.1406
    9.630    6.6983
    9.645    6.6140
    9.660    6.8668
    9.675    6.7193
    9.690    6.4771
    9.705    6.5508
    9.720    6.5192
    9.735    6.7825
    9.750    6.6140
    9.765    6.3402
    9.780    6.3612
    9.795    7.0563
    9.810    6.7720
    9.825    6.7088
    9.840    6.8773
    9.855    7.0879
    9.870    7.0879
    9.885    6.3507
    9.900    6.2981
    9.915    6.9616
    9.930    7.2354
    9.945    6.7930
    9.960    6.7404
    9.975    6.6140
    9.990    6.7404
   10.005    6.6561
   10.020    6.7088
   10.035    6.4350
   10.050    6.6983
   10.065    6.8036
   10.080    6.3928
   10.095    6.5403
   10.110    6.4139
   10.125    6.7404
   10.140    6.4244
   10.155    6.7404
   10.170    6.7615
   10.185    7.0037
   10.200    6.9089
   10.215    6.7615
   10.230    7.3302
   10.245    6.7720
   10.260    6.7088
   10.275    6.7615
   10.290    6.9089
   10.305    6.9932
   10.320    7.3723
   10.335    7.3091
   10.350    6.8984
   10.365    7.2775
   10.380    6.7720
   10.395    6.8562
   10.410    6.9300
   10.425    6.6667
   10.440    7.0458
   10.455    6.9616
   10.470    7.1195
   10.485    6.9510
   10.500    7.0879
   10.515    6.9089
   10.530    6.7509
   10.545    7.0774
   10.560    6.7930
   10.575    6.8668
   10.590    6.6983
   10.605    6.8036
   10.620    6.6456
   10.635    7.1511
   10.650    6.5613
   10.665    6.6035
   10.680    6.8457
   10.695    7.0879
   10.710    6.8773
   10.725    6.6456
   10.740    6.8562
   10.755    6.6877
   10.770    6.5719
   10.785    7.0669
   10.800    6.8352
   10.815    6.4666
   10.830    6.8141
   10.845    6.7615
   10.860    6.6983
   10.875    6.7299
   10.890    6.4982
   10.905    6.5824
   10.920    6.4455
   10.935    6.9510
   10.950    6.5719
   10.965    6.4771
   10.980    6.6983
   10.995    6.8773
   11.010    6.9616
   11.025    7.3934
   11.040    6.9616
   11.055    6.5298
   11.070    6.6140
   11.085    6.4034
   11.100    6.7088
   11.115    6.8036
   11.130    6.4034
   11.145    6.4034
   11.160    6.5087
   11.175    6.4876
   11.190    6.5613
   11.205    6.4982
   11.220    6.4455
   11.235    6.5613
   11.250    6.1506
   11.265    6.2770
   11.280    6.5192
   11.295    6.6351
   11.310    6.5298
   11.325    6.6140
   11.340    6.4455
   11.355    6.2454
   11.370    6.2138
   11.385    6.4666
   11.400    6.6351
   11.415    6.7509
   11.430    6.6772
   11.445    6.6877
   11.460    6.0769
   11.475    6.3507
   11.490    6.5403
   11.505    6.5403
   11.520    6.9194
   11.535    6.8246
   11.550    6.5929
   11.565    6.5719
   11.580    6.3086
   11.595    6.7930
   11.610    6.6561
   11.625    6.6561
   11.640    6.7930
   11.655    6.7088
   11.670    6.3612
   11.685    6.6351
   11.700    6.8984
   11.715    7.3196
   11.730    6.9405
   11.745    6.6140
   11.760    6.4771
   11.775    6.7509
   11.790    7.0353
   11.805    6.8352
   11.820    6.7615
   11.835    6.7088
   11.850    6.9300
   11.865    6.6877
   11.880    6.5929
   11.895    6.9510
   11.910    6.9721
   11.925    6.5192
   11.940    6.7193
   11.955    6.5298
   11.970    6.5192
   11.985    7.0142
   12.000    6.7930
   12.015    6.9932
   12.030    7.1933
   12.045    7.1722
   12.060    6.6667
   12.075    6.6140
   12.090    6.5613
   12.105    6.6667
   12.120    6.7825
   12.135    6.9721
   12.150    6.8036
   12.165    6.8878
   12.180    6.7825
   12.195    6.4350
   12.210    6.3507
   12.225    6.8246
   12.240    6.5824
   12.255    6.6983
   12.270    6.6456
   12.285    6.4034
   12.300    6.4982
   12.315    6.9405
   12.330    6.9616
   12.345    6.8036
   12.360    6.6877
   12.375    6.7193
   12.390    7.0458
   12.405    6.9616
   12.420    6.9300
   12.435    6.7404
   12.450    6.6351
   12.465    6.6983
   12.480    6.6561
   12.495    6.9194
   12.510    7.2249
   12.525    6.5613
   12.540    6.7088
   12.555    6.6772
   12.570    6.7193
   12.585    6.8352
   12.600    6.8246
   12.615    6.5087
   12.630    7.0248
   12.645    7.0879
   12.660    6.6877
   12.675    6.5824
   12.690    6.3402
   12.705    6.7930
   12.720    6.9194
   12.735    6.9089
   12.750    6.4982
   12.765    6.8352
   12.780    6.9300
   12.795    6.6667
   12.810    6.6035
   12.825    6.7720
   12.840    6.7299
   12.855    6.7299
   12.870    6.8352
   12.885    6.8036
   12.900    6.7193
   12.915    6.7299
   12.930    7.0037
   12.945    7.1511
   12.960    6.8984
   12.975    6.7720
   12.990    7.1406
   13.005    6.3402
   13.020    6.3296
   13.035    6.8036
   13.050    6.7404
   13.065    6.1927
   13.080    6.5403
   13.095    6.2559
   13.110    6.5298
   13.125    6.6877
   13.140    6.7825
   13.155    6.9194
   13.170    6.4139
   13.185    6.6351
   13.200    6.3718
   13.215    6.4244
   13.230    6.1822
   13.245    6.3191
   13.260    6.5613
   13.275    6.3191
   13.290    6.8352
   13.305    6.4771
   13.320    6.3507
   13.335    6.4139
   13.350    6.6140
   13.365    6.5613
   13.380    6.9089
   13.395    6.4139
   13.410    6.0137
   13.425    6.2770
   13.440    6.4982
   13.455    7.0037
   13.470    6.6983
   13.485    6.4666
   13.500    6.6456
   13.515    6.8773
   13.530    6.4560
   13.545    6.4034
   13.560    6.2770
   13.575    6.6983
   13.590    6.5613
   13.605    6.2033
   13.620    6.3928
   13.635    6.2981
   13.650    6.8773
   13.665    6.6245
   13.680    6.4876
   13.695    6.6561
   13.710    6.1927
   13.725    6.5298
   13.740    6.6877
   13.755    6.5298
   13.770    6.1717
   13.785    6.6983
   13.800    6.8562
   13.815    6.2981
   13.830    6.4244
   13.845    5.9505
   13.860    6.6983
   13.875    6.6877
   13.890    6.6456
   13.905    6.1927
   13.920    6.5613
   13.935    6.8984
   13.950    6.4876
   13.965    6.2033
   13.980    6.1506
   13.995    6.1717
   14.010    6.3612
   14.025    6.2033
   14.040    6.3823
   14.055    6.4034
   14.070    6.5192
   14.085    6.7404
   14.100    6.7088
   14.115    6.4139
   14.130    6.2665
   14.145    6.2981
   14.160    6.2349
   14.175    6.1717
   14.190    6.2033
   14.205    5.9610
   14.220    6.1927
   14.235    6.5508
   14.250    6.8141
   14.265    6.4666
   14.280    6.2349
   14.295    6.3823
   14.310    6.3928
   14.325    6.2875
   14.340    6.5298
   14.355    6.2559
   14.370    6.2454
   14.385    6.6351
   14.400    6.3718
   14.415    6.5087
   14.430    6.2875
   14.445    6.3823
   14.460    6.1822
   14.475    6.0979
   14.490    6.2454
   14.505    6.1295
   14.520    6.2770
   14.535    6.1085
   14.550    6.0664
   14.565    6.5613
   14.580    6.1506
   14.595    6.0242
   14.610    6.3296
   14.625    6.5403
   14.640    6.3191
   14.655    6.5613
   14.670    6.9300
   14.685    6.4876
   14.700    6.3191
   14.715    6.3086
   14.730    5.8662
   14.745    5.9084
   14.760    6.4876
   14.775    6.4771
   14.790    6.4034
   14.805    6.3823
   14.820    6.0348
   14.835    6.4455
   14.850    6.3507
   14.865    6.2033
   14.880    6.4244
   14.895    6.4244
   14.910    6.2665
   14.925    6.1822
   14.940    6.0979
   14.955    6.1611
   14.970    6.1927
   14.985    6.0664
   15.000    6.3507
   15.015    6.2243
   15.030    5.9610
   15.045    6.2349
   15.060    6.3928
   15.075    6.6456
   15.090    6.5508
   15.105    6.3507
   15.120    6.3823
   15.135    6.4876
   15.150    6.0558
   15.165    5.9189
   15.180    6.4982
   15.195    6.3928
   15.210    6.5508
   15.225    6.3296
   15.240    6.5298
   15.255    6.3612
   15.270    6.0769
   15.285    6.4666
   15.300    6.5087
   15.315    6.1190
   15.330    6.6983
   15.345    6.6667
   15.360    6.3718
   15.375    6.3086
   15.390    6.0453
   15.405    6.3191
   15.420    6.3191
   15.435    6.0137
   15.450    6.4666
   15.465    6.2349
   15.480    6.4666
   15.495    6.3402
   15.510    6.4982
   15.525    6.7299
   15.540    6.6035
   15.555    6.2875
   15.570    5.9821
   15.585    6.0664
   15.600    6.3191
   15.615    6.7720
   15.630    6.5192
   15.645    6.4139
   15.660    6.4982
   15.675    6.5298
   15.690    6.6772
   15.705    6.7615
   15.720    6.3823
   15.735    6.5719
   15.750    6.6877
   15.765    6.6351
   15.780    6.9510
   15.795    6.7930
   15.810    6.5192
   15.825    6.0558
   15.840    6.6140
   15.855    6.9300
   15.870    6.6877
   15.885    6.6035
   15.900    6.5192
   15.915    6.4771
   15.930    6.7720
   15.945    7.0037
   15.960    7.3196
   15.975    6.6035
   15.990    6.9089
   16.005    7.1195
   16.020    7.4039
   16.035    7.1090
   16.050    6.9721
   16.065    7.4144
   16.080    7.1617
   16.095    7.4776
   16.110    6.8984
   16.125    7.0669
   16.140    7.0879
   16.155    7.1090
   16.170    7.5513
   16.185    7.5935
   16.200    7.2354
   16.215    6.7299
   16.230    6.8457
   16.245    6.8878
   16.260    7.3407
   16.275    6.9405
   16.290    6.8141
   16.305    7.0774
   16.320    6.9932
   16.335    7.0142
   16.350    7.0142
   16.365    6.6456
   16.380    6.8878
   16.395    6.7088
   16.410    6.4771
   16.425    6.7299
   16.440    7.0037
   16.455    6.7404
   16.470    6.4876
   16.485    6.6877
   16.500    6.7193
   16.515    6.2981
   16.530    6.3507
   16.545    6.3296
   16.560    6.8878
   16.575    7.0353
   16.590    7.0563
   16.605    6.9300
   16.620    6.6035
   16.635    6.2875
   16.650    6.2875
   16.665    6.7088
   16.680    6.3402
   16.695    6.4560
   16.710    6.5403
   16.725    6.5087
   16.740    6.3191
   16.755    6.1611
   16.770    6.1927
   16.785    6.4455
   16.800    6.4139
   16.815    6.6035
   16.830    6.5508
   16.845    6.4034
   16.860    6.2559
   16.875    6.4771
   16.890    6.5087
   16.905    6.7720
   16.920    6.2981
   16.935    6.6561
   16.950    6.5824
   16.965    6.6983
   16.980    6.4034
   16.995    6.2665
   17.010    6.7930
   17.025    6.5403
   17.040    6.0242
   17.055    6.1190
   17.070    6.6877
   17.085    6.7509
   17.100    6.5192
   17.115    6.0664
   17.130    5.9821
   17.145    6.4876
   17.160    6.7720
   17.175    6.6983
   17.190    6.7404
   17.205    6.4876
   17.220    6.3718
   17.235    5.9084
   17.250    6.4350
   17.265    6.5298
   17.280    6.2349
   17.295    6.6245
   17.310    6.3191
   17.325    6.1822
   17.340    6.2349
   17.355    6.2559
   17.370    6.1295
   17.385    6.4560
   17.400    6.6140
   17.415    6.5719
   17.430    6.3612
   17.445    6.0137
   17.460    6.4350
   17.475    6.4244
   17.490    6.5929
   17.505    6.7825
   17.520    6.2349
   17.535    6.2033
   17.550    6.3296
   17.565    6.5508
   17.580    6.3823
   17.595    6.5298
   17.610    6.5192
   17.625    6.6035
   17.640    6.3928
   17.655    6.5192
   17.670    6.2454
   17.685    6.0453
   17.700    6.0769
   17.715    6.2138
   17.730    6.1085
   17.745    6.4139
   17.760    6.5929
   17.775    6.2033
   17.790    6.7404
   17.805    6.5719
   17.820    6.3823
   17.835    6.3402
   17.850    6.0664
   17.865    6.2665
   17.880    5.9926
   17.895    5.7925
   17.910    5.9084
   17.925    6.2981
   17.940    6.2454
   17.955    6.4034
   17.970    6.1190
   17.985    6.3086
   18.000    6.2875
   18.015    6.3612
   18.030    6.2454
   18.045    6.6983
   18.060    6.7720
   18.075    6.5192
   18.090    6.6351
   18.105    6.3191
   18.120    6.3086
   18.135    6.3296
   18.150    6.4139
   18.165    6.6877
   18.180    6.2665
   18.195    6.0979
   18.210    6.2349
   18.225    6.5613
   18.240    6.3823
   18.255    6.1822
   18.270    6.1295
   18.285    6.6772
   18.300    6.4876
   18.315    6.5719
   18.330    6.5613
   18.345    6.2981
   18.360    6.2981
   18.375    6.8984
   18.390    6.7509
   18.405    6.7930
   18.420    6.1401
   18.435    6.2981
   18.450    6.5508
   18.465    6.2875
   18.480    6.2243
   18.495    6.3928
   18.510    6.5298
   18.525    6.3612
   18.540    6.0137
   18.555    6.4455
   18.570    6.4455
   18.585    6.4139
   18.600    6.3507
   18.615    6.4139
   18.630    6.3507
   18.645    6.4560
   18.660    7.0458
   18.675    6.7193
   18.690    6.5824
   18.705    6.0558
   18.720    6.1085
   18.735    6.0558
   18.750    5.8241
   18.765    5.7609
   18.780    6.6035
   18.795    6.5403
   18.810    6.2770
   18.825    6.6140
   18.840    6.2875
   18.855    6.2559
   18.870    6.7615
   18.885    6.3507
   18.900    6.4982
   18.915    6.5929
   18.930    6.4139
   18.945    6.5403
   18.960    6.8562
   18.975    6.8668
   18.990    6.7720
   19.005    6.6877
   19.020    6.6140
   19.035    6.7404
   19.050    6.8036
   19.065    6.3191
   19.080    6.4876
   19.095    6.1401
   19.110    6.5403
   19.125    6.5087
   19.140    6.4560
   19.155    6.1401
   19.170    6.6245
   19.185    6.9616
   19.200    6.5719
   19.215    6.5824
   19.230    6.8352
   19.245    6.2770
   19.260    6.6035
   19.275    6.5719
   19.290    6.2981
   19.305    6.4350
   19.320    6.3296
   19.335    6.6877
   19.350    6.3402
   19.365    6.2981
   19.380    6.8878
   19.395    6.4244
   19.410    6.7088
   19.425    6.4876
   19.440    6.4876
   19.455    6.4876
   19.470    6.5087
   19.485    6.3191
   19.500    6.1927
   19.515    6.7720
   19.530    6.6983
   19.545    6.7509
   19.560    6.6035
   19.575    6.5929
   19.590    6.4139
   19.605    6.8878
   19.620    6.6140
   19.635    6.6035
   19.650    6.5403
   19.665    6.8246
   19.680    6.8562
   19.695    7.0353
   19.710    6.6456
   19.725    6.4034
   19.740    6.4771
   19.755    6.4876
   19.770    6.3507
   19.785    6.6772
   19.800    6.6140
   19.815    6.6877
   19.830    6.7509
   19.845    6.8878
   19.860    7.0142
   19.875    6.6877
   19.890    6.8036
   19.905    6.7720
   19.920    6.6456
   19.935    6.5719
   19.950    6.8352
   19.965    7.0248
   19.980    6.4350
   19.995    6.6667
   20.010    6.7404
   20.025    6.9721
   20.040    6.6561
   20.055    6.7404
   20.070    6.8668
   20.085    6.8036
   20.100    6.9089
   20.115    7.0037
   20.130    6.5929
   20.145    7.0458
   20.160    6.9089
   20.175    6.8668
   20.190    6.9300
   20.205    6.8984
   20.220    6.6983
   20.235    6.5824
   20.250    6.4560
   20.265    6.4771
   20.280    6.6035
   20.295    6.8036
   20.310    6.4982
   20.325    6.7088
   20.340    6.7615
   20.355    6.8352
   20.370    6.6667
   20.385    7.2565
   20.400    7.0563
   20.415    6.6772
   20.430    6.4455
   20.445    6.7720
   20.460    6.7193
   20.475    6.8984
   20.490    6.7088
   20.505    6.7720
   20.520    6.6983
   20.535    6.4244
   20.550    6.9089
   20.565    6.5298
   20.580    6.8036
   20.595    6.6772
   20.610    6.5298
   20.625    6.7088
   20.640    6.9721
   20.655    6.5929
   20.670    6.4139
   20.685    6.8668
   20.700    6.8668
   20.715    7.0563
   20.730    6.6561
   20.745    6.6983
   20.760    6.6456
   20.775    6.6140
   20.790    7.0353
   20.805    6.7088
   20.820    6.4244
   20.835    6.8562
   20.850    6.9616
   20.865    7.2775
   20.880    6.9510
   20.895    6.6035
   20.910    6.5508
   20.925    6.6772
   20.940    6.8668
   20.955    6.7720
   20.970    6.8668
   20.985    7.2354
   21.000    7.0669
   21.015    6.6351
   21.030    7.0669
   21.045    7.1090
   21.060    6.9510
   21.075    6.6667
   21.090    6.7720
   21.105    6.6035
   21.120    7.0142
   21.135    7.0353
   21.150    6.7720
   21.165    6.7930
   21.180    6.6561
   21.195    6.8352
   21.210    7.0774
   21.225    6.8352
   21.240    7.1090
   21.255    6.9616
   21.270    6.8562
   21.285    6.8668
   21.300    6.8457
   21.315    6.9194
   21.330    6.4350
   21.345    6.6983
   21.360    7.1195
   21.375    6.8668
   21.390    6.6561
   21.405    6.3823
   21.420    6.7509
   21.435    6.5929
   21.450    6.6351
   21.465    6.3296
   21.480    6.5613
   21.495    6.9089
   21.510    7.2143
   21.525    6.8878
   21.540    6.8984
   21.555    7.1406
   21.570    6.7825
   21.585    6.6035
   21.600    6.6456
   21.615    6.6983
   21.630    6.6561
   21.645    6.8984
   21.660    7.0669
   21.675    6.6877
   21.690    6.7930
   21.705    6.5087
   21.720    7.2986
   21.735    7.2880
   21.750    7.1406
   21.765    6.8352
   21.780    6.8773
   21.795    6.7930
   21.810    6.7404
   21.825    7.0563
   21.840    6.9089
   21.855    6.4350
   21.870    6.7193
   21.885    6.9300
   21.900    6.7825
   21.915    6.8773
   21.930    6.8878
   21.945    6.8773
   21.960    6.8668
   21.975    7.0037
   21.990    6.4244
   22.005    6.7615
   22.020    6.7088
   22.035    6.5929
   22.050    6.9721
   22.065    7.1722
   22.080    6.8984
   22.095    6.6772
   22.110    6.6245
   22.125    6.6456
   22.140    6.9932
   22.155    7.1511
   22.170    6.7299
   22.185    6.6983
   22.200    6.4350
   22.215    6.8036
   22.230    7.3091
   22.245    6.7193
   22.260    6.8457
   22.275    7.1090
   22.290    6.8668
   22.305    6.8878
   22.320    6.5192
   22.335    6.6772
   22.350    6.5929
   22.365    6.9826
   22.380    7.2670
   22.395    6.9616
   22.410    6.9616
   22.425    6.7615
   22.440    6.6983
   22.455    7.0248
   22.470    7.1827
   22.485    7.0458
   22.500    6.8036
   22.515    7.1511
   22.530    6.6456
   22.545    6.5403
   22.560    6.8668
   22.575    6.9405
   22.590    6.9300
   22.605    6.7299
   22.620    6.6245
   22.635    7.1617
   22.650    7.0563
   22.665    6.8246
   22.680    7.1827
   22.695    6.4982
   22.710    6.7509
   22.725    6.4139
   22.740    6.3928
   22.755    6.6140
   22.770    6.4876
   22.785    6.4560
   22.800    6.9826
   22.815    6.6667
   22.830    6.6983
   22.845    6.5929
   22.860    6.8141
   22.875    7.0248
   22.890    6.5087
   22.905    6.8036
   22.920    7.2565
   22.935    7.0142
   22.950    6.9300
   22.965    7.0037
   22.980    6.9300
   22.995    6.9721
   23.010    7.0669
   23.025    6.5824
   23.040    6.5824
   23.055    6.7615
   23.070    7.1090
   23.085    6.8984
   23.100    6.6667
   23.115    6.7088
   23.130    6.6561
   23.145    6.9300
   23.160    6.7930
   23.175    6.7088
   23.190    6.7404
   23.205    6.8878
   23.220    6.7088
   23.235    6.9826
   23.250    6.4350
   23.265    6.5824
   23.280    6.9616
   23.295    6.8878
   23.310    6.4771
   23.325    6.7404
   23.340    7.1090
   23.355    6.7930
   23.370    6.4455
   23.385    6.5298
   23.400    7.0879
   23.415    6.6772
   23.430    6.3718
   23.445    6.7404
   23.460    6.8036
   23.475    6.7509
   23.490    6.8984
   23.505    6.8984
   23.520    6.9826
   23.535    6.5087
   23.550    6.6772
   23.565    6.3823
   23.580    6.7088
   23.595    6.6561
   23.610    6.5613
   23.625    6.8457
   23.640    6.8984
   23.655    6.5298
   23.670    6.6667
   23.685    6.3612
   23.700    6.2243
   23.715    6.6351
   23.730    6.9089
   23.745    6.9405
   23.760    6.4139
   23.775    6.6983
   23.790    6.6667
   23.805    6.5613
   23.820    6.3928
   23.835    6.8878
   23.850    6.7088
   23.865    6.5087
   23.880    6.2349
   23.895    6.5087
   23.910    6.6351
   23.925    6.3718
   23.940    6.3718
   23.955    6.3823
   23.970    6.8773
   23.985    6.9300
   24.000    6.4244
   24.015    6.2770
   24.030    6.5403
   24.045    6.1822
   24.060    6.4560
   24.075    6.7404
   24.090    6.7615
   24.105    6.4982
   24.120    6.6983
   24.135    6.4560
   24.150    6.7299
   24.165    6.9194
   24.180    6.5298
   24.195    6.7930
   24.210    6.5824
   24.225    6.2981
   24.240    6.2875
   24.255    6.6561
   24.270    6.5824
   24.285    6.3191
   24.300    6.5719
   24.315    6.4560
   24.330    6.8036
   24.345    6.6456
   24.360    6.0874
   24.375    6.5929
   24.390    6.1927
   24.405    6.7720
   24.420    6.5824
   24.435    6.2454
   24.450    6.3191
   24.465    6.2665
   24.480    6.3402
   24.495    6.5192
   24.510    6.3612
   24.525    6.5192
   24.540    6.4350
   24.555    6.3612
   24.570    6.3191
   24.585    6.4560
   24.600    6.9826
   24.615    6.5719
   24.630    6.6140
   24.645    6.1822
   24.660    6.3823
   24.675    6.4350
   24.690    6.2875
   24.705    6.7720
   24.720    6.9300
   24.735    6.5403
   24.750    6.8036
   24.765    6.4771
   24.780    6.3612
   24.795    6.3402
   24.810    6.2665
   24.825    6.5508
   24.840    6.4139
   24.855    6.5719
   24.870    6.3507
   24.885    6.4244
   24.900    6.2454
   24.915    6.0453
   24.930    6.2243
   24.945    6.1295
   24.960    6.4139
   24.975    6.1927
   24.990    6.4876
   25.005    6.4034
   25.020    6.7193
   25.035    6.5613
   25.050    6.4034
   25.065    6.3928
   25.080    6.6561
   25.095    6.2033
   25.110    6.6667
   25.125    6.5824
   25.140    6.1717
   25.155    6.2875
   25.170    6.6667
   25.185    6.3612
   25.200    6.3086
   25.215    6.3718
   25.230    6.7193
   25.245    6.1401
   25.260    6.1190
   25.275    6.4139
   25.290    6.5508
   25.305    5.8873
   25.320    6.0874
   25.335    6.3507
   25.350    6.5929
   25.365    6.7825
   25.380    6.2875
   25.395    6.2981
   25.410    6.3823
   25.425    6.4876
   25.440    6.7825
   25.455    6.3612
   25.470    6.3507
   25.485    6.0979
   25.500    6.2981
   25.515    6.4244
   25.530    6.2559
   25.545    6.2981
   25.560    6.0558
   25.575    6.3086
   25.590    6.0137
   25.605    6.1822
   25.620    6.2138
   25.635    5.7293
   25.650    5.9821
   25.665    6.1611
   25.680    5.9505
   25.695    6.3507
   25.710    6.5403
   25.725    6.0348
   25.740    6.1295
   25.755    6.3718
   25.770    6.4139
   25.785    6.4876
   25.800    6.6561
   25.815    6.3296
   25.830    6.4666
   25.845    6.2770
   25.860    6.5087
   25.875    6.6245
   25.890    6.2875
   25.905    6.2243
   25.920    5.7715
   25.935    6.2454
   25.950    6.2981
   25.965    5.8873
   25.980    6.3402
   25.995    6.2981
   26.010    6.6561
   26.025    6.3296
   26.040    6.2875
   26.055    6.2770
   26.070    5.9084
   26.085    6.1295
   26.100    6.6035
   26.115    6.2138
   26.130    6.0242
   26.145    6.2665
   26.160    6.0558
   26.175    6.4139
   26.190    6.6245
   26.205    6.5719
   26.220    6.0769
   26.235    5.8662
   26.250    5.7083
   26.265    6.0558
   26.280    6.1190
   26.295    6.0032
   26.310    5.8873
   26.325    6.1190
   26.340    6.2559
   26.355    6.3086
   26.370    6.1717
   26.385    6.2138
   26.400    6.8246
   26.415    6.0979
   26.430    6.1927
   26.445    6.3296
   26.460    6.4455
   26.475    6.4876
   26.490    6.0242
   26.505    5.8557
   26.520    5.9400
   26.535    5.9189
   26.550    6.2875
   26.565    6.4455
   26.580    5.9610
   26.595    5.4555
   26.610    5.6977
   26.625    5.8978
   26.640    6.2559
   26.655    6.2875
   26.670    6.2138
   26.685    6.2033
   26.700    5.9821
   26.715    6.0664
   26.730    6.1611
   26.745    5.9084
   26.760    6.1506
   26.775    5.7399
   26.790    6.0874
   26.805    6.0137
   26.820    6.1717
   26.835    6.0348
   26.850    6.0769
   26.865    5.8978
   26.880    6.2981
   26.895    5.9084
   26.910    6.1295
   26.925    6.1190
   26.940    6.2559
   26.955    6.3928
   26.970    6.2243
   26.985    6.0453
   27.000    6.1611
   27.015    6.2770
   27.030    5.8347
   27.045    5.7925
   27.060    5.8978
   27.075    5.7609
   27.090    5.7715
   27.105    5.7399
   27.120    5.9400
   27.135    6.4876
   27.150    6.1927
   27.165    6.1611
   27.180    6.4244
   27.195    6.1401
   27.210    6.1611
   27.225    6.1927
   27.240    5.8452
   27.255    5.7715
   27.270    6.1822
   27.285    5.9610
   27.300    6.1927
   27.315    6.2454
   27.330    5.8031
   27.345    5.7188
   27.360    6.2138
   27.375    5.6977
   27.390    5.8452
   27.405    5.7609
   27.420    6.1611
   27.435    6.3928
   27.450    6.2770
   27.465    5.8452
   27.480    5.8873
   27.495    6.1611
   27.510    5.7715
   27.525    6.1085
   27.540    6.2033
   27.555    6.1927
   27.570    6.0242
   27.585    5.9189
   27.600    5.5082
   27.615    5.6345
   27.630    6.0769
   27.645    6.1717
   27.660    6.1611
   27.675    6.2875
   27.690    6.4350
   27.705    6.6140
   27.720    6.3086
   27.735    6.1401
   27.750    5.9294
   27.765    5.5714
   27.780    6.3296
   27.795    5.8557
   27.810    6.0453
   27.825    5.9189
   27.840    6.2243
   27.855    5.8662
   27.870    5.8557
   27.885    6.1085
   27.900    5.7399
   27.915    6.4350
   27.930    6.0979
   27.945    6.1611
   27.960    6.5087
   27.975    6.5719
   27.990    6.2033
   28.005    6.2981
   28.020    6.3507
   28.035    6.0979
   28.050    6.2981
   28.065    6.3086
   28.080    6.3507
   28.095    5.9716
   28.110    6.0032
   28.125    6.1295
   28.140    6.1401
   28.155    6.1085
   28.170    6.2454
   28.185    5.7293
   28.200    6.0453
   28.215    6.3191
   28.230    6.1190
   28.245    6.2981
   28.260    6.2138
   28.275    6.3086
   28.290    6.0348
   28.305    6.2875
   28.320    5.9189
   28.335    5.9189
   28.350    6.0979
   28.365    6.4982
   28.380    6.2981
   28.395    6.1506
   28.410    5.7609
   28.425    6.1295
   28.440    6.0032
   28.455    5.7083
   28.470    5.6767
   28.485    6.0137
   28.500    6.1085
   28.515    5.8768
   28.530    6.1085
   28.545    5.7820
   28.560    5.7715
   28.575    5.7188
   28.590    6.1717
   28.605    6.3823
   28.620    5.7083
   28.635    6.2349
   28.650    6.1085
   28.665    5.7399
   28.680    6.2559
   28.695    5.9716
   28.710    5.8557
   28.725    6.2770
   28.740    5.6872
   28.755    5.9610
   28.770    5.8873
   28.785    6.4139
   28.800    6.2033
   28.815    6.0874
   28.830    6.0979
   28.845    5.9610
   28.860    5.7293
   28.875    6.0769
   28.890    5.9400
   28.905    6.3296
   28.920    6.3928
   28.935    6.2138
   28.950    6.2875
   28.965    6.0664
   28.980    6.1085
   28.995    6.4034
   29.010    6.1506
   29.025    5.8768
   29.040    5.7925
   29.055    5.9821
   29.070    6.2138
   29.085    5.8557
   29.100    5.8978
   29.115    6.1190
   29.130    6.0558
   29.145    6.0242
   29.160    5.9294
   29.175    5.8136
   29.190    5.7609
   29.205    6.0242
   29.220    6.1295
   29.235    5.8031
   29.250    5.6345
   29.265    5.9294
   29.280    5.7715
   29.295    5.8557
   29.310    5.9084
   29.325    5.7188
   29.340    5.9294
   29.355    5.9505
   29.370    6.4139
   29.385    5.6345
   29.400    5.9505
   29.415    5.9400
   29.430    5.8873
   29.445    5.7820
   29.460    5.5924
   29.475    5.6661
   29.490    5.6661
   29.505    5.7293
   29.520    6.0664
   29.535    5.7293
   29.550    6.2875
   29.565    6.0769
   29.580    5.9400
   29.595    5.6872
   29.610    5.6767
   29.625    5.7083
   29.640    5.5292
   29.655    5.6977
   29.670    5.7609
   29.685    6.0137
   29.700    5.7293
   29.715    5.8241
   29.730    5.4028
   29.745    5.4239
   29.760    5.6661
   29.775    5.9610
   29.790    5.7715
   29.805    5.6451
   29.820    5.7399
   29.835    5.5819
   29.850    5.6977
   29.865    5.4660
   29.880    5.7820
   29.895    5.7715
   29.910    6.0874
   29.925    5.6451
   29.940    5.5608
   29.955    5.3607
   29.970    5.5819
   29.985    5.5819
   30.000    5.4450
   30.015    5.5608
   30.030    5.6451
   30.045    5.7820
   30.060    6.2559
   30.075    5.8452
   30.090    5.7504
   30.105    5.9716
   30.120    5.9505
   30.135    5.5398
   30.150    5.8241
   30.165    5.5292
   30.180    5.8241
   30.195    6.1085
   30.210    5.8557
   30.225    5.9084
   30.240    5.8662
   30.255    5.8662
   30.270    5.8241
   30.285    6.0242
   30.300    5.7083
   30.315    5.8768
   30.330    6.0032
   30.345    5.5819
   30.360    5.8873
   30.375    5.9400
   30.390    6.0137
   30.405    5.6345
   30.420    5.6872
   30.435    5.9610
   30.450    5.9400
   30.465    6.0769
   30.480    5.8031
   30.495    5.8241
   30.510    5.6872
   30.525    5.6767
   30.540    5.4766
   30.555    5.6556
   30.570    5.9926
   30.585    5.9400
   30.600    5.8031
   30.615    5.8768
   30.630    5.6451
   30.645    5.4450
   30.660    6.0242
   30.675    5.9189
   30.690    5.5292
   30.705    5.7504
   30.720    6.0558
   30.735    5.9294
   30.750    5.8662
   30.765    5.6029
   30.780    5.5503
   30.795    5.7820
   30.810    5.6661
   30.825    5.6240
   30.840    5.8347
   30.855    5.8241
   30.870    5.9400
   30.885    5.5292
   30.900    5.9084
   30.915    5.8978
   30.930    6.0453
   30.945    6.2770
   30.960    5.7609
   30.975    5.8347
   30.990    6.0664
   31.005    5.5924
   31.020    5.5714
   31.035    5.9084
   31.050    5.9294
   31.065    5.6767
   31.080    5.7083
   31.095    5.5714
   31.110    5.9926
   31.125    5.4976
   31.140    5.9189
   31.155    5.6767
   31.170    5.9189
   31.185    5.6661
   31.200    5.8136
   31.215    6.2349
   31.230    5.8452
   31.245    5.7083
   31.260    5.8347
   31.275    5.7399
   31.290    5.8557
   31.305    5.5187
   31.320    5.3607
   31.335    5.6767
   31.350    5.4555
   31.365    5.6872
   31.380    5.7293
   31.395    5.7399
   31.410    5.6451
   31.425    5.8241
   31.440    5.4976
   31.455    5.3923
   31.470    5.4134
   31.485    5.4239
   31.500    5.4660
   31.515    5.6767
   31.530    5.5082
   31.545    5.6029
   31.560    6.0769
   31.575    5.8031
   31.590    5.6872
   31.605    5.6556
   31.620    5.6135
   31.635    6.0769
   31.650    6.1506
   31.665    5.7293
   31.680    5.6451
   31.695    5.4766
   31.710    5.6345
   31.725    5.7188
   31.740    5.6451
   31.755    6.0137
   31.770    6.1927
   31.785    5.8347
   31.800    5.9610
   31.815    6.0558
   31.830    6.3402
   31.845    6.7720
   31.860    6.3402
   31.875    6.4876
   31.890    6.0664
   31.905    6.0874
   31.920    6.1822
   31.935    6.0558
   31.950    5.9926
   31.965    6.3402
   31.980    5.8347
   31.995    5.9505
   32.010    6.0137
   32.025    6.1295
   32.040    6.6351
   32.055    6.4455
   32.070    6.5613
   32.085    6.7825
   32.100    6.7509
   32.115    6.5719
   32.130    6.5613
   32.145    6.1822
   32.160    6.3612
   32.175    6.6351
   32.190    6.1822
   32.205    5.9400
   32.220    5.6135
   32.235    6.0558
   32.250    5.6556
   32.265    5.5187
   32.280    5.6872
   32.295    5.9084
   32.310    5.6661
   32.325    5.5819
   32.340    5.6661
   32.355    5.4976
   32.370    5.5608
   32.385    5.7820
   32.400    5.6029
   32.415    5.3397
   32.430    5.9084
   32.445    5.6029
   32.460    5.4134
   32.475    5.3607
   32.490    5.2133
   32.505    5.2870
   32.520    5.7293
   32.535    5.9294
   32.550    5.5503
   32.565    5.2659
   32.580    5.4134
   32.595    5.5714
   32.610    5.8136
   32.625    5.6767
   32.640    5.6029
   32.655    5.5082
   32.670    5.3712
   32.685    5.3502
   32.700    5.2870
   32.715    5.5292
   32.730    5.6029
   32.745    5.8978
   32.760    5.3923
   32.775    5.2449
   32.790    5.3397
   32.805    5.3291
   32.820    5.5292
   32.835    5.5924
   32.850    5.6135
   32.865    5.2554
   32.880    5.4766
   32.895    5.3712
   32.910    5.3923
   32.925    5.6029
   32.940    5.6240
   32.955    5.5924
   32.970    5.5608
   32.985    5.3712
   33.000    5.1711
   33.015    5.3607
   33.030    5.6661
   33.045    5.4871
   33.060    5.2765
   33.075    5.3923
   33.090    5.4239
   33.105    5.4766
   33.120    5.2343
   33.135    5.1501
   33.150    5.5714
   33.165    5.6451
   33.180    5.5924
   33.195    5.3923
   33.210    5.0342
   33.225    5.2554
   33.240    5.2238
   33.255    5.2975
   33.270    5.2133
   33.285    5.2765
   33.300    4.9394
   33.315    5.2975
   33.330    5.1922
   33.345    5.3186
   33.360    5.2765
   33.375    5.5503
   33.390    5.6977
   33.405    5.5924
   33.420    5.4766
   33.435    5.4660
   33.450    5.5398
   33.465    5.5398
   33.480    5.4871
   33.495    5.1290
   33.510    5.2027
   33.525    5.3186
   33.540    5.0764
   33.555    5.5924
   33.570    5.3397
   33.585    5.3607
   33.600    5.4028
   33.615    5.4660
   33.630    5.2238
   33.645    5.2765
   33.660    5.3081
   33.675    5.2765
   33.690    5.4134
   33.705    5.1395
   33.720    5.4344
   33.735    5.5503
   33.750    5.3818
   33.765    5.5082
   33.780    5.5924
   33.795    5.3712
   33.810    5.6345
   33.825    5.4766
   33.840    5.9084
   33.855    5.8557
   33.870    5.5819
   33.885    5.4344
   33.900    5.2659
   33.915    5.2765
   33.930    5.4976
   33.945    5.5187
   33.960    4.8763
   33.975    5.1395
   33.990    5.5187
   34.005    5.2133
   34.020    5.4028
   34.035    5.3923
   34.050    5.1922
   34.065    5.0448
   34.080    5.2554
   34.095    5.0342
   34.110    5.2133
   34.125    5.3607
   34.140    5.1711
   34.155    5.3818
   34.170    5.3712
   34.185    5.2975
   34.200    5.2449
   34.215    5.3607
   34.230    5.2449
   34.245    5.3502
   34.260    5.4976
   34.275    5.1290
   34.290    5.2975
   34.305    5.4660
   34.320    5.1290
   34.335    5.3291
   34.350    5.4555
   34.365    5.0448
   34.380    5.1185
   34.395    5.0026
   34.410    5.1501
   34.425    5.2975
   34.440    5.4660
   34.455    5.2449
   34.470    5.5398
   34.485    5.2659
   34.500    5.4660
   34.515    5.4028
   34.530    4.8973
   34.545    5.2975
   34.560    5.4450
   34.575    5.0553
   34.590    5.3712
   34.605    5.1290
   34.620    5.2238
   34.635    5.1711
   34.650    5.3397
   34.665    5.2765
   34.680    5.2554
   34.695    5.1501
   34.710    5.2133
   34.725    5.3186
   34.740    5.2765
   34.755    5.0237
   34.770    5.2765
   34.785    5.4028
   34.800    5.3818
   34.815    5.2765
   34.830    5.0342
   34.845    5.6661
   34.860    5.1711
   34.875    5.1606
   34.890    5.2133
   34.905    4.8552
   34.920    4.9605
   34.935    5.0869
   34.950    4.8868
   34.965    4.9078
   34.980    5.0448
   34.995    5.3712
   35.010    5.4028
   35.025    5.1080
   35.040    5.1395
   35.055    5.1606
   35.070    5.4660
   35.085    5.2133
   35.100    5.1185
   35.115    4.9921
   35.130    4.7604
   35.145    4.6551
   35.160    5.1080
   35.175    5.1606
   35.190    5.0869
   35.205    5.4450
   35.220    5.1080
   35.235    4.5919
   35.250    4.6235
   35.265    5.2449
   35.280    5.2975
   35.295    4.7920
   35.310    4.8763
   35.325    5.0869
   35.340    5.0764
   35.355    5.3607
   35.370    5.0553
   35.385    5.3291
   35.400    5.1711
   35.415    4.9816
   35.430    4.8236
   35.445    5.2343
   35.460    4.9816
   35.475    4.8131
   35.490    4.8657
   35.505    5.3291
   35.520    5.0869
   35.535    5.3712
   35.550    5.3186
   35.565    5.0132
   35.580    5.3923
   35.595    5.3502
   35.610    4.8763
   35.625    5.0764
   35.640    5.0132
   35.655    5.2238
   35.670    5.0342
   35.685    4.7709
   35.700    4.8447
   35.715    5.1501
   35.730    5.6240
   35.745    5.2765
   35.760    4.9816
   35.775    5.2238
   35.790    5.0237
   35.805    4.8763
   35.820    5.0869
   35.835    5.0974
   35.850    4.8868
   35.865    4.9605
   35.880    5.1606
   35.895    5.0869
   35.910    5.0448
   35.925    5.1606
   35.940    5.2659
   35.955    5.1290
   35.970    4.9289
   35.985    5.0026
   36.000    4.7604
   36.015    4.9921
   36.030    5.2449
   36.045    5.3923
   36.060    4.9500
   36.075    5.4134
   36.090    5.4871
   36.105    5.4134
   36.120    5.3502
   36.135    4.7709
   36.150    5.0342
   36.165    5.0237
   36.180    4.9605
   36.195    5.1711
   36.210    5.0974
   36.225    5.0132
   36.240    5.1501
   36.255    4.8447
   36.270    4.5603
   36.285    4.8236
   36.300    4.7815
   36.315    4.9710
   36.330    5.1922
   36.345    5.0974
   36.360    4.9605
   36.375    5.0869
   36.390    5.1711
   36.405    5.2027
   36.420    5.2238
   36.435    5.2027
   36.450    4.7920
   36.465    4.8131
   36.480    5.2027
   36.495    5.0869
   36.510    5.0553
   36.525    5.0974
   36.540    5.0026
   36.555    5.3397
   36.570    4.9078
   36.585    4.8341
   36.600    4.7920
   36.615    4.9605
   36.630    4.9921
   36.645    4.8447
   36.660    5.5398
   36.675    5.2343
   36.690    5.1080
   36.705    4.9394
   36.720    4.7393
   36.735    4.9605
   36.750    5.3186
   36.765    5.2554
   36.780    5.1080
   36.795    5.0237
   36.810    5.2343
   36.825    4.9078
   36.840    4.7393
   36.855    5.3397
   36.870    5.3607
   36.885    4.7288
   36.900    4.7920
   36.915    5.1817
   36.930    5.2133
   36.945    5.2870
   36.960    4.7709
   36.975    5.0237
   36.990    4.9500
   37.005    4.9816
   37.020    5.4134
   37.035    5.3186
   37.050    4.9394
   37.065    4.8657
   37.080    5.2554
   37.095    5.1922
   37.110    4.7604
   37.125    5.0448
   37.140    5.1817
   37.155    5.2027
   37.170    4.9078
   37.185    4.8868
   37.200    4.9921
   37.215    4.6024
   37.230    4.9184
   37.245    5.0974
   37.260    5.0237
   37.275    4.9394
   37.290    4.8236
   37.305    4.8447
   37.320    4.6024
   37.335    4.9078
   37.350    5.0237
   37.365    5.0553
   37.380    5.1290
   37.395    5.3397
   37.410    5.2554
   37.425    5.1817
   37.440    5.1290
   37.455    4.9394
   37.470    4.7499
   37.485    4.8763
   37.500    4.9184
   37.515    4.7709
   37.530    4.8131
   37.545    4.8552
   37.560    5.3502
   37.575    5.0237
   37.590    5.0448
   37.605    5.0132
   37.620    5.0132
   37.635    5.0764
   37.650    4.8131
   37.665    5.2449
   37.680    4.6551
   37.695    4.7709
   37.710    4.7920
   37.725    5.2975
   37.740    4.8868
   37.755    4.9289
   37.770    4.8763
   37.785    4.8763
   37.800    4.7604
   37.815    5.0342
   37.830    4.7499
   37.845    4.8868
   37.860    4.8131
   37.875    4.8657
   37.890    4.6972
   37.905    4.9184
   37.920    4.9921
   37.935    4.9394
   37.950    4.9816
   37.965    4.9184
   37.980    4.8868
   37.995    4.8973
   38.010    4.8973
   38.025    4.7815
   38.040    4.9816
   38.055    4.8657
   38.070    4.8447
   38.085    4.6445
   38.100    5.0237
   38.115    4.7815
   38.130    5.1501
   38.145    5.2554
   38.160    5.3291
   38.175    5.2870
   38.190    4.6867
   38.205    4.8025
   38.220    4.7288
   38.235    4.7077
   38.250    4.9710
   38.265    4.8763
   38.280    5.2343
   38.295    4.9816
   38.310    5.0869
   38.325    5.0553
   38.340    4.7077
   38.355    5.0342
   38.370    5.1922
   38.385    5.2133
   38.400    5.2870
   38.415    5.1395
   38.430    4.9605
   38.445    5.2554
   38.460    5.0658
   38.475    5.0764
   38.490    5.0132
   38.505    4.8763
   38.520    4.7288
   38.535    4.6972
   38.550    4.6130
   38.565    4.9078
   38.580    5.1080
   38.595    5.1817
   38.610    5.0974
   38.625    5.2027
   38.640    4.9921
   38.655    5.0132
   38.670    5.3607
   38.685    5.1711
   38.700    4.7709
   38.715    4.8973
   38.730    5.3081
   38.745    4.9184
   38.760    4.7183
   38.775    5.1290
   38.790    5.1185
   38.805    5.0237
   38.820    5.2449
   38.835    4.7393
   38.850    5.0869
   38.865    5.3502
   38.880    5.3712
   38.895    5.4555
   38.910    5.2133
   38.925    5.2133
   38.940    5.5082
   38.955    5.1817
   38.970    5.1395
   38.985    5.6345
   39.000    5.4660
   39.015    5.2343
   39.030    5.5082
   39.045    5.6240
   39.060    5.6029
   39.075    5.7925
   39.090    5.3291
   39.105    5.6345
   39.120    5.6451
   39.135    5.6661
   39.150    5.9716
   39.165    5.5082
   39.180    5.4028
   39.195    5.4660
   39.210    5.4660
   39.225    5.7083
   39.240    5.4450
   39.255    5.8768
   39.270    5.5187
   39.285    5.1080
   39.300    5.2449
   39.315    5.3186
   39.330    5.3081
   39.345    5.4028
   39.360    5.5398
   39.375    5.5187
   39.390    5.2449
   39.405    5.4766
   39.420    5.1080
   39.435    5.0342
   39.450    5.3186
   39.465    5.6135
   39.480    4.8868
   39.495    5.0026
   39.510    5.1817
   39.525    5.3607
   39.540    4.8552
   39.555    4.9078
   39.570    5.0342
   39.585    5.0342
   39.600    5.0658
   39.615    5.0869
   39.630    5.1922
   39.645    5.0342
   39.660    4.6656
   39.675    4.9394
   39.690    4.9816
   39.705    5.1290
   39.720    4.9078
   39.735    4.9710
   39.750    5.1501
   39.765    4.9184
   39.780    4.9078
   39.795    4.7920
   39.810    4.7709
   39.825    5.0764
   39.840    5.2975
   39.855    4.9816
   39.870    4.7604
   39.885    4.9500
   39.900    4.8973
   39.915    5.0237
   39.930    4.9710
   39.945    5.2027
   39.960    5.0553
   39.975    4.9184
   39.990    4.9921
