    1.500   11.0760
    1.515   11.0936
    1.530   11.0409
    1.545   11.1638
    1.560   10.4265
    1.575   11.0409
    1.590   11.1287
    1.605    9.7595
    1.620    9.3734
    1.635   10.0228
    1.650   10.3212
    1.665   10.2510
    1.680    9.9877
    1.695   10.2861
    1.710    9.7946
    1.725    9.7595
    1.740   10.0404
    1.755   10.2159
    1.770    9.6015
    1.785    9.6893
    1.800   10.3739
    1.815    9.1803
    1.830    9.2154
    1.845    9.6191
    1.860    9.1803
    1.875    9.6542
    1.890    9.3558
    1.905    9.0925
    1.920    8.6186
    1.935    8.8292
    1.950    8.8292
    1.965    9.1276
    1.980    9.1627
    1.995    9.3558
    2.010    8.6186
    2.025    8.2675
    2.040    8.4606
    2.055    8.5484
    2.070    8.4606
    2.085    8.4781
    2.100    8.6010
    2.115    8.3026
    2.130    8.6712
    2.145    8.0569
    2.160    8.3904
    2.175    8.4255
    2.190    8.8117
    2.205    8.1446
    2.220    8.0218
    2.235    8.6186
    2.250    8.5484
    2.265    8.0042
    2.280    8.3728
    2.295    8.1446
    2.310    7.9516
    2.325    8.1446
    2.340    8.5659
    2.355    8.1095
    2.370    8.0920
    2.385    8.1271
    2.400    8.3202
    2.415    7.8813
    2.430    8.1973
    2.445    7.6180
    2.460    7.6005
    2.475    7.8813
    2.490    8.2149
    2.505    7.7409
    2.520    7.0563
    2.535    7.7409
    2.550    7.8111
    2.565    8.0920
    2.580    7.7936
    2.595    7.4425
    2.610    7.5127
    2.625    8.2675
    2.640    7.7234
    2.655    7.6005
    2.670    7.3547
    2.685    7.3723
    2.700    7.7936
    2.715    7.5127
    2.730    7.5654
    2.745    7.3899
    2.760    7.6532
    2.775    7.6532
    2.790    7.1617
    2.805    7.5478
    2.820    7.3899
    2.835    7.3723
    2.850    7.1266
    2.865    7.5127
    2.880    7.4601
    2.895    7.2494
    2.910    7.0212
    2.925    7.5654
    2.940    7.6180
    2.955    7.6883
    2.970    7.3021
    2.985    7.4601
    3.000    6.8282
    3.015    6.9510
    3.030    7.7936
    3.045    7.7585
    3.060    6.9686
    3.075    7.2319
    3.090    7.1617
    3.105    6.8808
    3.120    7.1968
    3.135    6.7053
    3.150    7.0563
    3.165    6.9861
    3.180    6.9159
    3.195    7.1968
    3.210    7.1968
    3.225    7.6532
    3.240    7.3723
    3.255    7.2494
    3.270    6.5473
    3.285    7.3196
    3.300    6.7930
    3.315    7.1441
    3.330    6.9510
    3.345    7.2319
    3.360    7.1266
    3.375    7.0212
    3.390    7.1441
    3.405    6.9335
    3.420    7.1617
    3.435    7.3021
    3.450    7.6707
    3.465    7.3899
    3.480    7.1617
    3.495    7.5303
    3.510    7.2845
    3.525    7.2845
    3.540    7.4250
    3.555    7.2845
    3.570    7.2143
    3.585    7.6356
    3.600    7.7585
    3.615    7.0915
    3.630    7.0037
    3.645    7.5654
    3.660    7.4425
    3.675    6.9861
    3.690    7.2494
    3.705    7.3547
    3.720    7.2319
    3.735    7.2143
    3.750    7.5127
    3.765    7.0915
    3.780    7.1968
    3.795    7.7058
    3.810    7.4425
    3.825    7.6005
    3.840    7.3372
    3.855    6.9159
    3.870    6.9861
    3.885    6.9686
    3.900    7.5654
    3.915    7.3196
    3.930    6.8282
    3.945    7.2670
    3.960    6.7579
    3.975    6.9159
    3.990    7.3899
    4.005    7.1617
    4.020    7.1266
    4.035    7.2670
    4.050    6.7755
    4.065    6.7404
    4.080    6.6877
    4.095    6.8808
    4.110    7.7409
    4.125    7.1090
    4.140    7.3196
    4.155    7.1266
    4.170    7.3196
    4.185    7.2143
    4.200    7.1968
    4.215    7.1441
    4.230    7.4074
    4.245    7.8813
    4.260    7.4952
    4.275    7.7409
    4.290    7.3723
    4.305    7.3723
    4.320    8.0393
    4.335    7.4776
    4.350    7.7585
    4.365    7.4776
    4.380    7.4601
    4.395    7.3547
    4.410    7.1266
    4.425    7.0388
    4.440    7.3723
    4.455    7.8638
    4.470    7.7936
    4.485    7.8638
    4.500    7.0037
    4.515    7.3899
    4.530    6.9861
    4.545    7.4074
    4.560    7.2845
    4.575    7.4425
    4.590    7.4250
    4.605    7.4250
    4.620    7.2845
    4.635    7.1617
    4.650    7.3899
    4.665    7.5478
    4.680    7.4776
    4.695    7.2494
    4.710    7.3196
    4.725    7.7409
    4.740    7.2670
    4.755    7.5303
    4.770    8.1973
    4.785    7.6180
    4.800    7.7760
    4.815    7.1968
    4.830    7.2319
    4.845    7.5478
    4.860    7.5303
    4.875    7.2143
    4.890    7.2845
    4.905    7.4250
    4.920    7.9164
    4.935    8.0042
    4.950    8.1622
    4.965    7.9164
    4.980    8.0042
    4.995    7.4776
    5.010    8.0042
    5.025    7.8111
    5.040    8.7239
    5.055    8.1095
    5.070    8.5308
    5.085    8.7063
    5.100    7.9516
    5.115    7.6532
    5.130    7.9516
    5.145    8.5484
    5.160    8.7590
    5.175    8.6361
    5.190    8.9872
    5.205    8.6010
    5.220    8.6712
    5.235    9.1627
    5.250    9.7069
    5.265    9.1101
    5.280    9.1101
    5.295    9.1101
    5.310    9.4436
    5.325    9.0574
    5.340    9.3207
    5.355    9.7244
    5.370    9.5313
    5.385    9.3909
    5.400   10.0930
    5.415   10.1457
    5.430    9.9175
    5.445    9.6718
    5.460   10.0053
    5.475   10.1457
    5.490   10.2510
    5.505    9.6542
    5.520    9.5489
    5.535   10.3563
    5.550   10.2510
    5.565    9.5664
    5.580    9.8648
    5.595    9.7771
    5.610   10.0755
    5.625    9.5489
    5.640    9.5313
    5.655    9.6542
    5.670    9.4436
    5.685    9.4085
    5.700    9.5664
    5.715    9.1978
    5.730    8.8468
    5.745    9.1276
    5.760    8.9521
    5.775    8.8292
    5.790    9.1276
    5.805    9.0574
    5.820    8.1446
    5.835    8.7590
    5.850    8.3377
    5.865    8.0920
    5.880    8.0569
    5.895    7.3723
    5.910    8.2500
    5.925    8.1446
    5.940    8.2149
    5.955    8.6010
    5.970    7.8462
    5.985    7.7585
    6.000    8.3202
    6.015    7.3899
    6.030    7.3021
    6.045    7.2143
    6.060    7.7585
    6.075    7.7936
    6.090    8.0218
    6.105    7.8989
    6.120    7.7760
    6.135    7.5654
    6.150    7.3372
    6.165    7.3196
    6.180    6.9861
    6.195    7.1617
    6.210    7.1617
    6.225    6.9159
    6.240    6.9159
    6.255    7.0388
    6.270    6.9159
    6.285    7.1968
    6.300    6.6877
    6.315    7.2143
    6.330    7.2845
    6.345    6.7404
    6.360    6.5649
    6.375    6.4420
    6.390    6.8282
    6.405    7.0739
    6.420    7.3021
    6.435    7.3372
    6.450    7.0212
    6.465    6.7404
    6.480    6.5824
    6.495    6.7404
    6.510    6.8282
    6.525    6.9861
    6.540    6.6877
    6.555    7.1792
    6.570    6.4069
    6.585    6.5473
    6.600    6.3542
    6.615    6.5122
    6.630    6.7579
    6.645    6.5649
    6.660    6.6877
    6.675    6.6000
    6.690    6.7228
    6.705    6.9686
    6.720    7.0388
    6.735    6.6702
    6.750    6.5824
    6.765    6.4420
    6.780    6.6351
    6.795    6.2138
    6.810    6.1260
    6.825    6.3367
    6.840    6.1787
    6.855    6.4244
    6.870    5.9856
    6.885    6.1085
    6.900    6.1085
    6.915    5.9681
    6.930    6.0207
    6.945    6.2665
    6.960    6.3191
    6.975    5.7574
    6.990    6.1611
    7.005    6.3367
    7.020    5.9154
    7.035    5.8452
    7.050    6.1085
    7.065    5.8101
    7.080    5.7399
    7.095    5.8978
    7.110    5.7925
    7.125    5.8627
    7.140    5.5994
    7.155    6.0032
    7.170    5.9505
    7.185    5.6697
    7.200    5.4415
    7.215    5.8101
    7.230    6.2489
    7.245    5.7223
    7.260    5.4064
    7.275    5.3712
    7.290    5.4415
    7.305    5.1255
    7.320    5.7925
    7.335    5.8276
    7.350    5.2835
    7.365    5.5819
    7.380    5.2659
    7.395    5.3712
    7.410    5.4064
    7.425    5.3712
    7.440    5.4064
    7.455    5.4064
    7.470    5.7750
    7.485    5.8803
    7.500    5.4941
    7.515    5.0553
    7.530    5.1431
    7.545    5.7750
    7.560    5.6170
    7.575    5.2308
    7.590    5.1957
    7.605    5.4590
    7.620    5.0377
    7.635    5.2133
    7.650    5.2484
    7.665    5.2835
    7.680    5.0728
    7.695    5.1782
    7.710    5.1957
    7.725    5.1957
    7.740    5.1255
    7.755    4.8095
    7.770    4.9500
    7.785    4.9324
    7.800    5.0377
    7.815    5.0553
    7.830    5.2484
    7.845    5.2659
    7.860    4.8095
    7.875    4.8095
    7.890    4.6165
    7.905    4.6165
    7.920    4.7042
    7.935    4.8447
    7.950    5.0026
    7.965    5.0904
    7.980    5.4239
    7.995    4.9675
    8.010    5.0026
    8.025    4.6691
    8.040    4.8622
    8.055    5.1080
    8.070    5.1080
    8.085    4.5463
    8.100    5.5643
    8.115    4.9149
    8.130    4.8798
    8.145    4.7042
    8.160    4.7218
    8.175    5.0202
    8.190    4.9500
    8.205    4.9675
    8.220    4.9851
    8.235    4.8095
    8.250    4.8973
    8.265    4.8447
    8.280    4.5111
    8.295    4.6165
    8.310    4.5111
    8.325    3.9846
    8.340    4.4760
    8.355    4.8973
    8.370    5.2659
    8.385    4.8271
    8.400    4.7393
    8.415    4.6165
    8.430    4.6165
    8.445    4.7393
    8.460    4.6516
    8.475    5.0026
    8.490    4.8798
    8.505    5.1255
    8.520    4.1776
    8.535    4.8622
    8.550    4.3707
    8.565    4.3181
    8.580    4.2478
    8.595    4.3883
    8.610    4.4585
    8.625    4.3883
    8.640    4.5989
    8.655    4.4936
    8.670    4.4234
    8.685    4.3005
    8.700    4.5463
    8.715    4.5111
    8.730    4.0021
    8.745    3.7915
    8.760    4.4936
    8.775    4.4760
    8.790    4.2830
    8.805    5.0377
    8.820    4.2654
    8.835    4.5287
    8.850    4.3532
    8.865    4.5814
    8.880    4.7393
    8.895    4.1250
    8.910    4.7393
    8.925    4.8095
    8.940    4.8447
    8.955    4.4760
    8.970    4.3883
    8.985    4.4409
    9.000    4.5287
    9.015    4.1601
    9.030    4.4760
    9.045    4.3883
    9.060    4.2654
    9.075    4.3707
    9.090    4.4058
    9.105    4.5989
    9.120    4.2830
    9.135    4.3532
    9.150    4.4936
    9.165    4.2303
    9.180    4.3883
    9.195    4.2830
    9.210    4.1250
    9.225    4.6516
    9.240    4.2830
    9.255    4.4936
    9.270    4.2303
    9.285    4.5463
    9.300    4.3356
    9.315    4.1952
    9.330    4.3883
    9.345    4.8798
    9.360    4.4058
    9.375    4.3005
    9.390    4.6165
    9.405    4.4585
    9.420    4.7569
    9.435    4.5111
    9.450    4.4585
    9.465    4.5989
    9.480    4.4234
    9.495    4.7744
    9.510    4.3181
    9.525    4.6516
    9.540    4.6165
    9.555    4.6516
    9.570    4.7744
    9.585    4.3883
    9.600    4.1425
    9.615    4.5989
    9.630    4.2830
    9.645    4.5111
    9.660    4.2303
    9.675    4.1425
    9.690    4.0197
    9.705    4.4234
    9.720    4.2478
    9.735    4.3181
    9.750    3.9846
    9.765    4.7042
    9.780    4.2478
    9.795    4.2127
    9.810    4.3005
    9.825    4.5814
    9.840    4.1250
    9.855    4.8622
    9.870    4.4058
    9.885    4.4058
    9.900    4.4585
    9.915    4.2127
    9.930    4.1776
    9.945    4.3883
    9.960    4.2303
    9.975    4.1250
    9.990    4.4760
   10.005    4.3883
   10.020    4.2127
   10.035    4.6691
   10.050    4.7042
   10.065    4.2303
   10.080    3.8617
   10.095    4.2303
   10.110    4.3181
   10.125    4.4058
   10.140    3.9846
   10.155    4.3707
   10.170    4.4760
   10.185    4.5287
   10.200    4.5989
   10.215    4.5463
   10.230    4.4058
   10.245    4.1776
   10.260    4.1776
   10.275    4.5638
   10.290    4.7920
   10.305    4.7569
   10.320    4.7393
   10.335    4.5463
   10.350    4.4760
   10.365    4.4058
   10.380    4.4058
   10.395    4.7218
   10.410    4.8973
   10.425    4.6691
   10.440    4.2478
   10.455    4.3883
   10.470    4.6867
   10.485    4.6516
   10.500    4.5638
   10.515    3.9846
   10.530    4.3707
   10.545    4.6165
   10.560    4.3883
   10.575    4.6516
   10.590    4.7744
   10.605    4.4760
   10.620    4.5638
   10.635    4.4409
   10.650    4.1952
   10.665    4.8271
   10.680    4.4936
   10.695    4.8447
   10.710    4.7569
   10.725    4.3883
   10.740    4.4058
   10.755    4.7744
   10.770    4.2303
   10.785    4.3883
   10.800    4.7042
   10.815    4.3356
   10.830    4.6691
   10.845    4.1776
   10.860    4.3356
   10.875    4.7042
   10.890    4.4234
   10.905    4.4760
   10.920    4.9149
   10.935    4.8973
   10.950    4.7042
   10.965    5.1782
   10.980    5.0202
   10.995    4.7042
   11.010    5.0026
   11.025    4.9500
   11.040    4.6165
   11.055    4.4234
   11.070    4.6340
   11.085    4.6691
   11.100    4.4409
   11.115    5.1782
   11.130    5.1606
   11.145    4.3532
   11.160    4.5463
   11.175    4.6516
   11.190    5.0202
   11.205    4.9851
   11.220    4.7920
   11.235    4.7218
   11.250    4.8798
   11.265    4.8973
   11.280    4.4058
   11.295    4.8095
   11.310    5.0728
   11.325    4.5814
   11.340    4.6340
   11.355    4.8271
   11.370    5.0202
   11.385    4.8447
   11.400    4.7569
   11.415    4.7920
   11.430    4.6516
   11.445    4.5463
   11.460    4.7042
   11.475    4.5111
   11.490    4.3883
   11.505    4.8622
   11.520    4.9500
   11.535    4.6867
   11.550    4.6867
   11.565    4.7393
   11.580    4.5814
   11.595    4.8622
   11.610    4.5638
   11.625    4.7042
   11.640    4.7920
   11.655    4.8973
   11.670    4.8622
   11.685    4.4585
   11.700    4.6516
   11.715    4.5111
   11.730    4.8271
   11.745    4.5111
   11.760    4.1250
   11.775    4.5287
   11.790    4.8095
   11.805    4.8095
   11.820    4.4234
   11.835    4.7393
   11.850    4.6340
   11.865    4.5638
   11.880    4.6867
   11.895    4.6340
   11.910    4.4409
   11.925    4.7393
   11.940    4.3707
   11.955    3.8266
   11.970    3.8266
   11.985    4.3532
   12.000    4.6165
   12.015    4.8095
   12.030    4.2127
   12.045    4.0021
   12.060    4.3707
   12.075    4.1952
   12.090    4.3005
   12.105    4.4760
   12.120    4.2303
   12.135    3.9494
   12.150    4.2654
   12.165    4.1776
   12.180    4.1601
   12.195    4.1776
   12.210    4.4936
   12.225    4.4058
   12.240    4.2830
   12.255    4.7393
   12.270    4.6691
   12.285    4.4585
   12.300    4.7393
   12.315    4.4234
   12.330    4.4409
   12.345    4.6165
   12.360    4.1601
   12.375    4.0021
   12.390    4.2303
   12.405    4.3532
   12.420    4.8622
   12.435    4.7042
   12.450    4.5287
   12.465    4.3883
   12.480    4.1952
   12.495    4.3181
   12.510    4.1074
   12.525    4.0899
   12.540    4.4936
   12.555    4.1250
   12.570    4.4585
   12.585    4.5638
   12.600    4.2654
   12.615    3.7739
   12.630    3.9494
   12.645    4.1250
   12.660    4.3707
   12.675    4.3532
   12.690    4.4585
   12.705    4.4585
   12.720    4.2303
   12.735    4.2478
   12.750    4.2303
   12.765    3.9670
   12.780    4.6340
   12.795    4.2303
   12.810    4.3356
   12.825    4.1601
   12.840    4.2303
   12.855    4.0548
   12.870    4.3356
   12.885    4.2303
   12.900    3.9494
   12.915    3.8792
   12.930    4.2654
   12.945    4.4234
   12.960    4.3005
   12.975    4.3532
   12.990    4.5111
   13.005    4.7218
   13.020    4.2478
   13.035    3.7037
   13.050    4.2478
   13.065    4.4760
   13.080    4.4936
   13.095    4.2303
   13.110    4.0723
   13.125    4.6516
   13.140    4.4409
   13.155    4.1074
   13.170    4.3532
   13.185    4.3181
   13.200    4.3707
   13.215    4.1074
   13.230    4.0548
   13.245    4.5814
   13.260    4.5463
   13.275    4.7393
   13.290    4.0197
   13.305    4.5287
   13.320    4.5638
   13.335    4.4234
   13.350    4.0197
   13.365    4.3356
   13.380    3.9143
   13.395    3.8441
   13.410    4.0548
   13.425    4.1776
   13.440    4.1601
   13.455    4.0723
   13.470    4.4234
   13.485    4.7218
   13.500    4.1776
   13.515    3.9670
   13.530    4.0899
   13.545    4.3532
   13.560    4.5287
   13.575    4.4058
   13.590    4.3883
   13.605    4.2830
   13.620    3.9319
   13.635    4.2478
   13.650    4.3707
   13.665    4.4409
   13.680    4.4409
   13.695    4.5287
   13.710    4.3356
   13.725    3.8266
   13.740    4.0021
   13.755    4.4760
   13.770    4.4058
   13.785    4.2830
   13.800    4.4409
   13.815    4.2830
   13.830    4.1425
   13.845    4.4409
   13.860    4.2127
   13.875    4.3883
   13.890    4.6691
   13.905    4.3005
   13.920    3.9143
   13.935    4.2303
   13.950    4.4585
   13.965    3.9143
   13.980    4.3356
   13.995    3.9670
   14.010    4.4409
   14.025    4.3532
   14.040    4.4936
   14.055    4.5814
   14.070    4.2830
   14.085    4.8622
   14.100    4.8973
   14.115    4.5989
   14.130    4.4760
   14.145    4.4760
   14.160    4.9500
   14.175    5.0553
   14.190    4.8095
   14.205    4.6516
   14.220    4.8973
   14.235    4.5111
   14.250    4.8798
   14.265    4.6165
   14.280    4.4585
   14.295    4.6516
   14.310    4.3532
   14.325    4.7920
   14.340    4.3532
   14.355    4.6165
   14.370    4.5814
   14.385    4.7393
   14.400    5.0728
   14.415    5.1080
   14.430    4.7569
   14.445    5.1080
   14.460    4.5989
   14.475    4.2830
   14.490    4.8973
   14.505    4.3356
   14.520    4.6165
   14.535    5.1255
   14.550    5.0728
   14.565    4.7569
   14.580    4.8798
   14.595    4.5111
   14.610    4.5111
   14.625    4.5989
   14.640    4.6165
   14.655    4.4234
   14.670    4.4760
   14.685    4.5814
   14.700    4.5814
   14.715    4.4409
   14.730    4.2830
   14.745    4.2127
   14.760    4.1074
   14.775    4.3707
   14.790    4.1601
   14.805    4.5111
   14.820    4.4936
   14.835    4.3532
   14.850    4.7218
   14.865    4.3707
   14.880    4.5814
   14.895    4.5814
   14.910    4.3005
   14.925    4.6867
   14.940    4.3005
   14.955    3.9846
   14.970    4.4936
   14.985    4.1776
   15.000    4.2830
   15.015    4.0548
   15.030    4.2478
   15.045    4.1776
   15.060    4.0372
   15.075    4.5814
   15.090    4.4760
   15.105    3.9494
   15.120    4.5463
   15.135    4.1425
   15.150    4.1074
   15.165    3.9494
   15.180    4.2127
   15.195    3.8968
   15.210    4.0723
   15.225    3.8266
   15.240    4.1250
   15.255    3.9494
   15.270    3.8441
   15.285    4.0723
   15.300    4.1425
   15.315    4.0197
   15.330    3.9670
   15.345    4.0372
   15.360    4.2303
   15.375    4.4409
   15.390    3.9846
   15.405    3.9319
   15.420    4.0372
   15.435    4.4409
   15.450    4.3707
   15.465    4.0723
   15.480    4.5111
   15.495    4.4409
   15.510    4.1425
   15.525    4.1425
   15.540    4.3181
   15.555    4.2830
   15.570    4.1952
   15.585    3.9670
   15.600    3.9319
   15.615    4.2830
   15.630    4.2127
   15.645    4.0548
   15.660    4.1601
   15.675    4.3005
   15.690    4.4760
   15.705    4.4409
   15.720    4.3005
   15.735    4.0372
   15.750    4.0197
   15.765    4.1952
   15.780    4.1250
   15.795    4.2478
   15.810    4.3532
   15.825    4.3356
   15.840    4.1952
   15.855    4.2478
   15.870    4.2127
   15.885    4.1074
   15.900    4.3181
   15.915    4.1776
   15.930    4.4409
   15.945    4.3356
   15.960    4.3532
   15.975    4.2303
   15.990    4.3356
   16.005    4.2830
   16.020    4.1074
   16.035    4.3181
   16.050    4.2654
   16.065    4.0723
   16.080    4.2127
   16.095    4.0197
   16.110    4.4936
   16.125    4.2478
   16.140    4.0899
   16.155    4.2303
   16.170    4.1776
   16.185    4.3707
   16.200    4.3181
   16.215    3.9319
   16.230    4.2303
   16.245    4.1952
   16.260    4.0899
   16.275    4.2478
   16.290    4.4409
   16.305    4.3356
   16.320    4.0372
   16.335    3.9846
   16.350    4.1074
   16.365    4.0899
   16.380    3.7037
   16.395    3.7564
   16.410    3.9670
   16.425    4.1952
   16.440    4.2303
   16.455    3.8968
   16.470    4.3005
   16.485    4.6165
   16.500    4.2127
   16.515    3.8792
   16.530    4.2654
   16.545    4.0899
   16.560    4.1250
   16.575    4.1425
   16.590    4.2830
   16.605    4.4409
   16.620    4.5814
   16.635    3.9319
   16.650    3.9319
   16.665    4.3883
   16.680    4.5111
   16.695    4.5111
   16.710    4.2830
   16.725    4.0899
   16.740    4.1952
   16.755    4.3707
   16.770    3.8090
   16.785    4.5463
   16.800    4.3883
   16.815    3.9846
   16.830    3.8441
   16.845    4.0197
   16.860    4.2303
   16.875    4.3181
   16.890    4.3356
   16.905    4.3532
   16.920    4.1425
   16.935    4.3356
   16.950    4.2127
   16.965    3.9670
   16.980    4.0372
   16.995    4.3181
   17.010    4.2303
   17.025    4.2654
   17.040    3.9494
   17.055    3.8266
   17.070    4.1074
   17.085    4.4234
   17.100    4.0548
   17.115    4.0197
   17.130    4.2303
   17.145    4.3532
   17.160    3.9319
   17.175    4.4409
   17.190    4.2654
   17.205    4.1601
   17.220    4.5989
   17.235    4.5287
   17.250    4.1425
   17.265    4.2127
   17.280    3.8968
   17.295    4.1250
   17.310    4.0723
   17.325    3.9319
   17.340    4.3356
   17.355    4.0548
   17.370    4.0899
   17.385    3.7213
   17.400    3.7388
   17.415    3.3877
   17.430    4.0197
   17.445    4.1074
   17.460    3.8968
   17.475    3.7915
   17.490    3.9143
   17.505    3.7739
   17.520    3.8968
   17.535    4.3005
   17.550    4.1250
   17.565    4.1074
   17.580    3.9143
   17.595    4.1425
   17.610    4.0372
   17.625    4.2478
   17.640    4.0723
   17.655    4.1074
   17.670    3.9494
   17.685    4.3181
   17.700    4.4760
   17.715    4.5287
   17.730    4.2127
   17.745    3.7213
   17.760    3.5457
   17.775    3.8792
   17.790    3.9846
   17.805    4.0723
   17.820    4.0899
   17.835    3.8968
   17.850    3.8792
   17.865    3.8792
   17.880    3.8792
   17.895    3.8266
   17.910    3.9319
   17.925    4.0372
   17.940    4.0899
   17.955    4.3883
   17.970    3.9494
   17.985    4.1425
   18.000    3.7915
   18.015    4.1074
   18.030    4.0548
   18.045    4.1601
   18.060    3.8090
   18.075    4.3883
   18.090    4.2127
   18.105    4.3181
   18.120    3.8266
   18.135    3.9319
   18.150    3.8968
   18.165    3.9846
   18.180    4.0197
   18.195    3.8090
   18.210    4.1250
   18.225    4.1250
   18.240    3.7564
   18.255    3.6686
   18.270    3.9143
   18.285    4.0723
   18.300    4.1776
   18.315    4.6165
   18.330    4.2478
   18.345    4.1250
   18.360    4.0197
   18.375    4.0197
   18.390    3.7564
   18.405    3.9494
   18.420    3.9846
   18.435    3.8968
   18.450    3.8090
   18.465    3.9670
   18.480    3.8090
   18.495    4.0723
   18.510    4.5111
   18.525    4.5287
   18.540    4.1425
   18.555    3.9494
   18.570    3.7739
   18.585    4.3005
   18.600    4.0723
   18.615    4.0021
   18.630    3.7213
   18.645    3.9670
   18.660    4.1601
   18.675    4.1952
   18.690    3.7037
   18.705    3.6686
   18.720    3.9670
   18.735    3.7037
   18.750    3.8266
   18.765    3.8441
   18.780    4.0021
   18.795    4.2830
   18.810    3.8266
   18.825    3.9319
   18.840    3.6686
   18.855    4.1250
   18.870    3.9670
   18.885    4.2478
   18.900    4.3532
   18.915    4.4585
   18.930    4.1601
   18.945    4.5287
   18.960    4.7744
   18.975    4.7569
   18.990    4.8447
   19.005    4.5111
   19.020    4.4936
   19.035    4.2127
   19.050    4.0899
   19.065    4.5111
   19.080    3.7915
   19.095    4.0021
   19.110    4.0021
   19.125    4.1425
   19.140    4.0899
   19.155    3.8792
   19.170    4.2654
   19.185    3.7213
   19.200    3.8617
   19.215    3.9319
   19.230    3.7564
   19.245    3.7915
   19.260    3.8266
   19.275    3.5633
   19.290    3.8968
   19.305    4.0372
   19.320    4.0899
   19.335    3.9319
   19.350    3.6862
   19.365    3.6159
   19.380    3.6510
   19.395    3.6510
   19.410    3.5808
   19.425    3.9494
   19.440    4.3005
   19.455    3.8090
   19.470    3.7213
   19.485    3.8617
   19.500    4.2303
   19.515    4.1952
   19.530    3.7213
   19.545    3.7915
   19.560    3.7739
   19.575    3.8968
   19.590    4.0548
   19.605    4.1601
   19.620    3.8968
   19.635    3.8266
   19.650    3.6335
   19.665    3.8968
   19.680    3.9319
   19.695    3.9319
   19.710    4.0021
   19.725    3.8266
   19.740    3.6510
   19.755    3.5633
   19.770    3.6159
   19.785    3.4580
   19.800    3.6335
   19.815    3.7388
   19.830    4.3181
   19.845    3.9494
   19.860    4.0723
   19.875    3.8792
   19.890    3.9494
   19.905    3.5984
   19.920    3.8090
   19.935    3.6510
   19.950    3.9319
   19.965    3.9670
   19.980    3.7915
   19.995    3.9143
   20.010    3.9846
   20.025    3.9846
   20.040    3.8441
   20.055    3.6335
   20.070    3.5106
   20.085    3.9143
   20.100    3.5808
   20.115    3.5106
   20.130    4.0372
   20.145    4.0197
   20.160    3.5633
   20.175    3.6686
   20.190    3.9494
   20.205    3.6159
   20.220    3.5457
   20.235    3.7213
   20.250    3.6510
   20.265    3.7037
   20.280    3.5282
   20.295    3.6159
   20.310    3.4404
   20.325    3.8266
   20.340    3.8968
   20.355    3.6862
   20.370    3.7915
   20.385    3.4931
   20.400    3.6510
   20.415    3.5808
   20.430    3.3526
   20.445    3.3175
   20.460    3.5457
   20.475    3.7739
   20.490    3.8090
   20.505    3.7213
   20.520    3.7564
   20.535    3.5633
   20.550    3.6159
   20.565    4.0021
   20.580    3.6510
   20.595    3.8090
   20.610    3.4404
   20.625    3.5984
   20.640    3.7564
   20.655    3.6686
   20.670    3.4755
   20.685    3.6862
   20.700    3.9143
   20.715    4.0548
   20.730    3.6510
   20.745    3.6862
   20.760    3.5984
   20.775    3.2122
   20.790    3.3702
   20.805    3.5633
   20.820    3.5808
   20.835    3.6510
   20.850    3.6862
   20.865    3.5282
   20.880    3.9494
   20.895    3.4404
   20.910    3.5633
   20.925    3.6159
   20.940    3.5633
   20.955    3.1947
   20.970    3.2824
   20.985    3.3351
   21.000    3.3877
   21.015    3.8792
   21.030    3.3526
   21.045    3.3526
   21.060    3.6862
   21.075    3.8968
   21.090    3.8617
   21.105    3.6510
   21.120    3.5984
   21.135    3.1420
   21.150    3.5633
   21.165    3.6862
   21.180    3.7037
   21.195    3.5633
   21.210    3.4404
   21.225    3.3351
   21.240    3.3351
   21.255    3.7388
   21.270    4.0548
   21.285    3.5282
   21.300    3.9670
   21.315    3.5106
   21.330    3.5984
   21.345    3.8968
   21.360    3.6159
   21.375    3.6335
   21.390    3.6862
   21.405    3.5984
   21.420    3.7739
   21.435    3.3000
   21.450    3.3000
   21.465    3.5106
   21.480    3.7739
   21.495    3.6159
   21.510    3.5106
   21.525    3.6159
   21.540    3.9143
   21.555    3.8792
   21.570    3.5282
   21.585    3.8266
   21.600    3.6686
   21.615    3.3175
   21.630    3.6335
   21.645    3.3351
   21.660    3.4755
   21.675    3.6862
   21.690    3.7213
   21.705    3.3877
   21.720    3.5106
   21.735    3.4580
   21.750    3.5106
   21.765    3.6159
   21.780    3.2298
   21.795    3.6510
   21.810    3.5984
   21.825    3.7915
   21.840    3.8617
   21.855    3.1069
   21.870    3.4580
   21.885    3.4931
   21.900    3.4931
   21.915    3.7037
   21.930    4.4585
   21.945    3.6335
   21.960    3.5282
   21.975    3.5282
   21.990    3.4053
   22.005    3.7739
   22.020    3.4580
   22.035    3.3702
   22.050    3.6159
   22.065    3.6159
   22.080    3.7213
   22.095    3.7739
   22.110    3.5106
   22.125    3.7564
   22.140    3.4755
   22.155    3.2473
   22.170    3.4755
   22.185    3.2649
   22.200    3.2298
   22.215    3.3000
   22.230    3.4404
   22.245    3.6335
   22.260    3.4755
   22.275    3.3175
   22.290    3.1771
   22.305    3.3702
   22.320    3.4755
   22.335    3.3526
   22.350    3.4229
   22.365    3.4404
   22.380    3.3877
   22.395    3.3877
   22.410    3.1771
   22.425    3.7037
   22.440    3.2649
   22.455    3.4931
   22.470    3.6159
   22.485    3.4404
   22.500    3.4229
   22.515    3.1245
   22.530    3.3702
   22.545    3.3877
   22.560    3.4755
   22.575    3.5106
   22.590    3.7564
   22.605    3.5984
   22.620    3.2649
   22.635    3.3526
   22.650    3.2298
   22.665    3.3175
   22.680    3.6862
   22.695    3.6686
   22.710    3.3175
   22.725    3.1420
   22.740    3.5457
   22.755    3.4404
   22.770    3.2473
   22.785    3.3000
   22.800    3.4755
   22.815    3.3702
   22.830    3.2824
   22.845    3.7388
   22.860    3.3702
   22.875    3.4580
   22.890    3.5282
   22.905    3.4053
   22.920    3.3877
   22.935    3.3702
   22.950    3.4755
   22.965    3.3000
   22.980    2.8963
   22.995    3.1420
   23.010    3.4755
   23.025    3.3877
   23.040    3.2298
   23.055    3.3877
   23.070    3.4755
   23.085    3.2824
   23.100    3.4053
   23.115    3.5984
   23.130    3.6159
   23.145    3.8441
   23.160    3.7037
   23.175    3.3351
   23.190    3.4755
   23.205    3.3877
   23.220    3.3000
   23.235    3.1420
   23.250    3.1771
   23.265    3.1596
   23.280    2.8787
   23.295    3.3000
   23.310    3.6686
   23.325    3.3175
   23.340    3.0367
   23.355    3.1245
   23.370    3.3000
   23.385    3.0016
   23.400    3.3175
   23.415    3.2473
   23.430    3.4053
   23.445    3.0191
   23.460    3.2122
   23.475    3.0893
   23.490    3.0016
   23.505    3.1771
   23.520    3.2649
   23.535    3.4931
   23.550    3.1596
   23.565    3.4931
   23.580    3.3877
   23.595    3.3877
   23.610    3.3526
   23.625    3.0893
   23.640    3.2298
   23.655    3.2298
   23.670    2.9314
   23.685    3.0718
   23.700    3.0718
   23.715    3.0893
   23.730    3.2824
   23.745    2.6330
   23.760    3.0542
   23.775    3.4404
   23.790    3.2122
   23.805    3.2122
   23.820    3.2824
   23.835    2.8787
   23.850    2.8085
   23.865    2.8085
   23.880    3.0367
   23.895    3.0718
   23.910    3.0367
   23.925    3.5106
   23.940    3.3526
   23.955    3.2473
   23.970    3.3702
   23.985    3.5282
   24.000    2.9138
   24.015    3.2824
   24.030    3.2649
   24.045    3.0718
   24.060    2.8787
   24.075    3.2122
   24.090    3.1947
   24.105    3.0718
   24.120    3.4404
   24.135    2.6505
   24.150    3.1069
   24.165    3.0893
   24.180    2.7383
   24.195    2.7558
   24.210    2.8963
   24.225    2.8612
   24.240    2.9138
   24.255    3.0542
   24.270    2.8085
   24.285    2.9840
   24.300    2.7558
   24.315    2.8787
   24.330    3.2824
   24.345    2.8085
   24.360    3.0718
   24.375    3.5106
   24.390    3.2473
   24.405    2.8963
   24.420    3.1245
   24.435    2.8963
   24.450    2.8612
   24.465    3.0718
   24.480    2.9314
   24.495    3.1245
   24.510    3.0016
   24.525    2.7734
   24.540    3.0367
   24.555    3.2122
   24.570    2.9665
   24.585    3.1420
   24.600    3.0718
   24.615    2.8963
   24.630    2.9138
   24.645    2.8085
   24.660    3.3000
   24.675    3.0718
   24.690    2.8612
   24.705    3.0367
   24.720    2.9489
   24.735    3.3175
   24.750    2.8612
   24.765    2.7383
   24.780    2.7032
   24.795    3.1069
   24.810    3.2298
   24.825    3.0718
   24.840    2.8260
   24.855    2.5803
   24.870    2.9665
   24.885    2.9840
   24.900    2.9489
   24.915    2.7207
   24.930    2.8436
   24.945    2.9314
   24.960    2.9138
   24.975    2.8436
   24.990    3.0016
   25.005    2.7032
   25.020    3.1069
   25.035    2.6681
   25.050    2.6330
   25.065    2.6505
   25.080    3.3702
   25.095    3.2473
   25.110    2.9314
   25.125    2.8260
   25.140    2.9138
   25.155    3.1245
   25.170    2.7909
   25.185    3.3702
   25.200    2.9665
   25.215    2.8612
   25.230    2.7558
   25.245    2.8963
   25.260    3.0016
   25.275    2.8787
   25.290    2.9314
   25.305    2.7909
   25.320    2.8787
   25.335    3.0893
   25.350    2.7383
   25.365    2.8787
   25.380    3.2824
   25.395    3.0893
   25.410    2.9489
   25.425    2.6330
   25.440    2.8085
   25.455    3.2649
   25.470    3.2122
   25.485    3.1420
   25.500    3.1420
   25.515    2.9138
   25.530    2.8085
   25.545    2.8963
   25.560    3.0718
   25.575    3.2824
   25.590    2.8436
   25.605    2.8436
   25.620    2.8260
   25.635    3.0367
   25.650    3.1069
   25.665    3.2298
   25.680    2.9840
   25.695    2.9489
   25.710    3.1069
   25.725    2.9138
   25.740    2.7909
   25.755    2.8612
   25.770    2.9489
   25.785    2.8963
   25.800    3.0718
   25.815    3.0367
   25.830    2.9665
   25.845    2.9489
   25.860    2.8963
   25.875    2.8436
   25.890    2.7032
   25.905    2.7909
   25.920    2.9314
   25.935    2.9840
   25.950    2.9840
   25.965    2.6856
   25.980    2.7383
   25.995    3.0016
   26.010    2.9314
   26.025    2.8260
   26.040    3.0893
   26.055    3.0542
   26.070    2.9138
   26.085    2.6856
   26.100    2.5276
   26.115    2.5628
   26.130    2.8963
   26.145    2.7032
   26.160    2.9840
   26.175    2.6681
   26.190    2.8612
   26.205    2.8436
   26.220    2.5276
   26.235    2.8612
   26.250    2.7909
   26.265    2.7558
   26.280    2.7207
   26.295    2.5276
   26.310    2.9489
   26.325    3.2298
   26.340    3.5106
   26.355    3.1771
   26.370    2.8085
   26.385    2.5803
   26.400    2.9138
   26.415    3.1596
   26.430    2.6330
   26.445    3.1596
   26.460    2.9489
   26.475    2.8612
   26.490    2.8436
   26.505    3.0542
   26.520    2.7207
   26.535    3.0367
   26.550    2.6856
   26.565    2.8260
   26.580    2.8436
   26.595    2.9840
   26.610    2.8085
   26.625    2.8260
   26.640    2.7558
   26.655    2.9314
   26.670    2.6330
   26.685    2.3872
   26.700    2.7207
   26.715    2.6681
   26.730    2.3872
   26.745    2.5452
   26.760    2.6330
   26.775    2.7207
   26.790    2.5101
   26.805    2.3170
   26.820    2.5101
   26.835    2.9138
   26.850    2.7207
   26.865    2.6330
   26.880    2.8787
   26.895    3.0016
   26.910    2.6856
   26.925    2.9840
   26.940    2.7032
   26.955    2.4399
   26.970    2.5803
   26.985    2.9489
   27.000    2.4925
   27.015    2.7909
   27.030    2.7734
   27.045    3.0718
   27.060    3.0016
   27.075    2.8260
   27.090    2.8963
   27.105    2.7558
   27.120    2.5276
   27.135    2.4574
   27.150    2.5803
   27.165    2.8612
   27.180    2.5979
   27.195    2.7032
   27.210    2.4925
   27.225    2.3170
   27.240    2.2643
   27.255    2.5979
   27.270    2.7207
   27.285    2.7207
   27.300    2.5452
   27.315    2.6505
   27.330    2.3872
   27.345    2.4574
   27.360    2.3521
   27.375    2.3697
   27.390    2.6154
   27.405    2.5803
   27.420    2.5101
   27.435    2.6154
   27.450    2.2643
   27.465    2.4223
   27.480    2.4574
   27.495    2.5979
   27.510    2.7207
   27.525    2.5101
   27.540    2.8787
   27.555    2.7558
   27.570    2.7207
   27.585    2.4574
   27.600    2.6330
   27.615    2.6856
   27.630    2.4223
   27.645    2.7383
   27.660    2.3521
   27.675    2.3697
   27.690    2.5803
   27.705    2.4925
   27.720    2.3872
   27.735    2.5803
   27.750    2.2819
   27.765    2.5979
   27.780    2.7032
   27.795    2.5452
   27.810    2.5452
   27.825    2.8787
   27.840    2.6505
   27.855    2.6154
   27.870    2.6154
   27.885    2.4750
   27.900    2.4750
   27.915    2.7383
   27.930    2.3872
   27.945    2.6154
   27.960    2.7909
   27.975    3.0542
   27.990    3.1947
   28.005    3.2473
   28.020    2.9489
   28.035    3.1245
   28.050    2.8260
   28.065    2.4048
   28.080    2.4574
   28.095    2.4048
   28.110    2.1064
   28.125    2.3170
   28.140    2.2643
   28.155    2.2117
   28.170    2.1415
   28.185    2.6856
   28.200    2.5979
   28.215    2.5803
   28.230    2.4048
   28.245    2.0713
   28.260    2.2643
   28.275    2.2468
   28.290    2.4574
   28.305    2.4399
   28.320    2.1941
   28.335    2.4048
   28.350    2.4399
   28.365    2.2292
   28.380    2.2819
   28.395    2.3521
   28.410    2.4399
   28.425    2.4048
   28.440    2.9138
   28.455    2.5628
   28.470    2.4399
   28.485    2.2995
   28.500    2.1064
   28.515    2.4223
   28.530    2.1590
   28.545    2.5101
   28.560    2.4399
   28.575    2.4925
   28.590    2.8085
   28.605    2.5628
   28.620    2.4399
   28.635    2.5101
   28.650    2.3872
   28.665    2.3346
   28.680    2.3170
   28.695    2.5101
   28.710    2.6681
   28.725    2.5276
   28.740    2.5803
   28.755    2.9314
   28.770    2.4399
   28.785    2.2819
   28.800    2.5803
   28.815    2.5276
   28.830    2.7207
   28.845    2.5628
   28.860    2.4574
   28.875    2.4223
   28.890    2.4399
   28.905    2.5803
   28.920    2.5628
   28.935    2.8085
   28.950    3.1420
   28.965    3.4053
   28.980    3.1596
   28.995    2.8436
   29.010    2.5803
   29.025    2.6505
   29.040    2.4048
   29.055    2.3346
   29.070    2.7909
   29.085    2.7558
   29.100    2.5628
   29.115    2.6154
   29.130    2.3346
   29.145    2.5628
   29.160    2.6154
   29.175    2.0186
   29.190    2.2117
   29.205    2.2643
   29.220    2.5452
   29.235    2.4574
   29.250    2.4925
   29.265    2.3346
   29.280    2.4750
   29.295    2.4574
   29.310    2.1941
   29.325    2.4925
   29.340    2.1239
   29.355    2.2117
   29.370    2.3872
   29.385    2.3872
   29.400    2.2292
   29.415    2.1064
   29.430    2.3521
   29.445    2.1941
   29.460    2.1064
   29.475    2.3346
   29.490    2.0186
   29.505    2.1239
   29.520    2.1415
   29.535    2.2819
   29.550    2.1590
   29.565    2.1064
   29.580    2.0713
   29.595    2.1941
   29.610    2.2117
   29.625    2.2819
   29.640    1.9133
   29.655    2.1239
   29.670    2.1766
   29.685    2.2117
   29.700    2.1590
   29.715    2.1239
   29.730    1.8782
   29.745    1.9484
   29.760    1.9835
   29.775    1.8431
   29.790    2.1239
   29.805    2.2819
   29.820    2.1415
   29.835    2.3697
   29.850    2.3697
   29.865    2.1590
   29.880    2.2292
   29.895    2.3521
   29.910    1.7553
   29.925    2.1415
   29.940    2.1415
   29.955    2.2643
   29.970    2.1239
   29.985    2.2468
   30.000    2.1590
   30.015    1.8957
   30.030    2.0011
   30.045    2.1064
   30.060    2.0362
   30.075    1.9484
   30.090    2.4574
   30.105    2.5276
   30.120    2.2292
   30.135    2.2995
   30.150    2.0186
   30.165    2.2292
   30.180    2.1590
   30.195    2.3346
   30.210    2.1239
   30.225    1.9484
   30.240    2.0888
   30.255    2.2468
   30.270    2.0713
   30.285    2.0888
   30.300    2.1590
   30.315    1.9659
   30.330    2.0011
   30.345    2.0186
   30.360    2.1239
   30.375    1.9659
   30.390    2.1415
   30.405    2.1590
   30.420    2.1064
   30.435    2.0888
   30.450    2.1239
   30.465    1.9133
   30.480    1.8957
   30.495    2.1415
   30.510    2.1064
   30.525    2.2819
   30.540    2.2819
   30.555    2.1415
   30.570    2.1239
   30.585    2.2643
   30.600    2.1415
   30.615    2.0537
   30.630    1.8080
   30.645    2.0888
   30.660    1.8080
   30.675    2.1590
   30.690    1.8782
   30.705    2.0186
   30.720    2.1415
   30.735    2.0888
   30.750    2.1415
   30.765    2.1766
   30.780    2.0186
   30.795    1.9835
   30.810    1.9659
   30.825    2.0362
   30.840    2.0713
   30.855    2.2117
   30.870    2.3346
   30.885    2.2643
   30.900    2.0011
   30.915    1.9484
   30.930    1.9484
   30.945    2.0011
   30.960    2.0713
   30.975    1.8431
   30.990    1.8080
   31.005    2.0362
   31.020    2.0713
   31.035    1.8255
   31.050    2.0537
   31.065    2.1590
   31.080    2.0713
   31.095    1.9659
   31.110    2.0362
   31.125    1.9484
   31.140    2.1064
   31.155    2.1766
   31.170    2.1239
   31.185    1.8957
   31.200    1.8957
   31.215    1.8957
   31.230    1.9659
   31.245    2.1415
   31.260    1.9835
   31.275    1.6500
   31.290    1.8255
   31.305    1.9659
   31.320    1.8606
   31.335    2.0888
   31.350    1.7378
   31.365    2.0888
   31.380    1.8957
   31.395    2.1064
   31.410    1.9308
   31.425    2.1239
   31.440    2.0713
   31.455    1.9484
   31.470    2.0011
   31.485    1.8606
   31.500    1.8782
   31.515    2.0362
   31.530    1.9133
   31.545    1.8431
   31.560    2.0186
   31.575    1.7378
   31.590    1.7202
   31.605    1.6675
   31.620    1.7729
   31.635    1.9308
   31.650    1.9484
   31.665    1.9308
   31.680    2.0011
   31.695    1.7027
   31.710    2.1941
   31.725    2.0186
   31.740    2.0713
   31.755    2.0537
   31.770    2.3170
   31.785    2.4574
   31.800    2.2995
   31.815    2.1239
   31.830    2.3346
   31.845    2.2995
   31.860    2.0537
   31.875    1.8255
   31.890    2.0011
   31.905    1.8255
   31.920    2.0537
   31.935    1.8782
   31.950    1.8606
   31.965    1.9484
   31.980    1.8255
   31.995    2.1239
   32.010    2.1766
   32.025    2.1590
   32.040    2.2995
   32.055    2.8085
   32.070    3.4931
   32.085    3.4404
   32.100    3.7037
   32.115    3.5106
   32.130    2.7383
   32.145    2.7207
   32.160    2.4223
   32.175    1.9484
   32.190    1.8080
   32.205    1.7729
   32.220    1.9308
   32.235    2.1064
   32.250    1.7904
   32.265    1.8080
   32.280    1.7027
   32.295    1.7904
   32.310    1.5096
   32.325    1.6851
   32.340    1.6500
   32.355    1.8080
   32.370    1.8606
   32.385    1.7027
   32.400    1.7729
   32.415    1.8255
   32.430    1.8255
   32.445    1.8255
   32.460    1.8080
   32.475    1.8431
   32.490    1.7027
   32.505    1.5271
   32.520    1.5271
   32.535    1.6851
   32.550    1.9835
   32.565    1.6851
   32.580    1.9308
   32.595    1.8957
   32.610    1.7202
   32.625    1.6324
   32.640    1.9308
   32.655    1.8255
   32.670    1.6500
   32.685    1.8606
   32.700    1.5447
   32.715    1.6149
   32.730    1.5798
   32.745    1.4920
   32.760    1.3165
   32.775    1.7378
   32.790    1.5622
   32.805    1.4745
   32.820    1.7553
   32.835    1.5271
   32.850    1.7553
   32.865    1.8606
   32.880    1.7202
   32.895    1.7027
   32.910    1.6149
   32.925    1.5271
   32.940    1.7202
   32.955    1.6851
   32.970    1.5622
   32.985    1.7904
   33.000    1.7027
   33.015    1.4218
   33.030    1.7202
   33.045    1.4920
   33.060    1.8080
   33.075    1.6851
   33.090    1.8606
   33.105    1.8255
   33.120    1.7553
   33.135    1.5973
   33.150    1.8255
   33.165    1.9484
   33.180    1.7904
   33.195    1.7904
   33.210    2.0888
   33.225    1.7904
   33.240    1.8431
   33.255    1.4569
   33.270    1.7904
   33.285    1.6851
   33.300    1.5798
   33.315    1.7729
   33.330    1.8957
   33.345    1.6851
   33.360    1.7378
   33.375    1.4745
   33.390    1.7553
   33.405    1.6500
   33.420    1.9133
   33.435    1.6851
   33.450    1.9659
   33.465    1.6149
   33.480    1.8606
   33.495    1.8255
   33.510    1.5096
   33.525    1.5973
   33.540    1.7202
   33.555    1.6500
   33.570    1.7729
   33.585    1.7202
   33.600    1.5271
   33.615    1.4920
   33.630    1.6500
   33.645    1.5447
   33.660    1.7729
   33.675    1.8606
   33.690    1.6851
   33.705    1.5096
   33.720    1.6324
   33.735    1.6851
   33.750    1.6324
   33.765    1.5271
   33.780    1.7904
   33.795    2.1239
   33.810    2.0362
   33.825    2.1064
   33.840    2.1239
   33.855    2.2819
   33.870    1.7202
   33.885    1.9659
   33.900    1.7027
   33.915    1.3516
   33.930    1.4394
   33.945    1.9484
   33.960    1.7729
   33.975    1.6675
   33.990    1.4394
   34.005    1.5973
   34.020    1.5447
   34.035    1.5271
   34.050    1.3516
   34.065    1.4569
   34.080    1.6675
   34.095    1.8957
   34.110    1.4569
   34.125    1.7202
   34.140    1.6500
   34.155    1.5447
   34.170    1.6675
   34.185    1.6851
   34.200    1.5447
   34.215    1.6500
   34.230    1.7027
   34.245    1.7027
   34.260    1.7202
   34.275    1.5271
   34.290    1.5447
   34.305    1.5973
   34.320    1.6149
   34.335    1.4745
   34.350    1.4920
   34.365    1.5798
   34.380    1.7378
   34.395    1.5447
   34.410    1.5622
   34.425    1.1936
   34.440    1.7202
   34.455    1.6149
   34.470    1.5622
   34.485    1.7202
   34.500    1.4569
   34.515    1.5973
   34.530    1.6675
   34.545    1.4745
   34.560    1.4394
   34.575    1.5973
   34.590    1.6149
   34.605    1.7027
   34.620    1.8782
   34.635    1.8255
   34.650    1.8080
   34.665    1.2112
   34.680    1.7202
   34.695    1.5798
   34.710    1.6324
   34.725    1.7202
   34.740    1.6500
   34.755    1.7202
   34.770    1.6500
   34.785    1.5798
   34.800    1.5622
   34.815    1.6675
   34.830    1.3867
   34.845    1.6851
   34.860    1.9835
   34.875    1.6500
   34.890    1.9133
   34.905    1.5798
   34.920    1.3165
   34.935    1.3165
   34.950    1.6675
   34.965    1.7729
   34.980    1.6851
   34.995    1.5973
   35.010    1.5973
   35.025    1.7729
   35.040    1.4218
   35.055    1.5798
   35.070    1.6149
   35.085    1.5622
   35.100    1.4394
   35.115    1.3165
   35.130    1.5271
   35.145    1.5096
   35.160    1.6675
   35.175    1.5973
   35.190    1.7553
   35.205    1.5973
   35.220    1.4569
   35.235    1.5096
   35.250    1.5096
   35.265    1.7553
   35.280    2.1064
   35.295    1.8782
   35.310    1.5798
   35.325    1.6500
   35.340    1.7378
   35.355    1.5447
   35.370    1.6675
   35.385    1.5973
   35.400    1.3691
   35.415    1.5271
   35.430    1.8957
   35.445    1.7904
   35.460    1.8957
   35.475    1.6851
   35.490    1.5447
   35.505    1.4042
   35.520    1.5973
   35.535    1.6149
   35.550    1.6851
   35.565    1.6500
   35.580    1.4569
   35.595    1.6149
   35.610    1.3165
   35.625    1.4394
   35.640    1.7729
   35.655    1.7378
   35.670    1.6851
   35.685    1.4920
   35.700    1.5447
   35.715    1.5096
   35.730    1.5447
   35.745    1.5096
   35.760    1.2638
   35.775    1.4569
   35.790    1.6149
   35.805    1.5447
   35.820    1.4394
   35.835    1.3867
   35.850    1.4920
   35.865    1.6149
   35.880    1.4394
   35.895    1.3867
   35.910    1.6500
   35.925    1.7027
   35.940    1.5447
   35.955    1.7378
   35.970    1.7729
   35.985    1.6324
   36.000    1.7027
   36.015    1.7729
   36.030    1.4218
   36.045    1.5798
   36.060    1.2814
   36.075    1.5798
   36.090    1.8255
   36.105    1.5798
   36.120    1.4394
   36.135    1.4394
   36.150    1.3165
   36.165    1.5798
   36.180    1.6675
   36.195    1.4569
   36.210    1.4920
   36.225    1.7027
   36.240    1.6324
   36.255    1.4218
   36.270    1.6149
   36.285    1.5271
   36.300    1.5271
   36.315    1.5798
   36.330    1.5622
   36.345    1.5447
   36.360    1.5271
   36.375    1.5622
   36.390    1.4569
   36.405    1.6149
   36.420    1.3691
   36.435    1.5798
   36.450    1.6149
   36.465    1.4569
   36.480    1.7729
   36.495    1.7729
   36.510    1.4920
   36.525    1.4920
   36.540    1.7378
   36.555    1.5271
   36.570    1.6675
   36.585    1.4218
   36.600    1.6500
   36.615    1.5973
   36.630    1.6500
   36.645    1.5447
   36.660    1.4745
   36.675    1.6851
   36.690    1.7553
   36.705    1.8782
   36.720    1.6675
   36.735    1.6149
   36.750    1.5798
   36.765    1.6500
   36.780    1.7729
   36.795    1.5096
   36.810    1.4745
   36.825    1.2287
   36.840    1.4745
   36.855    1.5447
   36.870    1.5447
   36.885    1.6149
   36.900    1.6149
   36.915    1.6851
   36.930    1.5096
   36.945    1.1761
   36.960    1.2463
   36.975    1.4394
   36.990    1.4745
   37.005    1.5271
   37.020    1.3691
   37.035    1.5447
   37.050    1.3691
   37.065    1.6324
   37.080    1.4745
   37.095    1.5096
   37.110    1.5271
   37.125    1.6675
   37.140    1.6500
   37.155    1.6324
   37.170    1.4920
   37.185    1.5622
   37.200    1.5447
   37.215    1.3516
   37.230    1.5271
   37.245    1.5271
   37.260    1.5447
   37.275    1.6149
   37.290    1.5622
   37.305    1.6675
   37.320    1.7378
   37.335    1.5622
   37.350    1.5271
   37.365    1.5271
   37.380    1.4394
   37.395    1.5973
   37.410    1.5096
   37.425    1.6500
   37.440    1.4569
   37.455    1.5096
   37.470    1.3867
   37.485    1.6324
   37.500    1.5447
   37.515    1.4042
   37.530    1.6149
   37.545    1.4218
   37.560    1.4745
   37.575    1.7553
   37.590    1.4569
   37.605    1.3340
   37.620    1.6149
   37.635    1.4218
   37.650    1.5447
   37.665    1.7027
   37.680    1.4569
   37.695    1.3691
   37.710    1.5973
   37.725    1.5798
   37.740    1.5798
   37.755    1.6324
   37.770    1.6675
   37.785    1.5447
   37.800    1.4920
   37.815    1.4042
   37.830    1.4394
   37.845    1.3165
   37.860    1.5798
   37.875    1.5622
   37.890    1.3516
   37.905    1.2463
   37.920    1.3516
   37.935    1.6851
   37.950    1.5798
   37.965    1.7553
   37.980    1.2463
   37.995    1.4218
   38.010    1.4218
   38.025    1.2463
   38.040    1.4920
   38.055    1.4569
   38.070    1.6675
   38.085    1.7904
   38.100    1.5622
   38.115    1.5622
   38.130    1.4218
   38.145    1.5447
   38.160    1.4394
   38.175    1.6851
   38.190    1.7553
   38.205    1.5096
   38.220    1.4745
   38.235    1.6675
   38.250    1.4218
   38.265    1.2989
   38.280    1.5271
   38.295    1.6324
   38.310    1.7553
   38.325    1.5973
   38.340    1.7378
   38.355    1.3867
   38.370    1.4745
   38.385    1.5271
   38.400    1.4745
   38.415    1.4042
   38.430    1.6500
   38.445    1.6149
   38.460    1.5447
   38.475    1.3691
   38.490    1.3691
   38.505    1.6851
   38.520    1.4920
   38.535    1.5622
   38.550    1.7027
   38.565    1.4569
   38.580    1.5447
   38.595    1.7553
   38.610    1.8255
   38.625    1.7378
   38.640    1.6149
   38.655    1.5973
   38.670    1.3340
   38.685    1.3691
   38.700    1.3691
   38.715    1.4920
   38.730    1.3867
   38.745    1.3516
   38.760    1.2463
   38.775    1.3516
   38.790    1.3516
   38.805    1.2814
   38.820    1.4394
   38.835    1.3867
   38.850    1.6324
   38.865    1.2814
   38.880    1.3516
   38.895    1.4745
   38.910    1.1936
   38.925    1.4218
   38.940    1.4394
   38.955    1.4042
   38.970    1.6500
   38.985    1.7202
   39.000    1.7027
   39.015    1.5271
   39.030    1.4569
   39.045    1.2638
   39.060    1.3340
   39.075    1.6149
   39.090    1.3516
   39.105    1.4745
   39.120    1.4218
   39.135    1.3691
   39.150    1.5096
   39.165    1.4218
   39.180    1.4394
   39.195    1.2112
   39.210    1.1410
   39.225    1.4042
   39.240    1.4745
   39.255    1.5271
   39.270    1.5973
   39.285    1.4218
   39.300    1.4569
   39.315    1.5447
   39.330    1.5271
   39.345    1.5096
   39.360    1.4920
   39.375    1.4745
   39.390    1.3691
   39.405    1.2287
   39.420    1.6324
   39.435    1.5447
   39.450    1.5447
   39.465    1.2638
   39.480    1.3691
   39.495    1.5798
   39.510    1.5622
   39.525    1.4042
   39.540    1.2287
   39.555    1.2814
   39.570    1.3516
   39.585    1.5447
   39.600    1.5622
   39.615    1.4042
   39.630    1.1410
   39.645    1.5447
   39.660    1.7027
   39.675    1.3867
   39.690    1.2989
   39.705    1.7202
   39.720    1.4394
   39.735    1.4394
   39.750    1.2989
   39.765    1.3340
   39.780    1.5096
   39.795    1.4745
   39.810    1.5096
   39.825    1.5096
   39.840    1.4042
   39.855    1.3691
   39.870    1.3165
   39.885    1.4745
   39.900    1.2638
   39.915    1.4920
   39.930    1.4218
   39.945    1.4569
   39.960    1.3165
   39.975    1.4218
   39.990    1.1585
