    1.500   18.3044
    1.515   18.1359
    1.530   18.4623
    1.545   18.2938
    1.560   18.4623
    1.575   18.1569
    1.590   18.1043
    1.605   17.7251
    1.620   17.5987
    1.635   16.9142
    1.650   17.0090
    1.665   16.6298
    1.680   16.3033
    1.695   16.5666
    1.710   16.4192
    1.725   16.6087
    1.740   16.8088
    1.755   16.0190
    1.770   16.2296
    1.785   15.7557
    1.800   15.6925
    1.815   15.6714
    1.830   15.7135
    1.845   15.2817
    1.860   15.3133
    1.875   15.2501
    1.890   15.3660
    1.905   14.6393
    1.920   14.6919
    1.935   15.0500
    1.950   15.1448
    1.965   14.9974
    1.980   14.9342
    1.995   15.0290
    2.010   15.1132
    2.025   15.0079
    2.040   14.7973
    2.055   14.7446
    2.070   14.9763
    2.085   14.8394
    2.100   14.4286
    2.115   14.5234
    2.130   14.4392
    2.145   15.0711
    2.160   14.9447
    2.175   15.8399
    2.190   15.9242
    2.205   15.0290
    2.220   15.2396
    2.235   15.4502
    2.250   15.1343
    2.265   15.5450
    2.280   14.7446
    2.295   15.0395
    2.310   15.6503
    2.325   16.2612
    2.340   16.6403
    2.355   15.7873
    2.370   15.7346
    2.385   16.3770
    2.400   16.6930
    2.415   17.1775
    2.430   16.6087
    2.445   16.9458
    2.460   17.1353
    2.475   17.1459
    2.490   17.2722
    2.505   17.6514
    2.520   18.2306
    2.535   18.5887
    2.550   18.1991
    2.565   18.7888
    2.580   19.1259
    2.595   19.1680
    2.610   19.5682
    2.625   19.0732
    2.640   19.9473
    2.655   20.0421
    2.670   20.0421
    2.685   21.1901
    2.700   21.9063
    2.715   22.0642
    2.730   21.7799
    2.745   22.7699
    2.760   22.5698
    2.775   23.5387
    2.790   24.7604
    2.805   24.9289
    2.820   25.0132
    2.835   26.3823
    2.850   26.5403
    2.865   26.7615
    2.880   27.0985
    2.895   28.3096
    2.910   28.2254
    2.925   29.5735
    2.940   29.4576
    2.955   29.9105
    2.970   31.3639
    2.985   32.3012
    3.000   33.1122
    3.015   33.3228
    3.030   34.6709
    3.045   35.2923
    3.060   36.6509
    3.075   38.0411
    3.090   39.0732
    3.105   40.5582
    3.120   42.7172
    3.135   42.5487
    3.150   45.1290
    3.165   46.2349
    3.180   47.4882
    3.195   50.0369
    3.210   51.3639
    3.225   54.6393
    3.240   57.3144
    3.255   58.8731
    3.270   62.6014
    3.285   64.4128
    3.300   67.3407
    3.315   72.7014
    3.330   74.7341
    3.345   78.3570
    3.360   84.7499
    3.375   87.2459
    3.390   93.6914
    3.405   97.9147
    3.420  102.0116
    3.435  104.7288
    3.450  106.0137
    3.465  105.3186
    3.480  102.7909
    3.495   98.7256
    3.510   91.1638
    3.525   83.4755
    3.540   74.7130
    3.555   66.5298
    3.570   60.2001
    3.585   53.5229
    3.600   48.1517
    3.615   45.1501
    3.630   42.8963
    3.645   39.8842
    3.660   38.0832
    3.675   37.6303
    3.690   36.5771
    3.705   35.9031
    3.720   36.3244
    3.735   35.9663
    3.750   35.4924
    3.765   36.2928
    3.780   35.6398
    3.795   35.7662
    3.810   36.2507
    3.825   37.2196
    3.840   38.7256
    3.855   39.1259
    3.870   39.0732
    3.885   39.7262
    3.900   40.1896
    3.915   41.2006
    3.930   40.5687
    3.945   40.6424
    3.960   41.7272
    3.975   42.6751
    3.990   42.4539
    4.005   42.4329
    4.020   41.5903
    4.035   40.8952
    4.050   41.9695
    4.065   41.9379
    4.080   41.2006
    4.095   39.8736
    4.110   39.9157
    4.125   38.2728
    4.140   37.3881
    4.155   36.1243
    4.170   35.8715
    4.185   34.2601
    4.200   34.3549
    4.215   32.0590
    4.230   30.5003
    4.245   29.1627
    4.260   27.1933
    4.275   26.4244
    4.290   25.3081
    4.305   23.9600
    4.320   23.2017
    4.335   22.3486
    4.350   20.1159
    4.365   19.5471
    4.380   18.1464
    4.395   16.9774
    4.410   15.5766
    4.425   15.3870
    4.440   14.9342
    4.455   13.5334
    4.470   13.7546
    4.485   13.1543
    4.500   11.7746
    4.515   11.7114
    4.530   11.3955
    4.545   10.5845
    4.560   10.1843
    4.575   10.1632
    4.590    9.8262
    4.605    9.3839
    4.620    9.0153
    4.635    8.9205
    4.650    8.7625
    4.665    8.4571
    4.680    8.2464
    4.695    7.6988
    4.710    8.0147
    4.725    7.8884
    4.740    7.6040
    4.755    7.0774
    4.770    7.1722
    4.785    7.0774
    4.800    6.8562
    4.815    7.1827
    4.830    6.8773
    4.845    6.6561
    4.860    6.4771
    4.875    6.4982
    4.890    6.4771
    4.905    6.2138
    4.920    6.2243
    4.935    6.2454
    4.950    6.4350
    4.965    6.3612
    4.980    6.3086
    4.995    6.1822
    5.010    6.1506
    5.025    5.8557
    5.040    5.8241
    5.055    5.8557
    5.070    5.9294
    5.085    6.2559
    5.100    5.8978
    5.115    5.9821
    5.130    5.5398
    5.145    5.6240
    5.160    5.7293
    5.175    5.6872
    5.190    5.8873
    5.205    5.9821
    5.220    5.5714
    5.235    5.6240
    5.250    5.9189
    5.265    5.8768
    5.280    5.4871
    5.295    5.3081
    5.310    5.6135
    5.325    5.4239
    5.340    5.4239
    5.355    5.6661
    5.370    5.3502
    5.385    5.3397
    5.400    5.6345
    5.415    5.5608
    5.430    5.3291
    5.445    5.3818
    5.460    5.3818
    5.475    5.1185
    5.490    5.2554
    5.505    5.4555
    5.520    5.2554
    5.535    5.2133
    5.550    5.1395
    5.565    5.0448
    5.580    5.2133
    5.595    4.7709
    5.610    4.9394
    5.625    5.2449
    5.640    5.0869
    5.655    4.8131
    5.670    5.0237
    5.685    4.7288
    5.700    4.9078
    5.715    4.8973
    5.730    5.2133
    5.745    4.7709
    5.760    4.8763
    5.775    4.9605
    5.790    5.1185
    5.805    5.1711
    5.820    4.8025
    5.835    4.7604
    5.850    4.8973
    5.865    5.1080
    5.880    4.8131
    5.895    4.5603
    5.910    4.6972
    5.925    4.4444
    5.940    4.8868
    5.955    4.7815
    5.970    4.9184
    5.985    4.9394
    6.000    5.2343
    6.015    4.9921
    6.030    5.0237
    6.045    4.9921
    6.060    4.6867
    6.075    5.2133
    6.090    4.8341
    6.105    4.8973
    6.120    5.0237
    6.135    4.8552
    6.150    5.1501
    6.165    5.0764
    6.180    4.9500
    6.195    4.8025
    6.210    4.9816
    6.225    5.2870
    6.240    5.1922
    6.255    5.3186
    6.270    5.0342
    6.285    4.9816
    6.300    5.1185
    6.315    5.2870
    6.330    5.5608
    6.345    5.3712
    6.360    5.4028
    6.375    5.5608
    6.390    5.1606
    6.405    5.2449
    6.420    5.8978
    6.435    5.6029
    6.450    5.5608
    6.465    5.7820
    6.480    5.6451
    6.495    6.1506
    6.510    6.0242
    6.525    6.0453
    6.540    6.1927
    6.555    6.1085
    6.570    6.4666
    6.585    6.5824
    6.600    6.7299
    6.615    6.8457
    6.630    6.8984
    6.645    6.6772
    6.660    7.0985
    6.675    7.2880
    6.690    7.4566
    6.705    7.7830
    6.720    7.9516
    6.735    8.2254
    6.750    8.4150
    6.765    9.1101
    6.780    9.3523
    6.795    9.6788
    6.810   10.1527
    6.825   10.5529
    6.840   11.0900
    6.855   11.4903
    6.870   12.2064
    6.885   12.3960
    6.900   13.0700
    6.915   13.1754
    6.930   13.5861
    6.945   13.9231
    6.960   13.9863
    6.975   13.5861
    6.990   12.9963
    7.005   12.5540
    7.020   11.9431
    7.035   11.4692
    7.050   10.2054
    7.065    9.1311
    7.080    8.4676
    7.095    8.4571
    7.110    7.5197
    7.125    6.8141
    7.140    7.0669
    7.155    7.0458
    7.170    6.5719
    7.185    6.0979
    7.200    5.9189
    7.215    5.8136
    7.230    5.6767
    7.245    5.8241
    7.260    6.0769
    7.275    5.8978
    7.290    5.9294
    7.305    5.4555
    7.320    5.8873
    7.335    5.5819
    7.350    5.5503
    7.365    5.5187
    7.380    5.2554
    7.395    5.6556
    7.410    5.5292
    7.425    5.6345
    7.440    5.7083
    7.455    5.7188
    7.470    5.6451
    7.485    5.5398
    7.500    5.7083
    7.515    5.3502
    7.530    5.3818
    7.545    5.7715
    7.560    6.0558
    7.575    5.7820
    7.590    5.5082
    7.605    5.6029
    7.620    5.9610
    7.635    5.9821
    7.650    5.9821
    7.665    5.9821
    7.680    6.0348
    7.695    5.6240
    7.710    5.6767
    7.725    5.9716
    7.740    6.2033
    7.755    6.1717
    7.770    5.8347
    7.785    6.1401
    7.800    6.2033
    7.815    6.5613
    7.830    6.3928
    7.845    6.4876
    7.860    6.5929
    7.875    6.8352
    7.890    6.8457
    7.905    6.8773
    7.920    6.6035
    7.935    6.4666
    7.950    7.1617
    7.965    7.0985
    7.980    7.0985
    7.995    7.0879
    8.010    7.0985
    8.025    6.9405
    8.040    6.9826
    8.055    7.4355
    8.070    7.3828
    8.085    7.5408
    8.100    7.5513
    8.115    7.5829
    8.130    7.2459
    8.145    7.5092
    8.160    7.4776
    8.175    7.7936
    8.190    7.4987
    8.205    7.7304
    8.220    7.8462
    8.235    7.8989
    8.250    7.6988
    8.265    7.3828
    8.280    7.3618
    8.295    7.3512
    8.310    8.0358
    8.325    7.8357
    8.340    8.1411
    8.355    7.6567
    8.370    7.5935
    8.385    7.5619
    8.400    7.5513
    8.415    7.5303
    8.430    7.8252
    8.445    7.3407
    8.460    7.1195
    8.475    7.5829
    8.490    7.3512
    8.505    7.7514
    8.520    7.5303
    8.535    7.2038
    8.550    6.9510
    8.565    6.7720
    8.580    6.6561
    8.595    6.7509
    8.610    6.8141
    8.625    6.8878
    8.640    6.2454
    8.655    6.3191
    8.670    6.3191
    8.685    6.4139
    8.700    6.0979
    8.715    6.0874
    8.730    5.8347
    8.745    5.9400
    8.760    6.2033
    8.775    5.7399
    8.790    6.0979
    8.805    6.1190
    8.820    6.0348
    8.835    5.7399
    8.850    5.3186
    8.865    5.2975
    8.880    5.4134
    8.895    5.1185
    8.910    5.2133
    8.925    5.1606
    8.940    5.2554
    8.955    4.9921
    8.970    4.9605
    8.985    5.2870
    9.000    5.3397
    9.015    5.0869
    9.030    5.2133
    9.045    5.0132
    9.060    5.0553
    9.075    5.0132
    9.090    5.0237
    9.105    4.8131
    9.120    4.6551
    9.135    4.9078
    9.150    5.0448
    9.165    5.0132
    9.180    4.9921
    9.195    4.5498
    9.210    4.4234
    9.225    4.9605
    9.240    4.7393
    9.255    4.5287
    9.270    4.4128
    9.285    4.8236
    9.300    4.8131
    9.315    4.7077
    9.330    4.5919
    9.345    4.2022
    9.360    4.3918
    9.375    4.5814
    9.390    4.4023
    9.405    4.7183
    9.420    4.5076
    9.435    5.0553
    9.450    4.4866
    9.465    4.4023
    9.480    4.6761
    9.495    4.5392
    9.510    4.4550
    9.525    4.4655
    9.540    4.8131
    9.555    4.5498
    9.570    4.4128
    9.585    4.6761
    9.600    4.6761
    9.615    4.5919
    9.630    4.2549
    9.645    4.2443
    9.660    4.8657
    9.675    4.5498
    9.690    4.7709
    9.705    4.8552
    9.720    4.8236
    9.735    4.9921
    9.750    4.5392
    9.765    4.7920
    9.780    4.2549
    9.795    4.3181
    9.810    4.5919
    9.825    4.7393
    9.840    4.3497
    9.855    4.5287
    9.870    4.5076
    9.885    4.6761
    9.900    4.5708
    9.915    4.3391
    9.930    4.2654
    9.945    4.7288
    9.960    4.5603
    9.975    4.7709
    9.990    4.4760
   10.005    4.3707
   10.020    4.3813
   10.035    4.3707
   10.050    4.4234
   10.065    4.4760
   10.080    4.3707
   10.095    4.7077
   10.110    4.6656
   10.125    4.7920
   10.140    4.5182
   10.155    4.5919
   10.170    4.6761
   10.185    4.7815
   10.200    4.7077
   10.215    5.0448
   10.230    4.6235
   10.245    4.3602
   10.260    4.8657
   10.275    5.0237
   10.290    4.6867
   10.305    4.6024
   10.320    4.8025
   10.335    4.7920
   10.350    5.1080
   10.365    5.1290
   10.380    4.8447
   10.395    4.9710
   10.410    4.8341
   10.425    4.9605
   10.440    4.9500
   10.455    5.1290
   10.470    5.0869
   10.485    5.3818
   10.500    5.2659
   10.515    4.8341
   10.530    4.7499
   10.545    4.7604
   10.560    4.9921
   10.575    5.1711
   10.590    4.8131
   10.605    4.5603
   10.620    4.5287
   10.635    4.5287
   10.650    4.3602
   10.665    4.6024
   10.680    4.6551
   10.695    4.6445
   10.710    4.5708
   10.725    4.4023
   10.740    4.8131
   10.755    4.2443
   10.770    4.1706
   10.785    4.4971
   10.800    4.3497
   10.815    4.5392
   10.830    4.2022
   10.845    4.5182
   10.860    4.4760
   10.875    4.6867
   10.890    4.5076
   10.905    4.3707
   10.920    4.8763
   10.935    4.7288
   10.950    4.4444
   10.965    4.5287
   10.980    4.7604
   10.995    4.5076
   11.010    4.4444
   11.025    4.1390
   11.040    4.2338
   11.055    4.2865
   11.070    4.7604
   11.085    4.4444
   11.100    4.2443
   11.115    4.3602
   11.130    4.7077
   11.145    4.3707
   11.160    4.2865
   11.175    4.5182
   11.190    4.4760
   11.205    4.4234
   11.220    4.5076
   11.235    4.7709
   11.250    4.4866
   11.265    4.7183
   11.280    4.5919
   11.295    4.4023
   11.310    4.6340
   11.325    4.3391
   11.340    4.2127
   11.355    4.5708
   11.370    4.6130
   11.385    4.3286
   11.400    4.3602
   11.415    4.3391
   11.430    4.2549
   11.445    4.3391
   11.460    4.3707
   11.475    4.4234
   11.490    4.3813
   11.505    4.1917
   11.520    4.3707
   11.535    4.5603
   11.550    4.5919
   11.565    4.2022
   11.580    4.0442
   11.595    4.7077
   11.610    4.6551
   11.625    4.8447
   11.640    4.7393
   11.655    4.5814
   11.670    4.5182
   11.685    4.4339
   11.700    4.5076
   11.715    4.3918
   11.730    4.6972
   11.745    4.6235
   11.760    4.6340
   11.775    4.6761
   11.790    4.7815
   11.805    4.6024
   11.820    4.3181
   11.835    4.4234
   11.850    4.7288
   11.865    4.6551
   11.880    4.9078
   11.895    4.5919
   11.910    4.4339
   11.925    5.0448
   11.940    4.6867
   11.955    4.5182
   11.970    4.8236
   11.985    4.8657
   12.000    4.7288
   12.015    4.5182
   12.030    4.5814
   12.045    4.6867
   12.060    4.5498
   12.075    4.8341
   12.090    4.7604
   12.105    4.8973
   12.120    4.9289
   12.135    4.6656
   12.150    4.9078
   12.165    4.6867
   12.180    4.9184
   12.195    4.8236
   12.210    4.9394
   12.225    4.9500
   12.240    5.0448
   12.255    4.6972
   12.270    4.7920
   12.285    5.0974
   12.300    5.1290
   12.315    4.9184
   12.330    5.0553
   12.345    4.9710
   12.360    4.8131
   12.375    4.9710
   12.390    5.0237
   12.405    4.9184
   12.420    4.9710
   12.435    5.0869
   12.450    4.9816
   12.465    4.9605
   12.480    4.8763
   12.495    5.0764
   12.510    5.0132
   12.525    4.8025
   12.540    4.8657
   12.555    5.1501
   12.570    4.9816
   12.585    4.9710
   12.600    4.8025
   12.615    5.1711
   12.630    4.8973
   12.645    4.8447
   12.660    4.7815
   12.675    5.0553
   12.690    5.1922
   12.705    4.9078
   12.720    5.3502
   12.735    5.1080
   12.750    5.2449
   12.765    4.5392
   12.780    4.5708
   12.795    4.5076
   12.810    4.9710
   12.825    4.6761
   12.840    4.6761
   12.855    4.6761
   12.870    4.5919
   12.885    4.6761
   12.900    4.7499
   12.915    4.7183
   12.930    4.6972
   12.945    4.9289
   12.960    4.8973
   12.975    5.2765
   12.990    5.1290
   13.005    5.0237
   13.020    5.0132
   13.035    4.7920
   13.050    5.0342
   13.065    4.5919
   13.080    4.4550
   13.095    4.8552
   13.110    4.7393
   13.125    5.0974
   13.140    4.8131
   13.155    4.4971
   13.170    4.7077
   13.185    4.6340
   13.200    4.7815
   13.215    4.7920
   13.230    4.8657
   13.245    4.9605
   13.260    4.5603
   13.275    4.8025
   13.290    4.6656
   13.305    4.7077
   13.320    4.6867
   13.335    4.5919
   13.350    4.8763
   13.365    4.7288
   13.380    4.6235
   13.395    4.6656
   13.410    4.5287
   13.425    4.9184
   13.440    4.8236
   13.455    4.6235
   13.470    4.7077
   13.485    4.8552
   13.500    4.4444
   13.515    4.6235
   13.530    4.6761
   13.545    4.5603
   13.560    4.6445
   13.575    4.7288
   13.590    4.6340
   13.605    4.7183
   13.620    4.6867
   13.635    4.8131
   13.650    5.1501
   13.665    4.5814
   13.680    4.7499
   13.695    4.3707
   13.710    4.7288
   13.725    5.1817
   13.740    4.6340
   13.755    4.6972
   13.770    4.7183
   13.785    4.7393
   13.800    4.5287
   13.815    4.7920
   13.830    5.0764
   13.845    4.9710
   13.860    4.8447
   13.875    4.8447
   13.890    4.6340
   13.905    4.8552
   13.920    4.7393
   13.935    4.9816
   13.950    4.5708
   13.965    4.6867
   13.980    4.4971
   13.995    4.5392
   14.010    4.6235
   14.025    4.5919
   14.040    4.6761
   14.055    4.5708
   14.070    4.5392
   14.085    4.7920
   14.100    4.7288
   14.115    4.2127
   14.130    4.3707
   14.145    4.6551
   14.160    4.6130
   14.175    4.5919
   14.190    4.2759
   14.205    4.6235
   14.220    4.7920
   14.235    4.5287
   14.250    4.4444
   14.265    4.3497
   14.280    4.4444
   14.295    4.6235
   14.310    4.6445
   14.325    4.2970
   14.340    4.4128
   14.355    4.6656
   14.370    4.1390
   14.385    4.4655
   14.400    4.3181
   14.415    4.0653
   14.430    3.9494
   14.445    4.2865
   14.460    4.5603
   14.475    4.4971
   14.490    4.6235
   14.505    4.7288
   14.520    4.6130
   14.535    4.3181
   14.550    4.2970
   14.565    4.6867
   14.580    4.5814
   14.595    4.6130
   14.610    4.3497
   14.625    4.1390
   14.640    4.1496
   14.655    4.3918
   14.670    4.4866
   14.685    4.7920
   14.700    4.4339
   14.715    4.4550
   14.730    4.0653
   14.745    4.1811
   14.760    4.4866
   14.775    4.9921
   14.790    4.4655
   14.805    4.1811
   14.820    4.5182
   14.835    4.5182
   14.850    4.7604
   14.865    4.6656
   14.880    4.5287
   14.895    4.5603
   14.910    4.4234
   14.925    4.4128
   14.940    4.6130
   14.955    4.3497
   14.970    4.2022
   14.985    4.0864
   15.000    4.1496
   15.015    4.2759
   15.030    4.2759
   15.045    4.1180
   15.060    4.4760
   15.075    4.2759
   15.090    4.2549
   15.105    4.3286
   15.120    4.2654
   15.135    4.1811
   15.150    4.3391
   15.165    4.2022
   15.180    4.1706
   15.195    4.2338
   15.210    4.2338
   15.225    4.4234
   15.240    4.4128
   15.255    4.4655
   15.270    4.3707
   15.285    4.3707
   15.300    4.2970
   15.315    4.2233
   15.330    4.3497
   15.345    4.3497
   15.360    4.2233
   15.375    4.4023
   15.390    4.4550
   15.405    4.3075
   15.420    4.5603
   15.435    4.5076
   15.450    4.4971
   15.465    4.3602
   15.480    4.4234
   15.495    4.4866
   15.510    4.4866
   15.525    4.5287
   15.540    4.6235
   15.555    4.4760
   15.570    4.3497
   15.585    4.4971
   15.600    4.4550
   15.615    4.4866
   15.630    4.3181
   15.645    4.3918
   15.660    4.6761
   15.675    4.2022
   15.690    4.3181
   15.705    4.5287
   15.720    4.7077
   15.735    4.4971
   15.750    4.3181
   15.765    4.1811
   15.780    4.2970
   15.795    4.4234
   15.810    4.2338
   15.825    4.1496
   15.840    4.2654
   15.855    4.2865
   15.870    4.5708
   15.885    4.5076
   15.900    4.3497
   15.915    4.2443
   15.930    4.1601
   15.945    4.4023
   15.960    4.6130
   15.975    4.6024
   15.990    4.5498
   16.005    4.3391
   16.020    4.1917
   16.035    4.0021
   16.050    4.0548
   16.065    4.4866
   16.080    4.7815
   16.095    4.4866
   16.110    4.5287
   16.125    4.6340
   16.140    4.3813
   16.155    4.4339
   16.170    4.3497
   16.185    4.7077
   16.200    4.2654
   16.215    4.4655
   16.230    4.4971
   16.245    4.4339
   16.260    4.7393
   16.275    4.5287
   16.290    4.1496
   16.305    4.3075
   16.320    4.6972
   16.335    4.3707
   16.350    4.3391
   16.365    4.4866
   16.380    4.5287
   16.395    4.5919
   16.410    4.2443
   16.425    4.2654
   16.440    4.4128
   16.455    4.3391
   16.470    4.1706
   16.485    4.0021
   16.500    4.1811
   16.515    4.3813
   16.530    4.2759
   16.545    4.1496
   16.560    4.3918
   16.575    4.5814
   16.590    4.5392
   16.605    4.3391
   16.620    4.7183
   16.635    4.3707
   16.650    4.0969
   16.665    4.5392
   16.680    4.1601
   16.695    4.5182
   16.710    4.4655
   16.725    4.6235
   16.740    4.4128
   16.755    4.5919
   16.770    4.2338
   16.785    4.1496
   16.800    4.0126
   16.815    4.0548
   16.830    4.3602
   16.845    4.4128
   16.860    4.5182
   16.875    4.4760
   16.890    4.2022
   16.905    4.5814
   16.920    4.5708
   16.935    4.4234
   16.950    4.3497
   16.965    4.0758
   16.980    4.2549
   16.995    4.4128
   17.010    4.6235
   17.025    4.1811
   17.040    4.1074
   17.055    4.4444
   17.070    4.4550
   17.085    4.2865
   17.100    4.4971
   17.115    4.4444
   17.130    4.5076
   17.145    4.0864
   17.160    4.2127
   17.175    4.2549
   17.190    4.3918
   17.205    4.1390
   17.220    4.2443
   17.235    4.2443
   17.250    4.0126
   17.265    4.2443
   17.280    4.3075
   17.295    4.3181
   17.310    4.2970
   17.325    4.1706
   17.340    4.2338
   17.355    4.0126
   17.370    4.3602
   17.385    4.2338
   17.400    4.4655
   17.415    4.4023
   17.430    4.3075
   17.445    4.4655
   17.460    4.3497
   17.475    4.0969
   17.490    4.5182
   17.505    4.2022
   17.520    4.3918
   17.535    4.3918
   17.550    4.4760
   17.565    4.3181
   17.580    4.4971
   17.595    4.6761
   17.610    4.7288
   17.625    4.2759
   17.640    4.2759
   17.655    4.2865
   17.670    4.3707
   17.685    4.6656
   17.700    4.3286
   17.715    4.3286
   17.730    4.4760
   17.745    4.2970
   17.760    3.9810
   17.775    4.3707
   17.790    4.3391
   17.805    4.3707
   17.820    4.3918
   17.835    4.5287
   17.850    4.6551
   17.865    4.5287
   17.880    4.5392
   17.895    4.1811
   17.910    4.2443
   17.925    4.5287
   17.940    4.6445
   17.955    4.4866
   17.970    4.1074
   17.985    4.5392
   18.000    4.4866
   18.015    4.6445
   18.030    4.7393
   18.045    4.3391
   18.060    4.4655
   18.075    4.4023
   18.090    4.5392
   18.105    4.4444
   18.120    4.5603
   18.135    4.4234
   18.150    4.2970
   18.165    4.1917
   18.180    4.8025
   18.195    4.5182
   18.210    4.3497
   18.225    4.5182
   18.240    4.6024
   18.255    4.5498
   18.270    4.6340
   18.285    4.7183
   18.300    4.5076
   18.315    4.5919
   18.330    4.7077
   18.345    4.8657
   18.360    4.6656
   18.375    4.3602
   18.390    4.1601
   18.405    4.2549
   18.420    4.4550
   18.435    4.4760
   18.450    4.5287
   18.465    4.0758
   18.480    4.0442
   18.495    4.4655
   18.510    4.1811
   18.525    4.4444
   18.540    4.6024
   18.555    4.6235
   18.570    4.3813
   18.585    4.4128
   18.600    4.4234
   18.615    4.5182
   18.630    4.7288
   18.645    4.4866
   18.660    4.3602
   18.675    4.0864
   18.690    4.4339
   18.705    4.6761
   18.720    4.5392
   18.735    4.6551
   18.750    4.4444
   18.765    4.6867
   18.780    4.3075
   18.795    4.4339
   18.810    4.9078
   18.825    4.4866
   18.840    4.4760
   18.855    4.4866
   18.870    4.4550
   18.885    4.2022
   18.900    4.2759
   18.915    4.2127
   18.930    4.5392
   18.945    4.7077
   18.960    4.4444
   18.975    4.6972
   18.990    4.5287
   19.005    4.3918
   19.020    4.5287
   19.035    4.5708
   19.050    4.5287
   19.065    4.5287
   19.080    4.2549
   19.095    4.1811
   19.110    4.1706
   19.125    4.3497
   19.140    4.5919
   19.155    4.7604
   19.170    4.6340
   19.185    4.4971
   19.200    4.2654
   19.215    4.7709
   19.230    4.4866
   19.245    4.4971
   19.260    4.6235
   19.275    4.8657
   19.290    4.2865
   19.305    4.5287
   19.320    4.4550
   19.335    4.7920
   19.350    4.6972
   19.365    4.5814
   19.380    4.8868
   19.395    4.4550
   19.410    4.6445
   19.425    4.5708
   19.440    4.6024
   19.455    4.5182
   19.470    4.3286
   19.485    4.3918
   19.500    4.5919
   19.515    4.0442
   19.530    4.7288
   19.545    4.8131
   19.560    4.8763
   19.575    4.7183
   19.590    4.6130
   19.605    4.5392
   19.620    4.9078
   19.635    4.9078
   19.650    4.8657
   19.665    4.9289
   19.680    4.5392
   19.695    4.6130
   19.710    4.2022
   19.725    4.7920
   19.740    4.8657
   19.755    5.2133
   19.770    4.7815
   19.785    4.9816
   19.800    4.9289
   19.815    4.6551
   19.830    4.4655
   19.845    4.8973
   19.860    4.9078
   19.875    4.8552
   19.890    5.0026
   19.905    4.8447
   19.920    4.7077
   19.935    4.9289
   19.950    5.2975
   19.965    5.0869
   19.980    4.7499
   19.995    4.9289
   20.010    5.1290
   20.025    5.3712
   20.040    5.0237
   20.055    4.9184
   20.070    4.7288
   20.085    5.0974
   20.100    5.0026
   20.115    5.1185
   20.130    5.3081
   20.145    5.0869
   20.160    4.6445
   20.175    4.7709
   20.190    4.9078
   20.205    4.7709
   20.220    5.1080
   20.235    5.1711
   20.250    4.8236
   20.265    4.8447
   20.280    4.9184
   20.295    4.5498
   20.310    4.8447
   20.325    4.9921
   20.340    4.5603
   20.355    4.5392
   20.370    4.9078
   20.385    5.0553
   20.400    4.8973
   20.415    5.1501
   20.430    4.8236
   20.445    4.9394
   20.460    5.0764
   20.475    4.9184
   20.490    4.6024
   20.505    4.8341
   20.520    4.9184
   20.535    4.9605
   20.550    5.1922
   20.565    5.3081
   20.580    5.1817
   20.595    4.7604
   20.610    4.6235
   20.625    4.6972
   20.640    4.8131
   20.655    4.9289
   20.670    4.6340
   20.685    4.6340
   20.700    4.9078
   20.715    4.7393
   20.730    5.4344
   20.745    5.0026
   20.760    4.9921
   20.775    4.9289
   20.790    4.7815
   20.805    4.8973
   20.820    4.8447
   20.835    4.5076
   20.850    4.6445
   20.865    4.7815
   20.880    4.9394
   20.895    4.9605
   20.910    4.8763
   20.925    4.7604
   20.940    4.8447
   20.955    4.7077
   20.970    5.1080
   20.985    4.6867
   21.000    5.1922
   21.015    4.7183
   21.030    5.1501
   21.045    4.8131
   21.060    4.5392
   21.075    4.9710
   21.090    5.0974
   21.105    5.1080
   21.120    5.0237
   21.135    4.6340
   21.150    4.5287
   21.165    4.8341
   21.180    5.1185
   21.195    4.5814
   21.210    4.6024
   21.225    4.8447
   21.240    4.6235
   21.255    4.7077
   21.270    5.0342
   21.285    4.7815
   21.300    4.6761
   21.315    4.8973
   21.330    4.8236
   21.345    5.1606
   21.360    4.7393
   21.375    5.0448
   21.390    4.7604
   21.405    4.4760
   21.420    4.4444
   21.435    4.7604
   21.450    4.9500
   21.465    4.9921
   21.480    5.0342
   21.495    5.1185
   21.510    4.9078
   21.525    4.7604
   21.540    5.1290
   21.555    4.8973
   21.570    4.8025
   21.585    4.8341
   21.600    5.0448
   21.615    4.9500
   21.630    4.9816
   21.645    4.6972
   21.660    4.6867
   21.675    4.9184
   21.690    4.7077
   21.705    5.0764
   21.720    4.9184
   21.735    4.5392
   21.750    4.2865
   21.765    4.9184
   21.780    4.8341
   21.795    4.9184
   21.810    5.2554
   21.825    4.6024
   21.840    4.9289
   21.855    5.0342
   21.870    4.6867
   21.885    5.0132
   21.900    4.3813
   21.915    4.6656
   21.930    4.8447
   21.945    4.6867
   21.960    4.8868
   21.975    4.7183
   21.990    4.5814
   22.005    4.6551
   22.020    5.1185
   22.035    5.0132
   22.050    5.0974
   22.065    4.9078
   22.080    5.0553
   22.095    4.7077
   22.110    4.8552
   22.125    4.9394
   22.140    5.0553
   22.155    4.8447
   22.170    4.8447
   22.185    5.1922
   22.200    5.2765
   22.215    5.1922
   22.230    4.9605
   22.245    4.9184
   22.260    4.8868
   22.275    4.9500
   22.290    5.1711
   22.305    5.2133
   22.320    5.1395
   22.335    4.9816
   22.350    5.1290
   22.365    5.0342
   22.380    4.9289
   22.395    5.2765
   22.410    4.7604
   22.425    4.8868
   22.440    4.9605
   22.455    4.9921
   22.470    5.2238
   22.485    4.9289
   22.500    5.0026
   22.515    4.8868
   22.530    4.9710
   22.545    4.8131
   22.560    4.8868
   22.575    4.9921
   22.590    4.8763
   22.605    4.7920
   22.620    5.0237
   22.635    4.6340
   22.650    4.8973
   22.665    5.0553
   22.680    5.0764
   22.695    5.0342
   22.710    4.6972
   22.725    4.9816
   22.740    5.1185
   22.755    4.7920
   22.770    4.7920
   22.785    4.7077
   22.800    4.6761
   22.815    4.8868
   22.830    4.7393
   22.845    4.5392
   22.860    4.3813
   22.875    4.8447
   22.890    4.8131
   22.905    4.8131
   22.920    4.7604
   22.935    4.7288
   22.950    4.7393
   22.965    4.7288
   22.980    4.8973
   22.995    4.4128
   23.010    4.5182
   23.025    4.4866
   23.040    4.9500
   23.055    5.0132
   23.070    4.8341
   23.085    4.4444
   23.100    4.8341
   23.115    5.0342
   23.130    4.7499
   23.145    4.5919
   23.160    4.5182
   23.175    4.4444
   23.190    4.6235
   23.205    4.7183
   23.220    4.4128
   23.235    4.7709
   23.250    4.8025
   23.265    4.8341
   23.280    4.6551
   23.295    4.4023
   23.310    4.1811
   23.325    4.6656
   23.340    5.0237
   23.355    4.5498
   23.370    4.5708
   23.385    4.5814
   23.400    4.7077
   23.415    4.6445
   23.430    4.8447
   23.445    4.7604
   23.460    4.5498
   23.475    4.6867
   23.490    4.4655
   23.505    4.5919
   23.520    4.7920
   23.535    4.6130
   23.550    4.3707
   23.565    4.5919
   23.580    4.5182
   23.595    4.4444
   23.610    4.7077
   23.625    4.4128
   23.640    4.4339
   23.655    4.4444
   23.670    4.7183
   23.685    4.4550
   23.700    4.4234
   23.715    4.3918
   23.730    4.8657
   23.745    4.7709
   23.760    4.7183
   23.775    4.4971
   23.790    4.6972
   23.805    4.4339
   23.820    4.6761
   23.835    4.2338
   23.850    4.4234
   23.865    4.8552
   23.880    4.8552
   23.895    4.6340
   23.910    4.5392
   23.925    4.6972
   23.940    4.3602
   23.955    4.6024
   23.970    4.4971
   23.985    4.6024
   24.000    4.6761
   24.015    4.6340
   24.030    4.6024
   24.045    4.6024
   24.060    4.6024
   24.075    4.5076
   24.090    4.6024
   24.105    4.3813
   24.120    4.4444
   24.135    4.6024
   24.150    4.6235
   24.165    4.8973
   24.180    4.6867
   24.195    4.7815
   24.210    4.4023
   24.225    4.4760
   24.240    4.3602
   24.255    4.1706
   24.270    4.1180
   24.285    4.3918
   24.300    4.6024
   24.315    4.3181
   24.330    4.5919
   24.345    4.3075
   24.360    4.8552
   24.375    4.2233
   24.390    4.2654
   24.405    4.4866
   24.420    4.5814
   24.435    4.5814
   24.450    4.9605
   24.465    4.7709
   24.480    4.5603
   24.495    4.4866
   24.510    4.3602
   24.525    4.3497
   24.540    4.7709
   24.555    4.4444
   24.570    4.3181
   24.585    4.6867
   24.600    4.9184
   24.615    4.4023
   24.630    4.8236
   24.645    4.8868
   24.660    4.5919
   24.675    4.7499
   24.690    4.7288
   24.705    4.5708
   24.720    4.5603
   24.735    4.6130
   24.750    4.4444
   24.765    4.5814
   24.780    4.6761
   24.795    4.7709
   24.810    4.7815
   24.825    4.4444
   24.840    4.6551
   24.855    4.4339
   24.870    4.3707
   24.885    4.2865
   24.900    4.4339
   24.915    4.4339
   24.930    4.3813
   24.945    4.6445
   24.960    4.7183
   24.975    4.2443
   24.990    4.5287
   25.005    4.3602
   25.020    4.5392
   25.035    4.3497
   25.050    4.3286
   25.065    4.2022
   25.080    4.5392
   25.095    4.6340
   25.110    4.3707
   25.125    4.2865
   25.140    4.2970
   25.155    4.2865
   25.170    4.1496
   25.185    4.4339
   25.200    4.3602
   25.215    4.2759
   25.230    4.5392
   25.245    4.4023
   25.260    4.2233
   25.275    4.3918
   25.290    4.0969
   25.305    4.2865
   25.320    4.4234
   25.335    4.2549
   25.350    4.4444
   25.365    4.3918
   25.380    4.1285
   25.395    4.4550
   25.410    4.2970
   25.425    4.5708
   25.440    4.3813
   25.455    4.2022
   25.470    4.4339
   25.485    4.1601
   25.500    4.2654
   25.515    4.3707
   25.530    4.2443
   25.545    4.1917
   25.560    3.9810
   25.575    4.4128
   25.590    4.4760
   25.605    4.2759
   25.620    4.1811
   25.635    4.4550
   25.650    4.2549
   25.665    4.4128
   25.680    4.4234
   25.695    4.1917
   25.710    4.4550
   25.725    4.3918
   25.740    4.4339
   25.755    4.2865
   25.770    4.0653
   25.785    4.4760
   25.800    4.4550
   25.815    4.5287
   25.830    4.0548
   25.845    4.5498
   25.860    4.2549
   25.875    3.8231
   25.890    4.2022
   25.905    4.5076
   25.920    4.3181
   25.935    4.1917
   25.950    4.2233
   25.965    4.1601
   25.980    4.0969
   25.995    4.0337
   26.010    4.1706
   26.025    4.1601
   26.040    4.0969
   26.055    4.0442
   26.070    3.7283
   26.085    4.1180
   26.100    4.1917
   26.115    4.1074
   26.130    4.2549
   26.145    4.0969
   26.160    3.9494
   26.175    4.4023
   26.190    4.1390
   26.205    3.8968
   26.220    4.3707
   26.235    4.5182
   26.250    4.1706
   26.265    4.0021
   26.280    4.0864
   26.295    4.0126
   26.310    3.9916
   26.325    4.2127
   26.340    4.0864
   26.355    4.1390
   26.370    3.9494
   26.385    4.0021
   26.400    4.0548
   26.415    4.1811
   26.430    4.3286
   26.445    4.3286
   26.460    4.3707
   26.475    3.8757
   26.490    4.1811
   26.505    4.4866
   26.520    4.0337
   26.535    3.7915
   26.550    4.2233
   26.565    4.0126
   26.580    4.1496
   26.595    4.1390
   26.610    3.8757
   26.625    4.0653
   26.640    4.0442
   26.655    4.1811
   26.670    4.0021
   26.685    4.0126
   26.700    3.9705
   26.715    4.4234
   26.730    4.1180
   26.745    4.2654
   26.760    4.3707
   26.775    4.4339
   26.790    3.8652
   26.805    3.9179
   26.820    3.8441
   26.835    4.0969
   26.850    4.0021
   26.865    4.0864
   26.880    4.0548
   26.895    4.3075
   26.910    4.2443
   26.925    4.2127
   26.940    3.9494
   26.955    3.7177
   26.970    3.7809
   26.985    3.9179
   27.000    3.9810
   27.015    3.9179
   27.030    3.8336
   27.045    3.7072
   27.060    4.1917
   27.075    4.1285
   27.090    4.5919
   27.105    4.5392
   27.120    4.5392
   27.135    4.2759
   27.150    4.4550
   27.165    4.3602
   27.180    4.2022
   27.195    4.0337
   27.210    4.0232
   27.225    3.7493
   27.240    3.9600
   27.255    4.1706
   27.270    4.3707
   27.285    4.0864
   27.300    4.0864
   27.315    4.4971
   27.330    4.2022
   27.345    3.8336
   27.360    3.8231
   27.375    4.0758
   27.390    4.0653
   27.405    4.0653
   27.420    3.7915
   27.435    4.0337
   27.450    3.9705
   27.465    4.0969
   27.480    4.4760
   27.495    4.0653
   27.510    3.9494
   27.525    4.0653
   27.540    4.2865
   27.555    3.9916
   27.570    3.8757
   27.585    4.3391
   27.600    4.0337
   27.615    3.7809
   27.630    4.1285
   27.645    3.8441
   27.660    4.0442
   27.675    4.3918
   27.690    3.8863
   27.705    3.7809
   27.720    3.8020
   27.735    4.1811
   27.750    4.0864
   27.765    4.0232
   27.780    3.8757
   27.795    3.9284
   27.810    4.1180
   27.825    3.8757
   27.840    3.9810
   27.855    4.2865
   27.870    4.3391
   27.885    4.2022
   27.900    4.2865
   27.915    4.0232
   27.930    4.0864
   27.945    3.9389
   27.960    4.0864
   27.975    3.9284
   27.990    4.1285
   28.005    4.0442
   28.020    4.0232
   28.035    4.2759
   28.050    4.1811
   28.065    4.1496
   28.080    4.3602
   28.095    4.2127
   28.110    4.0232
   28.125    4.3181
   28.140    4.0337
   28.155    3.8863
   28.170    4.3918
   28.185    4.2865
   28.200    4.3813
   28.215    3.9705
   28.230    4.1285
   28.245    4.2022
   28.260    4.2865
   28.275    4.1390
   28.290    4.5392
   28.305    4.4866
   28.320    4.2022
   28.335    4.1285
   28.350    3.9600
   28.365    3.8231
   28.380    4.0021
   28.395    4.0021
   28.410    4.1496
   28.425    4.0653
   28.440    3.9073
   28.455    4.1390
   28.470    4.0864
   28.485    4.0653
   28.500    4.3497
   28.515    4.0021
   28.530    4.1285
   28.545    3.9810
   28.560    4.1285
   28.575    4.0337
   28.590    4.0653
   28.605    4.0337
   28.620    3.9916
   28.635    4.1601
   28.650    4.4234
   28.665    4.2865
   28.680    4.3181
   28.695    4.3602
   28.710    3.8652
   28.725    3.9494
   28.740    3.8125
   28.755    3.7809
   28.770    4.0653
   28.785    4.0864
   28.800    3.9073
   28.815    4.1180
   28.830    4.2127
   28.845    4.0548
   28.860    3.7072
   28.875    4.1074
   28.890    3.8336
   28.905    3.8547
   28.920    4.0021
   28.935    3.7493
   28.950    3.8125
   28.965    3.8863
   28.980    3.7915
   28.995    4.0758
   29.010    3.9494
   29.025    3.8547
   29.040    3.8757
   29.055    3.8968
   29.070    3.6546
   29.085    3.7599
   29.100    3.6862
   29.115    3.8231
   29.130    3.6335
   29.145    3.9705
   29.160    4.0337
   29.175    3.6651
   29.190    3.5176
   29.205    3.9284
   29.220    3.7704
   29.235    4.1390
   29.250    3.6440
   29.265    3.7072
   29.280    3.8652
   29.295    3.7493
   29.310    4.0548
   29.325    4.0021
   29.340    3.9179
   29.355    4.0021
   29.370    4.3075
   29.385    3.9494
   29.400    3.9389
   29.415    4.0126
   29.430    3.9179
   29.445    3.8020
   29.460    3.8231
   29.475    3.6019
   29.490    4.0969
   29.505    3.5176
   29.520    3.7599
   29.535    3.9600
   29.550    3.6756
   29.565    4.0232
   29.580    3.8231
   29.595    3.9705
   29.610    4.0021
   29.625    3.6862
   29.640    3.7915
   29.655    3.8020
   29.670    3.7493
   29.685    3.9494
   29.700    3.7915
   29.715    4.0126
   29.730    3.7177
   29.745    3.7599
   29.760    3.7283
   29.775    3.7809
   29.790    3.7493
   29.805    3.5492
   29.820    3.5914
   29.835    3.8336
   29.850    3.6862
   29.865    3.6230
   29.880    3.8968
   29.895    3.5387
   29.910    3.6335
   29.925    3.8547
   29.940    3.7599
   29.955    3.9600
   29.970    3.8968
   29.985    3.5492
   30.000    3.7283
   30.015    3.7388
   30.030    3.7177
   30.045    3.8441
   30.060    3.7493
   30.075    3.8968
   30.090    3.8441
   30.105    3.6862
   30.120    3.7809
   30.135    3.8231
   30.150    3.6019
   30.165    3.6019
   30.180    3.6651
   30.195    3.6862
   30.210    3.9179
   30.225    3.7599
   30.240    3.5598
   30.255    3.8020
   30.270    3.9916
   30.285    3.8020
   30.300    3.7072
   30.315    3.7493
   30.330    3.8125
   30.345    3.8863
   30.360    3.8020
   30.375    3.7388
   30.390    3.8125
   30.405    3.7809
   30.420    3.6546
   30.435    3.9073
   30.450    3.7388
   30.465    3.6124
   30.480    3.8547
   30.495    3.7599
   30.510    3.6651
   30.525    3.8231
   30.540    3.6651
   30.555    3.5598
   30.570    3.9494
   30.585    3.8547
   30.600    3.6440
   30.615    3.5703
   30.630    3.5703
   30.645    3.5703
   30.660    3.6862
   30.675    3.9179
   30.690    3.6546
   30.705    3.8968
   30.720    3.9916
   30.735    3.6756
   30.750    3.5598
   30.765    3.8441
   30.780    3.7072
   30.795    3.7809
   30.810    3.8441
   30.825    3.8757
   30.840    3.7915
   30.855    3.4755
   30.870    3.6440
   30.885    3.5914
   30.900    3.6124
   30.915    3.8231
   30.930    3.5282
   30.945    3.7072
   30.960    3.6862
   30.975    3.4755
   30.990    3.8547
   31.005    4.0021
   31.020    3.6335
   31.035    3.8757
   31.050    3.8757
   31.065    3.7388
   31.080    3.5914
   31.095    3.6546
   31.110    3.4755
   31.125    3.6967
   31.140    3.5492
   31.155    3.8231
   31.170    3.9389
   31.185    3.7599
   31.200    4.0021
   31.215    3.6124
   31.230    3.6651
   31.245    3.8547
   31.260    3.7072
   31.275    3.5176
   31.290    3.6230
   31.305    3.9494
   31.320    3.8652
   31.335    3.9600
   31.350    3.7809
   31.365    3.5914
   31.380    3.4966
   31.395    3.8231
   31.410    3.9600
   31.425    3.7283
   31.440    3.3281
   31.455    3.3386
   31.470    3.6651
   31.485    3.6862
   31.500    3.5071
   31.515    3.6862
   31.530    3.4018
   31.545    3.4966
   31.560    3.8020
   31.575    3.7915
   31.590    3.7388
   31.605    3.7493
   31.620    3.6862
   31.635    3.9810
   31.650    3.5808
   31.665    3.7283
   31.680    3.7072
   31.695    3.3702
   31.710    3.7177
   31.725    3.6335
   31.740    3.4123
   31.755    3.5176
   31.770    3.8231
   31.785    3.6335
   31.800    3.9179
   31.815    3.8125
   31.830    3.7283
   31.845    3.8652
   31.860    3.9284
   31.875    3.8125
   31.890    3.6230
   31.905    3.4860
   31.920    3.5808
   31.935    3.4334
   31.950    3.6651
   31.965    3.6862
   31.980    3.7072
   31.995    3.4650
   32.010    3.5703
   32.025    3.2965
   32.040    3.5808
   32.055    3.4334
   32.070    3.6440
   32.085    3.3702
   32.100    3.4755
   32.115    3.5703
   32.130    3.7177
   32.145    3.6756
   32.160    3.7072
   32.175    3.2438
   32.190    3.1385
   32.205    3.4229
   32.220    3.6124
   32.235    3.9179
   32.250    3.5808
   32.265    3.4860
   32.280    3.6335
   32.295    3.8020
   32.310    3.4018
   32.325    3.5387
   32.340    3.6756
   32.355    3.6019
   32.370    3.6019
   32.385    3.6124
   32.400    3.2543
   32.415    3.3597
   32.430    3.2649
   32.445    3.3702
   32.460    3.6756
   32.475    3.5176
   32.490    3.3597
   32.505    3.5282
   32.520    3.4018
   32.535    3.4123
   32.550    3.7177
   32.565    3.6230
   32.580    3.5282
   32.595    3.3702
   32.610    3.6335
   32.625    3.4966
   32.640    3.6019
   32.655    3.5492
   32.670    3.3807
   32.685    3.5387
   32.700    3.5598
   32.715    3.5808
   32.730    3.2227
   32.745    3.6651
   32.760    3.3070
   32.775    3.3281
   32.790    3.6124
   32.805    3.7283
   32.820    3.5598
   32.835    3.4123
   32.850    3.5598
   32.865    3.7493
   32.880    3.5282
   32.895    3.5387
   32.910    3.7599
   32.925    3.2649
   32.940    3.4229
   32.955    3.8125
   32.970    3.3597
   32.985    3.7283
   33.000    3.4860
   33.015    3.4650
   33.030    3.5071
   33.045    3.2754
   33.060    3.2965
   33.075    3.5914
   33.090    3.6335
   33.105    3.5071
   33.120    3.4860
   33.135    3.7072
   33.150    3.4544
   33.165    3.5176
   33.180    3.4123
   33.195    3.3702
   33.210    3.5176
   33.225    3.2859
   33.240    3.3807
   33.255    3.4123
   33.270    3.4439
   33.285    3.3281
   33.300    3.3702
   33.315    3.5176
   33.330    3.3913
   33.345    3.4018
   33.360    3.3070
   33.375    3.3913
   33.390    3.4755
   33.405    3.2227
   33.420    3.4860
   33.435    3.4966
   33.450    3.4018
   33.465    3.8652
   33.480    3.5492
   33.495    3.2859
   33.510    3.5282
   33.525    3.6440
   33.540    3.4544
   33.555    3.3597
   33.570    3.4439
   33.585    3.3175
   33.600    3.4755
   33.615    3.6019
   33.630    3.4439
   33.645    3.1701
   33.660    3.3597
   33.675    3.1806
   33.690    3.4334
   33.705    3.3386
   33.720    3.4123
   33.735    3.1912
   33.750    3.2754
   33.765    3.0648
   33.780    3.3175
   33.795    3.3491
   33.810    3.2965
   33.825    3.3281
   33.840    3.5598
   33.855    3.6124
   33.870    3.3597
   33.885    3.3807
   33.900    3.3386
   33.915    3.0753
   33.930    3.3070
   33.945    3.4018
   33.960    3.4123
   33.975    3.3386
   33.990    3.2754
   34.005    3.2859
   34.020    3.4334
   34.035    3.4018
   34.050    3.3281
   34.065    3.3702
   34.080    3.6230
   34.095    3.4334
   34.110    3.1806
   34.125    3.1385
   34.140    3.4966
   34.155    3.2333
   34.170    3.2227
   34.185    3.4650
   34.200    3.4755
   34.215    3.1596
   34.230    3.3386
   34.245    3.2017
   34.260    3.2965
   34.275    3.4860
   34.290    3.2333
   34.305    3.2122
   34.320    3.6440
   34.335    3.2543
   34.350    3.3070
   34.365    3.0332
   34.380    3.2543
   34.395    3.1280
   34.410    3.4439
   34.425    3.3175
   34.440    3.3175
   34.455    3.2543
   34.470    3.1912
   34.485    3.2543
   34.500    3.4018
   34.515    3.4755
   34.530    3.0437
   34.545    3.2438
   34.560    3.1069
   34.575    3.1069
   34.590    2.9068
   34.605    3.1490
   34.620    3.3070
   34.635    3.5387
   34.650    3.4123
   34.665    3.1912
   34.680    3.2859
   34.695    2.9595
   34.710    3.3597
   34.725    3.4334
   34.740    3.3702
   34.755    3.3175
   34.770    3.4755
   34.785    3.2227
   34.800    3.0648
   34.815    2.9279
   34.830    3.2965
   34.845    3.4229
   34.860    3.3491
   34.875    3.1069
   34.890    3.5176
   34.905    3.0542
   34.920    3.3175
   34.935    3.3281
   34.950    3.2754
   34.965    3.2754
   34.980    3.0332
   34.995    3.1385
   35.010    2.9173
   35.025    3.1174
   35.040    3.1912
   35.055    3.1280
   35.070    3.1069
   35.085    3.2333
   35.100    3.4544
   35.115    3.3807
   35.130    3.1806
   35.145    3.2965
   35.160    3.0332
   35.175    3.1490
   35.190    2.8541
   35.205    3.1490
   35.220    3.2859
   35.235    2.8225
   35.250    2.8541
   35.265    2.9489
   35.280    2.9595
   35.295    3.3281
   35.310    3.3175
   35.325    3.5808
   35.340    3.5176
   35.355    3.2438
   35.370    3.1280
   35.385    2.8541
   35.400    2.7067
   35.415    3.1490
   35.430    2.9384
   35.445    3.0858
   35.460    3.3386
   35.475    3.3386
   35.490    3.3913
   35.505    3.2543
   35.520    3.1385
   35.535    2.9595
   35.550    2.7909
   35.565    3.2543
   35.580    3.0542
   35.595    3.0226
   35.610    3.2227
   35.625    3.2227
   35.640    3.1912
   35.655    3.0964
   35.670    3.2438
   35.685    3.0437
   35.700    2.9068
   35.715    3.2017
   35.730    3.2333
   35.745    3.1280
   35.760    3.0648
   35.775    2.9805
   35.790    3.0016
   35.805    3.0437
   35.820    3.1596
   35.835    3.2543
   35.850    3.0226
   35.865    2.7699
   35.880    3.0226
   35.895    2.9700
   35.910    3.0016
   35.925    3.0332
   35.940    3.3070
   35.955    3.3175
   35.970    3.0648
   35.985    3.3070
   36.000    3.2649
   36.015    3.2649
   36.030    3.3491
   36.045    3.1385
   36.060    3.2438
   36.075    3.1912
   36.090    2.9700
   36.105    3.0964
   36.120    2.9700
   36.135    3.4123
   36.150    3.4439
   36.165    3.2122
   36.180    3.0016
   36.195    3.1385
   36.210    2.9805
   36.225    3.1280
   36.240    2.9805
   36.255    2.9173
   36.270    3.0964
   36.285    2.9279
   36.300    3.0542
   36.315    3.1069
   36.330    3.2017
   36.345    3.1174
   36.360    2.8541
   36.375    3.0858
   36.390    3.0648
   36.405    2.8963
   36.420    3.1596
   36.435    3.2122
   36.450    2.7804
   36.465    2.9384
   36.480    2.8331
   36.495    2.8963
   36.510    3.1490
   36.525    3.0016
   36.540    3.0964
   36.555    2.9805
   36.570    3.0332
   36.585    3.1596
   36.600    3.2122
   36.615    2.9489
   36.630    2.8857
   36.645    2.8857
   36.660    2.9384
   36.675    2.9910
   36.690    3.0542
   36.705    3.3597
   36.720    2.9173
   36.735    2.7067
   36.750    2.8015
   36.765    2.7909
   36.780    2.9489
   36.795    2.8963
   36.810    3.0332
   36.825    3.0753
   36.840    2.6751
   36.855    2.9173
   36.870    2.9595
   36.885    3.1701
   36.900    2.8541
   36.915    2.8436
   36.930    2.7383
   36.945    2.8857
   36.960    2.9279
   36.975    3.0437
   36.990    3.0226
   37.005    2.9595
   37.020    2.8541
   37.035    2.8436
   37.050    2.9700
   37.065    2.6962
   37.080    3.0226
   37.095    3.0121
   37.110    2.9595
   37.125    3.1280
   37.140    2.9595
   37.155    2.8963
   37.170    3.2649
   37.185    3.0332
   37.200    2.8541
   37.215    2.9068
   37.230    3.0964
   37.245    2.8120
   37.260    3.0542
   37.275    3.3281
   37.290    2.6646
   37.305    3.0121
   37.320    3.1280
   37.335    3.1701
   37.350    2.8331
   37.365    2.8015
   37.380    2.9068
   37.395    2.8857
   37.410    3.0016
   37.425    2.9489
   37.440    2.8225
   37.455    2.8436
   37.470    2.8331
   37.485    3.0542
   37.500    2.7804
   37.515    2.9068
   37.530    2.7488
   37.545    2.9595
   37.560    3.0542
   37.575    2.9910
   37.590    3.1069
   37.605    2.9173
   37.620    2.8120
   37.635    2.8120
   37.650    2.9279
   37.665    3.1069
   37.680    2.8015
   37.695    2.8225
   37.710    2.9489
   37.725    2.8120
   37.740    2.9384
   37.755    2.8120
   37.770    2.7909
   37.785    3.0648
   37.800    2.8857
   37.815    2.9068
   37.830    2.9279
   37.845    3.0121
   37.860    2.6962
   37.875    2.7593
   37.890    2.8857
   37.905    2.7383
   37.920    2.8331
   37.935    3.0964
   37.950    2.8857
   37.965    3.0121
   37.980    2.6856
   37.995    2.7278
   38.010    2.9805
   38.025    3.0648
   38.040    3.1280
   38.055    3.0648
   38.070    3.0226
   38.085    2.8436
   38.100    3.0648
   38.115    2.7488
   38.130    3.0121
   38.145    2.8647
   38.160    2.7699
   38.175    2.6224
   38.190    2.6856
   38.205    2.5487
   38.220    2.8015
   38.235    2.8436
   38.250    2.9279
   38.265    2.6856
   38.280    3.0648
   38.295    3.1701
   38.310    3.0858
   38.325    2.9805
   38.340    2.9173
   38.355    2.9384
   38.370    3.0226
   38.385    3.0437
   38.400    2.9279
   38.415    2.9279
   38.430    2.9489
   38.445    2.9489
   38.460    2.8963
   38.475    2.9910
   38.490    2.9173
   38.505    3.0121
   38.520    2.8331
   38.535    2.9489
   38.550    2.8857
   38.565    2.8015
   38.580    2.6751
   38.595    2.7488
   38.610    3.1490
   38.625    2.8541
   38.640    2.8436
   38.655    2.8752
   38.670    3.0226
   38.685    2.5487
   38.700    2.6962
   38.715    2.6119
   38.730    3.0858
   38.745    2.9279
   38.760    3.0964
   38.775    3.1280
   38.790    2.8963
   38.805    3.0226
   38.820    3.0858
   38.835    2.9910
   38.850    2.8436
   38.865    3.0226
   38.880    3.1385
   38.895    2.9910
   38.910    3.0226
   38.925    2.7383
   38.940    3.0226
   38.955    2.8436
   38.970    2.8752
   38.985    2.8331
   39.000    2.8015
   39.015    2.6856
   39.030    2.8225
   39.045    2.7488
   39.060    2.6435
   39.075    2.7699
   39.090    2.9489
   39.105    2.9384
   39.120    2.8436
   39.135    3.0437
   39.150    2.7909
   39.165    2.5066
   39.180    2.7804
   39.195    2.9805
   39.210    2.8752
   39.225    3.1385
   39.240    3.0542
   39.255    2.9700
   39.270    2.6646
   39.285    2.9173
   39.300    2.9068
   39.315    2.8963
   39.330    3.0226
   39.345    3.1174
   39.360    2.9068
   39.375    2.8015
   39.390    2.9384
   39.405    2.8225
   39.420    2.6962
   39.435    2.8120
   39.450    2.9384
   39.465    2.7383
   39.480    2.8225
   39.495    2.7383
   39.510    2.9279
   39.525    2.9595
   39.540    2.6540
   39.555    2.6856
   39.570    2.5698
   39.585    2.8647
   39.600    2.8752
   39.615    3.1490
   39.630    2.9173
   39.645    2.7804
   39.660    3.0121
   39.675    2.7593
   39.690    2.7172
   39.705    2.9279
   39.720    2.7593
   39.735    2.7488
   39.750    2.9910
   39.765    2.8647
   39.780    2.8752
   39.795    2.8752
   39.810    2.7172
   39.825    2.6330
   39.840    2.8963
   39.855    2.9068
   39.870    2.9489
   39.885    3.1174
   39.900    2.8120
   39.915    3.0753
   39.930    3.1069
   39.945    2.6540
   39.960    2.7383
   39.975    3.0437
   39.990    3.0858
