    1.500    4.4038
    1.515    4.4053
    1.530    4.4008
    1.545    4.4625
    1.560    4.4520
    1.575    4.4023
    1.590    4.4520
    1.605    4.4023
    1.620    4.3993
    1.635    4.3120
    1.650    4.2097
    1.665    4.3271
    1.680    4.2067
    1.695    4.1616
    1.710    4.2067
    1.725    4.3226
    1.740    4.2594
    1.755    4.2383
    1.770    4.1345
    1.785    4.1796
    1.800    4.1119
    1.815    4.1330
    1.830    4.0818
    1.845    4.0593
    1.860    4.0984
    1.875    4.1240
    1.890    4.1285
    1.905    4.0307
    1.920    3.9765
    1.935    4.1089
    1.950    4.0788
    1.965    4.0096
    1.980    3.9946
    1.995    3.9329
    2.010    4.0337
    2.025    4.1225
    2.040    4.1270
    2.055    4.0187
    2.070    3.8878
    2.085    3.9750
    2.100    3.9630
    2.115    3.8968
    2.130    3.8486
    2.145    3.8863
    2.160    3.9284
    2.175    3.8983
    2.190    3.9389
    2.205    3.8095
    2.220    3.8622
    2.235    3.8562
    2.250    3.8110
    2.265    3.8261
    2.280    3.6892
    2.295    3.7809
    2.310    3.7524
    2.325    3.7704
    2.340    3.8110
    2.355    3.8802
    2.370    3.8832
    2.385    3.7990
    2.400    3.7900
    2.415    3.7313
    2.430    3.9163
    2.445    3.8486
    2.460    3.7719
    2.475    3.6892
    2.490    3.7328
    2.505    3.8456
    2.520    3.7794
    2.535    3.9028
    2.550    3.8216
    2.565    3.7132
    2.580    3.7072
    2.595    3.7614
    2.610    3.7373
    2.625    3.8787
    2.640    3.7779
    2.655    3.5914
    2.670    3.6831
    2.685    3.7147
    2.700    3.7313
    2.715    3.6937
    2.730    3.7478
    2.745    3.7087
    2.760    3.7087
    2.775    3.6546
    2.790    3.6696
    2.805    3.7764
    2.820    3.6395
    2.835    3.6967
    2.850    3.7719
    2.865    3.7855
    2.880    3.8261
    2.895    3.6952
    2.910    3.8080
    2.925    3.7855
    2.940    3.6290
    2.955    3.6606
    2.970    3.7208
    2.985    3.8095
    3.000    3.7328
    3.015    3.6907
    3.030    3.7493
    3.045    3.7794
    3.060    3.7132
    3.075    3.7042
    3.090    3.6515
    3.105    3.6531
    3.120    3.6531
    3.135    3.7208
    3.150    3.7659
    3.165    3.6666
    3.180    3.7629
    3.195    3.6365
    3.210    3.6741
    3.225    3.5838
    3.240    3.6606
    3.255    3.6410
    3.270    3.6666
    3.285    3.7403
    3.300    3.6636
    3.315    3.7132
    3.330    3.6846
    3.345    3.7132
    3.360    3.7885
    3.375    3.7855
    3.390    3.7478
    3.405    3.7839
    3.420    3.7418
    3.435    3.6982
    3.450    3.7373
    3.465    3.7719
    3.480    3.8020
    3.495    3.7298
    3.510    3.7614
    3.525    3.7283
    3.540    3.6591
    3.555    3.7870
    3.570    3.8321
    3.585    3.7794
    3.600    3.7087
    3.615    3.7599
    3.630    3.9314
    3.645    3.8772
    3.660    3.7930
    3.675    3.9525
    3.690    3.9825
    3.705    3.8170
    3.720    3.8863
    3.735    3.8712
    3.750    3.8712
    3.765    3.9179
    3.780    4.0352
    3.795    4.0217
    3.810    4.0999
    3.825    4.1751
    3.840    4.1902
    3.855    4.2684
    3.870    4.1736
    3.885    4.1165
    3.900    4.0638
    3.915    3.8140
    3.930    3.7539
    3.945    3.6455
    3.960    3.6455
    3.975    3.6290
    3.990    3.6546
    4.005    3.5778
    4.020    3.5282
    4.035    3.4514
    4.050    3.5477
    4.065    3.5387
    4.080    3.5282
    4.095    3.5733
    4.110    3.5869
    4.125    3.6681
    4.140    3.6245
    4.155    3.5447
    4.170    3.5342
    4.185    3.5116
    4.200    3.5899
    4.215    3.5853
    4.230    3.6275
    4.245    3.6771
    4.260    3.5507
    4.275    3.5598
    4.290    3.4876
    4.305    3.5312
    4.320    3.5237
    4.335    3.5447
    4.350    3.5869
    4.365    3.5553
    4.380    3.5628
    4.395    3.5116
    4.410    3.5207
    4.425    3.5763
    4.440    3.5959
    4.455    3.4891
    4.470    3.5492
    4.485    3.4379
    4.500    3.5477
    4.515    3.5628
    4.530    3.5718
    4.545    3.5116
    4.560    3.5026
    4.575    3.5026
    4.590    3.5357
    4.605    3.3822
    4.620    3.3582
    4.635    3.5553
    4.650    3.5688
    4.665    3.5267
    4.680    3.5207
    4.695    3.5327
    4.710    3.4304
    4.725    3.6079
    4.740    3.5327
    4.755    3.4018
    4.770    3.5477
    4.785    3.4319
    4.800    3.5643
    4.815    3.5643
    4.830    3.4229
    4.845    3.4876
    4.860    3.6019
    4.875    3.5222
    4.890    3.4966
    4.905    3.4755
    4.920    3.4725
    4.935    3.6335
    4.950    3.6109
    4.965    3.4334
    4.980    3.5312
    4.995    3.5899
    5.010    3.4891
    5.025    3.5583
    5.040    3.5568
    5.055    3.5342
    5.070    3.4560
    5.085    3.5357
    5.100    3.4966
    5.115    3.5748
    5.130    3.4876
    5.145    3.4800
    5.160    3.4951
    5.175    3.4740
    5.190    3.4906
    5.205    3.4936
    5.220    3.4424
    5.235    3.5267
    5.250    3.4740
    5.265    3.6455
    5.280    3.4244
    5.295    3.4319
    5.310    3.4830
    5.325    3.4951
    5.340    3.6124
    5.355    3.6094
    5.370    3.4725
    5.385    3.5432
    5.400    3.7418
    5.415    3.5778
    5.430    3.5884
    5.445    3.6651
    5.460    3.7343
    5.475    3.6215
    5.490    3.5884
    5.505    3.5161
    5.520    3.6395
    5.535    3.5703
    5.550    3.5568
    5.565    3.5417
    5.580    3.5974
    5.595    3.6154
    5.610    3.4439
    5.625    3.5492
    5.640    3.4951
    5.655    3.4364
    5.670    3.5282
    5.685    3.6019
    5.700    3.5733
    5.715    3.5838
    5.730    3.5492
    5.745    3.5673
    5.760    3.4695
    5.775    3.5432
    5.790    3.3807
    5.805    3.4951
    5.820    3.6049
    5.835    3.4755
    5.850    3.4891
    5.865    3.5161
    5.880    3.5237
    5.895    3.4244
    5.910    3.5222
    5.925    3.5703
    5.940    3.6049
    5.955    3.5447
    5.970    3.5763
    5.985    3.5914
    6.000    3.5191
    6.015    3.5267
    6.030    3.4936
    6.045    3.4981
    6.060    3.4590
    6.075    3.4921
    6.090    3.5131
    6.105    3.4439
    6.120    3.4560
    6.135    3.6335
    6.150    3.6169
    6.165    3.5763
    6.180    3.4755
    6.195    3.5191
    6.210    3.4785
    6.225    3.5869
    6.240    3.4168
    6.255    3.5222
    6.270    3.5703
    6.285    3.5116
    6.300    3.6485
    6.315    3.5748
    6.330    3.4740
    6.345    3.5688
    6.360    3.5673
    6.375    3.6561
    6.390    3.5658
    6.405    3.5793
    6.420    3.5718
    6.435    3.7042
    6.450    3.7463
    6.465    3.6711
    6.480    3.6440
    6.495    3.5748
    6.510    3.7268
    6.525    3.6139
    6.540    3.7162
    6.555    3.7268
    6.570    3.5718
    6.585    3.5989
    6.600    3.7027
    6.615    3.6576
    6.630    3.7689
    6.645    3.8065
    6.660    3.6576
    6.675    3.8020
    6.690    3.7779
    6.705    3.7388
    6.720    3.8276
    6.735    3.8216
    6.750    3.7945
    6.765    3.6801
    6.780    3.5793
    6.795    3.6455
    6.810    3.6275
    6.825    3.6515
    6.840    3.6756
    6.855    3.6365
    6.870    3.6576
    6.885    3.5974
    6.900    3.6937
    6.915    3.6606
    6.930    3.5869
    6.945    3.6200
    6.960    3.7268
    6.975    3.7223
    6.990    3.6094
    7.005    3.5733
    7.020    3.6922
    7.035    3.6064
    7.050    3.6305
    7.065    3.6079
    7.080    3.6786
    7.095    3.7072
    7.110    3.6440
    7.125    3.7388
    7.140    3.5613
    7.155    3.6049
    7.170    3.6500
    7.185    3.5613
    7.200    3.5703
    7.215    3.6606
    7.230    3.6320
    7.245    3.5793
    7.260    3.5808
    7.275    3.6515
    7.290    3.6561
    7.305    3.6139
    7.320    3.7599
    7.335    3.6154
    7.350    3.6004
    7.365    3.6546
    7.380    3.6154
    7.395    3.5929
    7.410    3.7027
    7.425    3.7960
    7.440    3.6922
    7.455    3.6410
    7.470    3.7193
    7.485    3.6470
    7.500    3.7839
    7.515    3.8140
    7.530    3.7809
    7.545    3.7253
    7.560    3.7749
    7.575    3.7313
    7.590    3.7253
    7.605    3.8697
    7.620    3.7147
    7.635    3.7960
    7.650    3.7824
    7.665    3.6245
    7.680    3.8261
    7.695    3.8517
    7.710    3.8411
    7.725    3.7945
    7.740    3.8005
    7.755    3.8983
    7.770    3.8938
    7.785    3.7057
    7.800    3.8622
    7.815    3.9419
    7.830    3.8095
    7.845    3.8186
    7.860    3.7027
    7.875    3.7388
    7.890    3.8411
    7.905    3.7253
    7.920    3.7794
    7.935    3.7508
    7.950    3.8321
    7.965    3.7990
    7.980    3.7734
    7.995    3.8486
    8.010    3.8065
    8.025    3.8351
    8.040    3.8848
    8.055    3.7223
    8.070    3.8381
    8.085    3.8622
    8.100    3.8923
    8.115    3.7779
    8.130    3.7268
    8.145    3.7870
    8.160    3.8727
    8.175    3.8562
    8.190    3.8291
    8.205    3.7960
    8.220    3.9133
    8.235    3.8652
    8.250    3.8637
    8.265    3.8486
    8.280    3.8005
    8.295    3.8577
    8.310    3.8712
    8.325    3.8351
    8.340    3.8772
    8.355    3.9058
    8.370    3.8336
    8.385    3.8020
    8.400    3.8547
    8.415    3.8757
    8.430    3.9479
    8.445    3.8848
    8.460    3.8456
    8.475    3.8261
    8.490    3.8908
    8.505    3.9299
    8.520    3.8351
    8.535    3.9825
    8.550    3.9570
    8.565    3.7930
    8.580    3.8923
    8.595    3.9449
    8.610    3.9555
    8.625    3.9088
    8.640    3.9344
    8.655    3.9209
    8.670    3.8757
    8.685    3.8547
    8.700    4.0172
    8.715    3.8817
    8.730    3.9976
    8.745    3.9224
    8.760    3.9013
    8.775    3.9464
    8.790    4.0172
    8.805    3.9555
    8.820    4.0066
    8.835    3.8832
    8.850    3.9555
    8.865    3.9434
    8.880    4.0533
    8.895    4.0803
    8.910    4.0322
    8.925    3.8908
    8.940    3.9961
    8.955    3.9750
    8.970    3.9886
    8.985    4.0457
    9.000    4.0623
    9.015    4.0427
    9.030    4.0126
    9.045    4.0518
    9.060    4.0156
    9.075    4.0864
    9.090    4.2443
    9.105    4.0999
    9.120    4.0653
    9.135    3.9660
    9.150    3.9991
    9.165    3.9118
    9.180    4.0442
    9.195    4.2067
    9.210    4.2639
    9.225    4.1646
    9.240    4.1736
    9.255    4.1480
    9.270    4.0593
    9.285    4.1631
    9.300    4.1992
    9.315    4.0187
    9.330    4.1240
    9.345    4.1059
    9.360    4.2022
    9.375    4.0487
    9.390    3.9991
    9.405    4.1496
    9.420    4.2368
    9.435    4.2489
    9.450    4.3090
    9.465    4.3120
    9.480    4.3707
    9.495    4.3587
    9.510    4.3376
    9.525    4.3421
    9.540    4.2729
    9.555    4.3045
    9.570    4.3421
    9.585    4.2835
    9.600    4.1315
    9.615    4.1917
    9.630    4.0879
    9.645    4.0593
    9.660    4.0999
    9.675    4.2173
    9.690    4.1977
    9.705    4.1661
    9.720    4.1676
    9.735    4.1827
    9.750    4.2624
    9.765    4.2248
    9.780    4.1541
    9.795    4.1180
    9.810    4.1827
    9.825    4.2142
    9.840    4.2022
    9.855    4.1827
    9.870    4.2428
    9.885    4.2203
    9.900    4.1781
    9.915    4.1962
    9.930    4.2067
    9.945    4.2443
    9.960    4.3406
    9.975    4.3451
    9.990    4.2865
   10.005    4.3707
   10.020    4.3271
   10.035    4.3075
   10.050    4.2985
   10.065    4.2955
   10.080    4.3241
   10.095    4.2383
   10.110    4.3060
   10.125    4.3301
   10.140    4.3632
   10.155    4.2835
   10.170    4.4625
   10.185    4.3918
   10.200    4.3135
   10.215    4.4098
   10.230    4.4083
   10.245    4.4836
   10.260    4.5061
   10.275    4.6115
   10.290    4.5678
   10.305    4.5046
   10.320    4.5452
   10.335    4.4821
   10.350    4.3978
   10.365    4.3527
   10.380    4.3256
   10.395    4.3497
   10.410    4.3271
   10.425    4.3090
   10.440    4.3797
   10.455    4.3933
   10.470    4.4625
   10.485    4.3271
   10.500    4.4113
   10.515    4.4986
   10.530    4.4565
   10.545    4.5121
   10.560    4.5723
   10.575    4.3978
   10.590    4.4264
   10.605    4.6069
   10.620    4.5287
   10.635    4.5829
   10.650    4.5498
   10.665    4.5197
   10.680    4.4339
   10.695    4.3692
   10.710    4.4083
   10.725    4.5182
   10.740    4.5347
   10.755    4.5859
   10.770    4.6641
   10.785    4.4926
   10.800    4.6054
   10.815    4.6039
   10.830    4.5513
   10.845    4.6551
   10.860    4.7108
   10.875    4.5377
   10.890    4.4294
   10.905    4.5528
   10.920    4.6190
   10.935    4.7273
   10.950    4.8040
   10.965    4.7875
   10.980    4.7754
   10.995    4.6190
   11.010    4.6521
   11.025    4.6837
   11.040    4.6009
   11.055    4.5558
   11.070    4.5468
   11.085    4.7153
   11.100    4.6792
   11.115    4.7108
   11.130    4.5708
   11.145    4.7408
   11.160    4.7499
   11.175    4.7724
   11.190    4.6987
   11.205    4.6686
   11.220    4.7123
   11.235    4.7439
   11.250    4.7634
   11.265    4.6867
   11.280    4.6777
   11.295    4.7484
   11.310    4.6867
   11.325    4.6792
   11.340    4.7198
   11.355    4.7318
   11.370    4.6671
   11.385    4.7198
   11.400    4.7484
   11.415    4.7303
   11.430    4.6506
   11.445    4.8206
   11.460    4.6852
   11.475    4.7619
   11.490    4.7017
   11.505    4.7830
   11.520    4.8477
   11.535    4.7469
   11.550    4.7679
   11.565    4.8717
   11.580    4.9876
   11.595    4.9154
   11.610    5.0011
   11.625    5.0177
   11.640    4.9304
   11.655    4.9635
   11.670    4.9485
   11.685    4.9470
   11.700    4.9936
   11.715    4.9334
   11.730    5.1531
   11.745    4.9485
   11.760    4.9139
   11.775    4.8161
   11.790    5.0041
   11.805    4.9048
   11.820    4.9740
   11.835    4.9109
   11.850    4.9394
   11.865    4.9951
   11.880    4.8943
   11.895    4.9304
   11.910    4.9966
   11.925    4.9394
   11.940    5.0132
   11.955    5.0824
   11.970    5.0162
   11.985    5.0117
   12.000    5.0267
   12.015    5.1335
   12.030    5.2148
   12.045    5.0387
   12.060    5.0658
   12.075    5.2133
   12.090    5.0779
   12.105    5.0643
   12.120    4.9861
   12.135    5.1817
   12.150    5.1170
   12.165    5.0794
   12.180    5.1787
   12.195    5.2870
   12.210    5.2659
   12.225    5.1501
   12.240    5.1922
   12.255    5.2118
   12.270    5.4374
   12.285    5.3562
   12.300    5.2088
   12.315    5.1772
   12.330    5.1847
   12.345    5.2027
   12.360    5.2464
   12.375    5.2825
   12.390    5.2584
   12.405    5.3156
   12.420    5.1651
   12.435    5.3517
   12.450    5.3366
   12.465    5.3412
   12.480    5.4645
   12.495    5.4149
   12.510    5.2704
   12.525    5.3366
   12.540    5.3592
   12.555    5.3773
   12.570    5.3246
   12.585    5.4194
   12.600    5.3682
   12.615    5.3532
   12.630    5.3532
   12.645    5.5909
   12.660    5.5337
   12.675    5.3697
   12.690    5.3833
   12.705    5.5036
   12.720    5.4585
   12.735    5.5894
   12.750    5.5262
   12.765    5.3712
   12.780    5.5894
   12.795    5.5533
   12.810    5.5503
   12.825    5.5458
   12.840    5.5202
   12.855    5.6421
   12.870    5.6436
   12.885    5.6676
   12.900    5.7038
   12.915    5.5593
   12.930    5.6451
   12.945    5.7865
   12.960    5.7594
   12.975    5.6105
   12.990    5.7669
   13.005    5.6932
   13.020    5.6797
   13.035    5.6661
   13.050    5.5894
   13.065    5.6827
   13.080    5.7203
   13.095    5.8136
   13.110    5.8061
   13.125    5.8286
   13.140    5.8181
   13.155    5.8211
   13.170    5.8708
   13.185    5.9355
   13.200    5.7293
   13.215    5.9219
   13.230    5.7534
   13.245    5.7700
   13.260    5.8662
   13.275    5.9625
   13.290    5.7820
   13.305    5.8392
   13.320    5.9851
   13.335    5.8723
   13.350    5.9535
   13.365    5.8708
   13.380    5.7835
   13.395    5.9084
   13.410    5.9776
   13.425    6.0272
   13.440    5.9821
   13.455    6.1431
   13.470    5.9535
   13.485    6.1957
   13.500    6.1672
   13.515    6.2424
   13.530    6.0633
   13.545    6.1461
   13.560    6.0197
   13.575    6.1972
   13.590    6.1115
   13.605    6.1341
   13.620    6.1581
   13.635    6.1702
   13.650    6.3312
   13.665    6.1807
   13.680    6.2695
   13.695    6.1220
   13.710    6.3763
   13.725    6.2710
   13.740    6.3597
   13.755    6.3733
   13.770    6.2634
   13.785    6.3868
   13.800    6.4545
   13.815    6.5222
   13.830    6.4214
   13.845    6.5478
   13.860    6.2574
   13.875    6.4019
   13.890    6.4425
   13.905    6.4034
   13.920    6.4831
   13.935    6.3658
   13.950    6.3989
   13.965    6.5824
   13.980    6.6005
   13.995    6.4440
   14.010    6.5794
   14.025    6.6035
   14.040    6.5147
   14.055    6.5960
   14.070    6.5433
   14.085    6.5478
   14.100    6.6170
   14.115    6.6802
   14.130    6.8036
   14.145    6.8562
   14.160    6.7690
   14.175    6.7359
   14.190    6.6125
   14.205    6.6576
   14.220    6.7584
   14.235    6.7660
   14.250    6.8036
   14.265    6.9164
   14.280    6.8592
   14.295    7.0157
   14.310    6.9465
   14.325    7.0052
   14.340    6.9525
   14.355    6.9495
   14.370    6.9721
   14.385    7.0263
   14.400    6.8623
   14.415    6.9405
   14.430    6.9164
   14.445    7.1331
   14.460    7.2580
   14.475    7.1180
   14.490    7.0458
   14.505    7.0548
   14.520    7.1241
   14.535    7.1150
   14.550    7.2264
   14.565    7.1602
   14.580    7.3693
   14.595    7.0804
   14.610    7.2324
   14.625    7.2474
   14.640    7.1316
   14.655    7.2775
   14.670    7.3227
   14.685    7.3166
   14.700    7.3573
   14.715    7.2685
   14.730    7.4535
   14.745    7.5032
   14.760    7.4701
   14.775    7.3753
   14.790    7.3377
   14.805    7.4069
   14.820    7.4144
   14.835    7.5589
   14.850    7.5649
   14.865    7.4942
   14.880    7.4701
   14.895    7.6521
   14.910    7.6160
   14.925    7.5694
   14.940    7.6145
   14.955    7.6221
   14.970    7.7108
   14.985    7.7454
   15.000    7.7499
   15.015    7.7575
   15.030    7.9109
   15.045    7.6822
   15.060    7.8222
   15.075    7.9094
   15.090    7.8884
   15.105    7.8778
   15.120    7.9350
   15.135    7.8583
   15.150    8.0524
   15.165    8.0629
   15.180    8.0674
   15.195    8.0373
   15.210    8.1953
   15.225    8.1607
   15.240    8.3412
   15.255    8.2164
   15.270    8.1065
   15.285    8.2254
   15.300    8.0524
   15.315    8.2720
   15.330    8.2675
   15.345    8.1592
   15.360    8.3172
   15.375    8.3578
   15.390    8.3412
   15.405    8.3277
   15.420    8.2690
   15.435    8.2795
   15.450    8.3457
   15.465    8.4014
   15.480    8.4089
   15.495    8.5383
   15.510    8.8272
   15.525    8.8633
   15.540    8.5082
   15.555    8.5007
   15.570    8.5489
   15.585    8.6722
   15.600    8.8076
   15.615    8.7836
   15.630    8.9175
   15.645    8.8844
   15.660    8.8648
   15.675    8.7715
   15.690    8.7595
   15.705    9.0153
   15.720    8.7610
   15.735    9.0424
   15.750    8.9415
   15.765    8.9581
   15.780    9.0108
   15.795    8.8362
   15.810    8.9491
   15.825    9.0183
   15.840    9.1913
   15.855    9.2304
   15.870    9.0770
   15.885    9.1763
   15.900    9.0920
   15.915    9.3869
   15.930    9.3869
   15.945    9.5644
   15.960    9.2635
   15.975    9.3011
   15.990    9.5780
   16.005    9.5253
   16.020    9.5795
   16.035    9.6502
   16.050    9.6938
   16.065    9.7209
   16.080    9.6502
   16.095    9.6427
   16.110    9.8232
   16.125    9.8307
   16.140    9.8022
   16.155    9.7600
   16.170    9.7826
   16.185    9.8082
   16.200    9.8623
   16.215    9.7736
   16.230    9.7600
   16.245    9.8037
   16.260   10.0053
   16.275    9.8999
   16.290   10.0654
   16.305    9.9376
   16.320   10.2099
   16.335   10.3679
   16.350   10.2264
   16.365   10.1271
   16.380   10.1422
   16.395   10.2776
   16.410   10.5394
   16.425   10.2565
   16.440   10.1768
   16.455   10.3754
   16.470   10.4145
   16.485   10.3438
   16.500   10.4777
   16.515   10.5078
   16.530   10.5785
   16.545   10.5770
   16.560   10.5198
   16.575   10.6643
   16.590   10.6387
   16.605   10.6447
   16.620   10.9486
   16.635   10.9276
   16.650   10.9321
   16.665   10.6793
   16.680   10.7982
   16.695   10.9080
   16.710   10.8358
   16.725   11.1803
   16.740   11.0509
   16.755   10.9050
   16.770   10.7711
   16.785   10.8508
   16.800   11.0344
   16.815   11.2390
   16.830   11.2586
   16.845   11.2676
   16.860   11.3774
   16.875   11.4526
   16.890   11.4857
   16.905   11.7220
   16.920   11.4662
   16.935   11.3112
   16.950   11.5550
   16.965   11.7972
   16.980   11.4557
   16.995   11.6196
   17.010   11.7445
   17.025   11.8107
   17.040   11.6919
   17.055   11.6889
   17.070   11.7430
   17.085   11.8002
   17.100   11.8950
   17.115   11.9657
   17.130   11.9025
   17.145   12.0951
   17.160   11.8604
   17.175   11.9973
   17.190   12.0334
   17.205   11.9431
   17.220   12.0123
   17.235   11.9883
   17.250   12.0003
   17.265   12.2576
   17.280   12.2230
   17.295   12.2862
   17.310   12.3313
   17.325   12.4547
   17.340   12.3403
   17.355   12.1252
   17.370   12.3012
   17.385   12.3870
   17.400   12.5043
   17.415   12.4547
   17.430   12.5916
   17.445   12.8067
   17.460   12.6819
   17.475   12.5811
   17.490   12.7255
   17.505   12.8218
   17.520   12.9030
   17.535   12.7436
   17.550   12.8278
   17.565   12.8474
   17.580   12.8052
   17.595   12.8790
   17.610   13.0023
   17.625   13.1046
   17.640   12.9602
   17.655   12.8263
   17.670   13.1588
   17.685   13.1227
   17.700   13.1994
   17.715   13.2762
   17.730   13.2777
   17.745   13.0625
   17.760   13.2551
   17.775   13.2867
   17.790   13.2852
   17.805   13.2641
   17.820   13.3995
   17.835   13.3815
   17.850   13.6794
   17.865   13.6403
   17.880   13.5801
   17.895   13.5349
   17.910   13.7125
   17.925   13.8133
   17.940   13.5334
   17.955   13.8073
   17.970   13.6342
   17.985   13.7877
   18.000   13.7772
   18.015   13.9412
   18.030   13.7967
   18.045   13.9005
   18.060   14.0164
   18.075   13.9803
   18.090   13.9261
   18.105   13.9953
   18.120   13.9728
   18.135   14.0961
   18.150   14.0811
   18.165   14.1338
   18.180   13.9321
   18.195   14.1082
   18.210   14.3790
   18.225   14.1954
   18.240   14.1623
   18.255   14.2496
   18.270   14.2647
   18.285   14.4362
   18.300   14.4633
   18.315   14.4557
   18.330   14.4392
   18.345   14.3504
   18.360   14.5866
   18.375   14.4422
   18.390   14.3745
   18.405   14.3339
   18.420   14.3564
   18.435   14.5550
   18.450   14.4933
   18.465   14.6272
   18.480   14.6679
   18.495   14.5475
   18.510   14.4783
   18.525   14.5355
   18.540   14.5671
   18.555   14.6844
   18.570   14.6573
   18.585   14.7341
   18.600   14.9492
   18.615   14.8544
   18.630   14.7657
   18.645   14.7581
   18.660   14.9552
   18.675   15.0651
   18.690   14.9086
   18.705   14.9387
   18.720   14.9778
   18.735   15.0184
   18.750   15.1042
   18.765   15.0214
   18.780   15.1012
   18.795   15.1027
   18.810   14.9598
   18.825   14.8890
   18.840   15.0350
   18.855   15.0861
   18.870   15.2080
   18.885   15.2697
   18.900   14.9914
   18.915   15.1659
   18.930   15.1599
   18.945   15.1418
   18.960   14.9733
   18.975   15.1975
   18.990   15.1569
   19.005   15.1313
   19.020   15.3103
   19.035   15.6187
   19.050   15.1599
   19.065   14.9929
   19.080   15.1388
   19.095   15.3750
   19.110   15.4969
   19.125   15.2712
   19.140   15.3299
   19.155   15.3389
   19.170   15.2546
   19.185   15.3765
   19.200   15.4006
   19.215   15.1809
   19.230   15.3464
   19.245   15.3840
   19.260   15.3178
   19.275   15.3299
   19.290   15.1388
   19.305   15.1704
   19.320   15.4457
   19.335   15.4217
   19.350   15.3043
   19.365   15.3043
   19.380   15.2306
   19.395   15.2893
   19.410   15.3645
   19.425   15.4803
   19.440   15.2170
   19.455   15.3389
   19.470   15.2832
   19.485   15.5495
   19.500   15.3825
   19.515   15.2456
   19.530   15.3224
   19.545   15.4517
   19.560   15.3208
   19.575   15.2652
   19.590   15.3509
   19.605   15.2712
   19.620   15.5375
   19.635   15.4051
   19.650   15.2577
   19.665   15.4292
   19.680   15.5210
   19.695   15.1222
   19.710   15.1042
   19.725   15.3359
   19.740   15.1674
   19.755   15.2366
   19.770   15.1192
   19.785   15.1102
   19.800   15.1734
   19.815   15.2667
   19.830   15.3088
   19.845   15.2592
   19.860   15.3585
   19.875   15.2456
   19.890   15.0064
   19.905   15.2231
   19.920   15.4156
   19.935   15.2802
   19.950   15.2953
   19.965   15.1358
   19.980   15.1418
   19.995   15.1253
   20.010   15.2742
   20.025   15.4307
   20.040   15.2787
   20.055   15.2140
   20.070   15.1463
   20.085   15.1538
   20.100   15.2095
   20.115   15.0500
   20.130   15.0335
   20.145   15.0064
   20.160   15.2050
   20.175   14.9462
   20.190   14.9763
   20.205   15.2351
   20.220   15.0621
   20.235   15.0320
   20.250   14.9643
   20.265   15.0094
   20.280   14.8936
   20.295   14.9778
   20.310   14.9868
   20.325   14.9929
   20.340   15.0305
   20.355   15.1644
   20.370   15.0515
   20.385   15.0275
   20.400   14.8243
   20.415   14.8319
   20.430   14.6904
   20.445   14.7551
   20.460   14.8379
   20.475   14.8168
   20.490   14.9628
   20.505   14.9914
   20.520   14.6995
   20.535   14.6453
   20.550   14.7175
   20.565   14.7416
   20.580   14.8875
   20.595   14.7356
   20.610   14.6588
   20.625   14.5325
   20.640   14.7566
   20.655   14.5249
   20.670   14.5731
   20.685   14.3955
   20.700   14.5626
   20.715   14.5535
   20.730   14.4979
   20.745   14.4286
   20.760   14.2586
   20.775   14.1939
   20.790   14.1473
   20.805   14.3384
   20.820   14.2782
   20.835   14.1172
   20.850   14.2707
   20.865   14.3504
   20.880   14.3760
   20.895   14.3023
   20.910   14.1759
   20.925   14.1744
   20.940   14.1533
   20.955   14.2978
   20.970   14.2571
   20.985   14.1323
   21.000   14.1699
   21.015   14.1804
   21.030   14.2541
   21.045   14.0345
   21.060   14.1007
   21.075   13.9352
   21.090   13.9261
   21.105   14.2662
   21.120   14.3113
   21.135   13.8720
   21.150   13.6839
   21.165   13.7922
   21.180   13.9051
   21.195   13.9668
   21.210   13.7802
   21.225   13.7275
   21.240   13.8885
   21.255   13.8238
   21.270   13.9021
   21.285   13.8313
   21.300   13.7260
   21.315   13.9246
   21.330   13.7982
   21.345   13.6673
   21.360   13.7742
   21.375   13.7245
   21.390   13.6989
   21.405   13.5921
   21.420   13.5485
   21.435   13.6282
   21.450   13.6388
   21.465   13.6282
   21.480   13.6327
   21.495   13.6087
   21.510   13.5921
   21.525   13.5515
   21.540   13.3258
   21.555   13.5033
   21.570   13.4793
   21.585   13.6704
   21.600   13.3348
   21.615   13.4221
   21.630   13.5410
   21.645   13.4341
   21.660   13.4913
   21.675   13.2175
   21.690   13.2521
   21.705   13.0625
   21.720   13.2145
   21.735   13.3755
   21.750   13.2115
   21.765   13.0174
   21.780   13.1092
   21.795   13.0490
   21.810   13.1648
   21.825   12.9828
   21.840   12.9632
   21.855   13.0821
   21.870   13.1949
   21.885   13.0655
   21.900   12.9060
   21.915   13.0053
   21.930   12.8248
   21.945   12.8007
   21.960   13.1468
   21.975   12.9527
   21.990   12.8113
   22.005   12.8820
   22.020   12.8820
   22.035   12.9617
   22.050   12.9737
   22.065   12.8158
   22.080   12.6111
   22.095   12.7481
   22.110   12.7992
   22.125   12.7029
   22.140   12.6849
   22.155   12.7405
   22.170   12.6337
   22.185   12.7285
   22.200   12.6503
   22.215   12.6307
   22.230   12.6006
   22.245   12.4637
   22.260   12.5073
   22.275   12.5224
   22.290   12.4908
   22.305   12.4321
   22.320   12.5344
   22.335   12.4742
   22.350   12.5344
   22.365   12.2892
   22.380   12.3779
   22.395   12.7706
   22.410   12.2997
   22.425   12.3900
   22.440   12.5465
   22.455   12.6202
   22.470   12.3238
   22.485   12.3524
   22.500   12.2832
   22.515   12.3463
   22.530   12.1192
   22.545   12.0755
   22.560   12.2230
   22.575   12.3208
   22.590   11.9777
   22.605   12.0620
   22.620   12.1733
   22.635   12.1553
   22.650   12.1237
   22.665   12.1733
   22.680   12.3178
   22.695   11.8875
   22.710   11.9281
   22.725   11.8709
   22.740   11.9491
   22.755   11.7987
   22.770   11.7942
   22.785   12.0560
   22.800   12.0635
   22.815   12.1312
   22.830   11.9913
   22.845   11.9191
   22.860   11.9100
   22.875   11.8694
   22.890   11.9672
   22.905   11.7671
   22.920   11.7596
   22.935   11.6979
   22.950   11.5369
   22.965   11.6934
   22.980   11.8664
   22.995   11.7656
   23.010   11.7611
   23.025   11.9176
   23.040   11.8333
   23.055   11.6843
   23.070   11.6753
   23.085   11.8559
   23.100   11.7957
   23.115   11.7671
   23.130   11.6512
   23.145   11.6678
   23.160   11.4903
   23.175   11.6121
   23.190   11.6949
   23.205   11.3819
   23.220   11.4090
   23.235   11.5926
   23.250   11.5158
   23.265   11.5053
   23.280   11.4797
   23.295   11.3789
   23.310   11.4301
   23.325   11.5745
   23.340   11.3774
   23.355   11.1683
   23.370   11.2089
   23.385   11.3263
   23.400   11.1201
   23.415   11.1171
   23.430   11.1728
   23.445   11.3278
   23.460   11.1728
   23.475   11.1833
   23.490   11.3172
   23.505   11.3353
   23.520   11.1893
   23.535   11.2420
   23.550   11.2450
   23.565   11.1924
   23.580   10.9140
   23.595   11.0178
   23.610   10.9907
   23.625   11.0103
   23.640   10.9652
   23.655   10.8884
   23.670   10.9652
   23.685   10.9742
   23.700   10.9847
   23.715   10.8644
   23.730   10.7666
   23.745   11.0449
   23.760   10.9426
   23.775   10.8659
   23.790   10.8899
   23.805   10.8704
   23.820   10.8313
   23.835   10.8418
   23.850   10.8463
   23.865   10.8418
   23.880   10.8087
   23.895   10.9065
   23.910   10.8102
   23.925   10.8102
   23.940   10.8764
   23.955   10.7816
   23.970   10.5996
   23.985   10.6432
   24.000   10.6944
   24.015   10.5589
   24.030   10.4566
   24.045   10.6357
   24.060   10.6582
   24.075   10.7771
   24.090   10.6056
   24.105   10.7034
   24.120   10.7259
   24.135   10.7335
   24.150   10.5093
   24.165   10.4536
   24.180   10.5996
   24.195   10.5168
   24.210   10.3995
   24.225   10.5334
   24.240   10.5033
   24.255   10.6658
   24.270   10.2836
   24.285   10.4807
   24.300   10.5213
   24.315   10.4416
   24.330   10.1933
   24.345   10.2941
   24.360   10.4792
   24.375   10.4055
   24.390   10.2490
   24.405   10.3709
   24.420   10.2505
   24.435   10.1783
   24.450   10.2505
   24.465   10.2054
   24.480   10.1316
   24.495   10.2400
   24.510   10.2009
   24.525   10.3784
   24.540   10.2475
   24.555   10.2926
   24.570   10.2370
   24.585   10.2791
   24.600   10.2550
   24.615   10.1482
   24.630   10.0609
   24.645    9.8458
   24.660    9.9466
   24.675   10.1226
   24.690   10.2415
   24.705   10.2099
   24.720   10.1843
   24.735   10.0143
   24.750   10.1933
   24.765    9.9827
   24.780   10.0278
   24.795   10.0805
   24.810    9.9857
   24.825    9.7931
   24.840    9.8699
   24.855    9.9887
   24.870   10.0685
   24.885    9.8277
   24.900    9.7826
   24.915    9.9646
   24.930    9.8849
   24.945    9.7450
   24.960    9.8232
   24.975    9.9120
   24.990    9.8322
   25.005    9.8202
   25.020    9.7991
   25.035    9.7134
   25.050    9.7841
   25.065    9.7375
   25.080    9.7209
   25.095    9.8097
   25.110    9.8157
   25.125    9.7405
   25.140    9.8262
   25.155    9.5058
   25.170    9.5027
   25.185    9.7104
   25.200    9.5840
   25.215    9.6968
   25.230    9.7299
   25.245    9.7360
   25.260    9.4742
   25.275    9.5073
   25.290    9.5238
   25.305    9.5765
   25.320    9.6607
   25.335    9.6291
   25.350    9.6111
   25.365    9.4215
   25.380    9.5268
   25.395    9.7134
   25.410    9.6397
   25.425    9.4651
   25.440    9.5990
   25.455    9.5975
   25.470    9.4501
   25.485    9.2334
   25.500    9.3011
   25.515    9.3764
   25.530    9.3944
   25.545    9.4396
   25.560    9.3403
   25.575    9.3643
   25.590    9.3628
   25.605    9.3839
   25.620    9.4832
   25.635    9.3899
   25.650    9.3026
   25.665    9.3117
   25.680    9.2906
   25.695    9.2831
   25.710    9.3252
   25.725    9.4110
   25.740    9.3959
   25.755    9.3959
   25.770    9.2033
   25.785    9.3177
   25.800    9.2515
   25.815    9.4110
   25.830    9.1191
   25.845    8.9972
   25.860    9.1793
   25.875    9.1642
   25.890    9.1161
   25.905    9.1281
   25.920    9.1928
   25.935    9.3553
   25.950    9.2048
   25.965    9.1070
   25.980    9.0755
   25.995    9.1176
   26.010    9.1040
   26.025    9.1943
   26.040    8.8904
   26.055    9.0604
   26.070    9.0243
   26.085    8.9506
   26.100    9.0469
   26.115    9.0514
   26.130    8.9987
   26.145    9.0860
   26.160    8.8799
   26.175    8.8979
   26.190    8.9205
   26.205    9.0649
   26.220    9.0153
   26.235    8.8377
   26.250    8.8107
   26.265    8.9521
   26.280    8.9626
   26.295    8.9521
   26.310    8.8588
   26.325    8.8182
   26.340    8.7760
   26.355    8.7776
   26.370    8.8438
   26.385    8.7941
   26.400    8.9446
   26.415    8.8543
   26.430    9.0288
   26.445    8.9867
   26.460    8.8122
   26.475    8.8016
   26.490    8.8498
   26.505    8.8107
   26.520    8.8347
   26.535    8.7685
   26.550    8.7369
   26.565    8.7219
   26.580    8.8693
   26.595    8.7715
   26.610    8.6948
   26.625    8.6587
   26.640    8.7309
   26.655    8.6798
   26.670    8.5729
   26.685    8.6632
   26.700    8.6331
   26.715    8.5383
   26.730    8.4781
   26.745    8.6391
   26.760    8.4751
   26.775    8.5549
   26.790    8.5233
   26.805    8.6843
   26.820    8.6587
   26.835    8.5925
   26.850    8.6572
   26.865    8.6075
   26.880    8.6467
   26.895    8.6015
   26.910    8.5128
   26.925    8.6181
   26.940    8.5729
   26.955    8.4616
   26.970    8.6406
   26.985    8.4255
   27.000    8.4210
   27.015    8.4240
   27.030    8.4827
   27.045    8.4496
   27.060    8.1878
   27.075    8.3864
   27.090    8.5037
   27.105    8.5097
   27.120    8.5248
   27.135    8.5805
   27.150    8.3126
   27.165    8.4450
   27.180    8.4195
   27.195    8.4135
   27.210    8.3412
   27.225    8.4541
   27.240    8.4496
   27.255    8.4360
   27.270    8.2720
   27.285    8.2299
   27.300    8.2780
   27.315    8.2269
   27.330    8.2705
   27.345    8.3804
   27.360    8.4450
   27.375    8.4526
   27.390    8.3743
   27.405    8.3157
   27.420    8.2660
   27.435    8.4195
   27.450    8.2780
   27.465    8.1487
   27.480    8.0870
   27.495    8.1351
   27.510    7.9937
   27.525    8.1095
   27.540    8.1607
   27.555    8.2540
   27.570    8.2735
   27.585    7.9621
   27.600    8.1321
   27.615    8.1532
   27.630    8.0012
   27.645    8.1441
   27.660    8.1065
   27.675    8.1035
   27.690    8.0313
   27.705    8.1487
   27.720    8.1125
   27.735    7.9681
   27.750    8.1456
   27.765    8.2164
   27.780    8.1802
   27.795    8.1487
   27.810    7.8673
   27.825    8.0057
   27.840    7.9831
   27.855    8.1125
   27.870    8.0689
   27.885    7.9937
   27.900    8.0253
   27.915    7.9816
   27.930    7.9425
   27.945    8.0343
   27.960    7.8598
   27.975    8.0343
   27.990    8.1125
   28.005    8.1186
   28.020    8.0764
   28.035    7.9892
   28.050    8.1261
   28.065    8.0117
   28.080    7.9681
   28.095    7.9425
   28.110    7.9455
   28.125    7.8372
   28.140    8.0087
   28.155    7.8507
   28.170    7.8297
   28.185    7.9576
   28.200    7.8041
   28.215    7.9335
   28.230    7.9019
   28.245    7.7590
   28.260    7.8071
   28.275    7.8869
   28.290    7.9245
   28.305    7.7484
   28.320    7.8252
   28.335    7.8131
   28.350    7.8372
   28.365    7.8146
   28.380    7.8432
   28.395    7.8553
   28.410    7.7815
   28.425    7.7469
   28.440    7.6537
   28.455    7.7153
   28.470    7.7966
   28.485    7.6868
   28.500    7.8131
   28.515    7.6973
   28.530    7.5784
   28.545    7.5528
   28.560    7.5859
   28.575    7.6582
   28.590    7.5423
   28.605    7.6296
   28.620    7.4129
   28.635    7.5709
   28.650    7.6792
   28.665    7.7951
   28.680    7.6627
   28.695    7.6792
   28.710    7.6010
   28.725    7.5649
   28.740    7.4596
   28.755    7.5498
   28.770    7.5784
   28.785    7.3618
   28.800    7.4159
   28.815    7.6612
   28.830    7.5017
   28.845    7.4460
   28.860    7.4460
   28.875    7.5453
   28.890    7.6582
   28.905    7.4701
   28.920    7.5002
   28.935    7.5679
   28.950    7.4099
   28.965    7.4505
   28.980    7.4430
   28.995    7.3678
   29.010    7.3121
   29.025    7.4099
   29.040    7.5137
   29.055    7.4836
   29.070    7.4851
   29.085    7.2790
   29.100    7.3738
   29.115    7.4535
   29.130    7.3588
   29.145    7.3181
   29.160    7.3693
   29.175    7.3603
   29.190    7.1963
   29.205    7.2971
   29.220    7.3046
   29.235    7.2670
   29.250    7.5062
   29.265    7.2911
   29.280    7.3362
   29.295    7.3512
   29.310    7.1993
   29.325    7.0894
   29.340    7.1346
   29.355    7.4129
   29.370    7.3302
   29.385    7.2896
   29.400    7.3317
   29.415    7.3467
   29.430    7.3512
   29.445    7.1195
   29.460    7.2805
   29.475    7.2519
   29.490    7.1722
   29.505    7.1316
   29.520    7.2519
   29.535    7.1857
   29.550    7.1948
   29.565    7.1090
   29.580    7.1857
   29.595    7.0910
   29.610    7.1767
   29.625    7.2444
   29.640    7.0849
   29.655    7.0940
   29.670    7.0654
   29.685    7.0759
   29.700    6.9029
   29.715    6.9390
   29.730    7.0714
   29.745    7.0022
   29.760    7.0849
   29.775    6.8923
   29.790    7.0308
   29.805    7.0202
   29.820    6.9465
   29.835    6.9826
   29.850    6.8893
   29.865    6.9616
   29.880    6.9932
   29.895    6.9901
   29.910    7.0293
   29.925    7.0172
   29.940    6.8562
   29.955    6.9360
   29.970    6.9420
   29.985    6.8577
   30.000    6.8442
   30.015    6.9360
   30.030    6.8939
   30.045    6.8683
   30.060    6.8277
   30.075    6.7615
   30.090    6.8292
   30.105    6.9886
   30.120    6.8397
   30.135    6.9616
   30.150    6.9285
   30.165    6.9224
   30.180    6.9149
   30.195    6.8126
   30.210    6.6907
   30.225    6.6727
   30.240    6.7554
   30.255    6.6832
   30.270    6.7193
   30.285    6.7344
   30.300    6.8713
   30.315    6.8322
   30.330    6.8216
   30.345    6.5689
   30.360    6.6486
   30.375    6.5899
   30.390    6.7419
   30.405    6.7268
   30.420    6.5598
   30.435    6.6682
   30.450    6.6652
   30.465    6.7329
   30.480    6.8081
   30.495    6.6787
   30.510    6.7043
   30.525    6.6697
   30.540    6.4967
   30.555    6.5418
   30.570    6.5704
   30.585    6.5869
   30.600    6.5629
   30.615    6.4786
   30.630    6.6020
   30.645    6.5132
   30.660    6.6922
   30.675    6.6095
   30.690    6.5388
   30.705    6.5824
   30.720    6.6396
   30.735    6.5313
   30.750    6.5749
   30.765    6.3733
   30.780    6.4079
   30.795    6.4289
   30.810    6.5042
   30.825    6.4876
   30.840    6.5373
   30.855    6.3853
   30.870    6.4575
   30.885    6.4259
   30.900    6.6381
   30.915    6.5162
   30.930    6.3041
   30.945    6.3522
   30.960    6.3898
   30.975    6.4350
   30.990    6.4801
   31.005    6.2875
   31.020    6.3417
   31.035    6.4124
   31.050    6.3176
   31.065    6.4681
   31.080    6.3567
   31.095    6.2544
   31.110    6.2063
   31.125    6.2273
   31.140    6.3688
   31.155    6.3161
   31.170    6.2454
   31.185    6.1641
   31.200    6.2559
   31.215    6.3011
   31.230    6.2303
   31.245    6.3522
   31.260    6.2514
   31.275    6.0317
   31.290    6.1837
   31.305    6.1942
   31.320    6.1897
   31.335    6.3342
   31.350    6.4064
   31.365    6.2258
   31.380    6.1070
   31.395    6.0784
   31.410    6.1220
   31.425    6.0694
   31.440    6.1220
   31.455    6.0904
   31.470    6.1807
   31.485    6.0633
   31.500    5.9896
   31.515    6.1461
   31.530    6.0302
   31.545    6.2439
   31.560    6.0317
   31.575    6.1055
   31.590    5.9550
   31.605    5.9836
   31.620    5.8738
   31.635    5.9340
   31.650    5.9565
   31.665    5.9580
   31.680    5.9415
   31.695    5.9415
   31.710    6.0934
   31.725    6.1310
   31.740    6.0513
   31.755    5.9490
   31.770    5.9219
   31.785    5.8873
   31.800    5.9761
   31.815    6.1822
   31.830    6.0483
   31.845    5.9655
   31.860    5.8377
   31.875    5.9370
   31.890    5.9340
   31.905    6.0302
   31.920    5.8632
   31.935    5.8647
   31.950    5.8467
   31.965    5.9084
   31.980    5.7639
   31.995    5.8617
   32.010    5.8046
   32.025    5.7353
   32.040    5.8031
   32.055    5.8046
   32.070    5.8362
   32.085    5.6902
   32.100    5.7639
   32.115    5.8106
   32.130    5.8467
   32.145    5.6661
   32.160    5.7293
   32.175    5.6977
   32.190    5.7669
   32.205    5.7293
   32.220    5.6481
   32.235    5.6195
   32.250    5.5127
   32.265    5.8256
   32.280    5.7730
   32.295    5.5774
   32.310    5.5909
   32.325    5.6992
   32.340    5.6872
   32.355    5.8542
   32.370    5.7113
   32.385    5.7323
   32.400    5.5849
   32.415    5.5653
   32.430    5.5638
   32.445    5.6376
   32.460    5.6090
   32.475    5.6240
   32.490    5.5352
   32.505    5.5413
   32.520    5.5307
   32.535    5.4721
   32.550    5.3773
   32.565    5.5744
   32.580    5.5819
   32.595    5.4374
   32.610    5.5322
   32.625    5.3818
   32.640    5.4164
   32.655    5.5277
   32.670    5.4059
   32.685    5.4465
   32.700    5.4179
   32.715    5.4540
   32.730    5.3968
   32.745    5.5142
   32.760    5.4480
   32.775    5.5729
   32.790    5.2900
   32.805    5.1681
   32.820    5.3096
   32.835    5.3758
   32.850    5.3983
   32.865    5.3983
   32.880    5.4224
   32.895    5.4645
   32.910    5.2945
   32.925    5.3171
   32.940    5.2614
   32.955    5.2238
   32.970    5.2930
   32.985    5.3908
   33.000    5.3652
   33.015    5.2900
   33.030    5.1395
   33.045    5.2614
   33.060    5.2148
   33.075    5.2810
   33.090    5.2840
   33.105    5.3336
   33.120    5.3276
   33.135    5.1922
   33.150    5.2118
   33.165    5.2133
   33.180    5.2178
   33.195    5.3487
   33.210    5.1576
   33.225    5.0523
   33.240    5.1200
   33.255    5.1907
   33.270    5.2659
   33.285    5.1395
   33.300    5.1230
   33.315    5.1365
   33.330    5.0764
   33.345    5.0357
   33.360    5.1486
   33.375    5.0357
   33.390    5.1651
   33.405    5.0884
   33.420    5.1711
   33.435    5.2494
   33.450    5.0357
   33.465    5.1937
   33.480    5.0418
   33.495    5.1095
   33.510    5.2073
   33.525    5.0342
   33.540    5.0087
   33.555    5.0944
   33.570    4.9831
   33.585    5.0643
   33.600    5.0282
   33.615    5.0613
   33.630    5.1892
   33.645    5.0102
   33.660    4.9394
   33.675    5.0643
   33.690    4.9620
   33.705    4.8462
   33.720    4.8853
   33.735    4.9801
   33.750    4.9605
   33.765    4.9425
   33.780    4.8432
   33.795    4.8386
   33.810    4.9695
   33.825    4.8958
   33.840    4.8447
   33.855    4.9515
   33.870    4.8657
   33.885    4.8823
   33.900    4.9018
   33.915    4.8492
   33.930    4.9033
   33.945    4.9078
   33.960    4.8793
   33.975    4.9154
   33.990    4.8101
   34.005    4.8838
   34.020    4.7739
   34.035    4.8326
   34.050    4.8657
   34.065    4.9334
   34.080    4.9078
   34.095    4.7664
   34.110    4.8040
   34.125    4.8582
   34.140    4.8281
   34.155    4.7830
   34.170    4.7017
   34.185    4.6385
   34.200    4.6671
   34.215    4.8116
   34.230    4.7770
   34.245    4.7123
   34.260    4.8266
   34.275    4.7168
   34.290    4.8161
   34.305    4.8522
   34.320    4.7047
   34.335    4.8401
   34.350    4.7273
   34.365    4.6130
   34.380    4.6235
   34.395    4.6777
   34.410    4.7213
   34.425    4.7739
   34.440    4.6355
   34.455    4.7183
   34.470    4.7258
   34.485    4.6370
   34.500    4.6280
   34.515    4.6957
   34.530    4.5317
   34.545    4.6024
   34.560    4.6009
   34.575    4.5784
   34.590    4.5227
   34.605    4.7393
   34.620    4.7529
   34.635    4.6250
   34.650    4.4896
   34.665    4.5573
   34.680    4.5407
   34.695    4.7153
   34.710    4.6340
   34.725    4.5693
   34.740    4.6551
   34.755    4.5558
   34.770    4.4565
   34.785    4.6039
   34.800    4.5332
   34.815    4.5603
   34.830    4.5061
   34.845    4.5558
   34.860    4.4384
   34.875    4.5528
   34.890    4.4505
   34.905    4.5663
   34.920    4.5227
   34.935    4.6039
   34.950    4.5362
   34.965    4.4595
   34.980    4.4580
   34.995    4.3527
   35.010    4.3843
   35.025    4.3737
   35.040    4.4640
   35.055    4.5182
   35.070    4.3752
   35.085    4.4249
   35.100    4.3767
   35.115    4.4204
   35.130    4.3000
   35.145    4.3873
   35.160    4.5362
   35.175    4.6054
   35.190    4.4008
   35.205    4.4008
   35.220    4.4881
   35.235    4.5167
   35.250    4.2489
   35.265    4.3737
   35.280    4.3391
   35.295    4.4128
   35.310    4.3120
   35.325    4.3181
   35.340    4.4159
   35.355    4.3602
   35.370    4.3271
   35.385    4.2534
   35.400    4.3948
   35.415    4.4730
   35.430    4.6054
   35.445    4.4053
   35.460    4.3497
   35.475    4.3451
   35.490    4.2233
   35.505    4.2293
   35.520    4.2323
   35.535    4.3331
   35.550    4.2880
   35.565    4.1556
   35.580    4.3993
   35.595    4.3135
   35.610    4.2774
   35.625    4.2955
   35.640    4.3512
   35.655    4.3316
   35.670    4.1947
   35.685    4.1857
   35.700    4.2564
   35.715    4.1390
   35.730    4.3421
   35.745    4.2082
   35.760    4.3120
   35.775    4.2233
   35.790    4.2504
   35.805    4.2278
   35.820    4.1616
   35.835    4.2293
   35.850    4.2519
   35.865    4.2037
   35.880    4.2759
   35.895    4.1586
   35.910    4.1375
   35.925    4.0788
   35.940    4.1405
   35.955    4.1240
   35.970    4.2473
   35.985    4.3512
   36.000    4.2007
   36.015    4.1435
   36.030    4.0849
   36.045    4.1721
   36.060    4.1706
   36.075    4.1119
   36.090    4.1977
   36.105    4.1992
   36.120    4.1180
   36.135    4.1165
   36.150    4.1962
   36.165    4.1842
   36.180    4.0803
   36.195    4.1285
   36.210    4.1450
   36.225    4.1616
   36.240    4.1571
   36.255    4.0924
   36.270    4.1781
   36.285    4.1827
   36.300    4.1270
   36.315    4.0924
   36.330    4.1646
   36.345    4.1450
   36.360    4.1029
   36.375    4.0503
   36.390    4.0232
   36.405    3.9991
   36.420    4.1074
   36.435    3.9856
   36.450    4.0999
   36.465    4.0367
   36.480    4.0412
   36.495    4.0322
   36.510    4.1134
   36.525    4.1526
   36.540    4.0803
   36.555    4.0999
   36.570    3.9871
   36.585    3.9871
   36.600    4.0006
   36.615    4.1240
   36.630    4.1420
   36.645    4.0412
   36.660    4.0442
   36.675    3.9615
   36.690    3.9540
   36.705    4.0021
   36.720    4.0232
   36.735    3.9630
   36.750    4.0487
   36.765    4.0412
   36.780    3.9194
   36.795    4.0668
   36.810    3.9871
   36.825    3.9931
   36.840    4.0653
   36.855    4.0563
   36.870    3.9494
   36.885    3.8817
   36.900    3.9780
   36.915    3.8020
   36.930    3.8757
   36.945    4.0217
   36.960    3.8863
   36.975    3.7870
   36.990    3.8938
   37.005    4.0608
   37.020    3.9871
   37.035    3.8817
   37.050    3.9901
   37.065    3.9148
   37.080    3.7870
   37.095    3.8742
   37.110    3.9525
   37.125    4.0984
   37.140    3.9510
   37.155    3.9720
   37.170    3.8396
   37.185    3.8968
   37.200    3.8712
   37.215    3.7870
   37.230    3.8667
   37.245    3.9163
   37.260    3.8231
   37.275    3.8908
   37.290    3.8998
   37.305    3.8471
   37.320    3.7584
   37.335    3.8637
   37.350    3.9434
   37.365    3.8411
   37.380    3.7704
   37.395    3.7719
   37.410    3.8787
   37.425    3.9148
   37.440    4.0578
   37.455    3.9148
   37.470    3.8186
   37.485    3.8321
   37.500    3.8667
   37.515    3.8321
   37.530    3.8953
   37.545    3.7659
   37.560    3.8953
   37.575    3.9479
   37.590    3.8547
   37.605    3.8817
   37.620    3.7719
   37.635    3.7223
   37.650    3.8080
   37.665    3.7945
   37.680    3.8246
   37.695    3.8787
   37.710    3.7689
   37.725    3.9344
   37.740    3.7057
   37.755    3.7704
   37.770    3.7779
   37.785    3.8562
   37.800    3.7644
   37.815    3.7358
   37.830    3.8035
   37.845    3.8065
   37.860    3.7704
   37.875    3.6816
   37.890    3.8336
   37.905    3.8246
   37.920    3.7268
   37.935    3.7599
   37.950    3.7749
   37.965    3.7433
   37.980    3.8396
   37.995    3.7629
   38.010    3.8261
   38.025    3.6801
   38.040    3.7554
   38.055    3.7839
   38.070    3.7539
   38.085    3.8080
   38.100    3.7779
   38.115    3.7885
   38.130    3.8201
   38.145    3.7493
   38.160    3.7448
   38.175    3.7524
   38.190    3.8170
   38.205    3.6500
   38.220    3.6862
   38.235    3.6019
   38.250    3.7373
   38.265    3.5853
   38.280    3.7403
   38.295    3.8231
   38.310    3.7824
   38.325    3.7268
   38.340    3.6230
   38.355    3.6275
   38.370    3.6967
   38.385    3.6967
   38.400    3.7478
   38.415    3.6531
   38.430    3.6967
   38.445    3.6756
   38.460    3.5748
   38.475    3.6846
   38.490    3.6862
   38.505    3.7463
   38.520    3.7418
   38.535    3.6455
   38.550    3.7057
   38.565    3.7960
   38.580    3.8441
   38.595    3.5914
   38.610    3.6034
   38.625    3.6651
   38.640    3.6455
   38.655    3.7719
   38.670    3.6320
   38.685    3.6245
   38.700    3.5312
   38.715    3.6335
   38.730    3.6922
   38.745    3.6200
   38.760    3.6726
   38.775    3.6576
   38.790    3.7102
   38.805    3.7012
   38.820    3.6997
   38.835    3.6230
   38.850    3.5402
   38.865    3.4936
   38.880    3.6455
   38.895    3.6606
   38.910    3.6801
   38.925    3.6410
   38.940    3.6831
   38.955    3.5733
   38.970    3.6109
   38.985    3.5101
   39.000    3.6711
   39.015    3.7057
   39.030    3.7177
   39.045    3.6816
   39.060    3.4800
   39.075    3.5477
   39.090    3.6380
   39.105    3.5237
   39.120    3.5176
   39.135    3.5432
   39.150    3.5688
   39.165    3.4725
   39.180    3.4966
   39.195    3.5929
   39.210    3.6952
   39.225    3.5598
   39.240    3.4860
   39.255    3.4860
   39.270    3.5718
   39.285    3.6425
   39.300    3.6440
   39.315    3.5116
   39.330    3.6275
   39.345    3.5477
   39.360    3.5297
   39.375    3.5853
   39.390    3.6515
   39.405    3.5568
   39.420    3.5417
   39.435    3.5944
   39.450    3.5011
   39.465    3.5553
   39.480    3.5884
   39.495    3.5462
   39.510    3.4319
   39.525    3.5402
   39.540    3.4484
   39.555    3.5598
   39.570    3.6154
   39.585    3.5161
   39.600    3.5432
   39.615    3.6064
   39.630    3.5959
   39.645    3.5357
   39.660    3.5282
   39.675    3.4951
   39.690    3.5026
   39.705    3.4815
   39.720    3.5944
   39.735    3.5688
   39.750    3.5462
   39.765    3.5838
   39.780    3.5312
   39.795    3.4830
   39.810    3.5778
   39.825    3.5056
   39.840    3.6139
   39.855    3.6260
   39.870    3.5808
   39.885    3.5568
   39.900    3.4665
   39.915    3.5312
   39.930    3.5161
   39.945    3.5929
   39.960    3.5522
   39.975    3.3973
   39.990    3.4620
