    1.500   13.5334
    1.515   13.7862
    1.530   13.2912
    1.545   13.5440
    1.560   13.4492
    1.575   13.1122
    1.590   13.1648
    1.605   12.9015
    1.620   12.4908
    1.635   13.1438
    1.650   13.1648
    1.665   12.4381
    1.680   12.5224
    1.695   13.0279
    1.710   12.6804
    1.725   12.3223
    1.740   12.5434
    1.755   12.5329
    1.770   12.6698
    1.785   12.6909
    1.800   12.6698
    1.815   12.5645
    1.830   12.2380
    1.845   12.2907
    1.860   12.2064
    1.875   12.2380
    1.890   12.0800
    1.905   12.9542
    1.920   12.5013
    1.935   12.3960
    1.950   12.3644
    1.965   12.5540
    1.980   12.4171
    1.995   12.3749
    2.010   12.5856
    2.025   12.4171
    2.040   12.7225
    2.055   12.2486
    2.070   12.1327
    2.085   12.5118
    2.100   12.7225
    2.115   12.8699
    2.130   13.1964
    2.145   12.7857
    2.160   13.2491
    2.175   13.3544
    2.190   13.5229
    2.205   13.2701
    2.220   13.5018
    2.235   13.9337
    2.250   13.6598
    2.265   13.7230
    2.280   13.4913
    2.295   13.4597
    2.310   13.7757
    2.325   14.0706
    2.340   13.9968
    2.355   14.3865
    2.370   14.7446
    2.385   14.9868
    2.400   14.8183
    2.415   15.2396
    2.430   15.4818
    2.445   15.3976
    2.460   16.5034
    2.475   16.6087
    2.490   16.1453
    2.505   16.4508
    2.520   16.6614
    2.535   16.3560
    2.550   16.6298
    2.565   16.7246
    2.580   17.4092
    2.595   17.8936
    2.610   17.7041
    2.625   18.2517
    2.640   18.1885
    2.655   17.8094
    2.670   18.3781
    2.685   19.6103
    2.700   20.0527
    2.715   20.1264
    2.730   21.0321
    2.745   20.4002
    2.760   20.5793
    2.775   21.3060
    2.790   21.5061
    2.805   22.4539
    2.820   22.4223
    2.835   22.2854
    2.850   23.1174
    2.865   24.1917
    2.880   24.8868
    2.895   25.3818
    2.910   25.8873
    2.925   26.3402
    2.940   27.1301
    2.955   28.6888
    2.970   28.8889
    2.985   29.0153
    3.000   29.8473
    3.015   30.4055
    3.030   32.0695
    3.045   32.8067
    3.060   32.4065
    3.075   34.8921
    3.090   36.1875
    3.105   37.1353
    3.120   37.5777
    3.135   38.5782
    3.150   40.3265
    3.165   41.6430
    3.180   43.8125
    3.195   45.6135
    3.210   47.2986
    3.225   48.4360
    3.240   50.5319
    3.255   51.8378
    3.270   55.7767
    3.285   58.6625
    3.300   59.9052
    3.315   64.5919
    3.330   67.8252
    3.345   72.5434
    3.360   76.2612
    3.375   79.4313
    3.390   84.5076
    3.405   90.2370
    3.420   95.1869
    3.435  101.2112
    3.450  102.6962
    3.465  103.4650
    3.480   98.5571
    3.495   90.5635
    3.510   80.1159
    3.525   68.9837
    3.540   59.8104
    3.555   51.4587
    3.570   44.5287
    3.585   40.4002
    3.600   36.9563
    3.615   35.1343
    3.630   33.1859
    3.645   32.7962
    3.660   31.5008
    3.675   30.9637
    3.690   30.7320
    3.705   31.5535
    3.720   31.5850
    3.735   32.6593
    3.750   32.6804
    3.765   32.4697
    3.780   34.2496
    3.795   34.3971
    3.810   35.6819
    3.825   36.5350
    3.840   38.0095
    3.855   38.8836
    3.870   40.0211
    3.885   39.7683
    3.900   40.4107
    3.915   40.6003
    3.930   41.8957
    3.945   42.1064
    3.960   42.5066
    3.975   42.9384
    3.990   44.3391
    4.005   43.3175
    4.020   42.8963
    4.035   42.5487
    4.050   41.4745
    4.065   40.6003
    4.080   39.2101
    4.095   38.1885
    4.110   36.4297
    4.125   35.8504
    4.140   34.3233
    4.155   32.4592
    4.170   30.6793
    4.185   28.1517
    4.200   26.6772
    4.215   25.5503
    4.230   23.7599
    4.245   22.0326
    4.260   21.0005
    4.275   19.8104
    4.290   18.7362
    4.305   17.2933
    4.320   16.1664
    4.335   16.3560
    4.350   15.4186
    4.365   14.0390
    4.380   12.9647
    4.395   12.4276
    4.410   11.6377
    4.425   11.2270
    4.440   11.1006
    4.455   10.3528
    4.470    9.8368
    4.485    9.3102
    4.500    9.1943
    4.515    8.6256
    4.530    8.7520
    4.545    8.0674
    4.560    8.4044
    4.575    8.0779
    4.590    7.2565
    4.605    7.5303
    4.620    7.7199
    4.635    7.7093
    4.650    7.5935
    4.665    6.7509
    4.680    7.0563
    4.695    6.9826
    4.710    6.6456
    4.725    6.5192
    4.740    6.4350
    4.755    6.4982
    4.770    6.3296
    4.785    6.4034
    4.800    6.3191
    4.815    6.3612
    4.830    6.0769
    4.845    6.3718
    4.860    5.9294
    4.875    6.0032
    4.890    6.1506
    4.905    6.3928
    4.920    5.9505
    4.935    5.8978
    4.950    5.9821
    4.965    5.7820
    4.980    6.0769
    4.995    6.0664
    5.010    5.4555
    5.025    5.5714
    5.040    5.6767
    5.055    5.6556
    5.070    6.1190
    5.085    6.0032
    5.100    5.6556
    5.115    5.8347
    5.130    5.7293
    5.145    5.4239
    5.160    5.8031
    5.175    5.6135
    5.190    5.8031
    5.205    5.8347
    5.220    5.6661
    5.235    5.8768
    5.250    5.5714
    5.265    5.4344
    5.280    5.4239
    5.295    5.8978
    5.310    5.2870
    5.325    5.2027
    5.340    5.2870
    5.355    5.5187
    5.370    5.3397
    5.385    5.1395
    5.400    5.5503
    5.415    5.4028
    5.430    5.8031
    5.445    5.3186
    5.460    5.1817
    5.475    5.5292
    5.490    5.0869
    5.505    4.8868
    5.520    5.1606
    5.535    5.0869
    5.550    5.3186
    5.565    5.1922
    5.580    5.1711
    5.595    5.0026
    5.610    5.2343
    5.625    5.3818
    5.640    5.4660
    5.655    5.4660
    5.670    5.1185
    5.685    5.2238
    5.700    5.3291
    5.715    4.7920
    5.730    4.7604
    5.745    5.2027
    5.760    5.1080
    5.775    5.0448
    5.790    4.9816
    5.805    4.9816
    5.820    5.1395
    5.835    5.2133
    5.850    5.0132
    5.865    4.8973
    5.880    5.1711
    5.895    5.2975
    5.910    4.9500
    5.925    4.9184
    5.940    5.1606
    5.955    4.9500
    5.970    5.0026
    5.985    5.1711
    6.000    4.9394
    6.015    5.1922
    6.030    5.3186
    6.045    5.1606
    6.060    5.2027
    6.075    5.2659
    6.090    5.3818
    6.105    5.3607
    6.120    5.3291
    6.135    5.0026
    6.150    5.4450
    6.165    5.3291
    6.180    5.2133
    6.195    5.5398
    6.210    5.0764
    6.225    4.9921
    6.240    5.1711
    6.255    5.2870
    6.270    5.2343
    6.285    5.3397
    6.300    5.1395
    6.315    5.1080
    6.330    5.3712
    6.345    5.6029
    6.360    5.6661
    6.375    5.3186
    6.390    5.4555
    6.405    5.6977
    6.420    5.8136
    6.435    5.6135
    6.450    5.6661
    6.465    5.5714
    6.480    5.7188
    6.495    5.9716
    6.510    6.1927
    6.525    6.2349
    6.540    6.1506
    6.555    6.2875
    6.570    6.2665
    6.585    6.9721
    6.600    6.4982
    6.615    6.8562
    6.630    6.6456
    6.645    7.0879
    6.660    7.2354
    6.675    7.5408
    6.690    7.1722
    6.705    7.8462
    6.720    7.9410
    6.735    8.1411
    6.750    8.6361
    6.765    8.7098
    6.780    8.8046
    6.795    8.9521
    6.810    9.8473
    6.825   10.3212
    6.840    9.8368
    6.855   10.9531
    6.870   11.1216
    6.885   12.0169
    6.900   13.1016
    6.915   13.4281
    6.930   13.7651
    6.945   13.5440
    6.960   14.2180
    6.975   14.3549
    6.990   13.8599
    7.005   12.3749
    7.020   11.8378
    7.035   10.9953
    7.050    9.5103
    7.065    8.5413
    7.080    7.9410
    7.095    7.5303
    7.110    7.2038
    7.125    6.9194
    7.140    6.3612
    7.155    6.1506
    7.170    6.2875
    7.185    6.1085
    7.200    5.8978
    7.215    5.7293
    7.230    5.8241
    7.245    5.6556
    7.260    5.5187
    7.275    5.9926
    7.290    5.9400
    7.305    5.8873
    7.320    6.0453
    7.335    5.9400
    7.350    5.3397
    7.365    5.6661
    7.380    6.0032
    7.395    5.9821
    7.410    5.6767
    7.425    5.9400
    7.440    5.9400
    7.455    5.8768
    7.470    5.9926
    7.485    6.0874
    7.500    6.1190
    7.515    6.1085
    7.530    5.9400
    7.545    6.2770
    7.560    6.1927
    7.575    6.0453
    7.590    6.2981
    7.605    6.2243
    7.620    6.4876
    7.635    6.1295
    7.650    6.0979
    7.665    6.3507
    7.680    6.5403
    7.695    6.9089
    7.710    6.4560
    7.725    6.1927
    7.740    6.8773
    7.755    6.7299
    7.770    6.8457
    7.785    6.7509
    7.800    7.1195
    7.815    7.2565
    7.830    6.8352
    7.845    7.0669
    7.860    7.2249
    7.875    7.3618
    7.890    7.9831
    7.905    7.2670
    7.920    7.3723
    7.935    7.3828
    7.950    7.6883
    7.965    7.6777
    7.980    7.6672
    7.995    7.8357
    8.010    8.2149
    8.025    7.9516
    8.040    8.2149
    8.055    7.7725
    8.070    8.4044
    8.085    8.0990
    8.100    7.9937
    8.115    8.0990
    8.130    7.9726
    8.145    7.8146
    8.160    8.1201
    8.175    7.9516
    8.190    8.1306
    8.205    7.7620
    8.220    7.6461
    8.235    7.6777
    8.250    7.7199
    8.265    7.6145
    8.280    7.5619
    8.295    7.5303
    8.310    7.5197
    8.325    7.8673
    8.340    7.3407
    8.355    7.1511
    8.370    6.8878
    8.385    6.7299
    8.400    7.4776
    8.415    7.2143
    8.430    7.2565
    8.445    7.2038
    8.460    6.7825
    8.475    7.0037
    8.490    6.8878
    8.505    6.8246
    8.520    6.6140
    8.535    6.6456
    8.550    6.3507
    8.565    6.7088
    8.580    6.6983
    8.595    6.5719
    8.610    6.3718
    8.625    6.2243
    8.640    6.0453
    8.655    6.0664
    8.670    6.1611
    8.685    5.9294
    8.700    5.7715
    8.715    5.8452
    8.730    5.6767
    8.745    5.5819
    8.760    5.6345
    8.775    5.4976
    8.790    5.6345
    8.805    5.4555
    8.820    5.6977
    8.835    5.4871
    8.850    5.4239
    8.865    5.5503
    8.880    5.7083
    8.895    5.3081
    8.910    5.3607
    8.925    5.3607
    8.940    5.4871
    8.955    5.4555
    8.970    5.2449
    8.985    5.3397
    9.000    4.9394
    9.015    5.2870
    9.030    5.3186
    9.045    5.4555
    9.060    5.2449
    9.075    4.9816
    9.090    5.0237
    9.105    5.2449
    9.120    5.3712
    9.135    5.1290
    9.150    5.1185
    9.165    5.2027
    9.180    5.0237
    9.195    5.0026
    9.210    4.9394
    9.225    4.9816
    9.240    5.2449
    9.255    4.8868
    9.270    5.0658
    9.285    5.2449
    9.300    4.8657
    9.315    4.8236
    9.330    4.8025
    9.345    4.6340
    9.360    4.8341
    9.375    5.0132
    9.390    5.0237
    9.405    4.9500
    9.420    4.8763
    9.435    4.9710
    9.450    4.9184
    9.465    4.6551
    9.480    4.8657
    9.495    5.2133
    9.510    5.2554
    9.525    4.8657
    9.540    5.0026
    9.555    4.9078
    9.570    4.8447
    9.585    4.9710
    9.600    4.8025
    9.615    4.3813
    9.630    4.8341
    9.645    4.7815
    9.660    4.4866
    9.675    4.6235
    9.690    4.7183
    9.705    4.8236
    9.720    4.9394
    9.735    4.6972
    9.750    4.6761
    9.765    4.8552
    9.780    4.8236
    9.795    4.6867
    9.810    4.7288
    9.825    4.8341
    9.840    4.9710
    9.855    4.8763
    9.870    4.9078
    9.885    5.0448
    9.900    5.0658
    9.915    4.8447
    9.930    4.9078
    9.945    5.1606
    9.960    4.9816
    9.975    4.7604
    9.990    4.6340
   10.005    5.1185
   10.020    4.8552
   10.035    4.5498
   10.050    4.6761
   10.065    4.8236
   10.080    4.9710
   10.095    4.4971
   10.110    4.8341
   10.125    4.9184
   10.140    4.5182
   10.155    5.0132
   10.170    4.9184
   10.185    4.5287
   10.200    5.1290
   10.215    5.1185
   10.230    5.0869
   10.245    4.9710
   10.260    4.8131
   10.275    4.9921
   10.290    5.0658
   10.305    5.1185
   10.320    5.3081
   10.335    4.9605
   10.350    5.3186
   10.365    5.0764
   10.380    5.4450
   10.395    5.4976
   10.410    5.5503
   10.425    5.2870
   10.440    5.3818
   10.455    5.5082
   10.470    5.4450
   10.485    5.4660
   10.500    5.5714
   10.515    5.2554
   10.530    5.0658
   10.545    4.9078
   10.560    5.3291
   10.575    5.2659
   10.590    4.9289
   10.605    5.1817
   10.620    4.9184
   10.635    4.7920
   10.650    4.7709
   10.665    4.7709
   10.680    5.1606
   10.695    5.0026
   10.710    5.0237
   10.725    4.7183
   10.740    4.4550
   10.755    4.8447
   10.770    4.7183
   10.785    4.5498
   10.800    4.9078
   10.815    4.8341
   10.830    4.9289
   10.845    4.9394
   10.860    5.0237
   10.875    4.5287
   10.890    4.7288
   10.905    4.6130
   10.920    4.9605
   10.935    5.0764
   10.950    4.7709
   10.965    4.9500
   10.980    4.7499
   10.995    4.9394
   11.010    5.1711
   11.025    4.8763
   11.040    4.6445
   11.055    4.8341
   11.070    4.7604
   11.085    4.7709
   11.100    4.6024
   11.115    4.9289
   11.130    4.8131
   11.145    4.5814
   11.160    4.7077
   11.175    4.8236
   11.190    4.6235
   11.205    4.8131
   11.220    4.6340
   11.235    4.6024
   11.250    4.6656
   11.265    4.8447
   11.280    4.7604
   11.295    4.7815
   11.310    4.7920
   11.325    5.1501
   11.340    5.2659
   11.355    4.8447
   11.370    4.6761
   11.385    4.8131
   11.400    4.7920
   11.415    4.9078
   11.430    5.1606
   11.445    5.0342
   11.460    4.8763
   11.475    4.9289
   11.490    4.9500
   11.505    4.6024
   11.520    4.6761
   11.535    4.9184
   11.550    4.7288
   11.565    4.6340
   11.580    4.9921
   11.595    5.0237
   11.610    5.0974
   11.625    5.1501
   11.640    5.1080
   11.655    4.8868
   11.670    4.8973
   11.685    5.0026
   11.700    4.8341
   11.715    4.9816
   11.730    4.9710
   11.745    5.0026
   11.760    5.0448
   11.775    5.1080
   11.790    5.0974
   11.805    5.0869
   11.820    4.8131
   11.835    4.8657
   11.850    5.1395
   11.865    4.8763
   11.880    4.6235
   11.895    5.0026
   11.910    5.0764
   11.925    4.8131
   11.940    4.7393
   11.955    5.0237
   11.970    5.1817
   11.985    5.0237
   12.000    5.3186
   12.015    5.2343
   12.030    5.2659
   12.045    5.1395
   12.060    5.4660
   12.075    5.3607
   12.090    5.2975
   12.105    5.2870
   12.120    5.7715
   12.135    5.3818
   12.150    4.7288
   12.165    5.1711
   12.180    5.0132
   12.195    5.2133
   12.210    4.9184
   12.225    5.0553
   12.240    5.1185
   12.255    5.7504
   12.270    5.6872
   12.285    5.1395
   12.300    5.1817
   12.315    5.2870
   12.330    4.9816
   12.345    5.2238
   12.360    5.1606
   12.375    5.0342
   12.390    5.2554
   12.405    5.3502
   12.420    5.0974
   12.435    5.1290
   12.450    5.1080
   12.465    5.4028
   12.480    5.2449
   12.495    5.4766
   12.510    5.2554
   12.525    4.9394
   12.540    5.0764
   12.555    5.3081
   12.570    4.9710
   12.585    5.2870
   12.600    5.2449
   12.615    5.2975
   12.630    5.2554
   12.645    5.0553
   12.660    5.1501
   12.675    5.4028
   12.690    4.9289
   12.705    4.8552
   12.720    5.0342
   12.735    4.9184
   12.750    4.8236
   12.765    5.0132
   12.780    5.0764
   12.795    4.7499
   12.810    5.1395
   12.825    4.9289
   12.840    4.6867
   12.855    5.0658
   12.870    5.1922
   12.885    5.0237
   12.900    5.2133
   12.915    5.0658
   12.930    5.0974
   12.945    4.9816
   12.960    4.9605
   12.975    4.7815
   12.990    4.8973
   13.005    5.0237
   13.020    5.1817
   13.035    4.8973
   13.050    4.9078
   13.065    5.1080
   13.080    4.8868
   13.095    5.3607
   13.110    4.9500
   13.125    4.7183
   13.140    4.8973
   13.155    4.8657
   13.170    5.0764
   13.185    4.9710
   13.200    4.9816
   13.215    5.0132
   13.230    5.3186
   13.245    5.2027
   13.260    4.9500
   13.275    4.7393
   13.290    5.0026
   13.305    4.6972
   13.320    4.9184
   13.335    4.9605
   13.350    5.0237
   13.365    4.7183
   13.380    4.9921
   13.395    4.9078
   13.410    5.3397
   13.425    5.0026
   13.440    4.7183
   13.455    4.6972
   13.470    4.7815
   13.485    4.7604
   13.500    4.8763
   13.515    5.2133
   13.530    5.1817
   13.545    4.7709
   13.560    4.7709
   13.575    5.0448
   13.590    4.9500
   13.605    5.4134
   13.620    4.8552
   13.635    5.0237
   13.650    5.0237
   13.665    5.2449
   13.680    5.0026
   13.695    4.7288
   13.710    4.4760
   13.725    4.8973
   13.740    4.9289
   13.755    4.9816
   13.770    5.0448
   13.785    5.0974
   13.800    5.0237
   13.815    4.7815
   13.830    4.9394
   13.845    4.9289
   13.860    4.5919
   13.875    4.6761
   13.890    4.8131
   13.905    5.2449
   13.920    5.1185
   13.935    4.6761
   13.950    4.8552
   13.965    5.3818
   13.980    5.1501
   13.995    4.8973
   14.010    4.9078
   14.025    4.9605
   14.040    4.7288
   14.055    4.7709
   14.070    4.7920
   14.085    4.9078
   14.100    4.7499
   14.115    4.4971
   14.130    4.5287
   14.145    5.0764
   14.160    4.8868
   14.175    4.7183
   14.190    4.6867
   14.205    5.0342
   14.220    5.0026
   14.235    4.8025
   14.250    4.5392
   14.265    4.5076
   14.280    4.5392
   14.295    4.9816
   14.310    4.7815
   14.325    4.8657
   14.340    4.4023
   14.355    4.9500
   14.370    4.5603
   14.385    4.9289
   14.400    4.5603
   14.415    4.7393
   14.430    4.6445
   14.445    4.3391
   14.460    4.6761
   14.475    4.4444
   14.490    4.7709
   14.505    4.6867
   14.520    4.5814
   14.535    4.7815
   14.550    4.4655
   14.565    4.7815
   14.580    4.5182
   14.595    4.5814
   14.610    4.5814
   14.625    4.8552
   14.640    4.6551
   14.655    4.7499
   14.670    4.8131
   14.685    4.6024
   14.700    4.4760
   14.715    4.4128
   14.730    4.7920
   14.745    4.9605
   14.760    4.5392
   14.775    4.3075
   14.790    4.4339
   14.805    4.2759
   14.820    4.4971
   14.835    4.6867
   14.850    4.6024
   14.865    4.7709
   14.880    4.6656
   14.895    4.8552
   14.910    4.7288
   14.925    4.7815
   14.940    4.5919
   14.955    4.5287
   14.970    4.4444
   14.985    4.4550
   15.000    4.6130
   15.015    4.7709
   15.030    4.6761
   15.045    4.4234
   15.060    4.6024
   15.075    4.6445
   15.090    4.4444
   15.105    4.7393
   15.120    4.6235
   15.135    4.7499
   15.150    4.6130
   15.165    4.8657
   15.180    4.6761
   15.195    4.7604
   15.210    4.8657
   15.225    4.6867
   15.240    4.6761
   15.255    4.6867
   15.270    4.4444
   15.285    4.5287
   15.300    4.8341
   15.315    4.7393
   15.330    4.3918
   15.345    4.7183
   15.360    4.5182
   15.375    4.9710
   15.390    5.0237
   15.405    4.9816
   15.420    4.8341
   15.435    4.5603
   15.450    4.6972
   15.465    4.7709
   15.480    4.7815
   15.495    4.7920
   15.510    4.5919
   15.525    4.8447
   15.540    4.6972
   15.555    4.6761
   15.570    4.6761
   15.585    4.8657
   15.600    4.8973
   15.615    4.8763
   15.630    4.8657
   15.645    4.5182
   15.660    4.7709
   15.675    4.4444
   15.690    4.5182
   15.705    4.7077
   15.720    4.5076
   15.735    4.6867
   15.750    4.5182
   15.765    4.7183
   15.780    4.6656
   15.795    4.7709
   15.810    4.8868
   15.825    4.9921
   15.840    5.1501
   15.855    4.7815
   15.870    4.8763
   15.885    4.8447
   15.900    5.0658
   15.915    4.9500
   15.930    4.9394
   15.945    4.3497
   15.960    4.6761
   15.975    4.7815
   15.990    4.4339
   16.005    4.6867
   16.020    4.4550
   16.035    4.8236
   16.050    4.7920
   16.065    4.8447
   16.080    4.9816
   16.095    4.7288
   16.110    4.7709
   16.125    5.0764
   16.140    4.7709
   16.155    4.7183
   16.170    4.7815
   16.185    4.8552
   16.200    4.7709
   16.215    4.8131
   16.230    5.1290
   16.245    5.2554
   16.260    5.2238
   16.275    4.6972
   16.290    4.6024
   16.305    4.9816
   16.320    4.9184
   16.335    5.0553
   16.350    4.6130
   16.365    4.6024
   16.380    4.7077
   16.395    4.8131
   16.410    4.5603
   16.425    4.6445
   16.440    4.8868
   16.455    4.7815
   16.470    4.5076
   16.485    4.9710
   16.500    4.5919
   16.515    4.9605
   16.530    4.6235
   16.545    4.6235
   16.560    4.2233
   16.575    4.5392
   16.590    4.2549
   16.605    4.7183
   16.620    4.4234
   16.635    4.7183
   16.650    4.8025
   16.665    4.5287
   16.680    4.8552
   16.695    4.6867
   16.710    4.3813
   16.725    4.4234
   16.740    4.6761
   16.755    4.7288
   16.770    4.9078
   16.785    4.5287
   16.800    4.5182
   16.815    4.6867
   16.830    4.4760
   16.845    4.8236
   16.860    4.8025
   16.875    4.8973
   16.890    4.6130
   16.905    4.5498
   16.920    4.7499
   16.935    4.5603
   16.950    4.7709
   16.965    4.6130
   16.980    4.6130
   16.995    4.7077
   17.010    4.4866
   17.025    4.4339
   17.040    4.6972
   17.055    4.4866
   17.070    4.5708
   17.085    4.9289
   17.100    4.8025
   17.115    4.9184
   17.130    4.5287
   17.145    4.6656
   17.160    4.6656
   17.175    4.8025
   17.190    4.8973
   17.205    5.0342
   17.220    4.6445
   17.235    4.7604
   17.250    4.8131
   17.265    4.6024
   17.280    4.5498
   17.295    4.5814
   17.310    4.8447
   17.325    4.7499
   17.340    4.8025
   17.355    4.4655
   17.370    4.6551
   17.385    4.7288
   17.400    4.5603
   17.415    4.6867
   17.430    5.0553
   17.445    4.7709
   17.460    5.0342
   17.475    5.0132
   17.490    4.5498
   17.505    4.9078
   17.520    4.5708
   17.535    4.5498
   17.550    4.6972
   17.565    4.9078
   17.580    4.7499
   17.595    4.6130
   17.610    4.5603
   17.625    4.7183
   17.640    4.4023
   17.655    4.7077
   17.670    4.8868
   17.685    4.8131
   17.700    4.7288
   17.715    4.6340
   17.730    4.7499
   17.745    4.6867
   17.760    4.6551
   17.775    4.3707
   17.790    4.5919
   17.805    4.7815
   17.820    4.4339
   17.835    4.7393
   17.850    4.6867
   17.865    4.8341
   17.880    4.8657
   17.895    4.6656
   17.910    4.5708
   17.925    4.8973
   17.940    4.7077
   17.955    4.6761
   17.970    4.9816
   17.985    4.7709
   18.000    4.5708
   18.015    4.6235
   18.030    4.9710
   18.045    5.1290
   18.060    4.7288
   18.075    4.5814
   18.090    4.8447
   18.105    4.7604
   18.120    4.4339
   18.135    4.5498
   18.150    4.5919
   18.165    4.6235
   18.180    4.3813
   18.195    4.5603
   18.210    4.4339
   18.225    4.8131
   18.240    4.6761
   18.255    4.7288
   18.270    4.5814
   18.285    4.5392
   18.300    4.7604
   18.315    4.8131
   18.330    4.8868
   18.345    4.9605
   18.360    4.9394
   18.375    4.6024
   18.390    4.8131
   18.405    4.5287
   18.420    4.7499
   18.435    4.9921
   18.450    4.7499
   18.465    4.9816
   18.480    4.9500
   18.495    4.7499
   18.510    4.9394
   18.525    4.9394
   18.540    5.0342
   18.555    5.0764
   18.570    4.8025
   18.585    4.7709
   18.600    4.8763
   18.615    4.4550
   18.630    4.5076
   18.645    4.7499
   18.660    4.7183
   18.675    4.4234
   18.690    4.4971
   18.705    4.6235
   18.720    5.0448
   18.735    5.0764
   18.750    4.6445
   18.765    4.7709
   18.780    5.0553
   18.795    4.7920
   18.810    4.6551
   18.825    4.8447
   18.840    4.8868
   18.855    4.8131
   18.870    5.0342
   18.885    5.0026
   18.900    5.1290
   18.915    4.9816
   18.930    4.8025
   18.945    5.0974
   18.960    4.8025
   18.975    5.0237
   18.990    4.7815
   19.005    5.0974
   19.020    5.0237
   19.035    4.8447
   19.050    5.0026
   19.065    4.8657
   19.080    4.9078
   19.095    4.6656
   19.110    4.9078
   19.125    4.8657
   19.140    4.8341
   19.155    4.6761
   19.170    4.7920
   19.185    5.0132
   19.200    4.9816
   19.215    4.8763
   19.230    4.8868
   19.245    4.7920
   19.260    4.6235
   19.275    5.0237
   19.290    5.2870
   19.305    5.2554
   19.320    5.0026
   19.335    4.7288
   19.350    4.8025
   19.365    4.8552
   19.380    4.9394
   19.395    5.1501
   19.410    5.0869
   19.425    5.2870
   19.440    5.0448
   19.455    4.8657
   19.470    5.2133
   19.485    5.2133
   19.500    4.6656
   19.515    5.0132
   19.530    5.1080
   19.545    5.1711
   19.560    4.9816
   19.575    4.9394
   19.590    4.9921
   19.605    4.8973
   19.620    4.7920
   19.635    5.1080
   19.650    4.8868
   19.665    5.0764
   19.680    5.0448
   19.695    5.2975
   19.710    5.5503
   19.725    5.0869
   19.740    5.4766
   19.755    5.3607
   19.770    5.2343
   19.785    5.1185
   19.800    4.8973
   19.815    5.2765
   19.830    5.3186
   19.845    5.2449
   19.860    5.5503
   19.875    4.8868
   19.890    5.2343
   19.905    5.5714
   19.920    5.2238
   19.935    5.3502
   19.950    5.3818
   19.965    5.3712
   19.980    5.1290
   19.995    5.0764
   20.010    5.0764
   20.025    5.2133
   20.040    5.2238
   20.055    5.1606
   20.070    5.0869
   20.085    5.2343
   20.100    5.4028
   20.115    5.1185
   20.130    5.2449
   20.145    5.2659
   20.160    5.2027
   20.175    5.2449
   20.190    5.0974
   20.205    5.5714
   20.220    5.2765
   20.235    5.2133
   20.250    4.8868
   20.265    5.2870
   20.280    5.3818
   20.295    5.0553
   20.310    5.1711
   20.325    5.3502
   20.340    5.3186
   20.355    5.1080
   20.370    5.1185
   20.385    5.3397
   20.400    5.3923
   20.415    5.0342
   20.430    5.2449
   20.445    5.2554
   20.460    5.4239
   20.475    5.4134
   20.490    4.9921
   20.505    5.0237
   20.520    5.4239
   20.535    5.2659
   20.550    5.2027
   20.565    4.9921
   20.580    5.3923
   20.595    5.4450
   20.610    5.4871
   20.625    5.2554
   20.640    5.4028
   20.655    4.9921
   20.670    5.2765
   20.685    5.0448
   20.700    5.0132
   20.715    5.4344
   20.730    5.6135
   20.745    5.4028
   20.760    5.0026
   20.775    5.4344
   20.790    5.3186
   20.805    5.1501
   20.820    4.7393
   20.835    5.2449
   20.850    5.2659
   20.865    5.3291
   20.880    5.5292
   20.895    5.6661
   20.910    5.6029
   20.925    5.0448
   20.940    5.4028
   20.955    5.6135
   20.970    5.0026
   20.985    5.4555
   21.000    5.4555
   21.015    5.2765
   21.030    5.2975
   21.045    5.3186
   21.060    5.4660
   21.075    5.4976
   21.090    5.2975
   21.105    5.3397
   21.120    5.0974
   21.135    5.2133
   21.150    5.2765
   21.165    5.4766
   21.180    4.9184
   21.195    5.4976
   21.210    5.2343
   21.225    5.3712
   21.240    5.5819
   21.255    5.4976
   21.270    5.5398
   21.285    5.2975
   21.300    5.1817
   21.315    5.4766
   21.330    5.5714
   21.345    5.6556
   21.360    5.5292
   21.375    5.2343
   21.390    5.1922
   21.405    5.2659
   21.420    5.2027
   21.435    4.9605
   21.450    5.4660
   21.465    5.3397
   21.480    5.3923
   21.495    5.0342
   21.510    5.4450
   21.525    5.3818
   21.540    5.4134
   21.555    5.1711
   21.570    5.5187
   21.585    5.3186
   21.600    5.1501
   21.615    5.2133
   21.630    5.5608
   21.645    5.3712
   21.660    5.2343
   21.675    5.0974
   21.690    5.1606
   21.705    5.1290
   21.720    5.3607
   21.735    5.0658
   21.750    5.6345
   21.765    5.4766
   21.780    5.1606
   21.795    5.2343
   21.810    5.3291
   21.825    5.2343
   21.840    5.2554
   21.855    5.4344
   21.870    5.3186
   21.885    5.2238
   21.900    5.0764
   21.915    5.4134
   21.930    5.7083
   21.945    5.2133
   21.960    5.2343
   21.975    5.0764
   21.990    5.1606
   22.005    5.3502
   22.020    5.2659
   22.035    5.4766
   22.050    5.0553
   22.065    5.0869
   22.080    5.3081
   22.095    5.1606
   22.110    5.3818
   22.125    5.3397
   22.140    5.1290
   22.155    5.1185
   22.170    5.3186
   22.185    5.4028
   22.200    5.1395
   22.215    5.3186
   22.230    5.1395
   22.245    5.4450
   22.260    5.3818
   22.275    5.0342
   22.290    5.1606
   22.305    5.3923
   22.320    5.4344
   22.335    5.2343
   22.350    4.9500
   22.365    4.8973
   22.380    5.4134
   22.395    5.3818
   22.410    5.3712
   22.425    5.2343
   22.440    5.0553
   22.455    5.1185
   22.470    5.0869
   22.485    5.4239
   22.500    4.8973
   22.515    4.9605
   22.530    5.4871
   22.545    5.3923
   22.560    5.5924
   22.575    5.1817
   22.590    5.4976
   22.605    5.4660
   22.620    5.7188
   22.635    5.5924
   22.650    5.1290
   22.665    5.3607
   22.680    5.0342
   22.695    5.2975
   22.710    5.2238
   22.725    5.1606
   22.740    5.1711
   22.755    5.2343
   22.770    5.1501
   22.785    4.7815
   22.800    5.4134
   22.815    5.0869
   22.830    5.2238
   22.845    5.1711
   22.860    5.1185
   22.875    5.0974
   22.890    5.0132
   22.905    5.3502
   22.920    5.3818
   22.935    5.3186
   22.950    5.3712
   22.965    5.5819
   22.980    5.4766
   22.995    5.0342
   23.010    5.1817
   23.025    5.1817
   23.040    5.1606
   23.055    5.0132
   23.070    5.3186
   23.085    5.0764
   23.100    5.0869
   23.115    5.3186
   23.130    5.2449
   23.145    5.2027
   23.160    4.9394
   23.175    5.0553
   23.190    4.8973
   23.205    5.3291
   23.220    5.2343
   23.235    5.3923
   23.250    5.1711
   23.265    5.0448
   23.280    5.3081
   23.295    4.9816
   23.310    5.2238
   23.325    5.0553
   23.340    5.1606
   23.355    5.0342
   23.370    4.9921
   23.385    5.1080
   23.400    5.0448
   23.415    4.8447
   23.430    5.2343
   23.445    5.1606
   23.460    5.1290
   23.475    5.0448
   23.490    5.2765
   23.505    4.9289
   23.520    4.9921
   23.535    5.2554
   23.550    5.1922
   23.565    5.2659
   23.580    5.2554
   23.595    5.1080
   23.610    4.9078
   23.625    5.0869
   23.640    4.7604
   23.655    5.1290
   23.670    4.8447
   23.685    5.0658
   23.700    5.4134
   23.715    5.2870
   23.730    5.0658
   23.745    4.7183
   23.760    4.8763
   23.775    5.2343
   23.790    5.1711
   23.805    5.2449
   23.820    4.9921
   23.835    4.9605
   23.850    5.0658
   23.865    5.2554
   23.880    5.0869
   23.895    5.1290
   23.910    5.4028
   23.925    5.1922
   23.940    5.2975
   23.955    5.0764
   23.970    4.9816
   23.985    5.0658
   24.000    4.9078
   24.015    4.9184
   24.030    5.1606
   24.045    4.9289
   24.060    4.8236
   24.075    5.0869
   24.090    5.1922
   24.105    4.8552
   24.120    4.9394
   24.135    5.1290
   24.150    5.2027
   24.165    5.1711
   24.180    5.0553
   24.195    4.8973
   24.210    4.9816
   24.225    5.0026
   24.240    4.9710
   24.255    4.9184
   24.270    4.8973
   24.285    5.3712
   24.300    4.8131
   24.315    4.8131
   24.330    4.8763
   24.345    4.8341
   24.360    4.9605
   24.375    4.8447
   24.390    4.7499
   24.405    5.3397
   24.420    4.9184
   24.435    4.8868
   24.450    4.9184
   24.465    5.0553
   24.480    4.8657
   24.495    5.0974
   24.510    5.1817
   24.525    5.2449
   24.540    4.8973
   24.555    4.9289
   24.570    5.5398
   24.585    5.2554
   24.600    5.2449
   24.615    5.1501
   24.630    4.9921
   24.645    4.6656
   24.660    4.8973
   24.675    5.1290
   24.690    4.9289
   24.705    5.0237
   24.720    5.0448
   24.735    4.9816
   24.750    4.8131
   24.765    5.0342
   24.780    4.8447
   24.795    4.7604
   24.810    4.9078
   24.825    4.7077
   24.840    4.7709
   24.855    5.1606
   24.870    5.1711
   24.885    4.7288
   24.900    5.1922
   24.915    4.8236
   24.930    5.0342
   24.945    4.8868
   24.960    4.7499
   24.975    4.9078
   24.990    5.1185
   25.005    4.7077
   25.020    4.9078
   25.035    4.5919
   25.050    4.5603
   25.065    4.7815
   25.080    4.3707
   25.095    4.5392
   25.110    4.9078
   25.125    4.8552
   25.140    4.8763
   25.155    5.1290
   25.170    4.9394
   25.185    4.6024
   25.200    4.5708
   25.215    4.6445
   25.230    4.7815
   25.245    4.9816
   25.260    4.7709
   25.275    5.0658
   25.290    4.9816
   25.305    4.8025
   25.320    4.8131
   25.335    4.6130
   25.350    4.8552
   25.365    4.8763
   25.380    4.8341
   25.395    4.7709
   25.410    4.8552
   25.425    4.9710
   25.440    4.9710
   25.455    4.5498
   25.470    4.8763
   25.485    5.0342
   25.500    4.9184
   25.515    4.7288
   25.530    4.7499
   25.545    4.7604
   25.560    4.7183
   25.575    5.0448
   25.590    5.0658
   25.605    4.9394
   25.620    5.1606
   25.635    4.8131
   25.650    4.4655
   25.665    4.6656
   25.680    4.7709
   25.695    4.7709
   25.710    4.7288
   25.725    4.6340
   25.740    4.7709
   25.755    4.5814
   25.770    4.9500
   25.785    4.6024
   25.800    4.3918
   25.815    4.5708
   25.830    4.8025
   25.845    4.8973
   25.860    4.7604
   25.875    5.1080
   25.890    5.0342
   25.905    5.0448
   25.920    4.6340
   25.935    4.2970
   25.950    4.5076
   25.965    4.7077
   25.980    4.7393
   25.995    4.5814
   26.010    4.8025
   26.025    4.5708
   26.040    4.5287
   26.055    4.4339
   26.070    4.7183
   26.085    4.6235
   26.100    4.6024
   26.115    4.7604
   26.130    4.4760
   26.145    4.8025
   26.160    4.7077
   26.175    4.3497
   26.190    4.4866
   26.205    4.2865
   26.220    4.4971
   26.235    4.6972
   26.250    4.6656
   26.265    4.5919
   26.280    4.7815
   26.295    4.5076
   26.310    4.6867
   26.325    4.7709
   26.340    4.4339
   26.355    4.2654
   26.370    4.9605
   26.385    5.0974
   26.400    4.7815
   26.415    4.6024
   26.430    4.4866
   26.445    4.6235
   26.460    4.2443
   26.475    4.2338
   26.490    4.2549
   26.505    4.6656
   26.520    4.7815
   26.535    4.8868
   26.550    4.3707
   26.565    4.4023
   26.580    4.6235
   26.595    4.4760
   26.610    4.5076
   26.625    4.7077
   26.640    4.6551
   26.655    4.9184
   26.670    4.6656
   26.685    4.4234
   26.700    4.6024
   26.715    4.4339
   26.730    4.7499
   26.745    4.5603
   26.760    4.5392
   26.775    4.3918
   26.790    4.4444
   26.805    4.7920
   26.820    4.6867
   26.835    4.6656
   26.850    4.6656
   26.865    4.2549
   26.880    4.3181
   26.895    4.7604
   26.910    4.7183
   26.925    4.7499
   26.940    4.6867
   26.955    4.6024
   26.970    4.2759
   26.985    4.3497
   27.000    4.3075
   27.015    4.6551
   27.030    4.6551
   27.045    4.5182
   27.060    4.7288
   27.075    4.4866
   27.090    4.3813
   27.105    4.7077
   27.120    4.5287
   27.135    4.3391
   27.150    4.7288
   27.165    4.5182
   27.180    4.3918
   27.195    4.4971
   27.210    4.9394
   27.225    5.0869
   27.240    4.3286
   27.255    4.4339
   27.270    4.4023
   27.285    4.3918
   27.300    4.2865
   27.315    4.3075
   27.330    4.0758
   27.345    4.2759
   27.360    4.5708
   27.375    4.7920
   27.390    4.7499
   27.405    4.6340
   27.420    4.2127
   27.435    4.3602
   27.450    4.4760
   27.465    4.3075
   27.480    4.6551
   27.495    4.3391
   27.510    4.4971
   27.525    4.6024
   27.540    4.3286
   27.555    4.3391
   27.570    4.4234
   27.585    4.4655
   27.600    4.3918
   27.615    4.6340
   27.630    4.4128
   27.645    4.6761
   27.660    4.3813
   27.675    4.4444
   27.690    4.6024
   27.705    4.5814
   27.720    4.5287
   27.735    4.3497
   27.750    4.5498
   27.765    4.5814
   27.780    4.7815
   27.795    4.4655
   27.810    4.2233
   27.825    3.8652
   27.840    4.1180
   27.855    4.6551
   27.870    4.7077
   27.885    4.2549
   27.900    4.2338
   27.915    4.2127
   27.930    4.5814
   27.945    4.6656
   27.960    4.6024
   27.975    4.3707
   27.990    4.6024
   28.005    4.5287
   28.020    4.5392
   28.035    4.4655
   28.050    4.3391
   28.065    4.5603
   28.080    4.5603
   28.095    4.6130
   28.110    4.4128
   28.125    4.6130
   28.140    4.5182
   28.155    4.4234
   28.170    4.4760
   28.185    4.4971
   28.200    4.6551
   28.215    4.5392
   28.230    5.0448
   28.245    4.6024
   28.260    4.6024
   28.275    4.5708
   28.290    4.4023
   28.305    4.6024
   28.320    4.6551
   28.335    4.3181
   28.350    4.6235
   28.365    4.6024
   28.380    4.3391
   28.395    4.6130
   28.410    4.5708
   28.425    4.5182
   28.440    4.3391
   28.455    4.5182
   28.470    4.6972
   28.485    4.6445
   28.500    4.5287
   28.515    4.4444
   28.530    4.2865
   28.545    4.5182
   28.560    4.4550
   28.575    4.2970
   28.590    4.3286
   28.605    4.2549
   28.620    3.9705
   28.635    4.2549
   28.650    4.1285
   28.665    4.1390
   28.680    4.6024
   28.695    4.4655
   28.710    4.5603
   28.725    4.5182
   28.740    4.2970
   28.755    4.4550
   28.770    4.0758
   28.785    3.9179
   28.800    4.2865
   28.815    4.5498
   28.830    4.1390
   28.845    4.3181
   28.860    4.4444
   28.875    4.2022
   28.890    4.3075
   28.905    4.2759
   28.920    4.0758
   28.935    4.2338
   28.950    4.4655
   28.965    4.4444
   28.980    4.4971
   28.995    4.3391
   29.010    4.5392
   29.025    4.3391
   29.040    4.3181
   29.055    4.3707
   29.070    4.4023
   29.085    4.1180
   29.100    4.4234
   29.115    4.1706
   29.130    4.2127
   29.145    4.4550
   29.160    4.1074
   29.175    4.3602
   29.190    4.4023
   29.205    4.3075
   29.220    4.1074
   29.235    4.0442
   29.250    4.3813
   29.265    4.1180
   29.280    4.1180
   29.295    4.1496
   29.310    4.2233
   29.325    4.4866
   29.340    4.2970
   29.355    4.1390
   29.370    4.4550
   29.385    4.2127
   29.400    4.1601
   29.415    4.4444
   29.430    4.4234
   29.445    4.0864
   29.460    4.1706
   29.475    4.1706
   29.490    4.1601
   29.505    4.3391
   29.520    4.2022
   29.535    4.2865
   29.550    4.4550
   29.565    4.4128
   29.580    4.3075
   29.595    4.1917
   29.610    4.4234
   29.625    3.9916
   29.640    4.1917
   29.655    4.5498
   29.670    4.2338
   29.685    4.1917
   29.700    4.0548
   29.715    3.9705
   29.730    4.2443
   29.745    4.1390
   29.760    4.1811
   29.775    4.2127
   29.790    4.0758
   29.805    4.4128
   29.820    4.1285
   29.835    4.2127
   29.850    4.1285
   29.865    4.2865
   29.880    4.1917
   29.895    4.2338
   29.910    4.3181
   29.925    4.1811
   29.940    4.1285
   29.955    4.3286
   29.970    4.3286
   29.985    4.2338
   30.000    4.0864
   30.015    4.1811
   30.030    3.8336
   30.045    3.8231
   30.060    3.8336
   30.075    4.0442
   30.090    4.3497
   30.105    3.8863
   30.120    4.1601
   30.135    4.3181
   30.150    4.3075
   30.165    3.9284
   30.180    4.0758
   30.195    3.8863
   30.210    3.8336
   30.225    4.2022
   30.240    4.3181
   30.255    4.1390
   30.270    4.3813
   30.285    4.0548
   30.300    4.2233
   30.315    4.2233
   30.330    4.0653
   30.345    4.1390
   30.360    4.3075
   30.375    4.1285
   30.390    4.0337
   30.405    4.0758
   30.420    4.0969
   30.435    4.4760
   30.450    4.4234
   30.465    4.2759
   30.480    4.3918
   30.495    4.2233
   30.510    4.1180
   30.525    4.4655
   30.540    4.1390
   30.555    3.9494
   30.570    3.9916
   30.585    4.0969
   30.600    3.9600
   30.615    3.8231
   30.630    3.9705
   30.645    4.3075
   30.660    4.3075
   30.675    4.0548
   30.690    4.3602
   30.705    4.1601
   30.720    3.9389
   30.735    4.1390
   30.750    4.2759
   30.765    4.1496
   30.780    3.9494
   30.795    4.0232
   30.810    4.0969
   30.825    4.1074
   30.840    3.9916
   30.855    3.8336
   30.870    4.0548
   30.885    4.0653
   30.900    3.8757
   30.915    3.9284
   30.930    3.7072
   30.945    4.1496
   30.960    4.3075
   30.975    4.2865
   30.990    3.9284
   31.005    4.0653
   31.020    4.0021
   31.035    3.9600
   31.050    4.3707
   31.065    4.1496
   31.080    3.8757
   31.095    3.6967
   31.110    3.9073
   31.125    3.8547
   31.140    3.8863
   31.155    4.0758
   31.170    3.7283
   31.185    3.9810
   31.200    4.2443
   31.215    4.4128
   31.230    3.9705
   31.245    3.9810
   31.260    3.8863
   31.275    3.9600
   31.290    3.9600
   31.305    4.1496
   31.320    4.1811
   31.335    4.1390
   31.350    4.0969
   31.365    3.9600
   31.380    3.9810
   31.395    3.8547
   31.410    4.1390
   31.425    4.0758
   31.440    3.7704
   31.455    4.0653
   31.470    4.2233
   31.485    4.0442
   31.500    4.3181
   31.515    4.1074
   31.530    4.2233
   31.545    4.1285
   31.560    4.1706
   31.575    4.0758
   31.590    3.9705
   31.605    4.4444
   31.620    4.0653
   31.635    3.9389
   31.650    3.9600
   31.665    3.7283
   31.680    3.9284
   31.695    4.1917
   31.710    4.1601
   31.725    4.2127
   31.740    4.1706
   31.755    4.1706
   31.770    4.0758
   31.785    4.2759
   31.800    4.2759
   31.815    4.1180
   31.830    4.2549
   31.845    4.2549
   31.860    4.0337
   31.875    4.0126
   31.890    4.2970
   31.905    4.2865
   31.920    3.8757
   31.935    4.2759
   31.950    3.9705
   31.965    3.9494
   31.980    3.8863
   31.995    4.0126
   32.010    4.1074
   32.025    4.4023
   32.040    4.0653
   32.055    4.5182
   32.070    4.3286
   32.085    4.3918
   32.100    4.0864
   32.115    3.9916
   32.130    4.0548
   32.145    4.0126
   32.160    3.9600
   32.175    4.3602
   32.190    4.0864
   32.205    3.9389
   32.220    3.7599
   32.235    3.7704
   32.250    3.8547
   32.265    3.9494
   32.280    3.7599
   32.295    3.7388
   32.310    4.0232
   32.325    3.8441
   32.340    3.8652
   32.355    4.0969
   32.370    4.0021
   32.385    3.9284
   32.400    3.8441
   32.415    3.7809
   32.430    4.1496
   32.445    3.7388
   32.460    4.0864
   32.475    4.0232
   32.490    3.9916
   32.505    3.7493
   32.520    3.6230
   32.535    3.6546
   32.550    3.8757
   32.565    4.0337
   32.580    4.1074
   32.595    3.8125
   32.610    3.8968
   32.625    3.6756
   32.640    4.0548
   32.655    4.0548
   32.670    4.0021
   32.685    3.7283
   32.700    3.8125
   32.715    3.8336
   32.730    3.7599
   32.745    3.8547
   32.760    3.8125
   32.775    3.7915
   32.790    3.6019
   32.805    3.6651
   32.820    4.0548
   32.835    3.5598
   32.850    3.9073
   32.865    3.7388
   32.880    3.7599
   32.895    4.0126
   32.910    3.7388
   32.925    4.0126
   32.940    3.8863
   32.955    3.6967
   32.970    3.7283
   32.985    3.4860
   33.000    3.7177
   33.015    3.6967
   33.030    3.6967
   33.045    3.6862
   33.060    3.7704
   33.075    3.8652
   33.090    3.5176
   33.105    3.9600
   33.120    3.8125
   33.135    3.7599
   33.150    3.6124
   33.165    3.6862
   33.180    3.8231
   33.195    3.5914
   33.210    3.6651
   33.225    3.7809
   33.240    3.6862
   33.255    3.8652
   33.270    3.8547
   33.285    3.8231
   33.300    3.6756
   33.315    4.0232
   33.330    3.9916
   33.345    3.7599
   33.360    3.5071
   33.375    3.6440
   33.390    3.7283
   33.405    3.6651
   33.420    3.5703
   33.435    3.7177
   33.450    3.6019
   33.465    3.2438
   33.480    3.2965
   33.495    3.4018
   33.510    3.7493
   33.525    3.6967
   33.540    3.7177
   33.555    3.3070
   33.570    3.5492
   33.585    3.7177
   33.600    3.9494
   33.615    3.7072
   33.630    3.8125
   33.645    3.4018
   33.660    3.3807
   33.675    3.5598
   33.690    3.8652
   33.705    3.7177
   33.720    3.8547
   33.735    3.4018
   33.750    3.4544
   33.765    3.6546
   33.780    3.5808
   33.795    3.6967
   33.810    3.8863
   33.825    3.7809
   33.840    3.6124
   33.855    3.4018
   33.870    3.7704
   33.885    3.7809
   33.900    3.8968
   33.915    3.6335
   33.930    3.7599
   33.945    3.8336
   33.960    3.5176
   33.975    3.6967
   33.990    3.6756
   34.005    3.5387
   34.020    3.5808
   34.035    3.6756
   34.050    3.8547
   34.065    3.6546
   34.080    3.5071
   34.095    3.5808
   34.110    3.4123
   34.125    3.4229
   34.140    3.5071
   34.155    3.3807
   34.170    3.3281
   34.185    3.3807
   34.200    3.2754
   34.215    3.6230
   34.230    3.6967
   34.245    3.7809
   34.260    3.4544
   34.275    3.6756
   34.290    3.5176
   34.305    3.6862
   34.320    3.5703
   34.335    3.7072
   34.350    3.8547
   34.365    3.6230
   34.380    3.5492
   34.395    3.3807
   34.410    3.5808
   34.425    3.8231
   34.440    3.5387
   34.455    3.7177
   34.470    3.4544
   34.485    3.5176
   34.500    3.7283
   34.515    3.6967
   34.530    3.5703
   34.545    3.4018
   34.560    3.5176
   34.575    3.5808
   34.590    3.5492
   34.605    3.4966
   34.620    3.5071
   34.635    3.4860
   34.650    3.4966
   34.665    3.4966
   34.680    3.7388
   34.695    3.4229
   34.710    3.3491
   34.725    3.4123
   34.740    3.3597
   34.755    3.4860
   34.770    3.4018
   34.785    3.5914
   34.800    3.4018
   34.815    3.4439
   34.830    3.4123
   34.845    3.4334
   34.860    3.2649
   34.875    3.3175
   34.890    3.3913
   34.905    3.5703
   34.920    3.3281
   34.935    3.3281
   34.950    3.2333
   34.965    3.5598
   34.980    3.6756
   34.995    3.1596
   35.010    3.4123
   35.025    3.4334
   35.040    3.3175
   35.055    3.3070
   35.070    3.4439
   35.085    3.6651
   35.100    3.2543
   35.115    3.2438
   35.130    3.1912
   35.145    3.5703
   35.160    3.4334
   35.175    3.5492
   35.190    3.3913
   35.205    3.2965
   35.220    3.2333
   35.235    3.5071
   35.250    3.8231
   35.265    3.6440
   35.280    3.4334
   35.295    3.5282
   35.310    3.6124
   35.325    3.5071
   35.340    3.3386
   35.355    3.4123
   35.370    3.3070
   35.385    3.5703
   35.400    3.6440
   35.415    3.4544
   35.430    3.4334
   35.445    3.8125
   35.460    3.6546
   35.475    3.2965
   35.490    3.6230
   35.505    3.7493
   35.520    3.2859
   35.535    3.2543
   35.550    3.3491
   35.565    3.5492
   35.580    3.4229
   35.595    3.3597
   35.610    3.2017
   35.625    3.3281
   35.640    3.2649
   35.655    3.2227
   35.670    3.3070
   35.685    3.6440
   35.700    3.3070
   35.715    3.2122
   35.730    3.2543
   35.745    3.3913
   35.760    3.4018
   35.775    3.5598
   35.790    3.6230
   35.805    3.2017
   35.820    3.4018
   35.835    3.2227
   35.850    3.0542
   35.865    3.2333
   35.880    3.3281
   35.895    3.3807
   35.910    3.2333
   35.925    3.2754
   35.940    3.3491
   35.955    3.7177
   35.970    3.3175
   35.985    3.3597
   36.000    3.5808
   36.015    3.2227
   36.030    3.1490
   36.045    2.9910
   36.060    3.3175
   36.075    3.3070
   36.090    3.1174
   36.105    3.2754
   36.120    3.4755
   36.135    3.3491
   36.150    3.3597
   36.165    3.2965
   36.180    3.4439
   36.195    3.2859
   36.210    3.3807
   36.225    2.9910
   36.240    3.1701
   36.255    3.2649
   36.270    3.4860
   36.285    3.4439
   36.300    3.3807
   36.315    3.0437
   36.330    2.8752
   36.345    2.8752
   36.360    3.3070
   36.375    3.2649
   36.390    3.4755
   36.405    3.2227
   36.420    3.2333
   36.435    3.2122
   36.450    3.2754
   36.465    3.3070
   36.480    3.4439
   36.495    3.1701
   36.510    3.2122
   36.525    3.3491
   36.540    3.2333
   36.555    3.2965
   36.570    2.9279
   36.585    3.2543
   36.600    3.5387
   36.615    3.4439
   36.630    3.6019
   36.645    3.3175
   36.660    3.2754
   36.675    3.2754
   36.690    3.1490
   36.705    3.2438
   36.720    3.4966
   36.735    3.1701
   36.750    3.1596
   36.765    3.2859
   36.780    3.0121
   36.795    3.2965
   36.810    3.3386
   36.825    3.2965
   36.840    3.4439
   36.855    3.2965
   36.870    3.4123
   36.885    3.4439
   36.900    3.2543
   36.915    3.3175
   36.930    3.4123
   36.945    3.2543
   36.960    3.0332
   36.975    3.0226
   36.990    3.1490
   37.005    3.0964
   37.020    3.0332
   37.035    3.3386
   37.050    3.1912
   37.065    3.2859
   37.080    3.1806
   37.095    3.1596
   37.110    3.0226
   37.125    3.1280
   37.140    3.1596
   37.155    3.2333
   37.170    3.2754
   37.185    3.4123
   37.200    3.3491
   37.215    3.3175
   37.230    2.8752
   37.245    3.4123
   37.260    3.4755
   37.275    3.3175
   37.290    3.1280
   37.305    3.0753
   37.320    3.1385
   37.335    3.3807
   37.350    3.4439
   37.365    3.3175
   37.380    3.2122
   37.395    3.1280
   37.410    3.1596
   37.425    3.2754
   37.440    3.1069
   37.455    3.2438
   37.470    2.9910
   37.485    3.2649
   37.500    3.2754
   37.515    3.0753
   37.530    3.1701
   37.545    3.2438
   37.560    3.2122
   37.575    3.1385
   37.590    3.2649
   37.605    3.2227
   37.620    3.4439
   37.635    3.3597
   37.650    3.4650
   37.665    3.1806
   37.680    3.0332
   37.695    3.1280
   37.710    3.2017
   37.725    3.1806
   37.740    3.2543
   37.755    3.0648
   37.770    3.0648
   37.785    3.2754
   37.800    3.2438
   37.815    3.3175
   37.830    3.2965
   37.845    3.0858
   37.860    3.2438
   37.875    3.2754
   37.890    3.1912
   37.905    3.2859
   37.920    3.2227
   37.935    2.9805
   37.950    3.0753
   37.965    3.1701
   37.980    2.9489
   37.995    3.1385
   38.010    3.3070
   38.025    3.1069
   38.040    3.2227
   38.055    3.0858
   38.070    3.1912
   38.085    3.0437
   38.100    2.8752
   38.115    2.9173
   38.130    3.0648
   38.145    3.1385
   38.160    3.0648
   38.175    2.9700
   38.190    3.0542
   38.205    3.3175
   38.220    3.4123
   38.235    3.2122
   38.250    3.2017
   38.265    3.2649
   38.280    3.0121
   38.295    3.0226
   38.310    2.9700
   38.325    3.2017
   38.340    3.1069
   38.355    2.9700
   38.370    3.1280
   38.385    3.1701
   38.400    3.1596
   38.415    2.9279
   38.430    3.1701
   38.445    3.1806
   38.460    3.0858
   38.475    3.1806
   38.490    3.0648
   38.505    3.0964
   38.520    3.0964
   38.535    3.1280
   38.550    3.0648
   38.565    2.8541
   38.580    2.9173
   38.595    3.3597
   38.610    3.1490
   38.625    3.2438
   38.640    3.2227
   38.655    3.2754
   38.670    3.1912
   38.685    3.0332
   38.700    3.0121
   38.715    3.3175
   38.730    3.4650
   38.745    3.3491
   38.760    3.4018
   38.775    3.2754
   38.790    3.0016
   38.805    3.1701
   38.820    3.2965
   38.835    3.1490
   38.850    3.4018
   38.865    3.2122
   38.880    2.9910
   38.895    3.0648
   38.910    3.1490
   38.925    3.1806
   38.940    3.1174
   38.955    3.1596
   38.970    3.1174
   38.985    3.1174
   39.000    3.2754
   39.015    3.1490
   39.030    3.1069
   39.045    3.3491
   39.060    2.8225
   39.075    3.1912
   39.090    3.0753
   39.105    3.2227
   39.120    3.0437
   39.135    3.1912
   39.150    3.2438
   39.165    3.1280
   39.180    3.2965
   39.195    3.3070
   39.210    3.2438
   39.225    3.1490
   39.240    3.2438
   39.255    3.2754
   39.270    3.0964
   39.285    2.9805
   39.300    2.8963
   39.315    3.1701
   39.330    3.1490
   39.345    3.2227
   39.360    3.0542
   39.375    3.4544
   39.390    3.2017
   39.405    3.2965
   39.420    3.0016
   39.435    3.0226
   39.450    2.8015
   39.465    3.0753
   39.480    2.9700
   39.495    2.7593
   39.510    3.1701
   39.525    3.3491
   39.540    3.0332
   39.555    3.0753
   39.570    3.0226
   39.585    3.1701
   39.600    3.1490
   39.615    3.1174
   39.630    2.9595
   39.645    3.0648
   39.660    3.2333
   39.675    3.2859
   39.690    3.1280
   39.705    3.2017
   39.720    3.2333
   39.735    3.0437
   39.750    3.2859
   39.765    3.3597
   39.780    3.3491
   39.795    3.2017
   39.810    3.3702
   39.825    3.3597
   39.840    3.0753
   39.855    3.3491
   39.870    3.4229
   39.885    3.2543
   39.900    3.0648
   39.915    2.9279
   39.930    3.1174
   39.945    3.1701
   39.960    3.0648
   39.975    3.1174
   39.990    2.9068
