    1.500   23.0226
    1.515   23.5071
    1.530   22.5382
    1.545   22.7067
    1.560   22.8225
    1.575   22.4750
    1.590   21.3797
    1.605   21.8641
    1.620   22.7172
    1.635   22.0642
    1.650   21.7167
    1.665   21.2638
    1.680   20.9268
    1.695   21.0848
    1.710   21.1164
    1.725   20.5687
    1.740   19.7051
    1.755   19.9368
    1.770   20.0632
    1.785   19.4207
    1.800   19.1785
    1.815   19.1469
    1.830   18.8310
    1.845   19.0416
    1.860   19.0205
    1.875   18.8942
    1.890   18.5466
    1.905   18.9152
    1.920   18.5045
    1.935   18.2833
    1.950   18.1885
    1.965   18.0727
    1.980   18.0621
    1.995   18.0095
    2.010   17.9674
    2.025   17.4618
    2.040   16.8615
    2.055   17.0090
    2.070   17.1775
    2.085   16.7246
    2.100   17.1669
    2.115   16.8615
    2.130   16.2507
    2.145   17.0511
    2.160   17.0195
    2.175   16.3876
    2.190   16.0927
    2.205   16.2507
    2.220   16.0400
    2.235   16.2612
    2.250   16.2401
    2.265   15.9874
    2.280   16.3139
    2.295   15.7557
    2.310   15.8715
    2.325   15.5345
    2.340   15.7873
    2.355   15.4292
    2.370   15.5029
    2.385   15.6082
    2.400   16.0716
    2.415   15.5029
    2.430   15.4292
    2.445   15.0290
    2.460   15.7662
    2.475   15.5766
    2.490   15.3449
    2.505   14.7130
    2.520   14.5761
    2.535   14.4286
    2.550   14.9763
    2.565   15.1869
    2.580   14.9026
    2.595   14.8394
    2.610   14.6393
    2.625   14.1969
    2.640   15.2501
    2.655   14.3971
    2.670   14.7657
    2.685   14.3339
    2.700   14.0495
    2.715   14.5761
    2.730   14.2391
    2.745   14.2707
    2.760   14.3549
    2.775   14.2812
    2.790   13.7967
    2.805   14.3971
    2.820   14.2917
    2.835   14.3023
    2.850   14.3549
    2.865   15.1975
    2.880   14.3865
    2.895   14.3128
    2.910   14.4392
    2.925   14.5761
    2.940   14.4497
    2.955   14.8920
    2.970   14.5445
    2.985   14.4286
    3.000   14.9763
    3.015   15.2923
    3.030   14.7446
    3.045   15.0816
    3.060   15.0816
    3.075   15.3870
    3.090   15.3344
    3.105   15.3028
    3.120   15.5134
    3.135   15.2396
    3.150   16.2296
    3.165   16.4297
    3.180   15.8399
    3.195   16.5561
    3.210   16.7983
    3.225   17.1248
    3.240   17.9568
    3.255   17.1143
    3.270   17.0511
    3.285   17.1985
    3.300   17.2301
    3.315   18.5993
    3.330   17.9884
    3.345   17.9042
    3.360   18.7888
    3.375   19.4313
    3.390   19.1785
    3.405   19.9684
    3.420   20.4107
    3.435   20.6951
    3.450   21.3375
    3.465   21.1796
    3.480   22.0116
    3.495   22.0432
    3.510   22.4961
    3.525   23.3070
    3.540   23.1912
    3.555   23.0016
    3.570   23.7599
    3.585   23.7704
    3.600   24.9710
    3.615   24.1285
    3.630   24.3707
    3.645   23.8968
    3.660   23.4755
    3.675   23.6124
    3.690   22.8120
    3.705   22.0011
    3.720   21.6008
    3.735   20.9795
    3.750   20.5161
    3.765   20.0527
    3.780   20.2633
    3.795   19.4207
    3.810   18.9152
    3.825   18.5571
    3.840   17.9989
    3.855   17.7883
    3.870   17.2933
    3.885   16.8404
    3.900   16.8404
    3.915   16.3244
    3.930   16.2296
    3.945   15.8083
    3.960   15.6503
    3.975   15.7030
    3.990   14.8605
    4.005   14.4392
    4.020   14.5761
    4.035   14.2285
    4.050   13.7546
    4.065   13.4597
    4.080   13.5650
    4.095   12.7962
    4.110   12.3749
    4.125   12.7330
    4.140   11.9958
    4.155   11.8273
    4.170   12.0695
    4.185   11.8273
    4.200   11.7114
    4.215   12.1327
    4.230   12.2275
    4.245   11.5008
    4.260   11.4481
    4.275   11.1111
    4.290   10.9110
    4.305   10.9953
    4.320   10.8899
    4.335   10.6582
    4.350   10.2370
    4.365   10.6793
    4.380   11.0269
    4.395   10.3423
    4.410   10.1422
    4.425   10.4581
    4.440   10.0369
    4.455    9.9315
    4.470   10.0053
    4.485   10.4265
    4.500   10.0474
    4.515    9.8578
    4.530   10.0158
    4.545    9.0679
    4.560    9.7525
    4.575    9.2680
    4.590    9.0469
    4.605    9.4471
    4.620    9.8789
    4.635    9.2364
    4.650    9.3207
    4.665    9.3628
    4.680    9.1311
    4.695    9.2891
    4.710    9.1206
    4.725    9.2575
    4.740    9.3102
    4.755    8.6572
    4.770    8.7204
    4.785    8.9415
    4.800    8.8257
    4.815    8.7836
    4.830    8.5519
    4.845    8.8889
    4.860    9.1101
    4.875    9.2259
    4.890    9.1206
    4.905    8.7730
    4.920    9.0469
    4.935    8.6993
    4.950    8.9626
    4.965    8.5413
    4.980    8.8362
    4.995    8.2464
    5.010    8.1833
    5.025    8.7941
    5.040    8.8889
    5.055    8.9205
    5.070    8.2043
    5.085    8.0253
    5.100    7.8884
    5.115    8.3939
    5.130    8.6888
    5.145    8.4992
    5.160    8.2464
    5.175    7.6461
    5.190    8.1411
    5.205    8.2254
    5.220    8.1201
    5.235    7.9831
    5.250    7.9094
    5.265    8.0990
    5.280    7.8884
    5.295    7.8252
    5.310    7.8884
    5.325    7.8568
    5.340    7.8778
    5.355    8.2043
    5.370    7.8884
    5.385    7.8357
    5.400    7.7304
    5.415    7.8146
    5.430    7.6777
    5.445    7.1933
    5.460    6.9932
    5.475    7.3828
    5.490    7.6145
    5.505    7.5303
    5.520    7.7514
    5.535    7.3196
    5.550    7.4039
    5.565    7.3828
    5.580    7.5935
    5.595    7.3934
    5.610    7.2880
    5.625    7.2459
    5.640    7.3407
    5.655    7.4671
    5.670    7.3091
    5.685    7.8041
    5.700    7.0774
    5.715    7.1617
    5.730    7.0879
    5.745    7.3091
    5.760    7.4144
    5.775    7.0458
    5.790    7.0563
    5.805    7.2565
    5.820    7.2565
    5.835    6.7299
    5.850    7.0458
    5.865    7.0774
    5.880    6.9616
    5.895    7.0353
    5.910    6.8141
    5.925    7.0563
    5.940    6.8773
    5.955    6.4982
    5.970    7.2249
    5.985    7.0248
    6.000    7.3407
    6.015    7.2354
    6.030    7.1301
    6.045    7.1090
    6.060    6.7404
    6.075    7.0248
    6.090    7.3618
    6.105    6.9089
    6.120    6.8878
    6.135    6.9932
    6.150    7.2880
    6.165    7.0563
    6.180    7.3091
    6.195    7.1090
    6.210    7.0142
    6.225    6.9405
    6.240    7.1617
    6.255    7.5408
    6.270    7.2249
    6.285    6.8773
    6.300    6.7299
    6.315    6.7299
    6.330    7.5619
    6.345    7.5197
    6.360    7.2038
    6.375    6.9405
    6.390    7.1722
    6.405    6.7720
    6.420    6.5719
    6.435    6.5719
    6.450    6.6035
    6.465    6.3507
    6.480    6.7615
    6.495    6.8878
    6.510    5.9821
    6.525    6.4350
    6.540    6.3823
    6.555    6.5508
    6.570    6.5508
    6.585    6.2875
    6.600    6.1190
    6.615    6.3086
    6.630    6.1611
    6.645    6.2875
    6.660    6.5087
    6.675    6.3718
    6.690    6.7404
    6.705    6.6351
    6.720    6.5087
    6.735    6.3928
    6.750    6.2981
    6.765    6.5719
    6.780    6.5192
    6.795    6.3928
    6.810    6.0558
    6.825    6.1401
    6.840    6.3612
    6.855    6.7825
    6.870    6.2665
    6.885    6.4350
    6.900    6.6667
    6.915    6.4034
    6.930    6.0453
    6.945    6.4982
    6.960    6.6983
    6.975    6.8668
    6.990    7.0353
    7.005    7.3618
    7.020    7.1090
    7.035    7.0037
    7.050    6.9826
    7.065    6.9932
    7.080    6.9194
    7.095    7.0563
    7.110    7.1827
    7.125    7.2986
    7.140    7.2670
    7.155    7.0037
    7.170    6.8352
    7.185    7.5935
    7.200    6.9300
    7.215    7.0563
    7.230    6.8457
    7.245    6.8878
    7.260    7.1827
    7.275    7.1406
    7.290    7.2775
    7.305    6.8457
    7.320    7.0248
    7.335    6.7930
    7.350    6.7404
    7.365    6.3402
    7.380    6.7088
    7.395    6.7615
    7.410    6.7404
    7.425    6.8668
    7.440    6.6351
    7.455    6.3928
    7.470    6.7825
    7.485    6.4350
    7.500    6.5613
    7.515    6.3612
    7.530    6.5192
    7.545    6.7193
    7.560    6.5508
    7.575    6.0664
    7.590    6.6667
    7.605    6.5613
    7.620    6.3823
    7.635    6.5403
    7.650    5.9821
    7.665    6.3086
    7.680    6.3612
    7.695    6.3718
    7.710    6.1717
    7.725    5.9294
    7.740    6.2770
    7.755    6.0242
    7.770    6.0769
    7.785    6.4034
    7.800    5.8768
    7.815    6.0453
    7.830    5.9400
    7.845    5.9610
    7.860    6.1190
    7.875    6.0979
    7.890    6.0558
    7.905    6.0242
    7.920    6.2349
    7.935    5.8873
    7.950    6.1401
    7.965    5.7188
    7.980    5.6029
    7.995    5.6661
    8.010    5.9400
    8.025    5.5924
    8.040    5.3397
    8.055    5.6240
    8.070    5.8452
    8.085    5.8136
    8.100    5.9610
    8.115    5.7083
    8.130    6.0769
    8.145    5.2765
    8.160    5.5187
    8.175    5.7188
    8.190    5.6767
    8.205    5.6872
    8.220    5.8136
    8.235    5.5924
    8.250    5.5714
    8.265    5.4555
    8.280    5.4871
    8.295    5.4555
    8.310    5.3712
    8.325    5.5608
    8.340    5.9505
    8.355    5.7399
    8.370    5.4028
    8.385    5.3397
    8.400    5.2765
    8.415    5.3923
    8.430    5.2133
    8.445    5.1711
    8.460    5.3291
    8.475    5.3502
    8.490    5.4028
    8.505    5.3712
    8.520    5.3502
    8.535    5.3397
    8.550    5.2133
    8.565    5.3923
    8.580    5.2554
    8.595    5.4766
    8.610    5.1817
    8.625    5.3081
    8.640    5.1711
    8.655    5.2449
    8.670    5.5398
    8.685    5.1711
    8.700    4.8341
    8.715    5.3186
    8.730    4.9921
    8.745    5.0237
    8.760    5.0026
    8.775    5.0869
    8.790    5.1817
    8.805    5.1922
    8.820    4.9500
    8.835    4.8447
    8.850    5.2343
    8.865    5.1290
    8.880    4.8447
    8.895    4.9605
    8.910    5.4134
    8.925    5.5292
    8.940    5.0764
    8.955    5.1501
    8.970    5.2765
    8.985    5.2343
    9.000    5.2449
    9.015    5.4555
    9.030    4.9605
    9.045    5.3923
    9.060    5.2343
    9.075    5.2765
    9.090    5.4134
    9.105    5.1817
    9.120    5.2659
    9.135    5.0237
    9.150    5.2238
    9.165    5.1606
    9.180    4.9921
    9.195    5.1711
    9.210    4.9710
    9.225    5.0342
    9.240    5.0553
    9.255    5.2975
    9.270    4.9078
    9.285    4.7604
    9.300    5.2870
    9.315    4.9816
    9.330    4.8236
    9.345    5.0869
    9.360    4.7709
    9.375    4.9500
    9.390    5.2343
    9.405    5.2659
    9.420    4.8131
    9.435    4.6972
    9.450    4.5814
    9.465    5.0658
    9.480    4.9710
    9.495    4.7604
    9.510    4.5076
    9.525    4.9078
    9.540    4.8552
    9.555    4.7499
    9.570    4.8763
    9.585    4.9078
    9.600    4.7499
    9.615    5.2027
    9.630    4.8657
    9.645    4.5498
    9.660    4.8657
    9.675    5.0237
    9.690    4.9394
    9.705    4.9710
    9.720    4.8131
    9.735    4.9394
    9.750    4.7393
    9.765    5.1501
    9.780    4.9078
    9.795    4.8657
    9.810    4.7815
    9.825    4.7709
    9.840    4.9500
    9.855    5.2027
    9.870    5.0658
    9.885    4.2759
    9.900    4.6235
    9.915    4.9500
    9.930    4.5708
    9.945    4.7393
    9.960    4.7604
    9.975    4.9921
    9.990    4.7288
   10.005    4.5919
   10.020    4.7604
   10.035    4.7815
   10.050    4.9289
   10.065    4.7499
   10.080    5.0658
   10.095    4.7077
   10.110    4.4655
   10.125    4.6235
   10.140    4.6235
   10.155    4.7815
   10.170    4.8236
   10.185    4.7920
   10.200    4.4550
   10.215    4.7288
   10.230    4.7604
   10.245    4.4866
   10.260    4.8657
   10.275    4.7288
   10.290    4.6551
   10.305    5.0658
   10.320    4.8025
   10.335    4.7288
   10.350    4.7920
   10.365    4.5603
   10.380    4.6551
   10.395    4.5076
   10.410    4.5498
   10.425    4.7183
   10.440    4.7709
   10.455    4.8131
   10.470    4.8131
   10.485    4.6024
   10.500    4.5603
   10.515    4.6235
   10.530    4.5182
   10.545    4.8552
   10.560    4.6551
   10.575    4.6551
   10.590    4.7920
   10.605    4.7709
   10.620    4.5287
   10.635    4.7183
   10.650    4.5603
   10.665    4.4234
   10.680    4.4866
   10.695    4.3707
   10.710    4.9921
   10.725    4.8552
   10.740    4.7709
   10.755    4.6130
   10.770    4.9184
   10.785    4.9078
   10.800    5.0869
   10.815    5.2343
   10.830    5.0553
   10.845    4.8131
   10.860    4.8447
   10.875    4.7815
   10.890    4.7183
   10.905    4.7288
   10.920    4.8025
   10.935    4.5498
   10.950    4.6445
   10.965    4.5919
   10.980    4.8763
   10.995    4.6445
   11.010    4.6761
   11.025    4.5814
   11.040    4.8131
   11.055    4.6656
   11.070    4.5182
   11.085    4.6235
   11.100    4.9394
   11.115    5.0342
   11.130    4.6972
   11.145    4.7604
   11.160    4.5498
   11.175    5.0026
   11.190    4.7393
   11.205    4.8341
   11.220    4.9184
   11.235    4.6761
   11.250    4.5919
   11.265    4.9921
   11.280    4.8025
   11.295    5.0342
   11.310    4.8236
   11.325    5.1395
   11.340    4.9710
   11.355    4.6551
   11.370    4.7183
   11.385    4.9500
   11.400    5.0026
   11.415    4.5076
   11.430    4.6551
   11.445    5.0026
   11.460    4.7604
   11.475    4.8552
   11.490    4.9921
   11.505    4.6761
   11.520    4.6235
   11.535    4.5498
   11.550    4.7604
   11.565    4.5814
   11.580    4.2970
   11.595    4.7183
   11.610    4.5392
   11.625    4.6235
   11.640    4.5287
   11.655    4.5287
   11.670    4.5182
   11.685    4.7183
   11.700    4.8236
   11.715    4.7183
   11.730    4.5919
   11.745    4.6551
   11.760    4.7288
   11.775    4.6551
   11.790    4.6445
   11.805    4.5287
   11.820    4.7393
   11.835    4.4971
   11.850    4.9184
   11.865    4.6130
   11.880    4.6972
   11.895    4.7499
   11.910    5.0132
   11.925    4.6340
   11.940    4.8657
   11.955    4.3602
   11.970    4.4128
   11.985    4.5392
   12.000    4.3602
   12.015    4.3707
   12.030    4.5708
   12.045    4.6340
   12.060    4.8552
   12.075    4.4444
   12.090    4.5287
   12.105    4.3918
   12.120    4.6656
   12.135    4.4444
   12.150    4.4128
   12.165    4.6235
   12.180    4.8236
   12.195    4.7393
   12.210    4.6551
   12.225    4.5498
   12.240    4.7183
   12.255    4.5708
   12.270    4.3391
   12.285    4.6761
   12.300    4.2338
   12.315    4.4128
   12.330    4.7920
   12.345    4.4023
   12.360    4.6445
   12.375    4.3918
   12.390    4.3497
   12.405    4.6445
   12.420    4.7815
   12.435    4.6235
   12.450    4.6972
   12.465    4.4128
   12.480    4.7393
   12.495    4.4023
   12.510    4.6130
   12.525    4.6656
   12.540    4.5603
   12.555    4.7077
   12.570    4.6867
   12.585    4.6445
   12.600    4.8236
   12.615    5.0869
   12.630    4.6867
   12.645    4.7709
   12.660    4.8341
   12.675    4.9184
   12.690    5.1501
   12.705    4.8657
   12.720    4.9394
   12.735    5.0132
   12.750    4.8552
   12.765    4.9078
   12.780    4.7183
   12.795    5.0132
   12.810    4.7393
   12.825    5.0869
   12.840    4.9394
   12.855    4.8025
   12.870    4.5603
   12.885    4.6340
   12.900    4.5814
   12.915    4.4971
   12.930    4.5708
   12.945    4.7288
   12.960    4.4550
   12.975    4.4655
   12.990    4.5182
   13.005    4.5708
   13.020    4.5498
   13.035    4.6130
   13.050    4.4023
   13.065    4.3813
   13.080    4.2654
   13.095    4.3813
   13.110    4.5392
   13.125    4.4760
   13.140    4.3497
   13.155    4.4550
   13.170    4.6761
   13.185    4.7815
   13.200    4.6340
   13.215    4.6761
   13.230    4.5392
   13.245    4.4550
   13.260    4.3602
   13.275    4.5603
   13.290    4.6340
   13.305    4.1706
   13.320    4.4866
   13.335    4.5392
   13.350    4.4234
   13.365    4.2127
   13.380    4.3286
   13.395    4.4655
   13.410    4.4866
   13.425    4.5708
   13.440    4.6551
   13.455    4.4234
   13.470    4.3181
   13.485    4.5498
   13.500    4.6867
   13.515    4.5603
   13.530    4.1811
   13.545    4.4760
   13.560    4.7393
   13.575    4.9289
   13.590    4.4128
   13.605    4.8236
   13.620    4.3918
   13.635    4.4760
   13.650    4.7077
   13.665    4.5498
   13.680    4.7920
   13.695    4.6761
   13.710    4.7183
   13.725    4.3707
   13.740    4.2759
   13.755    4.4760
   13.770    4.8341
   13.785    4.7183
   13.800    4.5603
   13.815    4.5498
   13.830    4.5498
   13.845    4.5708
   13.860    4.5392
   13.875    4.7815
   13.890    4.4760
   13.905    4.4655
   13.920    4.8657
   13.935    4.4971
   13.950    4.6972
   13.965    4.3602
   13.980    4.1074
   13.995    4.3918
   14.010    4.4971
   14.025    4.5076
   14.040    4.5182
   14.055    4.5919
   14.070    4.5919
   14.085    4.6235
   14.100    4.7920
   14.115    4.6340
   14.130    4.6972
   14.145    4.4550
   14.160    4.6024
   14.175    4.7393
   14.190    4.7815
   14.205    4.7709
   14.220    4.5287
   14.235    4.5919
   14.250    4.5814
   14.265    4.5076
   14.280    4.6445
   14.295    4.6445
   14.310    4.7709
   14.325    4.8447
   14.340    4.7604
   14.355    4.8763
   14.370    4.8025
   14.385    4.7288
   14.400    4.8025
   14.415    4.8657
   14.430    4.8868
   14.445    4.6656
   14.460    4.6130
   14.475    4.5919
   14.490    4.5287
   14.505    4.3286
   14.520    4.7604
   14.535    4.4866
   14.550    4.4971
   14.565    4.6445
   14.580    4.6656
   14.595    4.5919
   14.610    4.5392
   14.625    4.3602
   14.640    4.3497
   14.655    4.4444
   14.670    4.4550
   14.685    4.6867
   14.700    4.9816
   14.715    4.6972
   14.730    4.5287
   14.745    4.8552
   14.760    4.2970
   14.775    4.6445
   14.790    4.4128
   14.805    4.6656
   14.820    4.5708
   14.835    4.5603
   14.850    4.8131
   14.865    5.0553
   14.880    4.8341
   14.895    4.8657
   14.910    4.4866
   14.925    4.6340
   14.940    4.7183
   14.955    4.7604
   14.970    4.9816
   14.985    4.6656
   15.000    4.5708
   15.015    4.3707
   15.030    4.7499
   15.045    4.6867
   15.060    4.6130
   15.075    4.4550
   15.090    4.4444
   15.105    4.4866
   15.120    4.8973
   15.135    4.3391
   15.150    4.5287
   15.165    4.5814
   15.180    4.8025
   15.195    4.8131
   15.210    4.9394
   15.225    4.9394
   15.240    4.8341
   15.255    4.7709
   15.270    4.6340
   15.285    4.6551
   15.300    4.6024
   15.315    4.7393
   15.330    5.0658
   15.345    4.6340
   15.360    4.6761
   15.375    4.6867
   15.390    4.5076
   15.405    4.4339
   15.420    4.7499
   15.435    4.6972
   15.450    4.4023
   15.465    4.4971
   15.480    4.8447
   15.495    4.8657
   15.510    4.4655
   15.525    4.5708
   15.540    4.4339
   15.555    4.5603
   15.570    4.5814
   15.585    4.7183
   15.600    4.5814
   15.615    4.5603
   15.630    4.7393
   15.645    4.5392
   15.660    4.5287
   15.675    4.9184
   15.690    4.6551
   15.705    4.6551
   15.720    4.3497
   15.735    4.6130
   15.750    4.4971
   15.765    4.4655
   15.780    4.3602
   15.795    4.9500
   15.810    4.8657
   15.825    4.7393
   15.840    4.5814
   15.855    5.0132
   15.870    4.8131
   15.885    5.0553
   15.900    4.9394
   15.915    4.6024
   15.930    4.6235
   15.945    4.8868
   15.960    4.5498
   15.975    4.6024
   15.990    4.8236
   16.005    4.9289
   16.020    4.7077
   16.035    4.6235
   16.050    4.8973
   16.065    5.0553
   16.080    4.6024
   16.095    4.6656
   16.110    4.9078
   16.125    4.9500
   16.140    4.8025
   16.155    4.7183
   16.170    4.8657
   16.185    4.7288
   16.200    4.5603
   16.215    4.3813
   16.230    4.6551
   16.245    4.7709
   16.260    4.7499
   16.275    4.3391
   16.290    4.6235
   16.305    4.7183
   16.320    4.4760
   16.335    4.5498
   16.350    5.0658
   16.365    4.9289
   16.380    4.7709
   16.395    4.9078
   16.410    4.8341
   16.425    5.0132
   16.440    4.9394
   16.455    4.8657
   16.470    5.1290
   16.485    5.2238
   16.500    5.1185
   16.515    5.0869
   16.530    5.0658
   16.545    5.2659
   16.560    5.0764
   16.575    4.7709
   16.590    5.0342
   16.605    5.1606
   16.620    5.0026
   16.635    5.1185
   16.650    5.1290
   16.665    4.8657
   16.680    4.6235
   16.695    4.7499
   16.710    5.0553
   16.725    4.7288
   16.740    4.7709
   16.755    4.8341
   16.770    4.9289
   16.785    4.6551
   16.800    4.8552
   16.815    4.7077
   16.830    4.8236
   16.845    4.8973
   16.860    4.8552
   16.875    4.8973
   16.890    4.8131
   16.905    4.9605
   16.920    4.5603
   16.935    4.7183
   16.950    5.0342
   16.965    4.6867
   16.980    4.5076
   16.995    4.6340
   17.010    5.0974
   17.025    4.5708
   17.040    4.8763
   17.055    5.0237
   17.070    5.1185
   17.085    4.9289
   17.100    4.8763
   17.115    5.0764
   17.130    4.7709
   17.145    4.9500
   17.160    5.3502
   17.175    5.1817
   17.190    4.9816
   17.205    5.0448
   17.220    5.2343
   17.235    4.9710
   17.250    5.1922
   17.265    4.8552
   17.280    4.8868
   17.295    4.8131
   17.310    4.8552
   17.325    4.8657
   17.340    4.5392
   17.355    4.6551
   17.370    5.2765
   17.385    5.0132
   17.400    4.6867
   17.415    4.9816
   17.430    4.8447
   17.445    4.8552
   17.460    5.0974
   17.475    4.9921
   17.490    5.1817
   17.505    5.0658
   17.520    4.8236
   17.535    4.8973
   17.550    5.0553
   17.565    5.1922
   17.580    5.1817
   17.595    5.3818
   17.610    5.2765
   17.625    5.0237
   17.640    5.0342
   17.655    4.9184
   17.670    5.2238
   17.685    5.2870
   17.700    5.1711
   17.715    5.0764
   17.730    4.9500
   17.745    5.1922
   17.760    5.0026
   17.775    5.0869
   17.790    5.3818
   17.805    5.3081
   17.820    5.1711
   17.835    5.1501
   17.850    5.2238
   17.865    5.2027
   17.880    5.1817
   17.895    5.2238
   17.910    5.2975
   17.925    5.3607
   17.940    5.4555
   17.955    5.5819
   17.970    5.2659
   17.985    5.3818
   18.000    5.2027
   18.015    5.3081
   18.030    5.4871
   18.045    5.2975
   18.060    5.2449
   18.075    5.2133
   18.090    5.3923
   18.105    5.4028
   18.120    5.2975
   18.135    5.3712
   18.150    5.2975
   18.165    5.2343
   18.180    5.4028
   18.195    5.8452
   18.210    5.5503
   18.225    5.8347
   18.240    5.5608
   18.255    5.4871
   18.270    5.1395
   18.285    5.4134
   18.300    5.4555
   18.315    5.4344
   18.330    5.7399
   18.345    5.6451
   18.360    5.7609
   18.375    5.5608
   18.390    5.8136
   18.405    6.6245
   18.420    6.2770
   18.435    6.5192
   18.450    6.5298
   18.465    5.8452
   18.480    5.9294
   18.495    6.0874
   18.510    6.1401
   18.525    5.7188
   18.540    5.7820
   18.555    5.3712
   18.570    5.6767
   18.585    5.5608
   18.600    5.2975
   18.615    5.4766
   18.630    5.5924
   18.645    5.5398
   18.660    5.5819
   18.675    5.4028
   18.690    5.3712
   18.705    5.2659
   18.720    5.4555
   18.735    5.4028
   18.750    5.2975
   18.765    5.5714
   18.780    5.6345
   18.795    5.6872
   18.810    5.6977
   18.825    6.0032
   18.840    5.7609
   18.855    5.9189
   18.870    5.9294
   18.885    6.3086
   18.900    6.3296
   18.915    6.0874
   18.930    6.3507
   18.945    6.5403
   18.960    6.8457
   18.975    6.9826
   18.990    6.9089
   19.005    7.0142
   19.020    6.8878
   19.035    6.4244
   19.050    6.4982
   19.065    6.6561
   19.080    6.4982
   19.095    6.3823
   19.110    6.0453
   19.125    6.1717
   19.140    6.0874
   19.155    6.1190
   19.170    5.5714
   19.185    5.6661
   19.200    6.0032
   19.215    5.9610
   19.230    5.9189
   19.245    5.8241
   19.260    5.6135
   19.275    5.4028
   19.290    5.5292
   19.305    5.4660
   19.320    5.4766
   19.335    5.8873
   19.350    6.0242
   19.365    5.8978
   19.380    5.4660
   19.395    5.4660
   19.410    5.6135
   19.425    5.6872
   19.440    5.4871
   19.455    5.3291
   19.470    5.3186
   19.485    5.1290
   19.500    5.5398
   19.515    5.0869
   19.530    5.3397
   19.545    5.4344
   19.560    5.3081
   19.575    5.3397
   19.590    5.8136
   19.605    5.6345
   19.620    5.5187
   19.635    5.6451
   19.650    5.5924
   19.665    5.9189
   19.680    6.1506
   19.695    6.0032
   19.710    5.6977
   19.725    5.4766
   19.740    5.5924
   19.755    5.9821
   19.770    5.6451
   19.785    5.2343
   19.800    5.0237
   19.815    5.1501
   19.830    5.1185
   19.845    4.9710
   19.860    5.4450
   19.875    5.4134
   19.890    5.4450
   19.905    5.0553
   19.920    5.2343
   19.935    5.4239
   19.950    5.3923
   19.965    5.3186
   19.980    5.3081
   19.995    5.3186
   20.010    5.2659
   20.025    5.4344
   20.040    5.3923
   20.055    5.4344
   20.070    5.5187
   20.085    5.3818
   20.100    5.6977
   20.115    5.6767
   20.130    5.4134
   20.145    4.9500
   20.160    4.9816
   20.175    5.4134
   20.190    5.5398
   20.205    5.2765
   20.220    5.7820
   20.235    5.2133
   20.250    5.6240
   20.265    5.7609
   20.280    5.7293
   20.295    5.7188
   20.310    5.8978
   20.325    5.7925
   20.340    5.5924
   20.355    6.0137
   20.370    6.2243
   20.385    6.2138
   20.400    5.9505
   20.415    6.3823
   20.430    6.5719
   20.445    6.6245
   20.460    6.8141
   20.475    6.6561
   20.490    6.9826
   20.505    6.6667
   20.520    6.4876
   20.535    6.5192
   20.550    6.3823
   20.565    6.8141
   20.580    7.0037
   20.595    6.5403
   20.610    5.9400
   20.625    6.2349
   20.640    5.7504
   20.655    6.1190
   20.670    5.9716
   20.685    5.8662
   20.700    5.6977
   20.715    5.6767
   20.730    5.5187
   20.745    5.6977
   20.760    5.4134
   20.775    5.1501
   20.790    5.2975
   20.805    5.2870
   20.820    5.1817
   20.835    5.4766
   20.850    5.5714
   20.865    5.4344
   20.880    5.4555
   20.895    5.2659
   20.910    5.0974
   20.925    5.4976
   20.940    5.1711
   20.955    5.2238
   20.970    5.5292
   20.985    5.4028
   21.000    5.2870
   21.015    5.5503
   21.030    5.4871
   21.045    5.3397
   21.060    5.3186
   21.075    5.4976
   21.090    5.0974
   21.105    5.1080
   21.120    5.3186
   21.135    5.6029
   21.150    5.5924
   21.165    5.5292
   21.180    5.3186
   21.195    5.5082
   21.210    5.1606
   21.225    5.0026
   21.240    5.4555
   21.255    5.5292
   21.270    5.2449
   21.285    5.3186
   21.300    5.3081
   21.315    5.1711
   21.330    5.2765
   21.345    5.4871
   21.360    5.4134
   21.375    5.6977
   21.390    5.3818
   21.405    5.4450
   21.420    5.6135
   21.435    5.7504
   21.450    5.8557
   21.465    5.1817
   21.480    5.6977
   21.495    5.4660
   21.510    5.7820
   21.525    5.7504
   21.540    5.6872
   21.555    5.2238
   21.570    5.8241
   21.585    5.8978
   21.600    5.2765
   21.615    5.6345
   21.630    5.7504
   21.645    5.6240
   21.660    6.1401
   21.675    5.7293
   21.690    5.5608
   21.705    5.4239
   21.720    5.8978
   21.735    5.8873
   21.750    5.6661
   21.765    5.7188
   21.780    5.3712
   21.795    5.3607
   21.810    5.4766
   21.825    5.3712
   21.840    5.3291
   21.855    5.2870
   21.870    5.4976
   21.885    5.3923
   21.900    5.6135
   21.915    5.5187
   21.930    5.1817
   21.945    5.1922
   21.960    5.6135
   21.975    5.3607
   21.990    5.3712
   22.005    5.2870
   22.020    5.7188
   22.035    5.3502
   22.050    5.4871
   22.065    5.2343
   22.080    4.9710
   22.095    5.4028
   22.110    5.1185
   22.125    5.6451
   22.140    5.5292
   22.155    5.5503
   22.170    5.3397
   22.185    5.7083
   22.200    5.6977
   22.215    5.2133
   22.230    5.2765
   22.245    5.2870
   22.260    5.5714
   22.275    5.6135
   22.290    5.5398
   22.305    5.4555
   22.320    5.2765
   22.335    5.4134
   22.350    5.3081
   22.365    5.4028
   22.380    5.5082
   22.395    5.4976
   22.410    5.5503
   22.425    5.6451
   22.440    5.5819
   22.455    5.2238
   22.470    5.4976
   22.485    5.2449
   22.500    5.5187
   22.515    5.7293
   22.530    5.7293
   22.545    5.2343
   22.560    5.2133
   22.575    5.3502
   22.590    4.9605
   22.605    5.2449
   22.620    5.2659
   22.635    5.5292
   22.650    5.4555
   22.665    5.4555
   22.680    5.4660
   22.695    5.5292
   22.710    5.2870
   22.725    5.1922
   22.740    5.6661
   22.755    5.7925
   22.770    5.7820
   22.785    5.4871
   22.800    5.6345
   22.815    5.3607
   22.830    5.6661
   22.845    6.0874
   22.860    5.8347
   22.875    6.0453
   22.890    5.5714
   22.905    5.6029
   22.920    5.8978
   22.935    5.6029
   22.950    5.3818
   22.965    5.5924
   22.980    5.6767
   22.995    5.2870
   23.010    5.2659
   23.025    5.7504
   23.040    5.7925
   23.055    5.5187
   23.070    5.1185
   23.085    5.4450
   23.100    5.3923
   23.115    5.2870
   23.130    5.4028
   23.145    5.6451
   23.160    5.2343
   23.175    5.2554
   23.190    5.2554
   23.205    5.4660
   23.220    5.6767
   23.235    5.6345
   23.250    5.4028
   23.265    5.3186
   23.280    5.4660
   23.295    5.3397
   23.310    4.8025
   23.325    4.9816
   23.340    5.5819
   23.355    5.2343
   23.370    4.8236
   23.385    5.3397
   23.400    5.2133
   23.415    5.2133
   23.430    5.2449
   23.445    5.3818
   23.460    4.9500
   23.475    4.8236
   23.490    5.0974
   23.505    5.1080
   23.520    5.2238
   23.535    5.0448
   23.550    5.3607
   23.565    5.6029
   23.580    4.9921
   23.595    4.9500
   23.610    5.3923
   23.625    5.1817
   23.640    5.4239
   23.655    5.4028
   23.670    5.2975
   23.685    5.0764
   23.700    4.8131
   23.715    5.1080
   23.730    4.9921
   23.745    5.1817
   23.760    5.3081
   23.775    5.0342
   23.790    5.2343
   23.805    5.3081
   23.820    5.4239
   23.835    5.0132
   23.850    5.3081
   23.865    5.4976
   23.880    5.6556
   23.895    5.4344
   23.910    5.4344
   23.925    5.3923
   23.940    5.4344
   23.955    5.4450
   23.970    5.5082
   23.985    5.4344
   24.000    5.6345
   24.015    5.5503
   24.030    5.2870
   24.045    5.2765
   24.060    5.0132
   24.075    4.7077
   24.090    4.9289
   24.105    5.2554
   24.120    4.9921
   24.135    5.0342
   24.150    5.0553
   24.165    5.1606
   24.180    5.2765
   24.195    4.8236
   24.210    5.0764
   24.225    4.7604
   24.240    4.7920
   24.255    4.7709
   24.270    4.8447
   24.285    4.8025
   24.300    4.2865
   24.315    4.7709
   24.330    5.0658
   24.345    4.7920
   24.360    4.9710
   24.375    4.4550
   24.390    4.7709
   24.405    5.0026
   24.420    4.9184
   24.435    5.0658
   24.450    4.8025
   24.465    4.9078
   24.480    4.9605
   24.495    4.7499
   24.510    4.7920
   24.525    4.7288
   24.540    4.7183
   24.555    4.7077
   24.570    4.8131
   24.585    4.8341
   24.600    4.7709
   24.615    4.7499
   24.630    4.7920
   24.645    4.5076
   24.660    4.8131
   24.675    4.8341
   24.690    5.2027
   24.705    5.0237
   24.720    4.7709
   24.735    4.6130
   24.750    4.7499
   24.765    4.7077
   24.780    4.3707
   24.795    4.9184
   24.810    4.9500
   24.825    4.6972
   24.840    4.8552
   24.855    4.7288
   24.870    4.9500
   24.885    4.5498
   24.900    4.3286
   24.915    4.1390
   24.930    4.7920
   24.945    4.6761
   24.960    4.8973
   24.975    4.7393
   24.990    4.7288
   25.005    5.0237
   25.020    4.8236
   25.035    4.5076
   25.050    4.8025
   25.065    4.5814
   25.080    4.9289
   25.095    4.5287
   25.110    4.8131
   25.125    4.7709
   25.140    4.4655
   25.155    4.5182
   25.170    4.4550
   25.185    4.7709
   25.200    4.3181
   25.215    4.5182
   25.230    4.7077
   25.245    5.1606
   25.260    5.2238
   25.275    4.8657
   25.290    4.3918
   25.305    4.6130
   25.320    4.6867
   25.335    4.6445
   25.350    4.6024
   25.365    4.5287
   25.380    4.5603
   25.395    4.6551
   25.410    4.7815
   25.425    4.6656
   25.440    4.4971
   25.455    4.4760
   25.470    4.4866
   25.485    4.5392
   25.500    4.2759
   25.515    4.4339
   25.530    4.4128
   25.545    4.6656
   25.560    4.4971
   25.575    4.6340
   25.590    4.4760
   25.605    4.4444
   25.620    4.2654
   25.635    4.3602
   25.650    4.6130
   25.665    4.4760
   25.680    4.8236
   25.695    4.3497
   25.710    4.4760
   25.725    4.3813
   25.740    4.1811
   25.755    4.3602
   25.770    4.1706
   25.785    4.5182
   25.800    4.3181
   25.815    4.3707
   25.830    4.6551
   25.845    4.1706
   25.860    4.7183
   25.875    4.3918
   25.890    4.3707
   25.905    4.2443
   25.920    4.2549
   25.935    4.1811
   25.950    4.0969
   25.965    4.2970
   25.980    4.0758
   25.995    3.8968
   26.010    4.2865
   26.025    4.4234
   26.040    4.4550
   26.055    4.4866
   26.070    4.3075
   26.085    4.3075
   26.100    4.6972
   26.115    4.7709
   26.130    4.4234
   26.145    4.3918
   26.160    4.4866
   26.175    4.6130
   26.190    4.4971
   26.205    4.5919
   26.220    4.4128
   26.235    4.1706
   26.250    4.3497
   26.265    4.3286
   26.280    4.5287
   26.295    4.3707
   26.310    4.1917
   26.325    4.0548
   26.340    3.9810
   26.355    3.9916
   26.370    4.0337
   26.385    3.8336
   26.400    4.0442
   26.415    4.4128
   26.430    4.1180
   26.445    4.1285
   26.460    3.8125
   26.475    4.1601
   26.490    3.9494
   26.505    4.1601
   26.520    4.1390
   26.535    4.0548
   26.550    4.1496
   26.565    4.0126
   26.580    4.3497
   26.595    4.2233
   26.610    4.1074
   26.625    4.2233
   26.640    4.3813
   26.655    4.2759
   26.670    4.1706
   26.685    4.1811
   26.700    4.2022
   26.715    4.1706
   26.730    4.0864
   26.745    4.2443
   26.760    4.2759
   26.775    4.4760
   26.790    4.2970
   26.805    4.2970
   26.820    4.0442
   26.835    3.9284
   26.850    3.9284
   26.865    4.2549
   26.880    4.2233
   26.895    3.9494
   26.910    4.5392
   26.925    4.2127
   26.940    3.9073
   26.955    4.2654
   26.970    4.2233
   26.985    4.0653
   27.000    4.0758
   27.015    4.0021
   27.030    4.0126
   27.045    3.8863
   27.060    4.0126
   27.075    4.0126
   27.090    4.0548
   27.105    4.0758
   27.120    3.9810
   27.135    4.0758
   27.150    4.1074
   27.165    3.7388
   27.180    3.7283
   27.195    4.1180
   27.210    3.8757
   27.225    3.9810
   27.240    3.8863
   27.255    4.1706
   27.270    4.0653
   27.285    4.0442
   27.300    4.2338
   27.315    4.2970
   27.330    4.3181
   27.345    4.1496
   27.360    4.1074
   27.375    4.0021
   27.390    4.2970
   27.405    3.9916
   27.420    3.9179
   27.435    3.6862
   27.450    4.2127
   27.465    4.2022
   27.480    3.8968
   27.495    4.2443
   27.510    4.1180
   27.525    3.9389
   27.540    3.8441
   27.555    4.2338
   27.570    4.1496
   27.585    3.8652
   27.600    4.0232
   27.615    3.9810
   27.630    3.5808
   27.645    3.7915
   27.660    3.6967
   27.675    3.7915
   27.690    3.8863
   27.705    3.4966
   27.720    3.7072
   27.735    3.8968
   27.750    3.7809
   27.765    4.0758
   27.780    4.1180
   27.795    3.8336
   27.810    3.9810
   27.825    4.1706
   27.840    4.0864
   27.855    3.9916
   27.870    3.7177
   27.885    3.8231
   27.900    3.6335
   27.915    3.7177
   27.930    3.6335
   27.945    3.7388
   27.960    3.6651
   27.975    3.8757
   27.990    3.8968
   28.005    3.9389
   28.020    3.8125
   28.035    3.8125
   28.050    3.8336
   28.065    3.7388
   28.080    3.8757
   28.095    3.7283
   28.110    3.6756
   28.125    3.8441
   28.140    3.7599
   28.155    3.9389
   28.170    3.8968
   28.185    3.9179
   28.200    3.6967
   28.215    3.9389
   28.230    3.7493
   28.245    3.6440
   28.260    3.6862
   28.275    3.8125
   28.290    3.8757
   28.305    4.0232
   28.320    3.7493
   28.335    3.4650
   28.350    3.6546
   28.365    3.4966
   28.380    3.5492
   28.395    3.5703
   28.410    3.5598
   28.425    3.6019
   28.440    3.7704
   28.455    3.5808
   28.470    3.4439
   28.485    3.6862
   28.500    3.8547
   28.515    3.7388
   28.530    3.8757
   28.545    3.4966
   28.560    3.4650
   28.575    3.5598
   28.590    3.8547
   28.605    3.9705
   28.620    3.8863
   28.635    3.7388
   28.650    4.0126
   28.665    4.0758
   28.680    3.7704
   28.695    3.7283
   28.710    3.4860
   28.725    3.9705
   28.740    3.8125
   28.755    3.6756
   28.770    3.9179
   28.785    3.7704
   28.800    3.4123
   28.815    3.7704
   28.830    3.8757
   28.845    3.6651
   28.860    3.6651
   28.875    3.7177
   28.890    3.9705
   28.905    3.5176
   28.920    3.4439
   28.935    3.5808
   28.950    3.5914
   28.965    3.7283
   28.980    3.6440
   28.995    3.6440
   29.010    3.7072
   29.025    3.4544
   29.040    3.5598
   29.055    3.6756
   29.070    3.6756
   29.085    3.4650
   29.100    3.3702
   29.115    3.7493
   29.130    3.3913
   29.145    3.5071
   29.160    3.5071
   29.175    3.5914
   29.190    3.3807
   29.205    3.5176
   29.220    3.2859
   29.235    3.2859
   29.250    3.4755
   29.265    3.1806
   29.280    3.2859
   29.295    3.6230
   29.310    3.1912
   29.325    3.5492
   29.340    3.4334
   29.355    3.4439
   29.370    3.3913
   29.385    3.3913
   29.400    3.3175
   29.415    3.2859
   29.430    3.6862
   29.445    3.4755
   29.460    3.4755
   29.475    3.4123
   29.490    3.5914
   29.505    3.5914
   29.520    3.6546
   29.535    3.4650
   29.550    3.4018
   29.565    3.5071
   29.580    3.4123
   29.595    3.5598
   29.610    3.4334
   29.625    3.4860
   29.640    3.5176
   29.655    3.6862
   29.670    3.5282
   29.685    3.3913
   29.700    3.6651
   29.715    3.5282
   29.730    3.7072
   29.745    3.4755
   29.760    3.4755
   29.775    3.3386
   29.790    3.5808
   29.805    3.5598
   29.820    3.6019
   29.835    3.4123
   29.850    3.3175
   29.865    3.6019
   29.880    3.4966
   29.895    3.5914
   29.910    3.3386
   29.925    3.3597
   29.940    3.6019
   29.955    3.2017
   29.970    3.2754
   29.985    3.3175
   30.000    3.3491
   30.015    3.2649
   30.030    3.2965
   30.045    3.3491
   30.060    3.1806
   30.075    3.4123
   30.090    3.6546
   30.105    3.4229
   30.120    3.4229
   30.135    3.6124
   30.150    3.2965
   30.165    3.2754
   30.180    3.6230
   30.195    3.2965
   30.210    3.3281
   30.225    3.2017
   30.240    3.4860
   30.255    3.3913
   30.270    3.2122
   30.285    3.2333
   30.300    3.2649
   30.315    3.2333
   30.330    3.3807
   30.345    3.3175
   30.360    3.2122
   30.375    3.3597
   30.390    3.2754
   30.405    3.3070
   30.420    3.5387
   30.435    3.3070
   30.450    3.2438
   30.465    3.2859
   30.480    3.5071
   30.495    3.1069
   30.510    3.0753
   30.525    3.2122
   30.540    3.2122
   30.555    3.1280
   30.570    3.2859
   30.585    3.4439
   30.600    3.3386
   30.615    3.3597
   30.630    3.3807
   30.645    3.0964
   30.660    3.1701
   30.675    3.1069
   30.690    3.0437
   30.705    2.9279
   30.720    3.3070
   30.735    3.4018
   30.750    3.2227
   30.765    2.9910
   30.780    2.9805
   30.795    2.8225
   30.810    3.0332
   30.825    3.2859
   30.840    3.2543
   30.855    3.0226
   30.870    3.0648
   30.885    2.9384
   30.900    2.9700
   30.915    3.0964
   30.930    3.0121
   30.945    3.1490
   30.960    3.2859
   30.975    3.0648
   30.990    3.0016
   31.005    3.1385
   31.020    3.1280
   31.035    3.2754
   31.050    3.0016
   31.065    3.2227
   31.080    2.9384
   31.095    3.1806
   31.110    3.1596
   31.125    3.2859
   31.140    3.3281
   31.155    3.2543
   31.170    3.2227
   31.185    2.9279
   31.200    2.8647
   31.215    2.9068
   31.230    2.8647
   31.245    2.8015
   31.260    3.1490
   31.275    3.1806
   31.290    2.8541
   31.305    3.0121
   31.320    3.2649
   31.335    3.0542
   31.350    3.0753
   31.365    2.6856
   31.380    3.0542
   31.395    3.0437
   31.410    3.0121
   31.425    3.0542
   31.440    2.7278
   31.455    2.9489
   31.470    2.9384
   31.485    3.0437
   31.500    2.9068
   31.515    3.0332
   31.530    2.9068
   31.545    2.9279
   31.560    3.0648
   31.575    3.0858
   31.590    3.1280
   31.605    2.9805
   31.620    3.0964
   31.635    3.3702
   31.650    3.1912
   31.665    2.9805
   31.680    3.0016
   31.695    2.8225
   31.710    3.0121
   31.725    2.8963
   31.740    2.8120
   31.755    2.8015
   31.770    2.8436
   31.785    2.8015
   31.800    3.0964
   31.815    3.0753
   31.830    2.8963
   31.845    2.8647
   31.860    2.7909
   31.875    3.0753
   31.890    2.7593
   31.905    2.9173
   31.920    2.9384
   31.935    2.9595
   31.950    3.1385
   31.965    2.7909
   31.980    2.8857
   31.995    2.8752
   32.010    2.6540
   32.025    2.7383
   32.040    2.8225
   32.055    2.7383
   32.070    2.8541
   32.085    2.5803
   32.100    2.6646
   32.115    2.9489
   32.130    2.9068
   32.145    2.8541
   32.160    2.7593
   32.175    2.8963
   32.190    2.7488
   32.205    3.0226
   32.220    3.0332
   32.235    3.1385
   32.250    2.8647
   32.265    2.8225
   32.280    2.7278
   32.295    2.9805
   32.310    2.6540
   32.325    2.7067
   32.340    2.6646
   32.355    2.7278
   32.370    3.1174
   32.385    2.8436
   32.400    2.6330
   32.415    2.9068
   32.430    2.8857
   32.445    2.9384
   32.460    2.7383
   32.475    2.8647
   32.490    2.8752
   32.505    2.7067
   32.520    2.6856
   32.535    3.1069
   32.550    2.6751
   32.565    2.8225
   32.580    2.8541
   32.595    2.8541
   32.610    2.9700
   32.625    2.7067
   32.640    2.7593
   32.655    2.6435
   32.670    2.7804
   32.685    2.8647
   32.700    2.8752
   32.715    2.6330
   32.730    2.5171
   32.745    2.6751
   32.760    2.8541
   32.775    2.7172
   32.790    2.7172
   32.805    2.9910
   32.820    2.9384
   32.835    2.7278
   32.850    2.8120
   32.865    2.8225
   32.880    2.6751
   32.895    2.5276
   32.910    2.7593
   32.925    2.7909
   32.940    2.7488
   32.955    2.6856
   32.970    2.6435
   32.985    2.5698
   33.000    2.6540
   33.015    2.6014
   33.030    2.4961
   33.045    2.6330
   33.060    2.7383
   33.075    2.8857
   33.090    2.8963
   33.105    2.6435
   33.120    2.4539
   33.135    2.5908
   33.150    2.4961
   33.165    2.3275
   33.180    2.4118
   33.195    2.6119
   33.210    2.6856
   33.225    2.6119
   33.240    2.3802
   33.255    2.3591
   33.270    2.3381
   33.285    2.4118
   33.300    2.4855
   33.315    2.3591
   33.330    2.6014
   33.345    2.7278
   33.360    2.6751
   33.375    2.5487
   33.390    2.3907
   33.405    2.7278
   33.420    2.4329
   33.435    2.4223
   33.450    2.3486
   33.465    2.3591
   33.480    2.4645
   33.495    2.4539
   33.510    2.4539
   33.525    2.6962
   33.540    2.6330
   33.555    2.6751
   33.570    2.7804
   33.585    2.6751
   33.600    2.5803
   33.615    2.3802
   33.630    2.6856
   33.645    2.3802
   33.660    2.1906
   33.675    2.7172
   33.690    2.7278
   33.705    2.5276
   33.720    2.6646
   33.735    2.5171
   33.750    2.5592
   33.765    2.3907
   33.780    2.4434
   33.795    2.3907
   33.810    2.3907
   33.825    2.3907
   33.840    2.4118
   33.855    2.2538
   33.870    2.5276
   33.885    2.4539
   33.900    2.6224
   33.915    2.4750
   33.930    2.3802
   33.945    2.4961
   33.960    2.3802
   33.975    2.5487
   33.990    2.4645
   34.005    2.2433
   34.020    2.6540
   34.035    2.5487
   34.050    2.6540
   34.065    2.7172
   34.080    2.6435
   34.095    2.4118
   34.110    2.3907
   34.125    2.3591
   34.140    2.5066
   34.155    2.5382
   34.170    2.4434
   34.185    2.3802
   34.200    2.2222
   34.215    2.2854
   34.230    2.4539
   34.245    2.4855
   34.260    2.6540
   34.275    2.5698
   34.290    2.5487
   34.305    2.4434
   34.320    2.3591
   34.335    2.5592
   34.350    2.5382
   34.365    2.5171
   34.380    2.4223
   34.395    2.2012
   34.410    2.3697
   34.425    2.3065
   34.440    2.3065
   34.455    2.4329
   34.470    2.4223
   34.485    2.3697
   34.500    2.2959
   34.515    2.3065
   34.530    2.4539
   34.545    2.4223
   34.560    2.2222
   34.575    2.3381
   34.590    2.3381
   34.605    2.3591
   34.620    2.2538
   34.635    2.3697
   34.650    2.1696
   34.665    2.1696
   34.680    2.3591
   34.695    2.2117
   34.710    2.3697
   34.725    2.3802
   34.740    2.3697
   34.755    2.3381
   34.770    2.4013
   34.785    2.2328
   34.800    2.2328
   34.815    2.2117
   34.830    2.1801
   34.845    2.6119
   34.860    2.3486
   34.875    2.3486
   34.890    2.1801
   34.905    2.3275
   34.920    2.3486
   34.935    2.2959
   34.950    2.3381
   34.965    2.4539
   34.980    2.1801
   34.995    2.2643
   35.010    2.2433
   35.025    2.2222
   35.040    2.3275
   35.055    2.2222
   35.070    2.1696
   35.085    1.9905
   35.100    2.1274
   35.115    2.0432
   35.130    2.0642
   35.145    2.2117
   35.160    2.2959
   35.175    2.1380
   35.190    2.1485
   35.205    2.0537
   35.220    2.2959
   35.235    2.1064
   35.250    1.9905
   35.265    2.0748
   35.280    1.9800
   35.295    2.3381
   35.310    2.1696
   35.325    2.1380
   35.340    2.2643
   35.355    2.4013
   35.370    2.2538
   35.385    2.1064
   35.400    2.2222
   35.415    1.9589
   35.430    2.1906
   35.445    2.1274
   35.460    2.0958
   35.475    1.9484
   35.490    1.9695
   35.505    1.9905
   35.520    1.8325
   35.535    2.1169
   35.550    2.0116
   35.565    2.0326
   35.580    2.0642
   35.595    2.0537
   35.610    2.1906
   35.625    1.9800
   35.640    2.1169
   35.655    1.9484
   35.670    2.2643
   35.685    2.0326
   35.700    2.1696
   35.715    2.1590
   35.730    2.1906
   35.745    2.1485
   35.760    2.2222
   35.775    2.2749
   35.790    2.0116
   35.805    1.9589
   35.820    2.0116
   35.835    1.8852
   35.850    2.0537
   35.865    2.1485
   35.880    2.0642
   35.895    1.8641
   35.910    2.0432
   35.925    2.2328
   35.940    2.4329
   35.955    1.8957
   35.970    2.0011
   35.985    2.0748
   36.000    2.0958
   36.015    2.1064
   36.030    2.1696
   36.045    2.0116
   36.060    2.1380
   36.075    2.1590
   36.090    2.1696
   36.105    2.1380
   36.120    2.1485
   36.135    2.1801
   36.150    2.3381
   36.165    2.2117
   36.180    2.1274
   36.195    2.0221
   36.210    2.1064
   36.225    2.0011
   36.240    2.2012
   36.255    2.2222
   36.270    2.0958
   36.285    1.9379
   36.300    1.9800
   36.315    1.8852
   36.330    2.2222
   36.345    2.0853
   36.360    1.9063
   36.375    2.0326
   36.390    2.0537
   36.405    2.0853
   36.420    2.2643
   36.435    2.1590
   36.450    2.2117
   36.465    2.1590
   36.480    2.1485
   36.495    2.0642
   36.510    1.8957
   36.525    2.0326
   36.540    2.0537
   36.555    1.8747
   36.570    2.1064
   36.585    1.9800
   36.600    1.9589
   36.615    2.1380
   36.630    2.2643
   36.645    2.1696
   36.660    1.7694
   36.675    1.9273
   36.690    1.9273
   36.705    2.0221
   36.720    1.9273
   36.735    2.0011
   36.750    2.0326
   36.765    2.0116
   36.780    1.7378
   36.795    1.8957
   36.810    2.1169
   36.825    1.9168
   36.840    1.8957
   36.855    1.8115
   36.870    1.9905
   36.885    1.7588
   36.900    1.8325
   36.915    1.8747
   36.930    2.0326
   36.945    1.9905
   36.960    1.7588
   36.975    1.9063
   36.990    1.9695
   37.005    1.9379
   37.020    1.9905
   37.035    2.0326
   37.050    1.9905
   37.065    1.9168
   37.080    1.9168
   37.095    2.1169
   37.110    1.9800
   37.125    2.0958
   37.140    1.9168
   37.155    1.9589
   37.170    2.0326
   37.185    1.7483
   37.200    1.8220
   37.215    1.8957
   37.230    1.9379
   37.245    2.0221
   37.260    1.9484
   37.275    2.0642
   37.290    1.9905
   37.305    1.8957
   37.320    1.9273
   37.335    1.8009
   37.350    1.6114
   37.365    1.7799
   37.380    1.7904
   37.395    1.8536
   37.410    1.9063
   37.425    1.9063
   37.440    1.8220
   37.455    1.8852
   37.470    1.9484
   37.485    2.0748
   37.500    1.9379
   37.515    2.2749
   37.530    2.0116
   37.545    1.9589
   37.560    1.8641
   37.575    1.8115
   37.590    1.8957
   37.605    1.7483
   37.620    1.7483
   37.635    1.8747
   37.650    1.6956
   37.665    2.0326
   37.680    1.8641
   37.695    1.9273
   37.710    1.8325
   37.725    1.9905
   37.740    1.9695
   37.755    1.7272
   37.770    2.0326
   37.785    1.8957
   37.800    1.7904
   37.815    1.8431
   37.830    1.6114
   37.845    1.7588
   37.860    1.8009
   37.875    1.8009
   37.890    1.7904
   37.905    1.5061
   37.920    1.5482
   37.935    1.8957
   37.950    1.8115
   37.965    1.8325
   37.980    1.7799
   37.995    1.6535
   38.010    1.7378
   38.025    1.7694
   38.040    1.7062
   38.055    1.7378
   38.070    1.6430
   38.085    1.8009
   38.100    1.5798
   38.115    1.7904
   38.130    1.7483
   38.145    1.8325
   38.160    1.6640
   38.175    1.8431
   38.190    1.6956
   38.205    1.8641
   38.220    1.8009
   38.235    1.4639
   38.250    1.6851
   38.265    1.7167
   38.280    1.7378
   38.295    1.8115
   38.310    1.9273
   38.325    1.7694
   38.340    1.5903
   38.355    1.6008
   38.370    1.8641
   38.385    1.7904
   38.400    1.8325
   38.415    1.7483
   38.430    1.8325
   38.445    1.8641
   38.460    1.9273
   38.475    1.8431
   38.490    1.7799
   38.505    1.7167
   38.520    1.6535
   38.535    1.7062
   38.550    1.7799
   38.565    1.8852
   38.580    1.8852
   38.595    1.9063
   38.610    1.8641
   38.625    1.8115
   38.640    1.7272
   38.655    2.0642
   38.670    1.8957
   38.685    1.8220
   38.700    1.7272
   38.715    1.9589
   38.730    1.9379
   38.745    1.7904
   38.760    1.7694
   38.775    1.6851
   38.790    1.8009
   38.805    1.6008
   38.820    1.7167
   38.835    1.9589
   38.850    2.0432
   38.865    1.9484
   38.880    1.8536
   38.895    1.9063
   38.910    1.7483
   38.925    1.6851
   38.940    1.7588
   38.955    1.7799
   38.970    1.7062
   38.985    1.8957
   39.000    1.6219
   39.015    1.8009
   39.030    1.7167
   39.045    2.0537
   39.060    1.8536
   39.075    1.6956
   39.090    1.7799
   39.105    1.8115
   39.120    1.8009
   39.135    1.7904
   39.150    1.6640
   39.165    1.9063
   39.180    1.7694
   39.195    1.8641
   39.210    1.8431
   39.225    1.8220
   39.240    1.9589
   39.255    1.7588
   39.270    1.7483
   39.285    1.8220
   39.300    1.9589
   39.315    1.8009
   39.330    1.7694
   39.345    1.6114
   39.360    1.6430
   39.375    1.9063
   39.390    1.8115
   39.405    1.9589
   39.420    1.8009
   39.435    1.9063
   39.450    1.7062
   39.465    1.7588
   39.480    1.8852
   39.495    1.7062
   39.510    1.7483
   39.525    1.8747
   39.540    1.9379
   39.555    1.6535
   39.570    1.5377
   39.585    1.5377
   39.600    1.6008
   39.615    1.6430
   39.630    1.7378
   39.645    1.7694
   39.660    1.7799
   39.675    1.7062
   39.690    1.6430
   39.705    1.8115
   39.720    1.7588
   39.735    1.6430
   39.750    1.6430
   39.765    1.5692
   39.780    1.6640
   39.795    1.8431
   39.810    2.0221
   39.825    1.8431
   39.840    1.8220
   39.855    1.8325
   39.870    1.7272
   39.885    1.7062
   39.900    1.6535
   39.915    1.7062
   39.930    1.5271
   39.945    1.6535
   39.960    1.7904
   39.975    1.7378
   39.990    1.7694
