    1.500   42.0748
    1.515   40.8847
    1.530   43.2543
    1.545   44.7183
    1.560   45.4239
    1.575   46.4982
    1.590   46.1927
    1.605   45.4028
    1.620   44.6867
    1.635   44.2970
    1.650   43.7599
    1.665   43.0332
    1.680   42.1274
    1.695   41.7588
    1.710   40.4423
    1.725   40.3265
    1.740   40.2422
    1.755   41.2112
    1.770   40.3265
    1.785   40.1896
    1.800   39.3470
    1.815   38.0095
    1.830   37.1459
    1.845   38.1359
    1.860   38.1464
    1.875   36.8826
    1.890   38.1780
    1.905   37.6830
    1.920   37.1459
    1.935   36.8931
    1.950   35.7767
    1.965   36.1348
    1.980   35.7030
    1.995   36.1243
    2.010   36.2717
    2.025   35.8294
    2.040   35.8294
    2.055   35.1869
    2.070   34.9236
    2.085   34.2496
    2.100   33.7335
    2.115   33.5861
    2.130   34.2285
    2.145   33.5861
    2.160   33.5861
    2.175   33.7020
    2.190   34.5656
    2.205   34.0284
    2.220   33.4071
    2.235   34.5234
    2.250   33.6177
    2.265   34.1443
    2.280   34.8710
    2.295   34.3233
    2.310   33.5334
    2.325   33.4176
    2.340   33.9337
    2.355   34.0706
    2.370   34.3444
    2.385   34.1654
    2.400   33.4808
    2.415   35.1027
    2.430   34.5656
    2.445   34.6604
    2.460   34.6077
    2.475   34.4286
    2.490   35.7346
    2.505   35.5240
    2.520   35.5872
    2.535   35.9663
    2.550   36.6930
    2.565   36.2085
    2.580   37.6725
    2.595   36.9352
    2.610   36.5877
    2.625   36.8615
    2.640   37.9674
    2.655   38.5887
    2.670   39.0311
    2.685   39.3470
    2.700   39.0311
    2.715   40.7162
    2.730   39.7262
    2.745   40.5687
    2.760   40.7267
    2.775   41.0532
    2.790   42.4013
    2.805   43.0648
    2.820   43.6651
    2.835   44.4129
    2.850   45.8241
    2.865   46.7720
    2.880   46.5614
    2.895   47.9200
    2.910   48.2780
    2.925   49.1417
    2.940   49.0047
    2.955   50.2264
    2.970   51.3639
    2.985   52.6172
    3.000   53.8389
    3.015   53.9231
    3.030   55.1764
    3.045   56.9879
    3.060   58.7783
    3.075   60.3686
    3.090   63.0648
    3.105   64.4866
    3.120   64.7815
    3.135   65.5187
    3.150   67.7514
    3.165   71.8589
    3.180   72.5224
    3.195   74.3444
    3.210   77.4618
    3.225   78.7046
    3.240   81.6535
    3.255   84.6235
    3.270   88.7204
    3.285   91.0900
    3.300   93.9968
    3.315   97.2828
    3.330  101.2006
    3.345  105.4450
    3.360  112.0485
    3.375  115.4186
    3.390  120.2422
    3.405  125.3081
    3.420  130.6056
    3.435  135.4502
    3.450  138.5255
    3.465  140.8847
    3.480  141.6114
    3.495  138.6414
    3.510  133.3755
    3.525  126.5929
    3.540  118.7888
    3.555  111.4692
    3.570  103.8020
    3.585   93.8915
    3.600   88.5729
    3.615   83.2438
    3.630   80.3160
    3.645   78.0727
    3.660   76.4718
    3.675   76.3876
    3.690   74.9868
    3.705   75.2185
    3.720   76.1664
    3.735   76.1453
    3.750   77.4408
    3.765   80.2844
    3.780   81.0848
    3.795   82.6646
    3.810   83.9073
    3.825   85.6872
    3.840   85.5398
    3.855   86.5403
    3.870   85.9294
    3.885   85.3818
    3.900   85.7293
    3.915   82.8120
    3.930   78.7362
    3.945   77.0511
    3.960   72.3960
    3.975   69.2891
    3.990   65.5819
    4.005   59.4629
    4.020   53.9231
    4.035   49.1522
    4.050   45.5819
    4.065   42.7172
    4.080   40.1790
    4.095   36.9142
    4.110   33.4808
    4.125   31.2375
    4.140   29.2575
    4.155   26.4982
    4.170   25.1711
    4.185   23.8020
    4.200   22.8857
    4.215   22.3591
    4.230   21.3481
    4.245   19.3470
    4.260   19.8104
    4.275   18.8942
    4.290   18.3149
    4.305   18.2096
    4.320   18.1464
    4.335   16.8404
    4.350   16.9879
    4.365   16.0190
    4.380   15.8083
    4.395   15.4713
    4.410   15.5872
    4.425   15.4081
    4.440   14.8815
    4.455   14.3023
    4.470   14.9026
    4.485   14.1864
    4.500   13.4702
    4.515   13.6809
    4.530   14.0390
    4.545   13.9652
    4.560   13.6598
    4.575   13.1964
    4.590   13.1754
    4.605   12.7962
    4.620   12.8910
    4.635   13.1859
    4.650   13.2385
    4.665   13.0384
    4.680   12.7751
    4.695   11.9115
    4.710   12.3433
    4.725   12.5961
    4.740   12.1011
    4.755   12.5329
    4.770   12.2696
    4.785   11.7957
    4.800   12.0800
    4.815   12.6277
    4.830   12.2801
    4.845   12.2275
    4.860   12.3855
    4.875   11.9326
    4.890   12.3433
    4.905   11.5640
    4.920   11.9747
    4.935   11.7957
    4.950   12.1748
    4.965   12.2380
    4.980   12.1854
    4.995   11.8273
    5.010   12.1748
    5.025   12.0063
    5.040   12.0379
    5.055   11.3955
    5.070   11.8378
    5.085   12.0379
    5.100   11.4587
    5.115   12.1854
    5.130   12.0274
    5.145   11.6482
    5.160   11.6588
    5.175   11.1954
    5.190   11.5429
    5.205   11.7536
    5.220   11.9642
    5.235   11.8167
    5.250   11.1216
    5.265   11.4165
    5.280   11.2691
    5.295   11.8062
    5.310   11.5850
    5.325   11.8694
    5.340   11.6904
    5.355   11.6272
    5.370   10.7109
    5.385   10.5635
    5.400   10.9847
    5.415   10.8899
    5.430   11.1322
    5.445   11.3533
    5.460   11.2480
    5.475   10.3528
    5.490   10.3633
    5.505   10.7530
    5.520   11.1216
    5.535   10.6266
    5.550   11.1743
    5.565   10.4581
    5.580   10.7109
    5.595   10.9953
    5.610   10.1316
    5.625   10.7636
    5.640   10.6266
    5.655   10.6161
    5.670   10.4371
    5.685   10.5319
    5.700   10.3739
    5.715    9.7736
    5.730   10.3844
    5.745   10.2686
    5.760   10.4792
    5.775   10.5845
    5.790   10.3423
    5.805   10.0895
    5.820   10.0895
    5.835   10.4371
    5.850   10.2159
    5.865   10.3212
    5.880   10.5635
    5.895   10.4055
    5.910   10.5108
    5.925   10.3528
    5.940    9.6577
    5.955   10.2896
    5.970   10.7109
    5.985   10.7425
    6.000   10.2370
    6.015   10.2159
    6.030   10.2475
    6.045   10.6477
    6.060    9.9842
    6.075   10.6582
    6.090   10.4476
    6.105   10.5951
    6.120   10.4265
    6.135   10.2686
    6.150    9.8789
    6.165   10.5003
    6.180   10.8268
    6.195   10.8057
    6.210   11.0058
    6.225   10.7425
    6.240   10.5108
    6.255   10.5740
    6.270   10.9742
    6.285   10.8268
    6.300   10.8268
    6.315   10.6372
    6.330   11.1954
    6.345   11.9747
    6.360   11.3849
    6.375   11.3112
    6.390   11.0795
    6.405   11.4587
    6.420   11.4060
    6.435   11.6904
    6.450   11.6272
    6.465   11.8167
    6.480   11.8483
    6.495   12.5329
    6.510   12.6277
    6.525   12.4381
    6.540   12.4487
    6.555   12.7857
    6.570   13.1332
    6.585   12.8910
    6.600   13.3649
    6.615   14.0390
    6.630   13.8705
    6.645   14.2917
    6.660   14.5445
    6.675   15.0711
    6.690   15.0079
    6.705   15.5450
    6.720   15.7346
    6.735   15.4924
    6.750   16.9774
    6.765   16.7457
    6.780   17.4618
    6.795   17.7462
    6.810   18.2096
    6.825   18.9152
    6.840   20.2949
    6.855   21.3375
    6.870   22.1064
    6.885   22.7804
    6.900   23.8231
    6.915   25.7504
    6.930   25.4344
    6.945   26.0242
    6.960   25.2343
    6.975   25.4976
    6.990   25.5608
    7.005   24.7183
    7.020   24.2654
    7.035   22.8436
    7.050   21.6746
    7.065   20.4845
    7.080   17.9884
    7.095   17.5987
    7.110   16.8931
    7.125   15.6503
    7.140   15.3344
    7.155   14.5234
    7.170   13.7546
    7.185   13.0595
    7.200   12.9437
    7.215   12.6909
    7.230   13.3017
    7.245   12.7330
    7.260   12.7646
    7.275   12.8173
    7.290   12.4803
    7.305   12.1538
    7.320   12.2064
    7.335   12.3855
    7.350   12.6382
    7.365   13.5018
    7.380   12.8278
    7.395   12.5645
    7.410   12.9226
    7.425   12.8699
    7.440   12.9647
    7.455   12.9542
    7.470   13.9231
    7.485   14.1338
    7.500   14.3760
    7.515   14.7130
    7.530   14.6288
    7.545   14.8289
    7.560   15.4186
    7.575   15.3133
    7.590   15.8294
    7.605   16.4929
    7.620   17.0090
    7.635   17.0300
    7.650   17.7357
    7.665   18.0200
    7.680   18.5255
    7.695   19.0521
    7.710   19.4207
    7.725   19.4734
    7.740   20.1685
    7.755   20.6319
    7.770   21.1374
    7.785   21.5061
    7.800   21.8115
    7.815   21.5587
    7.830   21.2638
    7.845   21.1164
    7.860   21.7378
    7.875   21.3060
    7.890   20.0948
    7.905   20.2317
    7.920   19.3576
    7.935   19.3681
    7.950   18.7256
    7.965   18.1464
    7.980   17.5355
    7.995   16.5666
    8.010   15.2712
    8.025   15.0079
    8.040   15.1027
    8.055   14.1654
    8.070   14.4813
    8.085   13.9442
    8.100   13.6072
    8.115   12.8594
    8.130   12.9542
    8.145   12.7857
    8.160   12.1222
    8.175   11.5324
    8.190   11.6272
    8.205   11.3428
    8.220   11.0163
    8.235   11.7325
    8.250   11.5008
    8.265   10.6266
    8.280   10.6688
    8.295   10.9637
    8.310   10.7004
    8.325   10.5108
    8.340   10.5740
    8.355   10.8583
    8.370   10.4897
    8.385   10.4055
    8.400   10.5951
    8.415   10.3739
    8.430   10.7214
    8.445   10.5213
    8.460    9.8789
    8.475   10.0895
    8.490   10.2686
    8.505   10.3528
    8.520   10.2054
    8.535    9.9631
    8.550   10.3423
    8.565   10.0474
    8.580    9.8894
    8.595    9.9315
    8.610    9.8262
    8.625    9.6893
    8.640   10.0895
    8.655   10.0158
    8.670   10.1948
    8.685    9.6156
    8.700   10.1422
    8.715    9.9315
    8.730    9.9947
    8.745    9.9842
    8.760    9.9842
    8.775   10.2791
    8.790    9.6367
    8.805    9.9210
    8.820    9.6472
    8.835    9.4471
    8.850    9.7525
    8.865    9.5103
    8.880    9.6577
    8.895    9.7946
    8.910    9.6156
    8.925    9.6682
    8.940    9.5840
    8.955    9.6788
    8.970    9.5629
    8.985    9.0785
    9.000    9.5629
    9.015    9.5524
    9.030    9.3418
    9.045    9.5524
    9.060    9.1838
    9.075    9.2891
    9.090    9.2259
    9.105    9.4365
    9.120    9.8157
    9.135    9.2786
    9.150    9.6682
    9.165    9.6156
    9.180    9.6893
    9.195    9.2680
    9.210    9.6051
    9.225    9.8157
    9.240    9.2575
    9.255    9.4260
    9.270    9.6682
    9.285    9.9210
    9.300    9.5419
    9.315    9.4260
    9.330    9.7314
    9.345    9.8368
    9.360    9.6156
    9.375    9.2048
    9.390    9.5735
    9.405    9.3839
    9.420    9.2575
    9.435    8.6888
    9.450    9.3839
    9.465    9.2048
    9.480    9.3102
    9.495    9.2996
    9.510    9.2891
    9.525    9.4365
    9.540    9.3207
    9.555    9.3523
    9.570    9.7736
    9.585    9.7525
    9.600    9.6577
    9.615    9.4365
    9.630    9.1522
    9.645    9.3628
    9.660    9.6577
    9.675    9.3944
    9.690    9.3944
    9.705    9.2575
    9.720    9.4471
    9.735    9.2470
    9.750    9.2048
    9.765    9.9631
    9.780    9.8999
    9.795    9.5208
    9.810    9.2364
    9.825    9.2680
    9.840    9.1417
    9.855    9.3418
    9.870    9.7525
    9.885    9.4576
    9.900    9.3523
    9.915    9.0574
    9.930    9.2154
    9.945    8.9837
    9.960    9.4787
    9.975    9.3523
    9.990    9.3944
   10.005    9.9737
   10.020    9.4892
   10.035    9.0363
   10.050    9.2996
   10.065    9.7314
   10.080    8.9205
   10.095    9.2786
   10.110    9.5735
   10.125    9.7525
   10.140    9.5208
   10.155    9.5103
   10.170    9.6367
   10.185    9.3523
   10.200    9.6577
   10.215    9.3418
   10.230    9.2154
   10.245    9.2786
   10.260    9.1101
   10.275    9.4681
   10.290    9.6156
   10.305    9.3523
   10.320    9.4787
   10.335    9.3628
   10.350    9.2259
   10.365    9.8052
   10.380    9.7946
   10.395    9.8473
   10.410   10.1001
   10.425    9.6472
   10.440    9.3944
   10.455    9.3839
   10.470    9.4787
   10.485    9.3839
   10.500    9.7736
   10.515    9.8473
   10.530    9.5313
   10.545    9.7736
   10.560    9.0363
   10.575    9.2154
   10.590    9.3523
   10.605    9.4260
   10.620    9.6261
   10.635    9.5524
   10.650    9.3312
   10.665    9.1838
   10.680    8.8889
   10.695    9.4260
   10.710    9.0890
   10.725    8.9626
   10.740    9.2364
   10.755    9.3734
   10.770    9.2470
   10.785    9.5945
   10.800    9.4576
   10.815    9.4050
   10.830    9.2154
   10.845    8.7836
   10.860    9.3312
   10.875    9.3102
   10.890    9.3102
   10.905    9.1206
   10.920    9.8578
   10.935    9.6577
   10.950    9.7314
   10.965    9.3418
   10.980    9.2470
   10.995    9.2154
   11.010    8.9626
   11.025    9.5103
   11.040    9.4155
   11.055    9.2154
   11.070    8.4992
   11.085    9.1732
   11.100    9.5313
   11.115    9.3102
   11.130    9.3102
   11.145    9.2364
   11.160    9.2680
   11.175    9.3839
   11.190    9.3944
   11.205    9.6682
   11.220    9.5524
   11.235    9.6367
   11.250    9.4050
   11.265    9.0047
   11.280    9.3523
   11.295    9.2996
   11.310    9.1417
   11.325    9.5735
   11.340    9.8684
   11.355    9.9737
   11.370    9.4997
   11.385    9.7420
   11.400    9.8578
   11.415    9.8684
   11.430    9.9421
   11.445    9.5103
   11.460    9.0890
   11.475    9.7420
   11.490    9.5313
   11.505    9.5629
   11.520    9.9737
   11.535    9.9210
   11.550    9.6788
   11.565   10.0369
   11.580    9.8789
   11.595    9.7736
   11.610   10.2686
   11.625   10.1422
   11.640   10.0369
   11.655   10.3002
   11.670   10.1738
   11.685   10.2580
   11.700   10.0369
   11.715   10.3739
   11.730   10.2475
   11.745   10.2896
   11.760    9.8894
   11.775   10.0895
   11.790    9.8684
   11.805   10.3002
   11.820   10.0895
   11.835   10.1843
   11.850    9.8894
   11.865    9.5629
   11.880    9.8473
   11.895    9.9105
   11.910   10.2370
   11.925   10.0579
   11.940   10.3528
   11.955   10.0790
   11.970    9.5103
   11.985    9.4050
   12.000    9.5313
   12.015    9.9526
   12.030    9.9421
   12.045    9.6156
   12.060    9.6682
   12.075    9.6788
   12.090    9.4681
   12.105    9.7946
   12.120   10.0579
   12.135    9.4997
   12.150    9.3102
   12.165    9.0890
   12.180    9.3734
   12.195    9.3312
   12.210    9.6472
   12.225    8.8889
   12.240    8.9521
   12.255    9.7314
   12.270    9.5524
   12.285    9.2996
   12.300    8.8678
   12.315    9.0785
   12.330    9.6367
   12.345    9.1206
   12.360    9.2154
   12.375    9.2680
   12.390    9.2786
   12.405    9.2996
   12.420    9.2786
   12.435    9.4050
   12.450    8.7098
   12.465    8.8468
   12.480    9.1943
   12.495    9.4576
   12.510    9.3839
   12.525    9.0679
   12.540    8.3307
   12.555    8.7730
   12.570    9.5840
   12.585    8.9100
   12.600    9.2154
   12.615    9.4050
   12.630    9.1627
   12.645    9.1732
   12.660    9.0469
   12.675    8.8046
   12.690    8.8362
   12.705    9.1732
   12.720    9.2891
   12.735    9.3207
   12.750    9.4260
   12.765    9.4050
   12.780    9.0574
   12.795    8.4992
   12.810    9.4892
   12.825    9.0469
   12.840    8.9731
   12.855    8.7414
   12.870    8.9626
   12.885    9.2259
   12.900    9.4892
   12.915    9.2364
   12.930    9.3839
   12.945    9.2575
   12.960    9.6472
   12.975    9.2048
   12.990    8.9837
   13.005    9.0047
   13.020    9.3523
   13.035    9.1101
   13.050    9.4260
   13.065    9.4997
   13.080    9.6998
   13.095    9.6472
   13.110    9.3523
   13.125    9.3734
   13.140    9.4681
   13.155    9.0574
   13.170    8.9310
   13.185    8.8468
   13.200    9.0153
   13.215    9.2786
   13.230    9.5524
   13.245    9.2575
   13.260    9.3418
   13.275    9.3734
   13.290    9.0785
   13.305    9.3523
   13.320    9.5313
   13.335    9.4892
   13.350    9.3839
   13.365    9.7314
   13.380    9.1417
   13.395    9.8262
   13.410    9.2891
   13.425    9.1943
   13.440    9.1101
   13.455    9.0574
   13.470    9.1206
   13.485    9.0679
   13.500    8.8784
   13.515    8.8468
   13.530    8.8362
   13.545    8.7625
   13.560    8.6151
   13.575    8.7520
   13.590    8.8362
   13.605    9.1522
   13.620    9.0785
   13.635    8.8573
   13.650    8.5308
   13.665    8.9731
   13.680    8.9205
   13.695    8.6888
   13.710    9.1101
   13.725    9.0047
   13.740    8.6256
   13.755    8.9626
   13.770    8.9942
   13.785    8.9521
   13.800    9.0890
   13.815    9.1101
   13.830    9.1732
   13.845    8.9942
   13.860    8.9731
   13.875    8.8994
   13.890    8.8678
   13.905    8.9100
   13.920    8.4150
   13.935    8.1833
   13.950    8.7520
   13.965    9.0574
   13.980    8.1411
   13.995    8.4255
   14.010    8.9521
   14.025    8.4571
   14.040    8.6256
   14.055    8.5097
   14.070    8.7520
   14.085    8.4466
   14.100    8.6256
   14.115    8.8573
   14.130    9.3312
   14.145    8.6361
   14.160    8.3834
   14.175    8.4676
   14.190    8.6572
   14.205    9.0153
   14.220    9.0785
   14.235    9.0574
   14.250    8.8257
   14.265    8.6151
   14.280    8.2043
   14.295    8.5097
   14.310    8.7730
   14.325    8.8468
   14.340    9.1627
   14.355    8.5835
   14.370    8.8257
   14.385    8.8468
   14.400    8.2359
   14.415    8.4992
   14.430    9.1627
   14.445    8.6677
   14.460    8.6151
   14.475    8.6783
   14.490    8.6045
   14.505    9.0469
   14.520    8.5940
   14.535    8.5203
   14.550    8.4781
   14.565    8.9837
   14.580    9.2470
   14.595    8.7098
   14.610    8.8889
   14.625    8.8362
   14.640    8.8046
   14.655    9.1522
   14.670    8.6256
   14.685    8.4781
   14.700    8.7098
   14.715    9.0890
   14.730    8.8152
   14.745    8.4466
   14.760    8.2675
   14.775    8.2991
   14.790    8.5729
   14.805    8.7204
   14.820    8.5413
   14.835    8.6677
   14.850    8.9205
   14.865    8.5729
   14.880    7.9200
   14.895    8.5097
   14.910    8.7098
   14.925    8.7941
   14.940    8.6783
   14.955    9.0679
   14.970    8.8889
   14.985    8.8889
   15.000    8.7836
   15.015    8.6256
   15.030    8.7414
   15.045    8.8784
   15.060    8.8573
   15.075    9.1206
   15.090    8.8889
   15.105    8.9626
   15.120    8.8257
   15.135    8.6045
   15.150    9.0890
   15.165    8.1833
   15.180    8.2991
   15.195    8.3202
   15.210    8.7309
   15.225    9.0047
   15.240    9.3418
   15.255    9.0258
   15.270    8.9205
   15.285    8.8362
   15.300    9.2048
   15.315    8.3834
   15.330    8.3412
   15.345    8.7836
   15.360    9.2680
   15.375    8.8257
   15.390    8.6783
   15.405    8.7941
   15.420    8.6361
   15.435    8.6783
   15.450    9.1943
   15.465    8.6256
   15.480    9.1732
   15.495    8.9100
   15.510    8.7730
   15.525    9.1627
   15.540    8.8362
   15.555    8.6783
   15.570    9.4576
   15.585    8.7520
   15.600    8.4992
   15.615    8.5413
   15.630    9.1732
   15.645    8.8889
   15.660    9.1417
   15.675    9.4681
   15.690    9.2154
   15.705    8.6888
   15.720    8.6151
   15.735    8.9626
   15.750    9.0047
   15.765    8.9100
   15.780    8.7941
   15.795    8.7625
   15.810    9.1522
   15.825    9.0153
   15.840    9.0153
   15.855    8.6151
   15.870    8.7941
   15.885    8.6572
   15.900    8.5308
   15.915    8.9415
   15.930    8.8994
   15.945    8.7625
   15.960    9.0679
   15.975    9.0469
   15.990    8.9100
   16.005    8.9626
   16.020    8.8468
   16.035    9.1943
   16.050    8.7941
   16.065    8.9521
   16.080    8.6467
   16.095    8.6361
   16.110    8.7836
   16.125    9.3839
   16.140    8.6151
   16.155    8.7520
   16.170    8.3518
   16.185    8.4255
   16.200    8.4992
   16.215    8.8468
   16.230    8.4781
   16.245    8.3939
   16.260    8.8046
   16.275    8.6045
   16.290    8.4887
   16.305    8.4150
   16.320    8.1938
   16.335    8.5413
   16.350    8.6151
   16.365    8.3096
   16.380    8.7941
   16.395    8.4887
   16.410    8.5940
   16.425    8.8889
   16.440    8.2675
   16.455    7.9621
   16.470    8.2149
   16.485    8.4255
   16.500    8.4676
   16.515    8.3307
   16.530    8.3307
   16.545    8.6993
   16.560    8.8257
   16.575    8.5097
   16.590    8.5835
   16.605    8.7941
   16.620    8.7414
   16.635    8.2886
   16.650    8.1727
   16.665    8.2149
   16.680    8.6045
   16.695    8.2043
   16.710    8.4150
   16.725    8.9837
   16.740    9.2364
   16.755    8.9205
   16.770    8.6572
   16.785    8.7625
   16.800    8.7941
   16.815    8.4676
   16.830    8.4466
   16.845    8.4150
   16.860    8.4360
   16.875    8.4360
   16.890    8.1727
   16.905    8.3307
   16.920    8.3096
   16.935    8.6256
   16.950    8.3096
   16.965    8.5729
   16.980    8.7625
   16.995    8.4887
   17.010    8.5624
   17.025    8.6151
   17.040    8.4781
   17.055    8.4255
   17.070    8.4360
   17.085    8.7730
   17.100    9.1943
   17.115    9.2996
   17.130    8.1938
   17.145    8.2991
   17.160    8.5835
   17.175    8.7414
   17.190    8.3307
   17.205    8.6361
   17.220    8.4150
   17.235    8.6572
   17.250    8.7836
   17.265    8.6256
   17.280    8.7836
   17.295    8.8046
   17.310    8.7625
   17.325    8.7098
   17.340    9.1838
   17.355    9.6051
   17.370    8.9626
   17.385    8.6467
   17.400    8.5308
   17.415    8.8573
   17.430    8.5940
   17.445    8.6256
   17.460    8.8678
   17.475    9.0574
   17.490    8.9731
   17.505    8.7625
   17.520    9.3523
   17.535    8.6151
   17.550    8.7204
   17.565    9.2259
   17.580    9.3628
   17.595    9.3312
   17.610    8.6045
   17.625    9.3207
   17.640    8.5729
   17.655    8.8678
   17.670    8.7836
   17.685    8.2991
   17.700    8.6467
   17.715    8.8994
   17.730    9.5524
   17.745    9.4050
   17.760    8.6256
   17.775    8.8046
   17.790    8.5203
   17.805    9.1101
   17.820    8.9310
   17.835    8.9942
   17.850    9.1101
   17.865    9.2996
   17.880    9.3312
   17.895    9.1206
   17.910    8.9837
   17.925    8.9310
   17.940    9.0047
   17.955    8.7309
   17.970    8.6151
   17.985    9.0679
   18.000    9.1522
   18.015    8.9626
   18.030    8.4676
   18.045    8.7836
   18.060    8.6256
   18.075    8.6256
   18.090    8.6993
   18.105    8.5835
   18.120    8.7204
   18.135    9.0258
   18.150    8.7836
   18.165    8.2570
   18.180    8.6888
   18.195    8.6677
   18.210    8.7309
   18.225    8.5729
   18.240    8.6256
   18.255    8.6783
   18.270    8.8678
   18.285    8.5940
   18.300    8.5835
   18.315    8.7098
   18.330    8.8152
   18.345    8.7204
   18.360    8.9626
   18.375    8.4360
   18.390    9.0995
   18.405    9.1311
   18.420    8.6467
   18.435    8.8784
   18.450    8.8573
   18.465    8.7730
   18.480    9.1522
   18.495    8.9626
   18.510    8.6151
   18.525    8.7730
   18.540    9.1417
   18.555    9.0679
   18.570    8.8152
   18.585    8.2464
   18.600    8.8362
   18.615    8.8994
   18.630    8.6677
   18.645    8.4992
   18.660    8.7204
   18.675    8.8573
   18.690    8.8257
   18.705    8.9205
   18.720    8.6045
   18.735    8.1201
   18.750    8.5413
   18.765    9.3839
   18.780    9.2575
   18.795    8.7941
   18.810    8.6256
   18.825    8.7730
   18.840    9.0995
   18.855    9.0469
   18.870    8.8784
   18.885    9.0995
   18.900    8.7309
   18.915    8.9415
   18.930    8.9942
   18.945    8.5835
   18.960    8.4044
   18.975    8.9626
   18.990    8.8573
   19.005    8.8362
   19.020    8.5413
   19.035    8.8046
   19.050    8.7730
   19.065    8.7098
   19.080    8.5519
   19.095    8.8889
   19.110    8.7414
   19.125    8.8889
   19.140    8.6045
   19.155    8.7204
   19.170    8.9521
   19.185    8.8152
   19.200    8.8257
   19.215    8.6256
   19.230    8.8889
   19.245    8.8889
   19.260    9.3207
   19.275    9.1522
   19.290    8.8573
   19.305    8.9100
   19.320    9.1206
   19.335    8.9415
   19.350    9.2154
   19.365    9.2364
   19.380    8.6993
   19.395    8.7204
   19.410    9.2154
   19.425    9.0469
   19.440    8.9626
   19.455    8.7204
   19.470    9.0890
   19.485    9.0995
   19.500    8.7098
   19.515    9.2154
   19.530    9.1311
   19.545    9.0047
   19.560    9.1101
   19.575    8.8994
   19.590    9.3102
   19.605    9.3418
   19.620    9.1206
   19.635    9.4155
   19.650    9.6893
   19.665    9.1311
   19.680    9.3628
   19.695    9.7841
   19.710    9.3207
   19.725    9.1838
   19.740    8.7730
   19.755    9.6051
   19.770    9.3418
   19.785    8.6361
   19.800    9.4787
   19.815    9.4892
   19.830    9.3207
   19.845    9.2048
   19.860    9.2259
   19.875    9.0363
   19.890    9.4050
   19.905    9.7420
   19.920    9.2891
   19.935    9.3839
   19.950    9.0047
   19.965    9.1522
   19.980    9.2259
   19.995    9.4050
   20.010    9.2996
   20.025    9.3628
   20.040    9.6156
   20.055    9.6156
   20.070    9.2364
   20.085    9.1417
   20.100    9.4365
   20.115   10.1527
   20.130    9.2470
   20.145    9.2470
   20.160    9.1522
   20.175    9.9947
   20.190    9.7736
   20.205    9.6261
   20.220    9.4260
   20.235    9.6156
   20.250    9.9210
   20.265    9.5103
   20.280    9.8262
   20.295    9.4997
   20.310    9.6051
   20.325    9.7736
   20.340    9.1943
   20.355    9.5208
   20.370    9.8999
   20.385    9.8473
   20.400    9.6788
   20.415    9.7209
   20.430    9.6893
   20.445    9.6472
   20.460    9.3628
   20.475    9.8262
   20.490    9.7314
   20.505    9.6156
   20.520    9.3312
   20.535    9.6788
   20.550    9.4997
   20.565    9.2259
   20.580    9.8789
   20.595    9.7209
   20.610    9.1732
   20.625    9.2470
   20.640    9.3523
   20.655    9.6577
   20.670    9.7946
   20.685    9.8157
   20.700    9.8052
   20.715   10.0685
   20.730    9.8157
   20.745    9.5840
   20.760   10.1316
   20.775    9.6051
   20.790    9.5313
   20.805    9.2786
   20.820    9.5419
   20.835    9.5945
   20.850    9.8578
   20.865    9.9947
   20.880   10.2791
   20.895    9.9842
   20.910    9.9526
   20.925    9.6998
   20.940    9.4365
   20.955    9.5419
   20.970   10.3633
   20.985    9.4997
   21.000    9.4365
   21.015    9.9842
   21.030   10.1948
   21.045   10.4160
   21.060    9.9210
   21.075    9.8368
   21.090    9.7209
   21.105    9.6577
   21.120    9.7209
   21.135    9.2364
   21.150    9.7630
   21.165   10.1843
   21.180    9.6051
   21.195    9.6577
   21.210    9.8578
   21.225    9.6893
   21.240   10.1316
   21.255   10.0790
   21.270    9.6682
   21.285    9.5945
   21.300    9.5945
   21.315    9.4260
   21.330    9.2996
   21.345    9.4681
   21.360    9.9315
   21.375    9.6472
   21.390    9.2996
   21.405    9.5103
   21.420    9.6893
   21.435    9.4681
   21.450    9.6156
   21.465    9.5419
   21.480    9.6893
   21.495    9.4576
   21.510    9.7946
   21.525    9.6893
   21.540    9.1943
   21.555    9.5208
   21.570    9.6577
   21.585    9.2891
   21.600    9.4155
   21.615    9.3628
   21.630    9.6261
   21.645    9.9105
   21.660    9.2364
   21.675    9.6367
   21.690    9.6788
   21.705    9.5103
   21.720    9.7630
   21.735    9.7841
   21.750    9.2891
   21.765    9.5735
   21.780    9.7104
   21.795    9.6261
   21.810    9.1943
   21.825    9.1627
   21.840    9.6051
   21.855    9.6051
   21.870    9.4997
   21.885    9.1311
   21.900    9.4260
   21.915    9.3839
   21.930    9.5735
   21.945   10.1843
   21.960    9.6472
   21.975    9.5945
   21.990    9.6367
   22.005    9.1627
   22.020    9.5208
   22.035    9.8473
   22.050    9.6156
   22.065    9.2364
   22.080    9.1732
   22.095    9.5103
   22.110   10.0895
   22.125    9.9105
   22.140    9.6367
   22.155    9.8684
   22.170   10.0685
   22.185   10.0579
   22.200   10.1843
   22.215    9.4787
   22.230    9.1943
   22.245    9.0469
   22.260    9.5103
   22.275    9.9631
   22.290    9.0890
   22.305    9.4155
   22.320    9.6788
   22.335    9.8473
   22.350    9.9947
   22.365    9.7104
   22.380    9.7841
   22.395    9.4365
   22.410    9.8368
   22.425    9.6472
   22.440    9.4471
   22.455    9.7420
   22.470   10.0790
   22.485   10.1527
   22.500   10.2159
   22.515    9.7946
   22.530    9.6577
   22.545    9.9210
   22.560    9.6998
   22.575   10.4371
   22.590   10.2370
   22.605   10.4055
   22.620    9.7314
   22.635    9.8052
   22.650    9.6577
   22.665    9.9315
   22.680   10.2159
   22.695   10.3212
   22.710    9.9210
   22.725    9.9210
   22.740    9.9315
   22.755   10.2475
   22.770    9.6998
   22.785   10.1527
   22.800   10.0790
   22.815   10.3212
   22.830   10.0369
   22.845    9.7420
   22.860   10.1527
   22.875   10.6056
   22.890   10.5635
   22.905   10.3528
   22.920    9.7209
   22.935   10.2580
   22.950    9.6788
   22.965    9.8262
   22.980    9.3312
   22.995    9.7104
   23.010    9.6472
   23.025    9.7209
   23.040    9.7104
   23.055    9.9737
   23.070    9.2680
   23.085    9.2154
   23.100    9.3207
   23.115    9.8052
   23.130    9.4787
   23.145    9.5524
   23.160    9.6156
   23.175   10.3002
   23.190   10.0895
   23.205   10.1001
   23.220    9.5840
   23.235    9.7420
   23.250    9.6472
   23.265    9.3418
   23.280    9.4471
   23.295    9.8789
   23.310    9.8999
   23.325   10.2896
   23.340    9.6261
   23.355    9.3102
   23.370    9.3734
   23.385    9.3628
   23.400    9.1101
   23.415    9.5103
   23.430    9.3944
   23.445    9.1206
   23.460    9.4050
   23.475    9.0574
   23.490    9.2680
   23.505    9.4155
   23.520    9.4681
   23.535    9.4260
   23.550    8.6572
   23.565    8.9310
   23.580    8.9100
   23.595    8.8678
   23.610    9.3207
   23.625    9.3523
   23.640    9.3312
   23.655    8.6045
   23.670    8.9521
   23.685    9.2259
   23.700    9.2470
   23.715    8.8362
   23.730    9.5629
   23.745    9.1627
   23.760    8.9205
   23.775    9.3207
   23.790    9.0469
   23.805    8.7625
   23.820    9.3312
   23.835    9.4576
   23.850    9.1732
   23.865    8.8468
   23.880    9.1311
   23.895    9.2259
   23.910    9.1838
   23.925    9.0153
   23.940    8.9100
   23.955    8.8994
   23.970    9.0574
   23.985    8.9310
   24.000    8.6467
   24.015    9.4050
   24.030    9.3418
   24.045    9.2680
   24.060    9.6472
   24.075    9.3312
   24.090    9.0469
   24.105    9.0995
   24.120    9.6893
   24.135    9.2364
   24.150    8.6256
   24.165    8.8573
   24.180    8.9205
   24.195    8.9731
   24.210    9.0363
   24.225    9.2048
   24.240    9.0785
   24.255    8.9626
   24.270    9.3628
   24.285    9.2259
   24.300    9.4892
   24.315    9.3312
   24.330    9.0785
   24.345    8.6256
   24.360    9.0785
   24.375    9.0890
   24.390    9.1627
   24.405    9.0679
   24.420    9.0679
   24.435    9.3102
   24.450    9.1732
   24.465    9.3418
   24.480    9.5103
   24.495    9.4365
   24.510    9.0363
   24.525    9.2786
   24.540    9.1417
   24.555    9.6788
   24.570    9.3102
   24.585    9.0679
   24.600    9.3839
   24.615    9.2154
   24.630    8.9731
   24.645    9.8262
   24.660    9.2048
   24.675    9.3102
   24.690    8.9626
   24.705    8.8046
   24.720    9.3207
   24.735    8.8994
   24.750    9.4050
   24.765    9.2048
   24.780    9.0785
   24.795    9.3207
   24.810    9.2048
   24.825    9.4681
   24.840    9.3628
   24.855    9.2680
   24.870    8.6151
   24.885    9.1522
   24.900    8.9626
   24.915    8.6361
   24.930    8.6677
   24.945    9.1732
   24.960    8.9521
   24.975    8.7414
   24.990    8.8678
   25.005    9.0890
   25.020    9.2786
   25.035    9.0363
   25.050    9.0258
   25.065    9.2786
   25.080    8.7309
   25.095    9.0047
   25.110    9.4576
   25.125    9.1417
   25.140    8.3939
   25.155    8.9731
   25.170    9.1732
   25.185    8.8994
   25.200    9.1311
   25.215    8.6677
   25.230    8.3412
   25.245    8.5624
   25.260    8.9837
   25.275    8.2780
   25.290    8.4360
   25.305    8.4887
   25.320    8.6467
   25.335    8.6256
   25.350    8.8468
   25.365    8.4360
   25.380    8.5624
   25.395    8.5519
   25.410    8.8573
   25.425    8.7204
   25.440    8.5519
   25.455    8.6993
   25.470    8.3939
   25.485    8.2991
   25.500    9.2786
   25.515    9.1101
   25.530    8.4781
   25.545    8.6151
   25.560    8.8468
   25.575    8.8046
   25.590    8.5624
   25.605    8.7520
   25.620    8.4044
   25.635    8.3202
   25.650    9.0890
   25.665    8.6888
   25.680    8.7625
   25.695    8.9100
   25.710    8.3202
   25.725    8.2675
   25.740    8.4781
   25.755    8.0990
   25.770    8.3728
   25.785    8.6151
   25.800    8.4781
   25.815    8.5519
   25.830    9.0890
   25.845    8.7625
   25.860    8.1095
   25.875    7.9831
   25.890    8.3202
   25.905    8.5413
   25.920    8.7414
   25.935    8.3412
   25.950    8.8046
   25.965    8.3518
   25.980    8.5624
   25.995    8.4676
   26.010    8.1201
   26.025    8.2359
   26.040    8.0990
   26.055    8.2570
   26.070    8.7520
   26.085    8.6467
   26.100    8.5413
   26.115    8.6256
   26.130    8.2675
   26.145    8.2886
   26.160    8.5413
   26.175    8.4887
   26.190    8.2780
   26.205    8.4887
   26.220    8.4150
   26.235    8.2991
   26.250    8.1622
   26.265    8.1938
   26.280    8.2991
   26.295    8.3834
   26.310    9.0679
   26.325    8.6151
   26.340    8.6151
   26.355    8.1622
   26.370    8.4044
   26.385    8.7204
   26.400    8.3939
   26.415    8.2043
   26.430    8.0253
   26.445    8.1833
   26.460    8.2254
   26.475    8.4571
   26.490    8.1727
   26.505    8.6467
   26.520    8.4466
   26.535    8.2780
   26.550    8.2675
   26.565    8.4466
   26.580    8.1833
   26.595    8.2675
   26.610    8.0674
   26.625    8.1833
   26.640    8.1622
   26.655    8.2464
   26.670    8.4466
   26.685    8.8046
   26.700    8.2043
   26.715    8.2149
   26.730    8.0674
   26.745    8.4150
   26.760    8.0779
   26.775    8.2570
   26.790    8.5729
   26.805    8.2991
   26.820    8.2359
   26.835    8.0358
   26.850    8.3834
   26.865    8.4150
   26.880    8.2043
   26.895    7.8568
   26.910    8.5097
   26.925    8.3518
   26.940    8.1306
   26.955    8.0885
   26.970    8.6151
   26.985    8.5097
   27.000    8.4676
   27.015    8.2886
   27.030    8.2570
   27.045    8.4992
   27.060    8.4571
   27.075    7.7514
   27.090    8.0674
   27.105    8.1201
   27.120    7.9726
   27.135    8.1201
   27.150    8.1095
   27.165    8.3307
   27.180    8.1201
   27.195    8.2149
   27.210    8.1095
   27.225    8.1622
   27.240    8.4992
   27.255    8.4992
   27.270    8.1095
   27.285    8.0147
   27.300    8.0885
   27.315    8.3623
   27.330    7.9516
   27.345    7.8357
   27.360    8.4360
   27.375    8.2570
   27.390    8.0885
   27.405    8.1727
   27.420    8.0463
   27.435    8.2570
   27.450    8.4150
   27.465    8.1095
   27.480    8.2149
   27.495    8.2780
   27.510    8.1095
   27.525    7.7514
   27.540    7.9305
   27.555    8.0147
   27.570    7.6461
   27.585    8.3939
   27.600    8.2886
   27.615    8.3202
   27.630    8.4571
   27.645    8.3307
   27.660    8.1938
   27.675    8.2464
   27.690    7.9726
   27.705    7.7199
   27.720    8.3202
   27.735    8.1517
   27.750    7.6251
   27.765    8.1727
   27.780    7.7830
   27.795    7.5197
   27.810    8.2464
   27.825    7.9094
   27.840    7.9621
   27.855    7.8884
   27.870    8.1306
   27.885    7.8884
   27.900    8.3307
   27.915    7.9410
   27.930    8.0147
   27.945    8.0885
   27.960    7.9726
   27.975    7.9410
   27.990    7.8252
   28.005    8.3202
   28.020    8.4150
   28.035    7.9200
   28.050    8.2359
   28.065    8.1938
   28.080    8.2570
   28.095    8.2043
   28.110    7.9831
   28.125    7.8357
   28.140    7.8884
   28.155    8.0569
   28.170    8.0147
   28.185    7.8989
   28.200    8.3939
   28.215    8.2464
   28.230    8.1938
   28.245    8.2464
   28.260    8.0147
   28.275    8.0779
   28.290    8.0569
   28.305    7.7093
   28.320    8.2043
   28.335    8.1411
   28.350    8.0147
   28.365    7.7304
   28.380    7.7725
   28.395    7.9831
   28.410    7.6883
   28.425    7.6461
   28.440    8.1411
   28.455    7.9305
   28.470    7.6988
   28.485    7.6251
   28.500    7.9200
   28.515    7.9937
   28.530    7.8778
   28.545    8.3202
   28.560    8.2780
   28.575    7.8146
   28.590    7.6777
   28.605    7.6567
   28.620    8.0990
   28.635    7.8041
   28.650    7.6672
   28.665    7.8778
   28.680    7.8673
   28.695    8.2780
   28.710    8.3834
   28.725    7.7199
   28.740    7.6883
   28.755    7.7725
   28.770    7.7830
   28.785    7.5513
   28.800    7.8778
   28.815    7.6356
   28.830    7.7409
   28.845    7.8568
   28.860    7.8252
   28.875    7.5513
   28.890    7.2249
   28.905    7.7304
   28.920    7.8778
   28.935    7.8884
   28.950    7.4776
   28.965    7.4987
   28.980    7.2565
   28.995    7.8673
   29.010    7.8252
   29.025    7.6461
   29.040    7.3196
   29.055    7.9516
   29.070    7.3302
   29.085    7.9305
   29.100    7.9094
   29.115    7.9094
   29.130    8.0885
   29.145    7.9831
   29.160    8.1622
   29.175    7.4882
   29.190    7.5092
   29.205    7.3091
   29.220    7.7199
   29.235    7.5197
   29.250    7.9094
   29.265    7.9200
   29.280    7.2143
   29.295    7.4250
   29.310    7.4460
   29.325    7.4566
   29.340    7.3512
   29.355    7.6461
   29.370    7.8673
   29.385    8.1622
   29.400    7.9410
   29.415    7.7199
   29.430    7.8146
   29.445    7.8462
   29.460    7.5619
   29.475    7.4776
   29.490    7.5408
   29.505    7.7620
   29.520    7.8568
   29.535    7.6461
   29.550    7.7199
   29.565    7.6567
   29.580    7.6567
   29.595    7.7830
   29.610    7.7093
   29.625    7.8041
   29.640    7.6356
   29.655    7.7725
   29.670    7.5197
   29.685    7.0879
   29.700    7.2986
   29.715    7.2038
   29.730    7.5619
   29.745    7.6883
   29.760    7.4039
   29.775    7.8252
   29.790    7.7830
   29.805    7.3196
   29.820    7.3723
   29.835    7.6145
   29.850    7.3512
   29.865    7.5513
   29.880    7.3618
   29.895    7.3407
   29.910    7.3723
   29.925    7.7304
   29.940    7.2249
   29.955    7.3512
   29.970    7.3723
   29.985    7.0669
   30.000    7.2354
   30.015    7.6356
   30.030    8.0674
   30.045    7.3196
   30.060    7.1933
   30.075    7.4566
   30.090    7.3618
   30.105    7.4460
   30.120    7.5829
   30.135    7.8041
   30.150    7.8462
   30.165    7.6145
   30.180    7.4460
   30.195    7.5092
   30.210    7.5935
   30.225    7.2459
   30.240    7.3828
   30.255    7.2143
   30.270    7.9094
   30.285    7.6356
   30.300    7.4039
   30.315    7.2565
   30.330    7.6251
   30.345    7.7093
   30.360    7.5303
   30.375    7.1617
   30.390    7.4144
   30.405    7.4460
   30.420    7.2880
   30.435    7.3091
   30.450    7.6040
   30.465    7.6251
   30.480    6.9826
   30.495    6.9616
   30.510    7.1511
   30.525    7.6777
   30.540    7.4882
   30.555    7.5092
   30.570    7.4039
   30.585    7.4566
   30.600    7.5303
   30.615    7.3618
   30.630    7.4460
   30.645    7.4460
   30.660    7.6883
   30.675    7.4776
   30.690    7.4460
   30.705    7.6461
   30.720    7.5197
   30.735    7.3407
   30.750    7.4566
   30.765    7.4671
   30.780    7.6567
   30.795    7.3723
   30.810    7.5935
   30.825    7.4355
   30.840    7.3618
   30.855    7.4144
   30.870    7.6461
   30.885    7.5935
   30.900    7.2143
   30.915    7.2249
   30.930    7.0985
   30.945    7.2354
   30.960    7.2565
   30.975    6.8562
   30.990    7.1617
   31.005    7.3723
   31.020    7.0458
   31.035    7.2775
   31.050    7.2038
   31.065    7.1722
   31.080    7.3512
   31.095    7.4671
   31.110    7.2880
   31.125    7.3196
   31.140    7.3302
   31.155    7.3302
   31.170    7.2459
   31.185    7.3407
   31.200    7.0879
   31.215    7.3618
   31.230    7.2565
   31.245    7.4460
   31.260    7.3196
   31.275    7.2986
   31.290    7.5092
   31.305    7.2354
   31.320    7.2775
   31.335    7.1090
   31.350    7.3196
   31.365    7.4039
   31.380    7.2249
   31.395    6.9721
   31.410    7.3828
   31.425    7.2354
   31.440    7.0985
   31.455    7.4355
   31.470    7.2565
   31.485    7.1617
   31.500    7.5513
   31.515    7.7620
   31.530    7.5619
   31.545    7.3196
   31.560    7.2459
   31.575    7.0879
   31.590    7.4039
   31.605    7.5724
   31.620    7.4671
   31.635    7.4776
   31.650    7.3302
   31.665    7.9200
   31.680    7.5408
   31.695    7.5408
   31.710    7.4144
   31.725    7.3302
   31.740    7.4355
   31.755    7.5724
   31.770    7.6883
   31.785    7.5408
   31.800    7.5197
   31.815    7.4987
   31.830    7.3407
   31.845    7.7514
   31.860    7.5303
   31.875    7.3512
   31.890    7.6145
   31.905    7.2249
   31.920    7.6777
   31.935    7.5829
   31.950    7.5408
   31.965    7.8357
   31.980    7.1511
   31.995    7.2249
   32.010    7.2986
   32.025    7.7093
   32.040    7.0985
   32.055    7.5829
   32.070    7.4776
   32.085    7.6567
   32.100    7.1301
   32.115    7.3091
   32.130    7.7830
   32.145    7.6567
   32.160    7.3302
   32.175    7.5408
   32.190    7.4987
   32.205    7.5197
   32.220    6.9826
   32.235    6.9194
   32.250    7.0879
   32.265    6.7825
   32.280    7.0563
   32.295    7.7620
   32.310    7.4039
   32.325    7.4355
   32.340    7.3618
   32.355    7.1511
   32.370    7.2986
   32.385    7.5197
   32.400    7.1301
   32.415    7.5197
   32.430    7.4144
   32.445    7.2354
   32.460    7.4882
   32.475    7.3723
   32.490    7.1406
   32.505    7.2670
   32.520    7.0985
   32.535    6.8352
   32.550    7.1827
   32.565    7.2775
   32.580    7.0037
   32.595    7.0248
   32.610    7.2249
   32.625    7.3091
   32.640    7.3512
   32.655    7.1406
   32.670    7.4566
   32.685    7.5513
   32.700    6.9089
   32.715    7.4987
   32.730    7.3302
   32.745    7.1406
   32.760    7.0563
   32.775    6.5087
   32.790    6.8562
   32.805    7.0248
   32.820    6.8246
   32.835    7.0142
   32.850    7.2249
   32.865    7.0879
   32.880    6.9300
   32.895    6.9616
   32.910    7.0037
   32.925    7.3196
   32.940    6.8773
   32.955    7.0563
   32.970    7.0353
   32.985    7.0669
   33.000    7.2143
   33.015    6.8984
   33.030    6.8984
   33.045    7.1511
   33.060    6.8457
   33.075    6.9932
   33.090    6.8878
   33.105    7.0248
   33.120    7.1933
   33.135    7.3407
   33.150    7.0248
   33.165    7.2459
   33.180    7.0774
   33.195    7.2038
   33.210    6.6245
   33.225    6.8562
   33.240    7.2143
   33.255    6.9721
   33.270    6.9826
   33.285    7.0563
   33.300    7.2986
   33.315    7.0142
   33.330    7.2459
   33.345    7.3196
   33.360    7.1511
   33.375    7.2565
   33.390    7.1301
   33.405    7.2986
   33.420    7.0563
   33.435    7.0669
   33.450    7.2986
   33.465    7.2880
   33.480    6.9826
   33.495    6.9616
   33.510    7.0248
   33.525    6.8773
   33.540    6.7825
   33.555    6.6667
   33.570    7.4671
   33.585    7.0353
   33.600    6.6877
   33.615    6.7615
   33.630    7.2143
   33.645    7.0353
   33.660    6.9826
   33.675    6.8773
   33.690    7.0037
   33.705    6.8457
   33.720    6.7825
   33.735    6.6245
   33.750    6.6877
   33.765    7.0353
   33.780    6.5824
   33.795    7.0669
   33.810    6.6245
   33.825    6.7825
   33.840    6.9300
   33.855    6.9405
   33.870    7.3512
   33.885    6.9510
   33.900    6.5087
   33.915    6.5719
   33.930    6.6035
   33.945    6.6667
   33.960    7.0985
   33.975    7.3196
   33.990    6.9089
   34.005    7.1195
   34.020    7.5197
   34.035    7.1827
   34.050    6.5403
   34.065    6.7930
   34.080    6.7404
   34.095    6.5508
   34.110    6.7088
   34.125    6.8562
   34.140    6.8457
   34.155    7.2880
   34.170    6.7825
   34.185    7.0142
   34.200    6.8668
   34.215    6.7509
   34.230    6.4982
   34.245    6.6561
   34.260    6.8773
   34.275    6.8141
   34.290    6.5719
   34.305    6.6667
   34.320    6.4982
   34.335    7.2880
   34.350    6.7088
   34.365    6.6561
   34.380    6.6140
   34.395    6.4455
   34.410    6.6245
   34.425    6.7930
   34.440    7.0563
   34.455    6.8036
   34.470    7.0353
   34.485    6.8668
   34.500    6.6772
   34.515    6.6245
   34.530    6.8141
   34.545    6.8036
   34.560    6.6351
   34.575    6.6140
   34.590    6.6035
   34.605    6.7088
   34.620    7.0037
   34.635    6.6035
   34.650    6.3507
   34.665    6.6456
   34.680    6.7404
   34.695    6.5613
   34.710    6.7930
   34.725    6.6245
   34.740    6.3402
   34.755    6.4455
   34.770    6.2559
   34.785    6.3928
   34.800    6.7193
   34.815    6.7615
   34.830    6.2665
   34.845    6.8457
   34.860    6.5719
   34.875    7.0142
   34.890    7.0985
   34.905    6.8562
   34.920    6.6140
   34.935    6.6245
   34.950    7.2354
   34.965    6.9405
   34.980    6.7509
   34.995    6.6456
   35.010    6.7720
   35.025    6.5403
   35.040    6.7615
   35.055    6.8668
   35.070    6.8878
   35.085    6.9405
   35.100    6.6140
   35.115    7.1827
   35.130    7.1406
   35.145    6.6035
   35.160    6.6035
   35.175    6.5719
   35.190    6.8246
   35.205    7.0353
   35.220    6.5087
   35.235    6.2981
   35.250    6.9826
   35.265    7.0037
   35.280    6.7509
   35.295    6.9510
   35.310    6.8036
   35.325    6.8668
   35.340    6.7404
   35.355    6.6667
   35.370    6.8141
   35.385    6.6456
   35.400    6.6351
   35.415    6.5298
   35.430    6.3718
   35.445    6.5403
   35.460    6.6772
   35.475    6.4244
   35.490    6.5929
   35.505    6.7720
   35.520    6.5508
   35.535    7.1195
   35.550    6.8668
   35.565    6.5929
   35.580    6.6140
   35.595    6.9826
   35.610    6.6140
   35.625    6.7720
   35.640    6.3296
   35.655    6.7299
   35.670    6.3928
   35.685    6.5613
   35.700    6.8246
   35.715    6.5508
   35.730    6.6772
   35.745    6.7193
   35.760    6.7615
   35.775    6.1611
   35.790    6.9510
   35.805    6.8773
   35.820    6.9194
   35.835    6.4771
   35.850    6.5929
   35.865    6.6667
   35.880    6.5298
   35.895    6.7509
   35.910    6.7404
   35.925    6.4455
   35.940    5.8662
   35.955    6.7825
   35.970    6.5298
   35.985    6.5613
   36.000    6.4455
   36.015    6.7299
   36.030    6.7404
   36.045    6.4876
   36.060    6.4876
   36.075    6.4982
   36.090    6.6245
   36.105    6.6140
   36.120    6.2559
   36.135    6.7193
   36.150    6.5613
   36.165    6.9300
   36.180    6.7720
   36.195    6.5298
   36.210    6.4034
   36.225    6.3086
   36.240    6.6035
   36.255    6.3191
   36.270    6.5719
   36.285    6.1506
   36.300    6.1085
   36.315    6.9300
   36.330    6.4034
   36.345    5.9926
   36.360    6.4771
   36.375    6.1190
   36.390    6.4244
   36.405    6.1401
   36.420    6.2138
   36.435    6.7088
   36.450    6.6245
   36.465    6.4139
   36.480    6.5403
   36.495    6.6456
   36.510    6.6140
   36.525    6.5403
   36.540    6.2454
   36.555    6.4771
   36.570    6.7720
   36.585    6.8984
   36.600    7.0037
   36.615    6.2138
   36.630    6.3612
   36.645    6.6561
   36.660    6.5824
   36.675    5.9084
   36.690    6.1401
   36.705    6.4666
   36.720    6.4350
   36.735    6.3402
   36.750    6.3612
   36.765    6.4034
   36.780    6.4139
   36.795    6.5613
   36.810    6.2243
   36.825    6.4139
   36.840    6.3612
   36.855    6.6351
   36.870    6.8668
   36.885    6.1822
   36.900    6.2243
   36.915    6.3612
   36.930    6.4139
   36.945    6.0558
   36.960    6.1611
   36.975    6.4244
   36.990    6.7193
   37.005    6.4560
   37.020    6.6035
   37.035    6.9194
   37.050    6.5613
   37.065    6.5403
   37.080    6.7088
   37.095    6.3191
   37.110    6.1295
   37.125    6.3823
   37.140    6.9510
   37.155    6.8036
   37.170    6.3507
   37.185    6.5719
   37.200    6.4034
   37.215    6.3507
   37.230    6.6351
   37.245    6.8246
   37.260    6.6877
   37.275    6.4350
   37.290    6.2770
   37.305    6.1190
   37.320    6.0664
   37.335    6.1927
   37.350    6.3823
   37.365    6.4034
   37.380    6.2559
   37.395    6.1295
   37.410    6.1506
   37.425    6.2349
   37.440    6.5298
   37.455    6.4666
   37.470    6.3402
   37.485    6.4666
   37.500    6.2559
   37.515    6.0979
   37.530    6.4771
   37.545    6.7615
   37.560    6.7299
   37.575    6.5192
   37.590    6.5613
   37.605    6.4982
   37.620    6.6983
   37.635    6.6983
   37.650    6.0348
   37.665    6.4139
   37.680    6.4034
   37.695    6.3928
   37.710    6.4139
   37.725    6.5298
   37.740    6.2559
   37.755    6.2770
   37.770    6.0979
   37.785    6.0769
   37.800    6.1401
   37.815    6.4455
   37.830    6.5719
   37.845    6.1822
   37.860    6.2454
   37.875    6.4139
   37.890    6.3928
   37.905    6.5613
   37.920    6.5192
   37.935    6.5719
   37.950    6.3718
   37.965    6.5719
   37.980    6.4139
   37.995    6.5824
   38.010    6.4455
   38.025    6.5298
   38.040    5.9294
   38.055    6.7193
   38.070    6.7193
   38.085    6.3928
   38.100    6.1927
   38.115    6.3296
   38.130    6.6245
   38.145    6.3507
   38.160    6.1717
   38.175    6.3402
   38.190    6.0032
   38.205    6.3191
   38.220    6.3191
   38.235    6.4034
   38.250    6.5929
   38.265    6.6351
   38.280    6.6351
   38.295    6.0558
   38.310    6.5298
   38.325    6.4455
   38.340    6.5087
   38.355    6.6351
   38.370    6.3612
   38.385    6.6561
   38.400    6.5087
   38.415    6.6140
   38.430    6.2559
   38.445    5.9926
   38.460    5.7820
   38.475    5.9505
   38.490    6.4244
   38.505    6.1085
   38.520    6.2665
   38.535    5.9716
   38.550    6.0032
   38.565    6.2033
   38.580    6.7088
   38.595    6.7509
   38.610    6.4034
   38.625    6.2875
   38.640    6.4244
   38.655    6.2033
   38.670    6.3296
   38.685    6.1822
   38.700    6.2138
   38.715    6.3612
   38.730    6.2559
   38.745    6.2033
   38.760    6.5087
   38.775    6.2981
   38.790    6.6351
   38.805    6.3718
   38.820    6.6245
   38.835    6.2559
   38.850    6.1190
   38.865    5.8873
   38.880    6.1611
   38.895    6.5929
   38.910    6.4244
   38.925    6.0453
   38.940    6.1190
   38.955    6.3402
   38.970    6.3823
   38.985    6.1295
   39.000    6.1717
   39.015    6.4771
   39.030    6.5719
   39.045    6.5613
   39.060    6.7720
   39.075    6.4034
   39.090    6.2243
   39.105    6.4666
   39.120    6.4244
   39.135    6.6561
   39.150    6.5824
   39.165    6.6772
   39.180    6.3086
   39.195    6.5087
   39.210    6.4560
   39.225    6.2559
   39.240    6.2875
   39.255    6.3928
   39.270    6.2665
   39.285    6.3086
   39.300    6.6035
   39.315    6.1717
   39.330    6.4982
   39.345    6.5298
   39.360    6.5824
   39.375    6.4876
   39.390    6.3191
   39.405    6.1717
   39.420    6.3823
   39.435    6.5298
   39.450    6.7404
   39.465    6.4350
   39.480    6.5298
   39.495    6.3296
   39.510    6.4139
   39.525    6.3928
   39.540    6.3402
   39.555    6.3823
   39.570    6.3086
   39.585    6.2559
   39.600    6.2454
   39.615    6.2559
   39.630    6.2981
   39.645    6.4876
   39.660    6.1717
   39.675    6.4139
   39.690    6.3191
   39.705    6.5087
   39.720    6.6772
   39.735    6.3823
   39.750    6.2033
   39.765    6.5824
   39.780    6.4244
   39.795    6.4560
   39.810    6.3928
   39.825    6.0664
   39.840    6.1927
   39.855    6.1190
   39.870    6.9300
   39.885    6.2243
   39.900    6.2559
   39.915    6.3296
   39.930    6.4771
   39.945    6.3086
   39.960    6.8141
   39.975    6.2665
   39.990    6.2138
