    1.500   26.7404
    1.515   26.9721
    1.530   26.4982
    1.545   26.0558
    1.560   25.6767
    1.575   25.4028
    1.590   25.7188
    1.605   24.6867
    1.620   24.4234
    1.635   24.4128
    1.650   23.7388
    1.665   22.9173
    1.680   23.2859
    1.695   22.7383
    1.710   23.1701
    1.725   21.9800
    1.740   22.3697
    1.755   21.9695
    1.770   22.1696
    1.785   21.7694
    1.800   21.4323
    1.815   21.1690
    1.830   21.5166
    1.845   20.7583
    1.860   20.9373
    1.875   20.5582
    1.890   20.4845
    1.905   20.3686
    1.920   20.6214
    1.935   20.2001
    1.950   19.7894
    1.965   19.5893
    1.980   19.0416
    1.995   19.8210
    2.010   19.1785
    2.025   19.2838
    2.040   19.6946
    2.055   18.7151
    2.070   19.1364
    2.085   18.9468
    2.100   19.4523
    2.115   18.6730
    2.130   18.7888
    2.145   18.8204
    2.160   18.9679
    2.175   19.1153
    2.190   18.5045
    2.205   18.4729
    2.220   19.2522
    2.235   19.1890
    2.250   19.3049
    2.265   19.7262
    2.280   18.4939
    2.295   18.9152
    2.310   19.2417
    2.325   19.4523
    2.340   19.9895
    2.355   19.3049
    2.370   19.0521
    2.385   19.3681
    2.400   20.3476
    2.415   19.9052
    2.430   20.3686
    2.445   20.5266
    2.460   20.7267
    2.475   20.7478
    2.490   20.2001
    2.505   20.1159
    2.520   21.0427
    2.535   21.3270
    2.550   21.2006
    2.565   22.2222
    2.580   22.4223
    2.595   21.9589
    2.610   22.3907
    2.625   22.7278
    2.640   23.4439
    2.655   23.3386
    2.670   23.5492
    2.685   23.4334
    2.700   24.3286
    2.715   25.0448
    2.730   25.8662
    2.745   25.8136
    2.760   26.1611
    2.775   26.5087
    2.790   26.5298
    2.805   27.3091
    2.820   28.4360
    2.835   28.1833
    2.850   28.0147
    2.865   29.7630
    2.880   30.1211
    2.895   30.3739
    2.910   30.4687
    2.925   30.7109
    2.940   32.3328
    2.955   33.8073
    2.970   33.5124
    2.985   34.9868
    3.000   36.3244
    3.015   37.5145
    3.030   36.9984
    3.045   38.2096
    3.060   39.3997
    3.075   41.0953
    3.090   41.3270
    3.105   42.9279
    3.120   44.8131
    3.135   46.2033
    3.150   46.8141
    3.165   48.2043
    3.180   49.4576
    3.195   52.4065
    3.210   52.9015
    3.225   55.0711
    3.240   57.2723
    3.255   59.4734
    3.270   63.6230
    3.285   66.4455
    3.300   69.7420
    3.315   71.1532
    3.330   75.1869
    3.345   80.6003
    3.360   84.3497
    3.375   87.1301
    3.390   93.5334
    3.405   99.5577
    3.420  103.6440
    3.435  106.6351
    3.450  109.2680
    3.465  110.1106
    3.480  106.3928
    3.495  100.1159
    3.510   90.9110
    3.525   81.4955
    3.540   71.6272
    3.555   63.7599
    3.570   56.3244
    3.585   51.2586
    3.600   47.7304
    3.615   44.8236
    3.630   42.4434
    3.645   41.2533
    3.660   40.5371
    3.675   40.1685
    3.690   39.1890
    3.705   39.5471
    3.720   39.5366
    3.735   40.6109
    3.750   40.4529
    3.765   42.1801
    3.780   42.8647
    3.795   42.0853
    3.810   44.0021
    3.825   43.9495
    3.840   44.5392
    3.855   46.3191
    3.870   45.7504
    3.885   46.5719
    3.900   48.1095
    3.915   48.0463
    3.930   47.7830
    3.945   48.3202
    3.960   47.7620
    3.975   47.4250
    3.990   47.4355
    4.005   46.4982
    4.020   45.2133
    4.035   43.9705
    4.050   43.3597
    4.065   41.3481
    4.080   40.2106
    4.095   38.3149
    4.110   36.8615
    4.125   34.7025
    4.140   33.5124
    4.155   31.2691
    4.170   29.5840
    4.185   28.0147
    4.200   26.8352
    4.215   25.4239
    4.230   24.5919
    4.245   23.3281
    4.260   21.2006
    4.275   20.0211
    4.290   19.7367
    4.305   18.8942
    4.320   17.8515
    4.335   16.6298
    4.350   15.9558
    4.365   15.8715
    4.380   14.8078
    4.395   14.1338
    4.410   14.1548
    4.425   13.7441
    4.440   12.5540
    4.455   12.2907
    4.470   11.7325
    4.485   12.0063
    4.500   11.7430
    4.515   11.1848
    4.530   10.3633
    4.545   10.2896
    4.560   10.2264
    4.575   10.4371
    4.590   10.1001
    4.605    9.6472
    4.620    9.4787
    4.635    9.5945
    4.650    9.3944
    4.665    8.6783
    4.680    9.1522
    4.695    9.1522
    4.710    8.6572
    4.725    8.7836
    4.740    8.7836
    4.755    8.5835
    4.770    8.3412
    4.785    8.5097
    4.800    8.6151
    4.815    8.5835
    4.830    8.2254
    4.845    8.4360
    4.860    8.2254
    4.875    7.9516
    4.890    8.1833
    4.905    7.9726
    4.920    7.9831
    4.935    7.5724
    4.950    7.8357
    4.965    7.7514
    4.980    7.6145
    4.995    7.4039
    5.010    7.7093
    5.025    7.7514
    5.040    7.9410
    5.055    7.4882
    5.070    7.3723
    5.085    7.5724
    5.100    7.5935
    5.115    7.1406
    5.130    7.6040
    5.145    7.7725
    5.160    7.2775
    5.175    7.3934
    5.190    7.3091
    5.205    7.4566
    5.220    7.1195
    5.235    7.1406
    5.250    7.2459
    5.265    7.6356
    5.280    7.0353
    5.295    7.2986
    5.310    7.3828
    5.325    6.6561
    5.340    7.3934
    5.355    7.2986
    5.370    7.1617
    5.385    6.9510
    5.400    6.9721
    5.415    7.0142
    5.430    6.7509
    5.445    6.6983
    5.460    6.9089
    5.475    6.7720
    5.490    7.1195
    5.505    7.3828
    5.520    6.9826
    5.535    6.9405
    5.550    7.3091
    5.565    7.1827
    5.580    6.5824
    5.595    6.6351
    5.610    6.9826
    5.625    6.8457
    5.640    6.5508
    5.655    6.3718
    5.670    6.7825
    5.685    7.0248
    5.700    7.0563
    5.715    6.8036
    5.730    6.6772
    5.745    6.8036
    5.760    6.6245
    5.775    6.7930
    5.790    7.0353
    5.805    6.9405
    5.820    6.8878
    5.835    6.7404
    5.850    6.8246
    5.865    6.8457
    5.880    6.7299
    5.895    6.7825
    5.910    6.4982
    5.925    6.2875
    5.940    6.3612
    5.955    6.2559
    5.970    6.3191
    5.985    6.3086
    6.000    6.3612
    6.015    6.7930
    6.030    6.7825
    6.045    6.4666
    6.060    6.3612
    6.075    6.4666
    6.090    6.6245
    6.105    6.7825
    6.120    6.8878
    6.135    6.3507
    6.150    6.8036
    6.165    6.8246
    6.180    6.7615
    6.195    7.0563
    6.210    6.8984
    6.225    7.0774
    6.240    6.7299
    6.255    6.2559
    6.270    6.5613
    6.285    6.7088
    6.300    6.8457
    6.315    7.1617
    6.330    6.7193
    6.345    7.0563
    6.360    7.1301
    6.375    7.1617
    6.390    7.1722
    6.405    6.9721
    6.420    6.9089
    6.435    7.3618
    6.450    7.2880
    6.465    7.0353
    6.480    7.3723
    6.495    7.2565
    6.510    7.3512
    6.525    7.5513
    6.540    8.1517
    6.555    7.6988
    6.570    7.8778
    6.585    8.3834
    6.600    8.8468
    6.615    8.1727
    6.630    8.1517
    6.645    8.5729
    6.660    8.6572
    6.675    8.8046
    6.690    9.0574
    6.705    9.3102
    6.720    9.5103
    6.735    9.5419
    6.750   10.1001
    6.765    9.9842
    6.780   10.3739
    6.795   11.1216
    6.810   11.3955
    6.825   10.9426
    6.840   11.7009
    6.855   11.8167
    6.870   12.9542
    6.885   13.3965
    6.900   14.3444
    6.915   14.6919
    6.930   14.8394
    6.945   14.8920
    6.960   15.3660
    6.975   15.1869
    6.990   14.8605
    7.005   14.7025
    7.020   13.6177
    7.035   11.8483
    7.050   11.8062
    7.065   11.2586
    7.080   10.3633
    7.095    9.5103
    7.110    9.4997
    7.125    9.5313
    7.140    8.9731
    7.155    8.3518
    7.170    7.7725
    7.185    7.8989
    7.200    7.4987
    7.215    7.8989
    7.230    7.7199
    7.245    7.7830
    7.260    7.9410
    7.275    7.8568
    7.290    7.6461
    7.305    7.3723
    7.320    7.4039
    7.335    7.1301
    7.350    7.5092
    7.365    7.4671
    7.380    7.4882
    7.395    7.8252
    7.410    7.6040
    7.425    7.7409
    7.440    7.3934
    7.455    7.6567
    7.470    7.9305
    7.485    7.4882
    7.500    7.4566
    7.515    7.7936
    7.530    7.3723
    7.545    7.6040
    7.560    7.8252
    7.575    7.8252
    7.590    7.7199
    7.605    7.8252
    7.620    7.8884
    7.635    8.4044
    7.650    8.2675
    7.665    8.5097
    7.680    7.9621
    7.695    8.1411
    7.710    8.4466
    7.725    8.6993
    7.740    8.7730
    7.755    8.6467
    7.770    8.8046
    7.785    8.7730
    7.800    8.5308
    7.815    8.9310
    7.830    9.2154
    7.845    9.3628
    7.860    9.3839
    7.875    9.1101
    7.890    9.6261
    7.905    9.5945
    7.920    9.1627
    7.935    9.5840
    7.950    9.1417
    7.965    9.1732
    7.980    9.7525
    7.995    9.4787
    8.010   10.1843
    8.025    9.8894
    8.040    9.8157
    8.055    9.6261
    8.070    9.4050
    8.085   10.0895
    8.100    9.5524
    8.115    9.4997
    8.130    9.1943
    8.145    9.2048
    8.160    9.9105
    8.175    9.8578
    8.190    9.0363
    8.205    9.4260
    8.220    9.3207
    8.235    9.3734
    8.250    9.6261
    8.265    9.4260
    8.280    8.8889
    8.295    8.8889
    8.310    9.2891
    8.325    8.9310
    8.340    8.5940
    8.355    8.6677
    8.370    9.0995
    8.385    8.5203
    8.400    8.6467
    8.415    8.0147
    8.430    8.2675
    8.445    8.1727
    8.460    8.0253
    8.475    8.1095
    8.490    8.1411
    8.505    7.7620
    8.520    7.9726
    8.535    7.7936
    8.550    7.8146
    8.565    7.6356
    8.580    7.7620
    8.595    7.4355
    8.610    7.3512
    8.625    7.3934
    8.640    7.3407
    8.655    7.6567
    8.670    7.2354
    8.685    7.2986
    8.700    7.4566
    8.715    7.1511
    8.730    6.9089
    8.745    7.1933
    8.760    7.2038
    8.775    7.0458
    8.790    6.7088
    8.805    6.6772
    8.820    7.1195
    8.835    7.0353
    8.850    6.8668
    8.865    7.0142
    8.880    6.7825
    8.895    6.6877
    8.910    7.0248
    8.925    6.8878
    8.940    6.8668
    8.955    6.7930
    8.970    6.6456
    8.985    6.7404
    9.000    6.3296
    9.015    6.6667
    9.030    6.3823
    9.045    6.4139
    9.060    6.3296
    9.075    6.4034
    9.090    6.3507
    9.105    6.5508
    9.120    6.4244
    9.135    6.7088
    9.150    6.6772
    9.165    6.4244
    9.180    6.4350
    9.195    6.5403
    9.210    6.3191
    9.225    6.5508
    9.240    6.2770
    9.255    5.8241
    9.270    6.4666
    9.285    6.8352
    9.300    6.7720
    9.315    6.2033
    9.330    6.5719
    9.345    6.5403
    9.360    6.5192
    9.375    6.9510
    9.390    6.4455
    9.405    6.7509
    9.420    5.8978
    9.435    6.1717
    9.450    6.0874
    9.465    6.5298
    9.480    6.5508
    9.495    5.9716
    9.510    6.2454
    9.525    6.4034
    9.540    6.6456
    9.555    6.2875
    9.570    6.3928
    9.585    6.1927
    9.600    6.3612
    9.615    6.4560
    9.630    6.0769
    9.645    6.1190
    9.660    6.0032
    9.675    6.2033
    9.690    6.1717
    9.705    6.5192
    9.720    6.4771
    9.735    5.9505
    9.750    6.2770
    9.765    6.4455
    9.780    6.4350
    9.795    6.2243
    9.810    6.4666
    9.825    6.5298
    9.840    6.3086
    9.855    6.5087
    9.870    6.5719
    9.885    6.7509
    9.900    6.2665
    9.915    6.2033
    9.930    6.2665
    9.945    6.2454
    9.960    6.0558
    9.975    6.4350
    9.990    6.5719
   10.005    5.8557
   10.020    6.4455
   10.035    6.3612
   10.050    6.2981
   10.065    6.1717
   10.080    6.7720
   10.095    6.1822
   10.110    6.1401
   10.125    6.2454
   10.140    6.2665
   10.155    6.4455
   10.170    6.8773
   10.185    6.8352
   10.200    6.4771
   10.215    6.4666
   10.230    6.3928
   10.245    6.3612
   10.260    6.5929
   10.275    7.1827
   10.290    6.7720
   10.305    6.3402
   10.320    6.3928
   10.335    6.5298
   10.350    6.6140
   10.365    6.9089
   10.380    7.0353
   10.395    6.7930
   10.410    6.9510
   10.425    7.0879
   10.440    7.1090
   10.455    7.1617
   10.470    7.1301
   10.485    7.0458
   10.500    7.2354
   10.515    6.9405
   10.530    6.7930
   10.545    6.5719
   10.560    6.5087
   10.575    6.5613
   10.590    6.6245
   10.605    6.5613
   10.620    6.0874
   10.635    6.5298
   10.650    6.6877
   10.665    6.5192
   10.680    6.4876
   10.695    6.2981
   10.710    5.9716
   10.725    6.2138
   10.740    6.1085
   10.755    6.4560
   10.770    6.1401
   10.785    6.2559
   10.800    6.4244
   10.815    6.3823
   10.830    6.4560
   10.845    5.9084
   10.860    6.4139
   10.875    6.4350
   10.890    5.9400
   10.905    5.9821
   10.920    6.4560
   10.935    6.0348
   10.950    6.2138
   10.965    6.4560
   10.980    6.1295
   10.995    6.1611
   11.010    6.4560
   11.025    6.1085
   11.040    6.3612
   11.055    6.3612
   11.070    6.3191
   11.085    6.5087
   11.100    6.3612
   11.115    6.0874
   11.130    6.1717
   11.145    6.4771
   11.160    6.3507
   11.175    5.9084
   11.190    6.1401
   11.205    6.6245
   11.220    6.6877
   11.235    6.4560
   11.250    6.2138
   11.265    6.4455
   11.280    6.3086
   11.295    6.2454
   11.310    6.0874
   11.325    5.8241
   11.340    6.1295
   11.355    6.2981
   11.370    6.1401
   11.385    6.2454
   11.400    6.0453
   11.415    6.0874
   11.430    5.9294
   11.445    6.2875
   11.460    6.5508
   11.475    6.6351
   11.490    6.6877
   11.505    6.1401
   11.520    6.2665
   11.535    6.3928
   11.550    6.4876
   11.565    6.6245
   11.580    6.4139
   11.595    6.2349
   11.610    6.3402
   11.625    6.1190
   11.640    6.4876
   11.655    6.5087
   11.670    6.8036
   11.685    6.8036
   11.700    6.4982
   11.715    6.4560
   11.730    6.2875
   11.745    6.2770
   11.760    6.7615
   11.775    6.6140
   11.790    6.2138
   11.805    6.7615
   11.820    6.3612
   11.835    6.7088
   11.850    6.3296
   11.865    6.5613
   11.880    6.6983
   11.895    6.4455
   11.910    6.6351
   11.925    6.2665
   11.940    6.3823
   11.955    6.6140
   11.970    6.3191
   11.985    6.2033
   12.000    6.4139
   12.015    6.3718
   12.030    6.6667
   12.045    6.5824
   12.060    6.6456
   12.075    6.3718
   12.090    6.5403
   12.105    6.4982
   12.120    6.4982
   12.135    6.5929
   12.150    7.1090
   12.165    6.6035
   12.180    6.6140
   12.195    6.4455
   12.210    6.1506
   12.225    6.6877
   12.240    6.9510
   12.255    6.7088
   12.270    6.4455
   12.285    6.6772
   12.300    6.6667
   12.315    6.8246
   12.330    6.5192
   12.345    6.1401
   12.360    6.3296
   12.375    6.5298
   12.390    6.2875
   12.405    6.4666
   12.420    6.3718
   12.435    6.0979
   12.450    6.5087
   12.465    6.6140
   12.480    6.5824
   12.495    6.7930
   12.510    6.2138
   12.525    6.0558
   12.540    6.4139
   12.555    6.4982
   12.570    6.3402
   12.585    6.4560
   12.600    6.4139
   12.615    6.5298
   12.630    6.4982
   12.645    6.4455
   12.660    6.4139
   12.675    6.4244
   12.690    6.5613
   12.705    6.8246
   12.720    6.5192
   12.735    6.3507
   12.750    6.4034
   12.765    6.5192
   12.780    6.4139
   12.795    6.2243
   12.810    6.3928
   12.825    6.7615
   12.840    6.3718
   12.855    6.1085
   12.870    6.2033
   12.885    6.2875
   12.900    6.3191
   12.915    6.4350
   12.930    6.1717
   12.945    6.8773
   12.960    6.5613
   12.975    6.1401
   12.990    5.7609
   13.005    6.2875
   13.020    5.9821
   13.035    6.2243
   13.050    5.8978
   13.065    6.3718
   13.080    6.3718
   13.095    6.5403
   13.110    6.6035
   13.125    6.7088
   13.140    6.6245
   13.155    6.2665
   13.170    6.3086
   13.185    6.3612
   13.200    6.1506
   13.215    6.0979
   13.230    6.6245
   13.245    6.2454
   13.260    6.2349
   13.275    6.0979
   13.290    6.1822
   13.305    6.1401
   13.320    6.1085
   13.335    6.5613
   13.350    6.0032
   13.365    6.0348
   13.380    6.3507
   13.395    6.0769
   13.410    6.3823
   13.425    6.3402
   13.440    6.2033
   13.455    6.4139
   13.470    6.4560
   13.485    6.1717
   13.500    6.2454
   13.515    5.9294
   13.530    5.8557
   13.545    6.0348
   13.560    5.7925
   13.575    6.1717
   13.590    6.2559
   13.605    6.1927
   13.620    5.9821
   13.635    5.8241
   13.650    6.3612
   13.665    6.4139
   13.680    6.1611
   13.695    6.3086
   13.710    6.2243
   13.725    6.3718
   13.740    6.7299
   13.755    6.5192
   13.770    6.4244
   13.785    6.0137
   13.800    6.2454
   13.815    6.1611
   13.830    6.1717
   13.845    6.0032
   13.860    6.4350
   13.875    6.1611
   13.890    6.4139
   13.905    6.4771
   13.920    6.4982
   13.935    6.4350
   13.950    6.1927
   13.965    6.2033
   13.980    6.2559
   13.995    6.4244
   14.010    6.3823
   14.025    6.2138
   14.040    5.9505
   14.055    6.0664
   14.070    6.0664
   14.085    6.2138
   14.100    6.0137
   14.115    6.3296
   14.130    6.4560
   14.145    6.0769
   14.160    6.0453
   14.175    6.3191
   14.190    6.5929
   14.205    6.4244
   14.220    6.2349
   14.235    5.9821
   14.250    6.0558
   14.265    5.7293
   14.280    5.6556
   14.295    5.8557
   14.310    5.8873
   14.325    6.0874
   14.340    6.3191
   14.355    6.0453
   14.370    6.2349
   14.385    6.0769
   14.400    5.8136
   14.415    5.8241
   14.430    6.2559
   14.445    6.2349
   14.460    6.0453
   14.475    6.1717
   14.490    6.1295
   14.505    5.8136
   14.520    6.0979
   14.535    6.0453
   14.550    5.9610
   14.565    5.7504
   14.580    5.8662
   14.595    5.7715
   14.610    6.0874
   14.625    6.0137
   14.640    6.1822
   14.655    6.0032
   14.670    5.9294
   14.685    6.1927
   14.700    6.1190
   14.715    5.9084
   14.730    5.9084
   14.745    5.9821
   14.760    5.8978
   14.775    6.2981
   14.790    6.0137
   14.805    5.7399
   14.820    5.8347
   14.835    5.9926
   14.850    6.1401
   14.865    6.1401
   14.880    6.2243
   14.895    5.9294
   14.910    5.8978
   14.925    6.1295
   14.940    5.5503
   14.955    5.8768
   14.970    5.7609
   14.985    5.9505
   15.000    5.8873
   15.015    6.1822
   15.030    5.7293
   15.045    5.5819
   15.060    5.8031
   15.075    5.9189
   15.090    5.9189
   15.105    6.3296
   15.120    6.5192
   15.135    6.1085
   15.150    5.5608
   15.165    5.6556
   15.180    5.9610
   15.195    5.5503
   15.210    6.3086
   15.225    6.2770
   15.240    5.8662
   15.255    6.0874
   15.270    6.0664
   15.285    5.9294
   15.300    5.5819
   15.315    5.9294
   15.330    6.1085
   15.345    6.0032
   15.360    6.1717
   15.375    6.1611
   15.390    5.8136
   15.405    6.0979
   15.420    6.2033
   15.435    6.1295
   15.450    6.0558
   15.465    6.1190
   15.480    5.8978
   15.495    6.2454
   15.510    6.0664
   15.525    6.0769
   15.540    6.2033
   15.555    6.3718
   15.570    6.1085
   15.585    6.1401
   15.600    6.3507
   15.615    5.8136
   15.630    6.0979
   15.645    5.9926
   15.660    5.4660
   15.675    5.8347
   15.690    6.1190
   15.705    6.3086
   15.720    6.3823
   15.735    6.0874
   15.750    6.0558
   15.765    5.9400
   15.780    6.1717
   15.795    6.0769
   15.810    6.3086
   15.825    6.1822
   15.840    6.0348
   15.855    6.0874
   15.870    6.5087
   15.885    6.4350
   15.900    6.1611
   15.915    6.1611
   15.930    6.2138
   15.945    6.2033
   15.960    6.0348
   15.975    6.2454
   15.990    6.2981
   16.005    6.1611
   16.020    6.2454
   16.035    6.1085
   16.050    5.8768
   16.065    6.1927
   16.080    6.1190
   16.095    6.0242
   16.110    6.0348
   16.125    6.4455
   16.140    6.4350
   16.155    6.0348
   16.170    6.1717
   16.185    6.1295
   16.200    6.0558
   16.215    5.7820
   16.230    6.0242
   16.245    6.0874
   16.260    6.5929
   16.275    6.1611
   16.290    6.2665
   16.305    5.8873
   16.320    6.1401
   16.335    6.2875
   16.350    5.8452
   16.365    5.8347
   16.380    5.9189
   16.395    6.0558
   16.410    6.2349
   16.425    5.8978
   16.440    6.2349
   16.455    6.0769
   16.470    6.1927
   16.485    6.4455
   16.500    6.1717
   16.515    5.9821
   16.530    6.1506
   16.545    6.0242
   16.560    6.0769
   16.575    6.1717
   16.590    5.7820
   16.605    5.8136
   16.620    5.3397
   16.635    5.8031
   16.650    6.2665
   16.665    6.1295
   16.680    5.5924
   16.695    5.7188
   16.710    5.7504
   16.725    6.2243
   16.740    5.8136
   16.755    5.6556
   16.770    5.6977
   16.785    5.8662
   16.800    6.0664
   16.815    6.1190
   16.830    6.1611
   16.845    5.9084
   16.860    6.1506
   16.875    6.0137
   16.890    6.0874
   16.905    5.8557
   16.920    5.8136
   16.935    5.9716
   16.950    6.1085
   16.965    5.9294
   16.980    6.1822
   16.995    5.9505
   17.010    5.8557
   17.025    5.9294
   17.040    5.7083
   17.055    6.0769
   17.070    5.8557
   17.085    6.1085
   17.100    5.8978
   17.115    5.6345
   17.130    5.9294
   17.145    6.3296
   17.160    5.9716
   17.175    6.1190
   17.190    5.7715
   17.205    6.2138
   17.220    6.0874
   17.235    5.7293
   17.250    6.0348
   17.265    6.0032
   17.280    5.8031
   17.295    5.7399
   17.310    5.9505
   17.325    6.0664
   17.340    5.9400
   17.355    6.0453
   17.370    5.7715
   17.385    6.0979
   17.400    5.9505
   17.415    6.0558
   17.430    5.8031
   17.445    5.9084
   17.460    5.7820
   17.475    6.2349
   17.490    6.3507
   17.505    6.3612
   17.520    6.1190
   17.535    6.0769
   17.550    5.7925
   17.565    6.0664
   17.580    6.1190
   17.595    6.0242
   17.610    5.9400
   17.625    6.0979
   17.640    6.1085
   17.655    6.2138
   17.670    5.8241
   17.685    5.9400
   17.700    6.0769
   17.715    6.1295
   17.730    6.5298
   17.745    6.3718
   17.760    6.2454
   17.775    5.8768
   17.790    5.9926
   17.805    5.9716
   17.820    6.1295
   17.835    5.4450
   17.850    5.8557
   17.865    5.9821
   17.880    6.2033
   17.895    6.2665
   17.910    6.2033
   17.925    6.0453
   17.940    6.1822
   17.955    5.7399
   17.970    5.8873
   17.985    6.2559
   18.000    5.7399
   18.015    6.3928
   18.030    5.9610
   18.045    5.9926
   18.060    6.0769
   18.075    6.1190
   18.090    5.6872
   18.105    5.8662
   18.120    6.0769
   18.135    6.2243
   18.150    6.3507
   18.165    6.0242
   18.180    6.0242
   18.195    6.1085
   18.210    6.0348
   18.225    5.9505
   18.240    6.0874
   18.255    6.0769
   18.270    6.2454
   18.285    6.1717
   18.300    5.9294
   18.315    6.2981
   18.330    5.9926
   18.345    5.9189
   18.360    5.9400
   18.375    6.0558
   18.390    6.1190
   18.405    5.8031
   18.420    5.8768
   18.435    6.3612
   18.450    6.3086
   18.465    6.0874
   18.480    6.2770
   18.495    6.3086
   18.510    6.1506
   18.525    6.1611
   18.540    6.2243
   18.555    6.2349
   18.570    6.1822
   18.585    6.0453
   18.600    6.0769
   18.615    5.9400
   18.630    6.1927
   18.645    6.2138
   18.660    6.4876
   18.675    6.3612
   18.690    6.1611
   18.705    6.5824
   18.720    6.1506
   18.735    6.1401
   18.750    5.9716
   18.765    6.1295
   18.780    6.1717
   18.795    5.9400
   18.810    6.2243
   18.825    6.0558
   18.840    5.9400
   18.855    5.9610
   18.870    5.9610
   18.885    5.9294
   18.900    6.3191
   18.915    5.9610
   18.930    6.0664
   18.945    6.3928
   18.960    5.9821
   18.975    6.0769
   18.990    6.2033
   19.005    6.4982
   19.020    6.3507
   19.035    6.3823
   19.050    6.0558
   19.065    6.0242
   19.080    6.1717
   19.095    5.8557
   19.110    5.9821
   19.125    5.9400
   19.140    6.3718
   19.155    6.3612
   19.170    6.1295
   19.185    6.4034
   19.200    6.3296
   19.215    6.2559
   19.230    6.5613
   19.245    6.2243
   19.260    6.2559
   19.275    5.8768
   19.290    6.4244
   19.305    6.1611
   19.320    5.9926
   19.335    6.1927
   19.350    6.4982
   19.365    6.5719
   19.380    6.2243
   19.395    6.0137
   19.410    6.5719
   19.425    6.2981
   19.440    6.2559
   19.455    6.3823
   19.470    6.3612
   19.485    6.6456
   19.500    6.6456
   19.515    6.6351
   19.530    6.6245
   19.545    6.4455
   19.560    6.2349
   19.575    6.0558
   19.590    6.2243
   19.605    6.2981
   19.620    6.0874
   19.635    6.1085
   19.650    6.5824
   19.665    6.6877
   19.680    6.4455
   19.695    6.2454
   19.710    6.2665
   19.725    6.4244
   19.740    6.5298
   19.755    6.6983
   19.770    6.3928
   19.785    6.5613
   19.800    6.5929
   19.815    6.3191
   19.830    6.2243
   19.845    6.1717
   19.860    6.4666
   19.875    6.8141
   19.890    6.8141
   19.905    6.4244
   19.920    6.6351
   19.935    6.9405
   19.950    6.7720
   19.965    6.2559
   19.980    6.0558
   19.995    6.4560
   20.010    6.8036
   20.025    6.6877
   20.040    6.4034
   20.055    6.7193
   20.070    6.6983
   20.085    6.7720
   20.100    6.6140
   20.115    6.2138
   20.130    6.4982
   20.145    6.4139
   20.160    6.6456
   20.175    6.4034
   20.190    6.6140
   20.205    6.3718
   20.220    6.2033
   20.235    6.1611
   20.250    6.3928
   20.265    6.6035
   20.280    6.5298
   20.295    6.4876
   20.310    6.7299
   20.325    6.8984
   20.340    6.6351
   20.355    6.6877
   20.370    6.3823
   20.385    6.4666
   20.400    6.3191
   20.415    6.8773
   20.430    6.6245
   20.445    6.3612
   20.460    6.0664
   20.475    6.4034
   20.490    6.5508
   20.505    6.8141
   20.520    6.4666
   20.535    6.3086
   20.550    6.7404
   20.565    6.7404
   20.580    6.9405
   20.595    6.7088
   20.610    6.6983
   20.625    6.5298
   20.640    6.8984
   20.655    6.7509
   20.670    6.5298
   20.685    6.2981
   20.700    6.8036
   20.715    6.6351
   20.730    6.7509
   20.745    6.6245
   20.760    6.3086
   20.775    6.4455
   20.790    6.7088
   20.805    6.4982
   20.820    6.3928
   20.835    6.6351
   20.850    6.8773
   20.865    6.8457
   20.880    6.7193
   20.895    6.7509
   20.910    6.8352
   20.925    6.9510
   20.940    6.4560
   20.955    6.4876
   20.970    6.2981
   20.985    6.6667
   21.000    6.6035
   21.015    6.2349
   21.030    6.3086
   21.045    7.0037
   21.060    6.5929
   21.075    6.8036
   21.090    6.5508
   21.105    6.4350
   21.120    6.6667
   21.135    6.6456
   21.150    6.6351
   21.165    6.4666
   21.180    6.4876
   21.195    6.7509
   21.210    6.4771
   21.225    6.5824
   21.240    6.5508
   21.255    6.7509
   21.270    6.5824
   21.285    6.7930
   21.300    6.5192
   21.315    6.7193
   21.330    6.5929
   21.345    6.5719
   21.360    6.8246
   21.375    6.4982
   21.390    6.4982
   21.405    6.8036
   21.420    6.7825
   21.435    6.8036
   21.450    6.2875
   21.465    6.4034
   21.480    6.6772
   21.495    6.4771
   21.510    6.8773
   21.525    6.8141
   21.540    6.6667
   21.555    6.5508
   21.570    6.8562
   21.585    6.7720
   21.600    6.4139
   21.615    6.6245
   21.630    6.7509
   21.645    6.6772
   21.660    6.5719
   21.675    6.5719
   21.690    6.4771
   21.705    6.3928
   21.720    6.7615
   21.735    6.4560
   21.750    6.2454
   21.765    6.3296
   21.780    6.7615
   21.795    6.6561
   21.810    6.6772
   21.825    6.5929
   21.840    6.5087
   21.855    6.3823
   21.870    6.5824
   21.885    6.7088
   21.900    6.4771
   21.915    6.5719
   21.930    6.6456
   21.945    6.5613
   21.960    6.3612
   21.975    6.4982
   21.990    6.6561
   22.005    6.2770
   22.020    6.6877
   22.035    6.6772
   22.050    6.5719
   22.065    6.9510
   22.080    6.6140
   22.095    6.6351
   22.110    6.5613
   22.125    6.9194
   22.140    7.0669
   22.155    6.6140
   22.170    6.6772
   22.185    6.5929
   22.200    6.8984
   22.215    6.4455
   22.230    6.3718
   22.245    6.6561
   22.260    6.6351
   22.275    6.6667
   22.290    6.8562
   22.305    6.9194
   22.320    7.0774
   22.335    6.8352
   22.350    6.6877
   22.365    6.2981
   22.380    6.7615
   22.395    6.3402
   22.410    6.9300
   22.425    6.7825
   22.440    6.6983
   22.455    6.8562
   22.470    6.6983
   22.485    6.6983
   22.500    6.6140
   22.515    6.7509
   22.530    6.7509
   22.545    6.7825
   22.560    6.6877
   22.575    6.7930
   22.590    6.4982
   22.605    6.2875
   22.620    6.6351
   22.635    6.8878
   22.650    6.5403
   22.665    6.3928
   22.680    6.7088
   22.695    6.7299
   22.710    6.2454
   22.725    6.2665
   22.740    6.6667
   22.755    6.8457
   22.770    6.6877
   22.785    6.4560
   22.800    6.4876
   22.815    6.6772
   22.830    6.3191
   22.845    6.5719
   22.860    6.6035
   22.875    7.0142
   22.890    6.3718
   22.905    6.4139
   22.920    6.4666
   22.935    6.4982
   22.950    6.6983
   22.965    6.7299
   22.980    6.7825
   22.995    6.8562
   23.010    6.4560
   23.025    6.5613
   23.040    6.9616
   23.055    6.9194
   23.070    6.6983
   23.085    6.3402
   23.100    6.9932
   23.115    6.8984
   23.130    6.4982
   23.145    6.3086
   23.160    6.3718
   23.175    6.4666
   23.190    6.7615
   23.205    6.4876
   23.220    6.4771
   23.235    6.8036
   23.250    6.7720
   23.265    6.4034
   23.280    6.7825
   23.295    6.5298
   23.310    6.5403
   23.325    6.2033
   23.340    6.4034
   23.355    6.5298
   23.370    6.4139
   23.385    6.6140
   23.400    6.4455
   23.415    6.4350
   23.430    6.2454
   23.445    6.4139
   23.460    6.4560
   23.475    6.5298
   23.490    7.0563
   23.505    6.2033
   23.520    6.5613
   23.535    6.6772
   23.550    6.2454
   23.565    6.5824
   23.580    6.4560
   23.595    6.7299
   23.610    6.4876
   23.625    6.8668
   23.640    6.7930
   23.655    6.8562
   23.670    6.0979
   23.685    6.0979
   23.700    6.6456
   23.715    6.6667
   23.730    6.6140
   23.745    6.5403
   23.760    6.5929
   23.775    6.3823
   23.790    6.3823
   23.805    6.2138
   23.820    6.6245
   23.835    6.7930
   23.850    6.2243
   23.865    6.7720
   23.880    6.4666
   23.895    6.7299
   23.910    6.6772
   23.925    6.6351
   23.940    6.1927
   23.955    6.1401
   23.970    6.3612
   23.985    5.9716
   24.000    6.2981
   24.015    6.5929
   24.030    6.3612
   24.045    6.3191
   24.060    6.4455
   24.075    6.3507
   24.090    6.6351
   24.105    6.3086
   24.120    6.2559
   24.135    6.0769
   24.150    6.3823
   24.165    6.4350
   24.180    6.7193
   24.195    6.5824
   24.210    6.4034
   24.225    6.4139
   24.240    6.2349
   24.255    6.2981
   24.270    6.4244
   24.285    6.3823
   24.300    6.1927
   24.315    6.7930
   24.330    6.2981
   24.345    5.9926
   24.360    6.1927
   24.375    6.2243
   24.390    6.0874
   24.405    6.5298
   24.420    6.7088
   24.435    6.2033
   24.450    6.3612
   24.465    6.1085
   24.480    6.2454
   24.495    6.2243
   24.510    6.0242
   24.525    6.4350
   24.540    6.3191
   24.555    6.4350
   24.570    6.1611
   24.585    6.1822
   24.600    6.4876
   24.615    6.0874
   24.630    6.2454
   24.645    6.6772
   24.660    6.7404
   24.675    6.0874
   24.690    6.3296
   24.705    6.2559
   24.720    6.1190
   24.735    5.8662
   24.750    6.1190
   24.765    6.4560
   24.780    6.2243
   24.795    6.4876
   24.810    6.1927
   24.825    5.9400
   24.840    6.2875
   24.855    6.6983
   24.870    6.2875
   24.885    6.2033
   24.900    6.2454
   24.915    6.6245
   24.930    6.2770
   24.945    6.2454
   24.960    6.2875
   24.975    6.3823
   24.990    6.2349
   25.005    6.2033
   25.020    5.9505
   25.035    5.8768
   25.050    6.2770
   25.065    6.3402
   25.080    6.0664
   25.095    5.8873
   25.110    5.7609
   25.125    6.1611
   25.140    6.0664
   25.155    6.0453
   25.170    6.0032
   25.185    6.0137
   25.200    6.2033
   25.215    6.0979
   25.230    6.1927
   25.245    6.1927
   25.260    6.2665
   25.275    6.0453
   25.290    6.2243
   25.305    6.0242
   25.320    6.1927
   25.335    6.2138
   25.350    6.0558
   25.365    6.1295
   25.380    5.8662
   25.395    6.0558
   25.410    6.2243
   25.425    6.1822
   25.440    6.0453
   25.455    6.0242
   25.470    5.6345
   25.485    5.5608
   25.500    6.2770
   25.515    6.2665
   25.530    6.4455
   25.545    6.2559
   25.560    5.9610
   25.575    6.2875
   25.590    6.3191
   25.605    6.1611
   25.620    6.1717
   25.635    6.4560
   25.650    6.2138
   25.665    6.0769
   25.680    6.1190
   25.695    5.5398
   25.710    6.0137
   25.725    5.9716
   25.740    6.2138
   25.755    6.0979
   25.770    6.0769
   25.785    6.3823
   25.800    6.2033
   25.815    6.1717
   25.830    6.0032
   25.845    5.7188
   25.860    6.0558
   25.875    5.9926
   25.890    6.0558
   25.905    6.1717
   25.920    5.6661
   25.935    5.4976
   25.950    5.6767
   25.965    5.9926
   25.980    6.1611
   25.995    6.2138
   26.010    5.8347
   26.025    6.0874
   26.040    6.2138
   26.055    6.1190
   26.070    6.0032
   26.085    6.0664
   26.100    6.0769
   26.115    5.7504
   26.130    6.4560
   26.145    6.1190
   26.160    5.9716
   26.175    5.7293
   26.190    5.7504
   26.205    5.7715
   26.220    5.9821
   26.235    6.2454
   26.250    6.2243
   26.265    6.0979
   26.280    6.2454
   26.295    6.0453
   26.310    5.7609
   26.325    6.0032
   26.340    5.9189
   26.355    5.8768
   26.370    5.6872
   26.385    5.8978
   26.400    5.8347
   26.415    5.8241
   26.430    6.0032
   26.445    6.0874
   26.460    5.7820
   26.475    5.7609
   26.490    5.8452
   26.505    5.8241
   26.520    5.5187
   26.535    5.6240
   26.550    5.4766
   26.565    5.9821
   26.580    5.7504
   26.595    6.0032
   26.610    6.0137
   26.625    6.2033
   26.640    5.8768
   26.655    5.8768
   26.670    5.8241
   26.685    5.4134
   26.700    5.7715
   26.715    5.6451
   26.730    5.8662
   26.745    5.7504
   26.760    5.8557
   26.775    5.7083
   26.790    5.7083
   26.805    5.3607
   26.820    5.6345
   26.835    6.0032
   26.850    5.6345
   26.865    5.3397
   26.880    5.9084
   26.895    6.0348
   26.910    6.0558
   26.925    6.0874
   26.940    5.6872
   26.955    5.7925
   26.970    5.5187
   26.985    6.0137
   27.000    6.0664
   27.015    5.8662
   27.030    5.7715
   27.045    5.7609
   27.060    5.8873
   27.075    5.8031
   27.090    5.7925
   27.105    5.4555
   27.120    5.8136
   27.135    5.6872
   27.150    5.7293
   27.165    5.4344
   27.180    5.7820
   27.195    6.0979
   27.210    5.7188
   27.225    5.6029
   27.240    5.6135
   27.255    5.6345
   27.270    5.5608
   27.285    5.3712
   27.300    5.6029
   27.315    5.9189
   27.330    5.6240
   27.345    5.5924
   27.360    5.3607
   27.375    5.2765
   27.390    5.7925
   27.405    5.8557
   27.420    6.0769
   27.435    5.8136
   27.450    5.6556
   27.465    5.9189
   27.480    5.5608
   27.495    5.1922
   27.510    5.5292
   27.525    6.0769
   27.540    5.3502
   27.555    5.7083
   27.570    5.8873
   27.585    5.5398
   27.600    5.3502
   27.615    5.3397
   27.630    5.5819
   27.645    5.8347
   27.660    5.5924
   27.675    6.4350
   27.690    5.8662
   27.705    5.8136
   27.720    5.2975
   27.735    5.3291
   27.750    5.6451
   27.765    5.6872
   27.780    5.5398
   27.795    5.8136
   27.810    5.7083
   27.825    5.8873
   27.840    5.7715
   27.855    5.7609
   27.870    6.1295
   27.885    5.7925
   27.900    5.7399
   27.915    5.7399
   27.930    5.5082
   27.945    5.5503
   27.960    5.7609
   27.975    5.5187
   27.990    5.7293
   28.005    5.7399
   28.020    5.7609
   28.035    5.8136
   28.050    5.6240
   28.065    5.9294
   28.080    6.0032
   28.095    6.1611
   28.110    6.0348
   28.125    5.8136
   28.140    5.6977
   28.155    5.4976
   28.170    5.4239
   28.185    5.6345
   28.200    5.6135
   28.215    5.8452
   28.230    5.8768
   28.245    5.7925
   28.260    5.5398
   28.275    5.4239
   28.290    5.7715
   28.305    5.6345
   28.320    5.4028
   28.335    5.3923
   28.350    5.7820
   28.365    5.7083
   28.380    5.6872
   28.395    5.7188
   28.410    5.6767
   28.425    5.4871
   28.440    5.9189
   28.455    6.0032
   28.470    5.5292
   28.485    5.4766
   28.500    5.4344
   28.515    5.6451
   28.530    5.6872
   28.545    5.7399
   28.560    5.5819
   28.575    5.6977
   28.590    5.9610
   28.605    5.3186
   28.620    5.2449
   28.635    5.2343
   28.650    5.9084
   28.665    5.4871
   28.680    5.8557
   28.695    5.8136
   28.710    5.4766
   28.725    5.5292
   28.740    5.5187
   28.755    5.5292
   28.770    5.3397
   28.785    5.3291
   28.800    5.7925
   28.815    5.3397
   28.830    5.4344
   28.845    5.6135
   28.860    5.4239
   28.875    5.8768
   28.890    5.7083
   28.905    5.4028
   28.920    5.6661
   28.935    5.5082
   28.950    5.4028
   28.965    5.3607
   28.980    5.4450
   28.995    5.6135
   29.010    5.6029
   29.025    5.7188
   29.040    5.9505
   29.055    5.3818
   29.070    5.3291
   29.085    5.4660
   29.100    5.5503
   29.115    5.4344
   29.130    5.5924
   29.145    5.7609
   29.160    5.7820
   29.175    5.6767
   29.190    5.5714
   29.205    5.6029
   29.220    5.4976
   29.235    5.3712
   29.250    5.3818
   29.265    5.3818
   29.280    5.1817
   29.295    5.4766
   29.310    5.5292
   29.325    5.2765
   29.340    5.4239
   29.355    5.1080
   29.370    5.2870
   29.385    5.4555
   29.400    5.1817
   29.415    5.2975
   29.430    5.0974
   29.445    5.4871
   29.460    5.3502
   29.475    5.4871
   29.490    5.2027
   29.505    5.3081
   29.520    5.4871
   29.535    5.3607
   29.550    5.6135
   29.565    5.5819
   29.580    5.3712
   29.595    5.4871
   29.610    5.6345
   29.625    5.4766
   29.640    5.3607
   29.655    5.6029
   29.670    5.3818
   29.685    5.1711
   29.700    5.2765
   29.715    5.2659
   29.730    5.0026
   29.745    5.2027
   29.760    5.2870
   29.775    5.4134
   29.790    5.4344
   29.805    5.6556
   29.820    5.5608
   29.835    5.2554
   29.850    5.4766
   29.865    5.3397
   29.880    5.3081
   29.895    5.4450
   29.910    5.2765
   29.925    5.4976
   29.940    5.2343
   29.955    5.2449
   29.970    5.6240
   29.985    5.6240
   30.000    5.2554
   30.015    5.4450
   30.030    5.2975
   30.045    5.2765
   30.060    5.2870
   30.075    5.4239
   30.090    5.4871
   30.105    5.3712
   30.120    5.0026
   30.135    5.1395
   30.150    5.4660
   30.165    5.3186
   30.180    5.2975
   30.195    5.6451
   30.210    5.1185
   30.225    5.6029
   30.240    5.3291
   30.255    5.1395
   30.270    5.6240
   30.285    5.4450
   30.300    5.3502
   30.315    5.2238
   30.330    5.4871
   30.345    5.5082
   30.360    5.0237
   30.375    4.9921
   30.390    5.3607
   30.405    5.6661
   30.420    5.4028
   30.435    5.4450
   30.450    5.4134
   30.465    5.3397
   30.480    5.3712
   30.495    5.1817
   30.510    5.4871
   30.525    5.4028
   30.540    5.4976
   30.555    5.4450
   30.570    5.2554
   30.585    5.4239
   30.600    5.6135
   30.615    5.5503
   30.630    5.0342
   30.645    5.2554
   30.660    5.5503
   30.675    5.1395
   30.690    4.9078
   30.705    5.3923
   30.720    5.2554
   30.735    5.0342
   30.750    5.0132
   30.765    5.3818
   30.780    5.1080
   30.795    5.4871
   30.810    5.2027
   30.825    4.9710
   30.840    5.1080
   30.855    5.1817
   30.870    5.1606
   30.885    5.2659
   30.900    5.0553
   30.915    4.9289
   30.930    5.4555
   30.945    5.1080
   30.960    5.1395
   30.975    5.0237
   30.990    5.0764
   31.005    5.2659
   31.020    5.2238
   31.035    5.4134
   31.050    5.3818
   31.065    4.9394
   31.080    5.2975
   31.095    5.3712
   31.110    5.3923
   31.125    5.0658
   31.140    5.3186
   31.155    5.3923
   31.170    5.0342
   31.185    5.1606
   31.200    5.3081
   31.215    4.8236
   31.230    4.9605
   31.245    5.4239
   31.260    4.9816
   31.275    5.1817
   31.290    4.8868
   31.305    5.1501
   31.320    5.4028
   31.335    4.9921
   31.350    5.0869
   31.365    5.2238
   31.380    5.0764
   31.395    5.2975
   31.410    5.2449
   31.425    5.4976
   31.440    5.4555
   31.455    5.1185
   31.470    4.8131
   31.485    5.2133
   31.500    5.1395
   31.515    5.3818
   31.530    5.0764
   31.545    5.2975
   31.560    5.3397
   31.575    5.2765
   31.590    4.9184
   31.605    5.2659
   31.620    5.3081
   31.635    5.1606
   31.650    5.2238
   31.665    5.4450
   31.680    5.6029
   31.695    5.4344
   31.710    5.6767
   31.725    5.5187
   31.740    5.7715
   31.755    5.5503
   31.770    5.6135
   31.785    5.4028
   31.800    5.7609
   31.815    6.0453
   31.830    5.9505
   31.845    5.4134
   31.860    5.4660
   31.875    5.3397
   31.890    5.1606
   31.905    5.3186
   31.920    5.1606
   31.935    5.1606
   31.950    5.2449
   31.965    5.4871
   31.980    5.5714
   31.995    5.4660
   32.010    5.4450
   32.025    5.3397
   32.040    5.5082
   32.055    5.4134
   32.070    5.6767
   32.085    5.6977
   32.100    5.3397
   32.115    5.4028
   32.130    5.0132
   32.145    5.2659
   32.160    5.4028
   32.175    5.3291
   32.190    5.1922
   32.205    5.3397
   32.220    5.5398
   32.235    5.1395
   32.250    5.2133
   32.265    5.3712
   32.280    5.1080
   32.295    5.2870
   32.310    5.2027
   32.325    5.1290
   32.340    5.0974
   32.355    5.0658
   32.370    5.0342
   32.385    4.7077
   32.400    5.0448
   32.415    5.1185
   32.430    5.3291
   32.445    5.0553
   32.460    5.4028
   32.475    5.1606
   32.490    5.1922
   32.505    5.0869
   32.520    4.8973
   32.535    5.0869
   32.550    5.0764
   32.565    5.0237
   32.580    5.2343
   32.595    5.2343
   32.610    4.8025
   32.625    4.9289
   32.640    5.1922
   32.655    5.0448
   32.670    4.8657
   32.685    4.8236
   32.700    5.0658
   32.715    4.8763
   32.730    4.9289
   32.745    4.8763
   32.760    4.7920
   32.775    5.2554
   32.790    5.1711
   32.805    5.3502
   32.820    5.1185
   32.835    5.0974
   32.850    4.8973
   32.865    4.8657
   32.880    5.2027
   32.895    4.8868
   32.910    4.8236
   32.925    4.9500
   32.940    4.7499
   32.955    5.0342
   32.970    5.1080
   32.985    5.2870
   33.000    5.2343
   33.015    4.8025
   33.030    4.8868
   33.045    5.0026
   33.060    4.8236
   33.075    5.0237
   33.090    5.0026
   33.105    5.0342
   33.120    4.8552
   33.135    4.6235
   33.150    5.0448
   33.165    4.7709
   33.180    4.6761
   33.195    4.8447
   33.210    5.1817
   33.225    4.7815
   33.240    4.7393
   33.255    4.5392
   33.270    4.9921
   33.285    5.1290
   33.300    5.0448
   33.315    5.2238
   33.330    5.0764
   33.345    4.8025
   33.360    5.1711
   33.375    5.0448
   33.390    4.4971
   33.405    4.9500
   33.420    5.0658
   33.435    4.9394
   33.450    4.8552
   33.465    4.9500
   33.480    5.0553
   33.495    5.2554
   33.510    4.9921
   33.525    4.8552
   33.540    5.0448
   33.555    4.8973
   33.570    4.8868
   33.585    4.9710
   33.600    4.6867
   33.615    4.9605
   33.630    5.1501
   33.645    5.1080
   33.660    4.7288
   33.675    4.7499
   33.690    4.6340
   33.705    4.6340
   33.720    4.8657
   33.735    5.0448
   33.750    5.1290
   33.765    5.2238
   33.780    5.1185
   33.795    5.0553
   33.810    5.2765
   33.825    5.0237
   33.840    5.1185
   33.855    5.0974
   33.870    4.7709
   33.885    5.1817
   33.900    4.7604
   33.915    4.7077
   33.930    4.7920
   33.945    4.8131
   33.960    4.9710
   33.975    4.9816
   33.990    5.0342
   34.005    4.8341
   34.020    5.2343
   34.035    4.9816
   34.050    4.9816
   34.065    4.4971
   34.080    5.2343
   34.095    5.1501
   34.110    4.8552
   34.125    4.8552
   34.140    4.5919
   34.155    4.5919
   34.170    4.7499
   34.185    4.9605
   34.200    4.7499
   34.215    4.6130
   34.230    4.8131
   34.245    4.8763
   34.260    4.7499
   34.275    4.6235
   34.290    4.7183
   34.305    4.8447
   34.320    5.0448
   34.335    4.7077
   34.350    4.6130
   34.365    4.6761
   34.380    4.8341
   34.395    4.8131
   34.410    4.8657
   34.425    4.7815
   34.440    4.6867
   34.455    4.7077
   34.470    4.8025
   34.485    5.0026
   34.500    4.8763
   34.515    4.8657
   34.530    4.5814
   34.545    4.4339
   34.560    4.5708
   34.575    4.7709
   34.590    4.6867
   34.605    4.5814
   34.620    4.7499
   34.635    4.6867
   34.650    4.6761
   34.665    4.8341
   34.680    4.8657
   34.695    4.7393
   34.710    4.2338
   34.725    4.8447
   34.740    4.5708
   34.755    4.8447
   34.770    4.9184
   34.785    4.6656
   34.800    4.9816
   34.815    4.8552
   34.830    4.7604
   34.845    4.5814
   34.860    4.6551
   34.875    4.8657
   34.890    4.7183
   34.905    4.5182
   34.920    4.4023
   34.935    4.6235
   34.950    4.4444
   34.965    4.4023
   34.980    4.4760
   34.995    4.6761
   35.010    4.5182
   35.025    4.6656
   35.040    4.7604
   35.055    5.1606
   35.070    4.9816
   35.085    4.7288
   35.100    4.4339
   35.115    4.5392
   35.130    4.2338
   35.145    4.8131
   35.160    4.7077
   35.175    4.7183
   35.190    4.4444
   35.205    4.6761
   35.220    4.6972
   35.235    4.8657
   35.250    4.6656
   35.265    4.5919
   35.280    4.6235
   35.295    4.5498
   35.310    5.0342
   35.325    4.6972
   35.340    4.7393
   35.355    4.7604
   35.370    4.7077
   35.385    4.6024
   35.400    4.7815
   35.415    4.2443
   35.430    4.8447
   35.445    4.3497
   35.460    4.7815
   35.475    4.4971
   35.490    4.3813
   35.505    4.5076
   35.520    4.9289
   35.535    4.8131
   35.550    4.6024
   35.565    4.8236
   35.580    4.7288
   35.595    4.4866
   35.610    4.6130
   35.625    4.3918
   35.640    4.7499
   35.655    4.9605
   35.670    4.4234
   35.685    4.3497
   35.700    4.3813
   35.715    4.2233
   35.730    4.4128
   35.745    4.8763
   35.760    5.0237
   35.775    4.5182
   35.790    4.6656
   35.805    4.5814
   35.820    4.8552
   35.835    4.6235
   35.850    4.6656
   35.865    4.7183
   35.880    4.6130
   35.895    4.2865
   35.910    4.4023
   35.925    4.6551
   35.940    4.7709
   35.955    4.4339
   35.970    4.5498
   35.985    4.4023
   36.000    4.5392
   36.015    4.6340
   36.030    4.6761
   36.045    5.0764
   36.060    4.6445
   36.075    4.3602
   36.090    4.4866
   36.105    4.6551
   36.120    4.7604
   36.135    4.4866
   36.150    4.2970
   36.165    4.4128
   36.180    4.7920
   36.195    4.4760
   36.210    4.7604
   36.225    4.5182
   36.240    4.5708
   36.255    4.7183
   36.270    4.4866
   36.285    4.6551
   36.300    4.4234
   36.315    4.7288
   36.330    4.6867
   36.345    4.4023
   36.360    4.6656
   36.375    4.5814
   36.390    4.5708
   36.405    4.7815
   36.420    4.4550
   36.435    4.5287
   36.450    4.6551
   36.465    4.6972
   36.480    4.8341
   36.495    4.5603
   36.510    4.8236
   36.525    4.4444
   36.540    4.6445
   36.555    4.6024
   36.570    4.7499
   36.585    4.6761
   36.600    4.3075
   36.615    4.4339
   36.630    4.4339
   36.645    4.3391
   36.660    4.6235
   36.675    4.7288
   36.690    4.4866
   36.705    4.4550
   36.720    4.5182
   36.735    4.7393
   36.750    4.8657
   36.765    4.7815
   36.780    4.3391
   36.795    4.5919
   36.810    4.5814
   36.825    4.6761
   36.840    4.9078
   36.855    4.6867
   36.870    4.4655
   36.885    4.7815
   36.900    4.5498
   36.915    4.4760
   36.930    4.4339
   36.945    4.3286
   36.960    4.5498
   36.975    4.5708
   36.990    4.4339
   37.005    4.3707
   37.020    4.3181
   37.035    4.6130
   37.050    4.4971
   37.065    4.4128
   37.080    4.2549
   37.095    4.2233
   37.110    4.6656
   37.125    4.3497
   37.140    4.3286
   37.155    4.4444
   37.170    4.4760
   37.185    3.9705
   37.200    4.0758
   37.215    4.1390
   37.230    4.2654
   37.245    4.4234
   37.260    4.5287
   37.275    4.5708
   37.290    4.6867
   37.305    4.3391
   37.320    4.2549
   37.335    4.2549
   37.350    4.5182
   37.365    4.2233
   37.380    4.3391
   37.395    4.4128
   37.410    4.3707
   37.425    4.6340
   37.440    4.5603
   37.455    4.7288
   37.470    4.4234
   37.485    4.7288
   37.500    4.4866
   37.515    4.4866
   37.530    4.2654
   37.545    4.3707
   37.560    4.3181
   37.575    4.6867
   37.590    4.8657
   37.605    4.5498
   37.620    4.2549
   37.635    4.4234
   37.650    4.5814
   37.665    4.4971
   37.680    4.4866
   37.695    4.3918
   37.710    4.4339
   37.725    4.0653
   37.740    4.6867
   37.755    4.5287
   37.770    4.6130
   37.785    4.7288
   37.800    4.8552
   37.815    4.3602
   37.830    4.5603
   37.845    4.5919
   37.860    4.5076
   37.875    4.7077
   37.890    4.4339
   37.905    4.3075
   37.920    4.5287
   37.935    4.2970
   37.950    4.3181
   37.965    4.2970
   37.980    4.4550
   37.995    4.5076
   38.010    4.4444
   38.025    4.3286
   38.040    4.3181
   38.055    4.6445
   38.070    4.6340
   38.085    4.6130
   38.100    4.5076
   38.115    4.2022
   38.130    4.4550
   38.145    4.1390
   38.160    4.1811
   38.175    4.5392
   38.190    4.5287
   38.205    4.3286
   38.220    4.1706
   38.235    4.2022
   38.250    4.4234
   38.265    4.2654
   38.280    4.5708
   38.295    4.7815
   38.310    4.4444
   38.325    4.3707
   38.340    4.4023
   38.355    4.5814
   38.370    4.2970
   38.385    4.1496
   38.400    4.0337
   38.415    3.9389
   38.430    4.2022
   38.445    4.1706
   38.460    4.1706
   38.475    4.2970
   38.490    4.5498
   38.505    4.6867
   38.520    4.4444
   38.535    4.1496
   38.550    4.0548
   38.565    4.2338
   38.580    4.3391
   38.595    4.2443
   38.610    4.4234
   38.625    4.5076
   38.640    4.2549
   38.655    4.1706
   38.670    4.4128
   38.685    4.0548
   38.700    4.2022
   38.715    4.4023
   38.730    4.6445
   38.745    4.4655
   38.760    4.3918
   38.775    4.2759
   38.790    4.2865
   38.805    4.4339
   38.820    4.1390
   38.835    4.1601
   38.850    4.5076
   38.865    4.5076
   38.880    4.7393
   38.895    4.5814
   38.910    4.2970
   38.925    4.2549
   38.940    4.6235
   38.955    4.4971
   38.970    4.5603
   38.985    4.3391
   39.000    4.4128
   39.015    4.0969
   39.030    4.2970
   39.045    4.2127
   39.060    4.4655
   39.075    4.4444
   39.090    4.5182
   39.105    4.7288
   39.120    4.3286
   39.135    4.5392
   39.150    4.6445
   39.165    4.3813
   39.180    4.3602
   39.195    4.3391
   39.210    4.4339
   39.225    4.1917
   39.240    4.4655
   39.255    4.5603
   39.270    4.4971
   39.285    4.3602
   39.300    4.2970
   39.315    4.3497
   39.330    4.2022
   39.345    4.5076
   39.360    4.4550
   39.375    4.5498
   39.390    4.6656
   39.405    4.5603
   39.420    4.4023
   39.435    4.5287
   39.450    4.6761
   39.465    4.4234
   39.480    4.2759
   39.495    4.2759
   39.510    4.5076
   39.525    4.5919
   39.540    4.6340
   39.555    4.7499
   39.570    4.5392
   39.585    4.8131
   39.600    4.5498
   39.615    4.4760
   39.630    4.2759
   39.645    4.2127
   39.660    4.1390
   39.675    4.4866
   39.690    4.4550
   39.705    4.2338
   39.720    4.2654
   39.735    4.3497
   39.750    4.4339
   39.765    4.4550
   39.780    4.7077
   39.795    4.3497
   39.810    4.2022
   39.825    4.4550
   39.840    4.4971
   39.855    4.6024
   39.870    4.2654
   39.885    4.3497
   39.900    4.4023
   39.915    4.1706
   39.930    4.4023
   39.945    4.0969
   39.960    4.1811
   39.975    4.4234
   39.990    3.9600
