    1.500   13.0658
    1.515   13.1835
    1.530   12.9374
    1.545   12.8625
    1.560   11.8673
    1.575   12.2632
    1.590   12.6378
    1.605   11.2360
    1.620   11.8566
    1.635   10.9042
    1.650   10.6902
    1.665   10.6153
    1.680   11.1718
    1.695   10.6688
    1.710    9.9518
    1.725   10.0161
    1.740   10.0482
    1.755    9.6843
    1.770    9.3419
    1.785    9.4917
    1.800    9.3740
    1.815    9.6201
    1.830    9.7271
    1.845    8.7640
    1.860    8.8283
    1.875    8.6570
    1.890    8.1969
    1.905    8.1648
    1.920    8.1541
    1.935    7.6726
    1.950    8.1648
    1.965    8.0150
    1.980    7.4585
    1.995    7.2659
    2.010    7.6726
    2.025    7.7368
    2.040    7.4585
    2.055    7.6083
    2.070    7.1910
    2.085    6.9770
    2.100    7.2552
    2.115    6.9877
    2.130    6.3670
    2.145    6.6346
    2.160    6.6025
    2.175    6.7202
    2.190    6.8272
    2.205    6.2814
    2.220    6.0032
    2.235    6.4098
    2.250    5.9925
    2.265    6.0888
    2.280    6.3670
    2.295    5.9604
    2.310    5.8641
    2.325    5.5752
    2.340    5.3398
    2.355    5.5003
    2.370    5.2541
    2.385    5.4896
    2.400    5.8213
    2.415    5.4040
    2.430    5.3398
    2.445    5.7464
    2.460    5.2113
    2.475    5.3933
    2.490    5.3505
    2.505    5.0080
    2.520    5.4789
    2.535    5.1899
    2.550    5.2113
    2.565    5.0508
    2.580    5.0187
    2.595    5.0829
    2.610    5.0936
    2.625    4.9331
    2.640    5.0508
    2.655    5.2113
    2.670    5.3398
    2.685    4.8368
    2.700    5.1364
    2.715    4.8796
    2.730    5.0508
    2.745    4.8047
    2.760    4.9759
    2.775    4.7512
    2.790    5.1257
    2.805    5.1043
    2.820    5.1364
    2.835    5.3184
    2.850    5.3505
    2.865    5.3077
    2.880    5.1043
    2.895    5.1792
    2.910    5.0508
    2.925    5.4254
    2.940    5.3398
    2.955    5.7250
    2.970    5.2434
    2.985    5.1792
    3.000    5.4682
    3.015    5.5110
    3.030    5.4468
    3.045    5.5538
    3.060    5.4682
    3.075    5.6715
    3.090    5.9176
    3.105    5.7250
    3.120    5.8106
    3.135    6.0032
    3.150    6.2600
    3.165    6.4419
    3.180    5.8427
    3.195    6.4741
    3.210    6.6881
    3.225    6.3670
    3.240    6.2279
    3.255    6.6667
    3.270    6.7416
    3.285    6.8593
    3.300    6.9021
    3.315    6.8272
    3.330    7.5441
    3.345    7.0305
    3.360    7.1589
    3.375    8.0150
    3.390    8.1006
    3.405    8.0257
    3.420    7.8973
    3.435    8.7212
    3.450    8.5928
    3.465    9.0530
    3.480    9.2777
    3.495    9.6094
    3.510    9.9304
    3.525    9.8555
    3.540   10.6581
    3.555   10.0482
    3.570   10.8828
    3.585   11.3109
    3.600   10.9363
    3.615   12.4987
    3.630   12.4666
    3.645   12.8946
    3.660   13.3975
    3.675   14.3071
    3.690   14.3499
    3.705   14.8850
    3.720   15.2702
    3.735   16.4687
    3.750   17.2285
    3.765   17.6886
    3.780   18.4591
    3.795   19.0155
    3.810   19.9465
    3.825   20.9096
    3.840   22.8143
    3.855   23.9700
    3.870   24.8582
    3.885   26.8700
    3.900   27.2017
    3.915   29.1279
    3.930   32.3060
    3.945   34.3927
    3.960   36.6292
    3.975   38.1273
    3.990   40.3745
    4.005   43.1996
    4.020   43.9486
    4.035   43.3815
    4.050   40.7705
    4.065   37.6886
    4.080   33.5474
    4.095   29.2349
    4.110   25.5859
    4.125   22.2151
    4.140   19.9572
    4.155   18.7373
    4.170   17.8277
    4.185   16.4687
    4.200   15.2060
    4.215   15.8266
    4.230   15.0990
    4.245   15.0455
    4.260   15.2488
    4.275   15.2381
    4.290   15.2167
    4.305   16.0942
    4.320   17.1215
    4.335   16.9181
    4.350   17.6886
    4.365   18.6089
    4.380   19.7111
    4.395   20.1926
    4.410   21.4660
    4.425   23.2210
    4.440   24.5693
    4.455   27.4050
    4.470   30.2836
    4.485   33.6865
    4.500   38.5019
    4.515   42.0867
    4.530   39.5078
    4.545   27.6083
    4.560   20.2996
    4.575   17.2178
    4.590   15.9016
    4.605   16.0300
    4.620   16.0514
    4.635   16.1049
    4.650   15.9551
    4.665   15.8052
    4.680   15.8266
    4.695   16.4901
    4.710   16.2654
    4.725   16.1905
    4.740   16.0407
    4.755   15.6447
    4.770   15.1953
    4.785   14.8208
    4.800   14.2643
    4.815   14.4890
    4.830   13.8363
    4.845   13.4189
    4.860   13.7293
    4.875   12.8732
    4.890   12.5201
    4.905   11.6854
    4.920   10.9256
    4.935   10.9256
    4.950   10.0482
    4.965    9.1921
    4.980    8.8711
    4.995    8.0685
    5.010    7.4157
    5.025    6.7844
    5.040    6.7630
    5.055    6.1423
    5.070    5.8962
    5.085    5.6287
    5.100    5.3077
    5.115    4.4837
    5.130    4.2376
    5.145    4.0128
    5.160    3.7453
    5.175    3.5848
    5.190    3.3387
    5.205    3.2531
    5.220    3.1889
    5.235    3.1889
    5.250    3.0284
    5.265    2.6003
    5.280    2.6752
    5.295    3.1140
    5.310    2.6752
    5.325    2.7501
    5.340    2.7180
    5.355    2.4291
    5.370    2.2472
    5.385    2.3221
    5.400    2.0867
    5.415    2.2686
    5.430    2.1509
    5.445    2.2044
    5.460    1.8727
    5.475    2.0546
    5.490    2.0332
    5.505    1.6800
    5.520    1.7657
    5.535    1.7442
    5.550    1.7764
    5.565    1.9048
    5.580    1.8299
    5.595    1.8085
    5.610    1.8085
    5.625    1.6693
    5.640    1.7228
    5.655    1.7871
    5.670    1.7871
    5.685    1.5623
    5.700    1.6907
    5.715    1.6586
    5.730    1.7764
    5.745    1.8299
    5.760    1.6800
    5.775    1.6907
    5.790    1.6800
    5.805    1.5944
    5.820    1.8299
    5.835    1.7764
    5.850    1.6479
    5.865    1.6051
    5.880    1.6158
    5.895    1.6586
    5.910    1.7978
    5.925    1.6693
    5.940    1.8406
    5.955    1.6907
    5.970    1.9369
    5.985    1.8192
    6.000    1.8834
    6.015    1.8727
    6.030    1.7228
    6.045    2.0118
    6.060    1.9690
    6.075    1.9476
    6.090    2.1402
    6.105    2.3007
    6.120    2.0439
    6.135    1.9904
    6.150    2.1937
    6.165    2.3649
    6.180    2.4291
    6.195    2.4612
    6.210    2.5361
    6.225    2.6645
    6.240    2.6324
    6.255    2.7822
    6.270    3.2745
    6.285    3.4992
    6.300    3.8737
    6.315    4.1199
    6.330    4.8154
    6.345    4.7619
    6.360    5.5966
    6.375    6.5597
    6.390    7.2659
    6.405    7.2552
    6.420    5.5645
    6.435    3.5955
    6.450    2.2472
    6.465    1.8406
    6.480    1.4339
    6.495    1.4553
    6.510    1.4232
    6.525    1.3055
    6.540    1.3697
    6.555    1.3055
    6.570    1.2413
    6.585    1.3483
    6.600    1.1878
    6.615    1.2199
    6.630    1.1022
    6.645    1.1129
    6.660    1.1450
    6.675    1.1771
    6.690    0.9417
    6.705    1.1236
    6.720    1.1236
    6.735    1.0594
    6.750    1.3055
    6.765    1.1343
    6.780    1.1450
    6.795    1.1985
    6.810    1.1985
    6.825    1.1878
    6.840    1.1022
    6.855    1.2627
    6.870    1.0487
    6.885    0.9417
    6.900    1.0487
    6.915    1.1236
    6.930    1.0915
    6.945    1.1985
    6.960    1.0808
    6.975    0.9203
    6.990    1.1664
    7.005    1.1771
    7.020    1.1771
    7.035    1.1771
    7.050    1.1343
    7.065    0.9845
    7.080    1.0594
    7.095    1.0915
    7.110    1.0273
    7.125    1.1450
    7.140    1.0808
    7.155    1.2092
    7.170    1.2520
    7.185    1.0701
    7.200    1.0273
    7.215    1.0380
    7.230    1.1236
    7.245    1.1450
    7.260    1.1771
    7.275    1.0808
    7.290    1.1878
    7.305    1.0166
    7.320    0.9845
    7.335    1.0487
    7.350    1.1557
    7.365    1.2306
    7.380    1.2841
    7.395    1.2841
    7.410    0.9845
    7.425    1.2734
    7.440    1.1129
    7.455    1.2306
    7.470    1.4446
    7.485    1.6158
    7.500    1.3697
    7.515    1.5088
    7.530    1.3269
    7.545    1.4874
    7.560    1.3269
    7.575    1.4981
    7.590    1.2627
    7.605    1.5409
    7.620    1.7764
    7.635    1.4981
    7.650    1.4767
    7.665    1.6372
    7.680    1.7764
    7.695    1.9904
    7.710    2.0653
    7.725    2.2151
    7.740    2.4505
    7.755    2.5040
    7.770    2.4933
    7.785    2.7287
    7.800    2.9213
    7.815    3.2959
    7.830    3.6811
    7.845    3.8844
    7.860    3.5313
    7.875    3.1140
    7.890    2.7929
    7.905    2.6110
    7.920    2.8678
    7.935    2.8892
    7.950    2.8999
    7.965    3.1354
    7.980    3.0926
    7.995    3.6169
    8.010    3.5313
    8.025    4.2483
    8.040    4.0877
    8.055    4.3767
    8.070    4.3018
    8.085    4.3232
    8.100    4.6228
    8.115    4.6335
    8.130    4.1199
    8.145    3.9700
    8.160    3.3173
    8.175    3.2103
    8.190    2.8036
    8.205    2.4612
    8.220    2.2365
    8.235    2.1402
    8.250    1.8406
    8.265    1.5516
    8.280    1.7014
    8.295    1.6051
    8.310    1.4339
    8.325    1.4553
    8.340    1.4981
    8.355    1.6265
    8.370    1.3804
    8.385    1.4660
    8.400    1.3697
    8.415    1.4981
    8.430    1.3162
    8.445    1.3483
    8.460    1.2734
    8.475    1.3483
    8.490    1.1343
    8.505    1.2841
    8.520    1.1985
    8.535    1.2520
    8.550    1.1236
    8.565    1.2092
    8.580    1.1022
    8.595    1.3376
    8.610    1.2841
    8.625    1.3483
    8.640    1.2841
    8.655    1.2627
    8.670    1.4232
    8.685    1.5730
    8.700    1.3697
    8.715    1.4767
    8.730    1.3376
    8.745    1.2948
    8.760    1.5088
    8.775    1.4018
    8.790    1.3055
    8.805    1.4446
    8.820    1.3804
    8.835    1.4660
    8.850    1.5944
    8.865    1.6265
    8.880    1.5409
    8.895    1.6051
    8.910    1.6693
    8.925    1.7657
    8.940    1.7442
    8.955    1.7978
    8.970    2.0332
    8.985    2.2258
    9.000    2.1723
    9.015    2.2472
    9.030    2.6859
    9.045    2.6431
    9.060    2.9106
    9.075    2.8785
    9.090    2.3114
    9.105    1.8941
    9.120    1.6479
    9.135    1.7442
    9.150    1.6800
    9.165    1.6158
    9.180    1.7549
    9.195    1.8192
    9.210    1.5302
    9.225    1.7657
    9.240    1.6907
    9.255    1.7335
    9.270    1.5302
    9.285    1.7657
    9.300    1.8192
    9.315    1.7549
    9.330    1.7335
    9.345    2.0439
    9.360    2.0118
    9.375    2.0760
    9.390    1.9476
    9.405    2.0653
    9.420    1.7978
    9.435    1.9369
    9.450    2.1081
    9.465    2.0225
    9.480    1.8299
    9.495    2.1295
    9.510    2.0118
    9.525    2.0546
    9.540    1.9904
    9.555    1.9155
    9.570    2.0439
    9.585    2.0332
    9.600    1.8941
    9.615    2.0225
    9.630    2.1402
    9.645    1.9797
    9.660    2.0546
    9.675    1.9690
    9.690    1.8192
    9.705    2.0653
    9.720    2.0225
    9.735    1.8406
    9.750    1.9048
    9.765    1.9904
    9.780    1.8192
    9.795    2.1295
    9.810    2.0332
    9.825    2.1616
    9.840    1.8513
    9.855    1.7121
    9.870    1.5837
    9.885    1.6265
    9.900    1.6693
    9.915    1.6372
    9.930    1.8192
    9.945    1.8834
    9.960    1.6586
    9.975    1.7335
    9.990    1.4981
   10.005    1.4981
   10.020    1.4232
   10.035    1.6586
   10.050    1.7121
   10.065    1.6907
   10.080    1.6693
   10.095    1.5516
   10.110    1.4018
   10.125    1.6158
   10.140    1.5302
   10.155    1.4981
   10.170    1.4018
   10.185    1.5302
   10.200    1.2199
   10.215    1.2413
   10.230    1.3911
   10.245    1.3162
   10.260    1.1557
   10.275    1.1343
   10.290    1.2948
   10.305    1.2306
   10.320    1.3483
   10.335    1.2092
   10.350    1.1450
   10.365    1.2841
   10.380    1.0594
   10.395    1.2199
   10.410    1.1771
   10.425    1.1985
   10.440    1.1022
   10.455    1.1129
   10.470    1.0059
   10.485    1.1129
   10.500    1.0487
   10.515    1.2734
   10.530    1.2841
   10.545    0.9738
   10.560    1.0808
   10.575    1.1771
   10.590    1.1450
   10.605    1.0059
   10.620    0.9738
   10.635    1.2092
   10.650    1.1022
   10.665    1.0059
   10.680    0.8882
   10.695    1.0166
   10.710    1.1664
   10.725    1.0701
   10.740    1.0594
   10.755    1.0487
   10.770    1.0808
   10.785    1.0701
   10.800    1.0273
   10.815    1.2199
   10.830    1.1771
   10.845    1.1557
   10.860    1.0808
   10.875    1.1664
   10.890    1.2841
   10.905    1.1450
   10.920    1.3590
   10.935    1.1771
   10.950    1.4874
   10.965    1.4446
   10.980    1.6372
   10.995    1.6693
   11.010    1.9583
   11.025    2.0225
   11.040    2.2472
   11.055    2.6110
   11.070    2.8250
   11.085    3.9914
   11.100    4.3339
   11.115    3.7667
   11.130    3.4136
   11.145    2.3542
   11.160    1.5409
   11.175    1.5409
   11.190    1.3376
   11.205    1.1343
   11.220    0.9203
   11.235    0.9738
   11.250    0.9203
   11.265    1.0808
   11.280    0.8989
   11.295    0.9417
   11.310    0.9096
   11.325    1.0915
   11.340    1.0487
   11.355    1.0487
   11.370    1.0380
   11.385    1.0273
   11.400    1.0273
   11.415    0.8454
   11.430    0.8561
   11.445    0.9631
   11.460    1.0380
   11.475    0.8026
   11.490    0.9203
   11.505    0.8775
   11.520    0.8775
   11.535    0.9738
   11.550    0.9310
   11.565    0.9952
   11.580    0.9524
   11.595    0.9524
   11.610    0.9952
   11.625    0.8989
   11.640    1.0594
   11.655    0.9952
   11.670    0.8454
   11.685    1.0487
   11.700    0.9738
   11.715    1.0059
   11.730    1.0487
   11.745    1.0059
   11.760    0.9631
   11.775    1.0701
   11.790    1.1343
   11.805    1.1878
   11.820    0.9631
   11.835    1.1450
   11.850    1.0166
   11.865    1.2520
   11.880    1.1343
   11.895    1.3055
   11.910    1.2734
   11.925    1.3055
   11.940    1.3376
   11.955    1.5516
   11.970    1.6586
   11.985    1.8299
   12.000    1.8834
   12.015    1.9797
   12.030    1.9476
   12.045    1.4339
   12.060    1.3376
   12.075    1.4018
   12.090    1.1022
   12.105    1.0273
   12.120    0.9952
   12.135    1.1236
   12.150    1.2092
   12.165    1.2627
   12.180    1.1878
   12.195    1.1236
   12.210    1.1343
   12.225    1.0059
   12.240    1.1129
   12.255    0.9845
   12.270    1.0594
   12.285    1.1557
   12.300    1.0487
   12.315    1.0487
   12.330    1.0915
   12.345    1.0380
   12.360    0.9203
   12.375    0.9524
   12.390    0.8454
   12.405    0.8347
   12.420    0.9203
   12.435    1.0166
   12.450    0.8133
   12.465    0.9417
   12.480    0.8989
   12.495    0.8133
   12.510    0.8775
   12.525    0.8347
   12.540    0.9738
   12.555    0.9952
   12.570    0.9096
   12.585    1.0594
   12.600    1.2627
   12.615    0.8775
   12.630    1.0166
   12.645    1.0594
   12.660    1.1236
   12.675    1.0166
   12.690    1.0915
   12.705    1.0594
   12.720    1.2413
   12.735    1.1771
   12.750    1.0380
   12.765    1.3483
   12.780    1.4125
   12.795    1.4553
   12.810    1.4660
   12.825    1.8192
   12.840    1.7871
   12.855    1.6051
   12.870    1.4874
   12.885    1.3376
   12.900    1.0915
   12.915    0.8989
   12.930    1.0273
   12.945    1.0059
   12.960    0.9310
   12.975    0.9203
   12.990    0.7384
   13.005    0.7491
   13.020    0.8561
   13.035    0.8133
   13.050    0.8989
   13.065    0.8133
   13.080    0.8882
   13.095    0.9096
   13.110    0.7919
   13.125    0.8775
   13.140    0.8561
   13.155    0.8882
   13.170    0.9096
   13.185    0.7491
   13.200    0.9524
   13.215    0.8561
   13.230    0.9845
   13.245    1.0701
   13.260    1.0166
   13.275    0.8882
   13.290    0.9952
   13.305    0.8454
   13.320    0.9952
   13.335    0.8882
   13.350    0.9631
   13.365    0.9631
   13.380    0.9952
   13.395    0.8133
   13.410    1.0166
   13.425    0.8882
   13.440    1.0166
   13.455    1.0701
   13.470    1.1343
   13.485    1.0808
   13.500    1.1236
   13.515    1.1985
   13.530    1.2199
   13.545    1.1022
   13.560    1.3376
   13.575    1.5409
   13.590    1.8406
   13.605    1.8941
   13.620    1.8727
   13.635    1.7978
   13.650    1.4660
   13.665    1.2734
   13.680    1.1985
   13.695    1.0380
   13.710    0.9738
   13.725    0.9845
   13.740    0.8775
   13.755    1.0166
   13.770    0.8561
   13.785    1.0594
   13.800    1.0594
   13.815    0.9524
   13.830    0.9524
   13.845    1.0701
   13.860    1.0059
   13.875    0.7812
   13.890    0.9524
   13.905    0.8454
   13.920    1.0808
   13.935    1.0166
   13.950    0.9203
   13.965    0.9096
   13.980    0.8240
   13.995    1.0380
   14.010    1.1022
   14.025    0.9310
   14.040    0.8775
   14.055    0.9524
   14.070    0.9417
   14.085    0.9952
   14.100    0.7491
   14.115    0.7384
   14.130    0.9096
   14.145    0.9952
   14.160    0.9310
   14.175    0.9310
   14.190    0.9738
   14.205    1.1450
   14.220    0.9417
   14.235    1.0487
   14.250    1.0380
   14.265    0.9203
   14.280    0.8561
   14.295    1.0166
   14.310    1.0059
   14.325    1.1343
   14.340    1.2627
   14.355    1.2199
   14.370    1.0487
   14.385    1.0487
   14.400    1.1450
   14.415    1.0273
   14.430    1.0059
   14.445    1.0273
   14.460    1.0701
   14.475    1.1236
   14.490    1.0808
   14.505    0.9845
   14.520    0.9738
   14.535    0.9524
   14.550    0.9310
   14.565    0.9096
   14.580    1.0273
   14.595    0.9096
   14.610    0.9845
   14.625    1.0059
   14.640    1.0380
   14.655    1.1022
   14.670    0.9417
   14.685    1.0059
   14.700    1.1129
   14.715    0.9631
   14.730    1.0273
   14.745    0.9845
   14.760    0.9952
   14.775    1.0594
   14.790    1.0701
   14.805    1.0701
   14.820    1.0701
   14.835    0.9524
   14.850    0.9524
   14.865    0.9631
   14.880    1.1236
   14.895    1.0915
   14.910    0.9310
   14.925    1.0487
   14.940    0.8775
   14.955    0.8989
   14.970    1.1771
   14.985    1.2948
   15.000    1.3911
   15.015    1.3697
   15.030    1.4125
   15.045    1.3911
   15.060    1.4125
   15.075    1.3911
   15.090    1.4446
   15.105    1.3590
   15.120    1.2627
   15.135    1.0701
   15.150    0.9845
   15.165    0.9631
   15.180    0.9417
   15.195    1.0273
   15.210    0.9952
   15.225    0.9952
   15.240    0.8882
   15.255    0.9952
   15.270    1.0808
   15.285    1.0273
   15.300    0.8454
   15.315    0.9203
   15.330    0.9203
   15.345    0.9417
   15.360    0.8668
   15.375    1.0594
   15.390    0.8668
   15.405    0.9203
   15.420    1.0594
   15.435    1.2734
   15.450    0.9952
   15.465    0.9952
   15.480    1.0487
   15.495    0.8133
   15.510    1.0594
   15.525    0.8775
   15.540    0.8133
   15.555    0.9845
   15.570    1.0701
   15.585    0.8668
   15.600    0.9203
   15.615    0.9310
   15.630    1.1022
   15.645    0.8989
   15.660    1.0487
   15.675    0.9738
   15.690    1.1022
   15.705    1.1022
   15.720    1.1236
   15.735    0.9952
   15.750    1.1557
   15.765    1.1129
   15.780    1.2520
   15.795    1.1343
   15.810    0.9310
   15.825    1.0594
   15.840    1.0166
   15.855    0.9310
   15.870    0.9417
   15.885    1.0487
   15.900    1.1450
   15.915    0.8775
   15.930    0.9952
   15.945    0.8561
   15.960    0.7812
   15.975    0.8882
   15.990    0.8668
   16.005    0.8775
   16.020    0.7919
   16.035    0.8133
   16.050    0.8133
   16.065    0.9524
   16.080    0.8989
   16.095    0.9738
   16.110    0.9203
   16.125    0.9524
   16.140    0.9631
   16.155    1.0487
   16.170    0.9524
   16.185    0.9417
   16.200    1.0701
   16.215    0.8240
   16.230    0.8454
   16.245    0.9631
   16.260    1.0166
   16.275    0.9738
   16.290    0.9096
   16.305    0.9845
   16.320    1.0166
   16.335    1.0487
   16.350    1.1557
   16.365    1.4232
   16.380    1.3055
   16.395    1.3269
   16.410    1.3376
   16.425    0.9417
   16.440    1.0380
   16.455    1.1343
   16.470    0.8882
   16.485    0.8668
   16.500    0.8026
   16.515    0.9203
   16.530    0.8775
   16.545    0.7919
   16.560    0.7812
   16.575    0.8454
   16.590    0.8775
   16.605    0.8882
   16.620    1.0273
   16.635    0.8561
   16.650    0.7384
   16.665    0.9096
   16.680    0.9310
   16.695    0.9096
   16.710    0.7491
   16.725    0.8668
   16.740    0.8668
   16.755    0.8240
   16.770    0.8240
   16.785    0.8454
   16.800    0.8775
   16.815    0.7170
   16.830    0.8775
   16.845    0.9203
   16.860    0.8882
   16.875    0.8775
   16.890    0.8668
   16.905    0.9096
   16.920    0.8989
   16.935    0.8668
   16.950    0.8775
   16.965    0.6528
   16.980    0.8240
   16.995    0.8989
   17.010    0.8882
   17.025    0.7705
   17.040    0.7384
   17.055    0.8668
   17.070    0.8026
   17.085    0.6956
   17.100    0.9631
   17.115    0.9417
   17.130    0.8561
   17.145    0.8347
   17.160    0.8240
   17.175    0.7919
   17.190    0.7598
   17.205    0.7598
   17.220    0.8668
   17.235    0.9631
   17.250    0.8989
   17.265    0.8561
   17.280    0.8561
   17.295    0.8454
   17.310    0.9845
   17.325    0.8347
   17.340    0.7384
   17.355    0.6742
   17.370    0.7170
   17.385    0.8989
   17.400    0.7598
   17.415    0.9631
   17.430    0.7919
   17.445    0.8775
   17.460    0.8240
   17.475    0.8775
   17.490    0.8454
   17.505    0.8775
   17.520    0.7919
   17.535    0.7705
   17.550    1.0487
   17.565    0.8989
   17.580    0.9203
   17.595    0.8882
   17.610    0.8882
   17.625    0.9631
   17.640    0.9203
   17.655    1.0166
   17.670    1.1450
   17.685    0.8775
   17.700    0.7170
   17.715    0.7705
   17.730    0.8668
   17.745    0.8668
   17.760    0.7170
   17.775    0.8026
   17.790    0.8240
   17.805    0.8026
   17.820    0.7063
   17.835    0.8347
   17.850    0.7384
   17.865    0.7384
   17.880    0.7812
   17.895    0.7598
   17.910    0.8561
   17.925    0.9203
   17.940    0.9524
   17.955    0.8026
   17.970    1.0059
   17.985    0.8454
   18.000    0.9203
   18.015    0.8775
   18.030    0.8775
   18.045    1.0701
   18.060    0.8668
   18.075    0.8133
   18.090    0.7812
   18.105    0.7598
   18.120    0.6849
   18.135    0.7705
   18.150    0.9524
   18.165    0.7491
   18.180    0.7919
   18.195    0.8775
   18.210    0.8347
   18.225    0.7705
   18.240    0.8668
   18.255    0.7491
   18.270    0.8668
   18.285    0.9203
   18.300    0.8561
   18.315    0.8133
   18.330    0.8240
   18.345    0.8989
   18.360    0.7277
   18.375    0.8240
   18.390    1.0487
   18.405    0.9203
   18.420    0.7384
   18.435    0.7705
   18.450    0.7491
   18.465    0.8454
   18.480    0.8454
   18.495    0.9738
   18.510    0.8240
   18.525    0.9310
   18.540    0.8026
   18.555    0.6849
   18.570    0.6207
   18.585    0.6635
   18.600    0.7598
   18.615    0.8882
   18.630    0.9310
   18.645    0.9203
   18.660    0.8347
   18.675    0.8561
   18.690    0.8989
   18.705    0.9631
   18.720    0.8454
   18.735    0.8775
   18.750    0.9310
   18.765    0.9952
   18.780    0.9631
   18.795    0.8989
   18.810    0.9417
   18.825    0.8454
   18.840    0.9738
   18.855    0.8989
   18.870    0.8989
   18.885    0.7919
   18.900    0.8775
   18.915    0.7812
   18.930    0.6528
   18.945    0.8240
   18.960    0.9203
   18.975    0.8882
   18.990    0.6849
   19.005    0.7705
   19.020    0.9096
   19.035    0.7919
   19.050    0.8347
   19.065    0.8561
   19.080    0.7384
   19.095    0.7063
   19.110    0.8133
   19.125    0.8026
   19.140    0.7598
   19.155    0.9096
   19.170    0.9203
   19.185    0.8454
   19.200    0.8133
   19.215    0.8454
   19.230    0.8668
   19.245    0.8026
   19.260    0.9417
   19.275    0.7170
   19.290    0.8989
   19.305    0.9310
   19.320    0.8561
   19.335    0.9524
   19.350    0.8775
   19.365    0.8668
   19.380    0.9096
   19.395    0.8882
   19.410    0.7705
   19.425    0.8133
   19.440    0.6742
   19.455    0.7812
   19.470    0.8668
   19.485    0.6956
   19.500    0.8668
   19.515    0.8347
   19.530    0.8347
   19.545    0.8668
   19.560    0.9524
   19.575    0.7491
   19.590    0.8026
   19.605    0.9631
   19.620    0.7705
   19.635    0.7919
   19.650    0.9952
   19.665    0.9631
   19.680    0.8454
   19.695    1.0487
   19.710    0.8561
   19.725    0.9096
   19.740    0.8668
   19.755    0.8454
   19.770    0.9845
   19.785    0.8561
   19.800    1.0059
   19.815    1.0380
   19.830    1.1985
   19.845    1.2520
   19.860    1.4232
   19.875    1.4660
   19.890    1.2199
   19.905    1.1771
   19.920    0.9417
   19.935    0.9203
   19.950    0.8882
   19.965    0.9524
   19.980    0.8775
   19.995    0.7384
   20.010    0.8026
   20.025    0.8882
   20.040    0.7063
   20.055    0.7812
   20.070    0.8026
   20.085    0.7919
   20.100    0.8133
   20.115    0.7812
   20.130    0.7063
   20.145    0.6742
   20.160    0.8775
   20.175    0.8561
   20.190    0.7277
   20.205    0.7491
   20.220    0.8347
   20.235    0.8989
   20.250    0.8668
   20.265    0.8347
   20.280    0.7384
   20.295    0.9203
   20.310    1.0166
   20.325    0.8347
   20.340    0.9310
   20.355    1.0166
   20.370    0.8775
   20.385    0.9417
   20.400    0.9738
   20.415    1.0808
   20.430    0.9096
   20.445    0.8240
   20.460    1.0380
   20.475    1.0273
   20.490    0.7919
   20.505    0.7812
   20.520    0.7812
   20.535    0.7277
   20.550    0.7063
   20.565    0.8240
   20.580    0.8026
   20.595    0.8561
   20.610    0.8026
   20.625    0.8668
   20.640    0.8668
   20.655    0.8989
   20.670    0.7812
   20.685    0.7812
   20.700    0.9524
   20.715    0.9203
   20.730    0.8775
   20.745    0.8561
   20.760    0.8347
   20.775    0.8775
   20.790    0.7705
   20.805    0.7705
   20.820    0.7598
   20.835    0.8133
   20.850    0.8026
   20.865    0.8668
   20.880    0.9417
   20.895    0.9203
   20.910    0.9738
   20.925    0.8133
   20.940    0.8133
   20.955    0.7491
   20.970    0.8882
   20.985    0.8240
   21.000    0.9631
   21.015    0.8026
   21.030    0.8775
   21.045    0.9096
   21.060    0.9310
   21.075    0.8240
   21.090    0.8668
   21.105    0.9845
   21.120    0.9845
   21.135    0.9096
   21.150    0.7063
   21.165    0.7063
   21.180    0.8561
   21.195    0.7919
   21.210    0.8347
   21.225    0.8454
   21.240    0.8561
   21.255    0.8240
   21.270    0.7170
   21.285    0.8775
   21.300    0.7491
   21.315    0.7277
   21.330    0.8454
   21.345    0.9417
   21.360    0.9096
   21.375    1.0166
   21.390    0.9845
   21.405    0.9310
   21.420    1.0701
   21.435    0.9310
   21.450    0.7812
   21.465    0.8775
   21.480    0.9738
   21.495    0.8882
   21.510    0.8133
   21.525    0.6849
   21.540    0.8026
   21.555    0.8454
   21.570    0.7277
   21.585    0.8240
   21.600    0.7812
   21.615    0.8775
   21.630    0.8775
   21.645    0.8454
   21.660    0.8989
   21.675    0.8668
   21.690    0.7705
   21.705    0.8775
   21.720    0.9203
   21.735    0.8775
   21.750    0.7919
   21.765    0.8026
   21.780    0.7063
   21.795    0.6421
   21.810    0.8882
   21.825    0.8989
   21.840    0.9524
   21.855    0.8775
   21.870    0.7277
   21.885    0.9310
   21.900    0.9096
   21.915    0.8133
   21.930    0.9096
   21.945    0.7705
   21.960    0.7705
   21.975    0.9096
   21.990    0.8133
   22.005    0.6849
   22.020    0.8775
   22.035    0.9203
   22.050    0.7919
   22.065    0.7598
   22.080    0.7598
   22.095    0.8882
   22.110    0.9524
   22.125    0.9417
   22.140    0.8775
   22.155    0.8882
   22.170    0.9203
   22.185    0.7705
   22.200    0.8989
   22.215    0.9203
   22.230    0.8133
   22.245    0.8882
   22.260    1.0487
   22.275    0.8347
   22.290    0.8668
   22.305    0.8026
   22.320    0.9096
   22.335    0.9631
   22.350    1.0273
   22.365    0.8668
   22.380    0.9096
   22.395    1.0594
   22.410    0.8882
   22.425    0.9845
   22.440    0.8775
   22.455    0.9845
   22.470    1.1450
   22.485    0.9845
   22.500    1.0594
   22.515    0.9524
   22.530    0.8133
   22.545    0.8668
   22.560    0.9952
   22.575    0.8454
   22.590    0.7919
   22.605    0.8454
   22.620    0.8989
   22.635    0.7598
   22.650    0.8775
   22.665    0.8561
   22.680    0.8454
   22.695    0.9417
   22.710    0.9845
   22.725    0.9631
   22.740    0.9952
   22.755    1.0594
   22.770    0.9417
   22.785    1.0915
   22.800    1.0915
   22.815    0.9417
   22.830    0.8989
   22.845    1.0273
   22.860    1.1129
   22.875    1.1343
   22.890    1.0380
   22.905    0.9524
   22.920    0.8775
   22.935    0.8989
   22.950    0.8454
   22.965    0.8133
   22.980    0.8026
   22.995    0.8989
   23.010    0.9738
   23.025    0.8347
   23.040    0.8775
   23.055    1.1236
   23.070    0.8561
   23.085    0.8454
   23.100    0.9845
   23.115    1.0273
   23.130    1.0808
   23.145    0.9952
   23.160    0.8026
   23.175    0.9096
   23.190    0.9631
   23.205    0.9524
   23.220    1.0487
   23.235    1.1985
   23.250    0.9096
   23.265    0.9631
   23.280    0.9631
   23.295    0.9738
   23.310    0.9524
   23.325    1.0059
   23.340    0.8989
   23.355    0.9845
   23.370    0.8882
   23.385    0.8775
   23.400    1.0273
   23.415    0.9631
   23.430    0.9631
   23.445    1.1450
   23.460    1.0059
   23.475    0.9631
   23.490    1.1129
   23.505    1.0487
   23.520    0.8882
   23.535    0.9952
   23.550    0.9096
   23.565    0.9417
   23.580    0.9096
   23.595    1.1129
   23.610    1.1343
   23.625    1.1236
   23.640    1.0808
   23.655    1.1557
   23.670    1.1343
   23.685    1.1343
   23.700    1.3055
   23.715    1.3590
   23.730    1.2841
   23.745    1.4018
   23.760    1.3483
   23.775    1.2092
   23.790    0.9417
   23.805    1.0166
   23.820    1.0594
   23.835    1.0915
   23.850    1.0380
   23.865    1.0166
   23.880    0.8347
   23.895    1.0166
   23.910    0.9096
   23.925    0.9738
   23.940    1.0273
   23.955    1.1985
   23.970    1.1343
   23.985    1.0701
   24.000    1.0701
   24.015    0.8989
   24.030    0.8454
   24.045    0.8989
   24.060    1.0808
   24.075    1.0808
   24.090    1.0059
   24.105    0.8882
   24.120    1.0166
   24.135    1.0487
   24.150    0.9738
   24.165    0.9310
   24.180    0.8775
   24.195    0.8882
   24.210    0.9952
   24.225    0.9845
   24.240    1.1129
   24.255    0.9738
   24.270    1.0166
   24.285    0.8989
   24.300    1.0273
   24.315    1.0273
   24.330    0.9631
   24.345    1.0487
   24.360    0.9203
   24.375    1.0808
   24.390    1.0487
   24.405    1.0487
   24.420    1.0701
   24.435    1.0487
   24.450    0.9310
   24.465    0.9631
   24.480    1.0487
   24.495    1.0701
   24.510    1.1664
   24.525    1.1557
   24.540    0.9952
   24.555    0.9738
   24.570    0.9096
   24.585    1.0380
   24.600    1.0487
   24.615    1.0701
   24.630    1.1878
   24.645    1.0808
   24.660    0.9096
   24.675    1.0166
   24.690    1.0701
   24.705    0.9417
   24.720    1.0808
   24.735    1.0380
   24.750    0.9631
   24.765    1.1022
   24.780    0.9845
   24.795    0.9845
   24.810    1.1236
   24.825    1.0166
   24.840    0.9417
   24.855    0.9845
   24.870    0.9524
   24.885    1.0166
   24.900    0.9738
   24.915    1.0166
   24.930    1.0166
   24.945    1.0166
   24.960    1.0273
   24.975    0.8989
   24.990    0.8882
   25.005    0.9310
   25.020    0.9631
   25.035    1.0166
   25.050    0.9203
   25.065    1.0273
   25.080    0.9096
   25.095    0.8882
   25.110    0.8989
   25.125    0.8775
   25.140    1.0487
   25.155    0.7812
   25.170    0.8775
   25.185    0.9524
   25.200    1.1129
   25.215    0.9845
   25.230    0.9845
   25.245    0.8882
   25.260    0.8668
   25.275    0.8989
   25.290    0.9310
   25.305    0.8347
   25.320    0.9310
   25.335    0.8989
   25.350    1.0915
   25.365    0.9417
   25.380    1.0166
   25.395    0.9738
   25.410    0.8347
   25.425    1.0487
   25.440    1.0808
   25.455    1.0487
   25.470    0.9845
   25.485    0.8668
   25.500    0.9952
   25.515    1.1450
   25.530    1.0915
   25.545    1.0594
   25.560    1.0487
   25.575    1.0487
   25.590    1.0059
   25.605    1.1022
   25.620    0.8775
   25.635    1.0380
   25.650    0.8347
   25.665    0.9631
   25.680    1.0487
   25.695    0.9631
   25.710    0.8989
   25.725    0.8989
   25.740    0.9524
   25.755    0.9845
   25.770    0.9096
   25.785    0.9952
   25.800    0.9310
   25.815    0.9417
   25.830    0.9952
   25.845    1.0059
   25.860    0.9952
   25.875    1.1664
   25.890    1.1878
   25.905    1.0166
   25.920    1.0701
   25.935    1.0808
   25.950    0.9631
   25.965    0.8989
   25.980    1.0273
   25.995    1.0166
   26.010    0.9631
   26.025    0.9417
   26.040    0.9310
   26.055    1.0059
   26.070    0.9096
   26.085    0.9310
   26.100    0.9845
   26.115    0.9096
   26.130    1.0380
   26.145    1.0487
   26.160    1.0915
   26.175    1.0915
   26.190    1.1129
   26.205    1.1557
   26.220    1.2841
   26.235    1.1985
   26.250    1.1557
   26.265    1.0808
   26.280    1.2199
   26.295    1.2306
   26.310    1.2306
   26.325    1.2627
   26.340    1.0594
   26.355    1.2092
   26.370    1.1343
   26.385    1.1022
   26.400    1.0059
   26.415    1.0808
   26.430    0.9417
   26.445    0.9417
   26.460    0.9203
   26.475    0.9631
   26.490    0.8133
   26.505    0.9310
   26.520    1.1022
   26.535    1.2306
   26.550    1.0380
   26.565    0.8561
   26.580    0.9845
   26.595    0.9417
   26.610    1.0701
   26.625    1.1878
   26.640    1.1450
   26.655    1.3162
   26.670    1.4339
   26.685    1.2199
   26.700    1.3376
   26.715    1.3269
   26.730    1.0808
   26.745    0.9203
   26.760    0.9524
   26.775    0.9845
   26.790    0.8775
   26.805    0.9203
   26.820    0.8454
   26.835    0.8454
   26.850    0.8775
   26.865    0.8668
   26.880    1.0594
   26.895    0.9952
   26.910    0.8882
   26.925    0.8989
   26.940    1.1450
   26.955    0.8240
   26.970    1.0059
   26.985    1.0915
   27.000    0.8133
   27.015    0.8026
   27.030    0.9203
   27.045    1.0380
   27.060    1.0701
   27.075    0.9417
   27.090    1.0059
   27.105    0.9631
   27.120    0.9096
   27.135    0.9738
   27.150    0.9845
   27.165    0.8347
   27.180    0.8240
   27.195    0.8882
   27.210    0.9203
   27.225    0.8347
   27.240    0.9738
   27.255    1.0059
   27.270    1.0594
   27.285    0.9310
   27.300    1.0166
   27.315    0.9417
   27.330    1.0380
   27.345    0.8454
   27.360    0.8882
   27.375    0.8989
   27.390    0.8347
   27.405    0.7919
   27.420    0.8882
   27.435    0.9203
   27.450    0.9631
   27.465    0.8454
   27.480    0.9417
   27.495    0.8347
   27.510    0.8347
   27.525    0.9524
   27.540    0.9524
   27.555    1.0380
   27.570    1.0059
   27.585    1.0059
   27.600    0.8775
   27.615    0.8561
   27.630    0.7919
   27.645    0.8347
   27.660    0.8882
   27.675    0.8133
   27.690    0.7063
   27.705    0.8882
   27.720    0.8882
   27.735    0.8989
   27.750    0.8240
   27.765    0.7491
   27.780    0.9631
   27.795    1.0166
   27.810    0.9738
   27.825    0.9631
   27.840    1.0166
   27.855    1.0059
   27.870    1.0915
   27.885    0.9631
   27.900    1.0808
   27.915    1.1236
   27.930    0.8561
   27.945    0.7170
   27.960    0.8561
   27.975    0.8882
   27.990    0.8454
   28.005    0.9631
   28.020    0.9310
   28.035    0.7812
   28.050    0.7491
   28.065    0.6635
   28.080    0.7919
   28.095    0.9631
   28.110    1.0808
   28.125    0.8882
   28.140    0.8775
   28.155    0.8668
   28.170    0.8882
   28.185    0.8240
   28.200    0.8347
   28.215    0.8989
   28.230    0.9738
   28.245    0.8026
   28.260    0.8775
   28.275    0.7491
   28.290    0.7491
   28.305    0.7384
   28.320    0.8240
   28.335    0.7812
   28.350    1.0059
   28.365    0.8668
   28.380    0.8454
   28.395    0.8775
   28.410    0.8882
   28.425    0.6956
   28.440    0.8775
   28.455    0.9417
   28.470    0.8989
   28.485    0.8133
   28.500    0.8882
   28.515    0.6849
   28.530    0.8347
   28.545    0.8026
   28.560    0.9631
   28.575    0.8026
   28.590    0.7277
   28.605    0.7919
   28.620    0.8775
   28.635    1.0594
   28.650    0.9845
   28.665    0.9203
   28.680    1.0166
   28.695    1.0059
   28.710    0.7705
   28.725    0.9096
   28.740    0.9096
   28.755    0.8347
   28.770    0.8026
   28.785    0.8133
   28.800    0.6528
   28.815    0.6528
   28.830    0.7705
   28.845    0.9203
   28.860    0.8133
   28.875    0.9096
   28.890    0.8775
   28.905    0.8775
   28.920    0.8882
   28.935    0.8668
   28.950    0.9096
   28.965    0.9845
   28.980    0.9524
   28.995    0.8561
   29.010    0.7812
   29.025    0.7919
   29.040    0.8561
   29.055    0.9310
   29.070    0.8133
   29.085    0.9417
   29.100    0.7598
   29.115    0.8454
   29.130    0.7384
   29.145    0.7705
   29.160    0.7919
   29.175    0.7598
   29.190    0.7598
   29.205    0.7705
   29.220    0.7277
   29.235    0.8775
   29.250    0.9096
   29.265    0.8133
   29.280    0.8133
   29.295    0.9524
   29.310    0.9203
   29.325    0.8882
   29.340    0.8454
   29.355    0.8775
   29.370    0.8775
   29.385    0.8668
   29.400    0.8347
   29.415    0.7170
   29.430    0.7812
   29.445    0.7812
   29.460    0.7812
   29.475    0.8989
   29.490    0.9203
   29.505    0.8668
   29.520    0.8026
   29.535    0.8989
   29.550    0.7812
   29.565    0.8989
   29.580    0.7170
   29.595    0.7384
   29.610    0.8775
   29.625    0.7491
   29.640    0.7812
   29.655    0.7919
   29.670    0.7384
   29.685    0.9096
   29.700    0.6956
   29.715    0.8561
   29.730    0.8026
   29.745    0.8026
   29.760    0.8026
   29.775    0.7812
   29.790    0.8775
   29.805    0.8882
   29.820    0.9096
   29.835    0.8240
   29.850    0.7812
   29.865    0.8668
   29.880    0.7598
   29.895    0.8347
   29.910    0.7170
   29.925    0.8347
   29.940    0.8026
   29.955    0.8882
   29.970    0.8561
   29.985    0.8133
   30.000    0.9631
   30.015    0.9417
   30.030    1.0701
   30.045    1.0166
   30.060    0.7598
   30.075    0.9738
   30.090    1.0808
   30.105    0.9631
   30.120    0.8561
   30.135    1.1022
   30.150    0.8347
   30.165    0.8454
   30.180    0.8561
   30.195    0.7170
   30.210    0.6635
   30.225    0.8347
   30.240    0.7384
   30.255    0.7705
   30.270    0.8026
   30.285    0.7491
   30.300    0.5886
   30.315    0.7598
   30.330    0.8775
   30.345    0.7491
   30.360    0.8240
   30.375    0.6314
   30.390    0.7170
   30.405    0.7919
   30.420    0.7812
   30.435    0.7170
   30.450    0.6956
   30.465    0.6528
   30.480    0.8026
   30.495    0.7277
   30.510    0.7384
   30.525    0.8133
   30.540    0.7384
   30.555    0.6956
   30.570    0.6635
   30.585    0.8775
   30.600    0.6742
   30.615    0.6314
   30.630    0.5993
   30.645    0.6100
   30.660    0.7384
   30.675    0.6849
   30.690    0.7598
   30.705    0.7598
   30.720    0.6528
   30.735    0.8347
   30.750    0.7705
   30.765    0.6314
   30.780    0.8454
   30.795    0.6849
   30.810    0.7812
   30.825    0.7705
   30.840    0.9096
   30.855    0.8454
   30.870    0.8347
   30.885    0.6849
   30.900    0.6421
   30.915    0.6100
   30.930    0.7063
   30.945    0.7812
   30.960    0.8240
   30.975    0.7812
   30.990    0.6314
   31.005    0.6421
   31.020    0.6635
   31.035    0.7170
   31.050    0.8026
   31.065    0.5993
   31.080    0.6849
   31.095    0.7919
   31.110    0.6421
   31.125    0.7598
   31.140    0.7812
   31.155    0.8133
   31.170    0.6742
   31.185    0.6421
   31.200    0.7063
   31.215    0.6956
   31.230    0.7491
   31.245    0.7063
   31.260    0.6956
   31.275    0.6314
   31.290    0.7705
   31.305    0.5778
   31.320    0.9096
   31.335    0.7812
   31.350    0.7384
   31.365    0.8454
   31.380    0.8240
   31.395    0.6421
   31.410    0.7277
   31.425    0.6635
   31.440    0.7384
   31.455    0.6421
   31.470    0.8775
   31.485    0.9203
   31.500    0.8347
   31.515    0.6314
   31.530    0.7705
   31.545    0.8668
   31.560    0.8561
   31.575    0.6849
   31.590    0.7170
   31.605    0.8561
   31.620    0.7063
   31.635    0.6528
   31.650    0.8347
   31.665    0.7063
   31.680    0.6314
   31.695    0.6207
   31.710    0.5243
   31.725    0.7170
   31.740    0.6849
   31.755    0.7277
   31.770    0.7812
   31.785    0.8133
   31.800    0.7063
   31.815    0.6742
   31.830    0.7277
   31.845    0.6207
   31.860    0.6742
   31.875    0.6528
   31.890    0.6742
   31.905    0.6956
   31.920    0.5886
   31.935    0.6849
   31.950    0.6314
   31.965    0.5671
   31.980    0.5886
   31.995    0.7277
   32.010    0.7063
   32.025    0.6100
   32.040    0.7063
   32.055    0.6635
   32.070    0.6207
   32.085    0.6207
   32.100    0.6635
   32.115    0.6528
   32.130    0.7277
   32.145    0.6635
   32.160    0.6528
   32.175    0.7705
   32.190    0.8026
   32.205    0.7705
   32.220    0.7491
   32.235    0.7919
   32.250    0.8026
   32.265    0.6421
   32.280    0.6421
   32.295    0.5993
   32.310    0.5778
   32.325    0.6314
   32.340    0.7705
   32.355    0.6956
   32.370    0.6528
   32.385    0.6849
   32.400    0.7063
   32.415    0.7384
   32.430    0.6635
   32.445    0.5886
   32.460    0.6635
   32.475    0.5993
   32.490    0.5886
   32.505    0.6956
   32.520    0.5778
   32.535    0.6207
   32.550    0.6635
   32.565    0.7170
   32.580    0.7491
   32.595    0.6100
   32.610    0.5886
   32.625    0.8026
   32.640    0.7063
   32.655    0.6421
   32.670    0.6100
   32.685    0.8133
   32.700    0.8454
   32.715    0.7063
   32.730    0.7491
   32.745    0.5993
   32.760    0.6100
   32.775    0.6100
   32.790    0.8454
   32.805    0.7170
   32.820    0.8133
   32.835    0.8240
   32.850    0.6956
   32.865    0.7598
   32.880    0.6742
   32.895    0.6849
   32.910    0.8026
   32.925    0.7384
   32.940    0.8026
   32.955    0.7063
   32.970    0.7598
   32.985    0.7384
   33.000    0.8882
   33.015    0.8454
   33.030    0.7491
   33.045    0.8133
   33.060    0.8026
   33.075    0.6849
   33.090    0.8240
   33.105    0.6956
   33.120    0.7063
   33.135    0.6207
   33.150    0.7277
   33.165    0.8240
   33.180    0.8240
   33.195    0.8240
   33.210    0.6849
   33.225    0.6421
   33.240    0.6528
   33.255    0.6207
   33.270    0.6100
   33.285    0.6421
   33.300    0.6207
   33.315    0.6314
   33.330    0.6207
   33.345    0.6742
   33.360    0.6742
   33.375    0.6100
   33.390    0.5993
   33.405    0.6742
   33.420    0.7063
   33.435    0.6528
   33.450    0.6421
   33.465    0.5564
   33.480    0.6207
   33.495    0.5993
   33.510    0.6207
   33.525    0.6849
   33.540    0.6207
   33.555    0.6528
   33.570    0.7277
   33.585    0.7491
   33.600    0.6314
   33.615    0.6314
   33.630    0.6100
   33.645    0.5350
   33.660    0.5350
   33.675    0.5029
   33.690    0.6207
   33.705    0.6956
   33.720    0.7063
   33.735    0.7384
   33.750    0.7063
   33.765    0.6849
   33.780    0.5350
   33.795    0.5350
   33.810    0.5671
   33.825    0.6742
   33.840    0.6956
   33.855    0.6207
   33.870    0.6742
   33.885    0.6742
   33.900    0.7170
   33.915    0.6742
   33.930    0.8240
   33.945    0.7598
   33.960    0.6207
   33.975    0.5243
   33.990    0.4922
   34.005    0.4922
   34.020    0.5778
   34.035    0.5778
   34.050    0.6528
   34.065    0.7491
   34.080    0.8240
   34.095    0.6635
   34.110    0.6742
   34.125    0.6742
   34.140    0.6635
   34.155    0.6849
   34.170    0.6742
   34.185    0.5136
   34.200    0.6849
   34.215    0.6742
   34.230    0.6528
   34.245    0.6314
   34.260    0.7063
   34.275    0.5993
   34.290    0.6528
   34.305    0.6849
   34.320    0.5136
   34.335    0.5350
   34.350    0.5350
   34.365    0.4922
   34.380    0.6421
   34.395    0.5778
   34.410    0.5778
   34.425    0.6635
   34.440    0.6421
   34.455    0.6100
   34.470    0.6635
   34.485    0.5778
   34.500    0.6635
   34.515    0.6207
   34.530    0.6421
   34.545    0.4708
   34.560    0.5350
   34.575    0.6635
   34.590    0.7919
   34.605    0.6956
   34.620    0.6100
   34.635    0.5778
   34.650    0.6956
   34.665    0.6421
   34.680    0.6956
   34.695    0.6207
   34.710    0.7063
   34.725    0.6207
   34.740    0.5778
   34.755    0.5993
   34.770    0.5564
   34.785    0.5993
   34.800    0.6528
   34.815    0.5671
   34.830    0.5993
   34.845    0.5671
   34.860    0.6207
   34.875    0.4922
   34.890    0.5350
   34.905    0.4815
   34.920    0.6635
   34.935    0.6100
   34.950    0.5136
   34.965    0.4815
   34.980    0.4494
   34.995    0.4815
   35.010    0.5457
   35.025    0.4708
   35.040    0.6635
   35.055    0.6742
   35.070    0.7063
   35.085    0.6314
   35.100    0.6314
   35.115    0.5778
   35.130    0.5671
   35.145    0.5564
   35.160    0.4922
   35.175    0.5564
   35.190    0.6528
   35.205    0.6314
   35.220    0.5457
   35.235    0.5778
   35.250    0.5564
   35.265    0.4708
   35.280    0.4922
   35.295    0.6314
   35.310    0.5671
   35.325    0.5993
   35.340    0.6207
   35.355    0.6956
   35.370    0.6849
   35.385    0.6528
   35.400    0.5457
   35.415    0.5564
   35.430    0.6421
   35.445    0.5778
   35.460    0.5778
   35.475    0.5993
   35.490    0.5993
   35.505    0.5671
   35.520    0.5778
   35.535    0.5671
   35.550    0.6956
   35.565    0.5886
   35.580    0.6528
   35.595    0.5564
   35.610    0.5671
   35.625    0.7384
   35.640    0.6742
   35.655    0.5029
   35.670    0.7598
   35.685    0.7491
   35.700    0.6742
   35.715    0.5350
   35.730    0.6207
   35.745    0.5671
   35.760    0.5136
   35.775    0.6314
   35.790    0.5243
   35.805    0.4708
   35.820    0.5993
   35.835    0.5136
   35.850    0.4922
   35.865    0.5993
   35.880    0.5136
   35.895    0.5136
   35.910    0.6207
   35.925    0.5136
   35.940    0.4494
   35.955    0.5243
   35.970    0.5993
   35.985    0.5778
   36.000    0.5457
   36.015    0.5886
   36.030    0.5457
   36.045    0.5457
   36.060    0.3959
   36.075    0.4708
   36.090    0.4922
   36.105    0.4922
   36.120    0.5243
   36.135    0.5350
   36.150    0.4708
   36.165    0.5029
   36.180    0.4708
   36.195    0.4494
   36.210    0.4922
   36.225    0.5350
   36.240    0.5136
   36.255    0.4708
   36.270    0.5457
   36.285    0.5564
   36.300    0.5886
   36.315    0.5564
   36.330    0.6742
   36.345    0.5886
   36.360    0.7063
   36.375    0.7170
   36.390    0.5350
   36.405    0.5564
   36.420    0.4601
   36.435    0.5350
   36.450    0.5886
   36.465    0.4815
   36.480    0.5778
   36.495    0.4601
   36.510    0.5029
   36.525    0.5243
   36.540    0.5671
   36.555    0.5243
   36.570    0.5136
   36.585    0.6635
   36.600    0.6742
   36.615    0.5243
   36.630    0.4280
   36.645    0.5136
   36.660    0.5671
   36.675    0.5886
   36.690    0.7170
   36.705    0.5457
   36.720    0.6207
   36.735    0.6528
   36.750    0.6314
   36.765    0.5350
   36.780    0.5564
   36.795    0.5564
   36.810    0.6635
   36.825    0.5350
   36.840    0.6207
   36.855    0.5136
   36.870    0.5243
   36.885    0.5457
   36.900    0.6207
   36.915    0.4387
   36.930    0.5778
   36.945    0.5243
   36.960    0.5243
   36.975    0.5029
   36.990    0.4601
   37.005    0.5993
   37.020    0.4601
   37.035    0.5671
   37.050    0.6421
   37.065    0.6421
   37.080    0.5350
   37.095    0.5029
   37.110    0.7598
   37.125    0.6956
   37.140    0.6207
   37.155    0.6314
   37.170    0.5778
   37.185    0.5457
   37.200    0.4815
   37.215    0.4066
   37.230    0.5350
   37.245    0.5778
   37.260    0.5243
   37.275    0.5886
   37.290    0.6421
   37.305    0.5029
   37.320    0.5350
   37.335    0.5886
   37.350    0.5671
   37.365    0.6100
   37.380    0.5671
   37.395    0.5778
   37.410    0.5029
   37.425    0.4815
   37.440    0.4494
   37.455    0.4173
   37.470    0.4601
   37.485    0.4922
   37.500    0.5029
   37.515    0.4601
   37.530    0.6421
   37.545    0.4922
   37.560    0.5993
   37.575    0.5993
   37.590    0.4494
   37.605    0.4708
   37.620    0.4815
   37.635    0.6100
   37.650    0.4494
   37.665    0.5350
   37.680    0.5136
   37.695    0.5243
   37.710    0.5778
   37.725    0.4173
   37.740    0.4066
   37.755    0.4494
   37.770    0.5886
   37.785    0.5457
   37.800    0.4066
   37.815    0.4173
   37.830    0.5671
   37.845    0.5350
   37.860    0.5136
   37.875    0.5243
   37.890    0.5029
   37.905    0.4601
   37.920    0.5350
   37.935    0.5350
   37.950    0.4922
   37.965    0.5029
   37.980    0.4708
   37.995    0.4815
   38.010    0.4601
   38.025    0.4922
   38.040    0.4815
   38.055    0.4066
   38.070    0.4601
   38.085    0.4708
   38.100    0.4815
   38.115    0.3745
   38.130    0.4708
   38.145    0.4280
   38.160    0.5136
   38.175    0.5778
   38.190    0.5778
   38.205    0.4066
   38.220    0.5029
   38.235    0.4387
   38.250    0.4815
   38.265    0.6100
   38.280    0.5136
   38.295    0.5029
   38.310    0.4922
   38.325    0.5243
   38.340    0.5564
   38.355    0.5029
   38.370    0.5457
   38.385    0.4815
   38.400    0.5350
   38.415    0.5564
   38.430    0.4387
   38.445    0.4601
   38.460    0.4815
   38.475    0.3959
   38.490    0.4601
   38.505    0.4922
   38.520    0.4494
   38.535    0.3424
   38.550    0.4815
   38.565    0.5243
   38.580    0.5029
   38.595    0.5564
   38.610    0.5457
   38.625    0.3959
   38.640    0.4494
   38.655    0.5029
   38.670    0.4173
   38.685    0.5029
   38.700    0.4708
   38.715    0.4387
   38.730    0.5136
   38.745    0.4494
   38.760    0.4922
   38.775    0.4494
   38.790    0.3852
   38.805    0.4173
   38.820    0.4708
   38.835    0.4387
   38.850    0.4066
   38.865    0.5457
   38.880    0.4922
   38.895    0.3959
   38.910    0.4494
   38.925    0.5350
   38.940    0.5029
   38.955    0.4066
   38.970    0.3959
   38.985    0.4494
   39.000    0.5136
   39.015    0.4922
   39.030    0.4708
   39.045    0.4601
   39.060    0.4066
   39.075    0.4708
   39.090    0.4922
   39.105    0.5136
   39.120    0.4601
   39.135    0.3531
   39.150    0.4173
   39.165    0.4815
   39.180    0.5243
   39.195    0.3531
   39.210    0.4173
   39.225    0.3424
   39.240    0.5029
   39.255    0.5350
   39.270    0.4922
   39.285    0.4173
   39.300    0.3959
   39.315    0.5029
   39.330    0.4066
   39.345    0.4815
   39.360    0.3959
   39.375    0.3317
   39.390    0.4066
   39.405    0.4494
   39.420    0.4708
   39.435    0.4387
   39.450    0.4708
   39.465    0.3959
   39.480    0.5136
   39.495    0.5778
   39.510    0.5778
   39.525    0.3531
   39.540    0.5350
   39.555    0.4494
   39.570    0.5243
   39.585    0.5350
   39.600    0.4922
   39.615    0.4601
   39.630    0.4601
   39.645    0.5350
   39.660    0.5243
   39.675    0.4601
   39.690    0.4494
   39.705    0.3745
   39.720    0.4280
   39.735    0.5243
   39.750    0.3745
   39.765    0.3531
   39.780    0.4815
   39.795    0.4494
   39.810    0.5457
   39.825    0.4494
   39.840    0.4280
   39.855    0.4387
   39.870    0.4494
   39.885    0.4066
   39.900    0.4173
   39.915    0.3852
   39.930    0.3210
   39.945    0.3745
   39.960    0.3531
   39.975    0.3852
   39.990    0.3959
