    1.500   40.2624
    1.515   40.4537
    1.530   40.0711
    1.545   39.9465
    1.560   39.3207
    1.575   38.9960
    1.590   38.6300
    1.605   37.9770
    1.620   37.6198
    1.635   37.2091
    1.650   37.0686
    1.665   36.8124
    1.680   36.2322
    1.695   35.7785
    1.710   35.6723
    1.725   35.3563
    1.740   35.0728
    1.755   34.7543
    1.770   34.4532
    1.785   33.8573
    1.800   33.6589
    1.815   33.2894
    1.830   33.0964
    1.845   33.0867
    1.860   32.6426
    1.875   32.6356
    1.890   31.9668
    1.905   32.0897
    1.920   31.7114
    1.935   31.5254
    1.950   31.2261
    1.965   31.0084
    1.980   30.5468
    1.995   30.2519
    2.010   29.9737
    2.025   30.0649
    2.040   29.6261
    2.055   29.4734
    2.070   29.3453
    2.085   29.2979
    2.100   28.8661
    2.115   28.8661
    2.130   28.6598
    2.145   28.7151
    2.160   28.4711
    2.175   28.2245
    2.190   28.0130
    2.205   27.8217
    2.220   27.7471
    2.235   27.8243
    2.250   27.4522
    2.265   27.2336
    2.280   27.2951
    2.295   27.1783
    2.310   27.1783
    2.325   27.1424
    2.340   27.0265
    2.355   26.8554
    2.370   27.0116
    2.385   26.6965
    2.400   26.6509
    2.415   26.6684
    2.430   26.7974
    2.445   26.4885
    2.460   26.5596
    2.475   26.4244
    2.490   26.5333
    2.505   26.6482
    2.520   26.5333
    2.535   26.3963
    2.550   26.4464
    2.565   26.4824
    2.580   26.7527
    2.595   26.6833
    2.610   26.7369
    2.625   26.8132
    2.640   26.7097
    2.655   26.9484
    2.670   26.8703
    2.685   27.1959
    2.700   27.4469
    2.715   27.4706
    2.730   27.6821
    2.745   27.8322
    2.760   27.7286
    2.775   27.9919
    2.790   28.4351
    2.805   28.5484
    2.820   28.4667
    2.835   28.9012
    2.850   29.0346
    2.865   29.0986
    2.880   29.3655
    2.895   29.8280
    2.910   30.1062
    2.925   30.3318
    2.940   30.6433
    2.955   31.2770
    2.970   31.4701
    2.985   31.9633
    3.000   32.3969
    3.015   32.8919
    3.030   33.4580
    3.045   33.9029
    3.060   34.3005
    3.075   34.7569
    3.090   35.5099
    3.105   36.0646
    3.120   36.4121
    3.135   37.0572
    3.150   37.6689
    3.165   38.5448
    3.180   39.3391
    3.195   39.8719
    3.210   40.9628
    3.225   42.0019
    3.240   42.5039
    3.255   43.4071
    3.270   44.6445
    3.285   45.7381
    3.300   46.7895
    3.315   47.6312
    3.330   49.3988
    3.345   50.2510
    3.360   51.8562
    3.375   53.5694
    3.390   55.3142
    3.405   56.5298
    3.420   58.4904
    3.435   60.2185
    3.450   62.1213
    3.465   64.0670
    3.480   66.5061
    3.495   68.4922
    3.510   70.1764
    3.525   72.5250
    3.540   74.0477
    3.555   76.4859
    3.570   79.0188
    3.585   81.7588
    3.600   84.6358
    3.615   87.8673
    3.630   92.0423
    3.645   96.0321
    3.660  100.0921
    3.675  104.6981
    3.690  109.6314
    3.705  115.2800
    3.720  121.1918
    3.735  128.1490
    3.750  136.0918
    3.765  144.7323
    3.780  154.4892
    3.795  166.5017
    3.810  179.9789
    3.825  196.3156
    3.840  217.7593
    3.855  246.3683
    3.870  285.2922
    3.885  328.1051
    3.900  358.1271
    3.915  361.7790
    3.930  334.5524
    3.945  275.9839
    3.960  188.9767
    3.975  101.3683
    3.990   48.9108
    4.005   29.8060
    4.020   23.1402
    4.035   19.9078
    4.050   18.0490
    4.065   16.7176
    4.080   15.7249
    4.095   15.1237
    4.110   14.4752
    4.125   14.0311
    4.140   13.6502
    4.155   13.3930
    4.170   13.0902
    4.185   12.9094
    4.200   12.5926
    4.215   12.6005
    4.230   12.3881
    4.245   12.1687
    4.260   12.0107
    4.275   11.7702
    4.290   11.8589
    4.305   11.7536
    4.320   11.6465
    4.335   11.6184
    4.350   11.5859
    4.365   11.4209
    4.380   11.2902
    4.395   11.2726
    4.410   11.3718
    4.425   11.2550
    4.440   11.2445
    4.455   11.3349
    4.470   11.2138
    4.485   11.1164
    4.500   11.2182
    4.515   11.2647
    4.530   11.2270
    4.545   11.2164
    4.560   11.3182
    4.575   11.2621
    4.590   11.1857
    4.605   11.5815
    4.620   11.4473
    4.635   11.4753
    4.650   11.3691
    4.665   11.3762
    4.680   11.4279
    4.695   11.5666
    4.710   11.6535
    4.725   11.7299
    4.740   11.8097
    4.755   11.6842
    4.770   11.8510
    4.785   11.9344
    4.800   12.0362
    4.815   12.2055
    4.830   12.2213
    4.845   12.4030
    4.860   12.5136
    4.875   12.7278
    4.890   12.7611
    4.905   12.7453
    4.920   13.1034
    4.935   13.1297
    4.950   13.3860
    4.965   13.7765
    4.980   13.8801
    4.995   14.0767
    5.010   14.4128
    5.025   14.4032
    5.040   14.7823
    5.055   15.0369
    5.070   15.6600
    5.085   15.8399
    5.100   15.9935
    5.115   16.3762
    5.130   16.7465
    5.145   17.3047
    5.160   17.6084
    5.175   18.1727
    5.190   18.4957
    5.205   18.9916
    5.220   19.9210
    5.235   20.6863
    5.250   21.3428
    5.265   22.0800
    5.280   23.0586
    5.295   23.6976
    5.310   24.8289
    5.325   25.8557
    5.340   27.0028
    5.355   28.5650
    5.370   30.3572
    5.385   31.9212
    5.400   33.8169
    5.415   35.9566
    5.430   38.8433
    5.445   42.2591
    5.460   46.3621
    5.475   51.9440
    5.490   59.6068
    5.505   67.5399
    5.520   73.9196
    5.535   76.0207
    5.550   72.1827
    5.565   61.5877
    5.580   45.3010
    5.595   28.8713
    5.610   17.5628
    5.625   12.6479
    5.640   10.8513
    5.655   10.1720
    5.670    9.8359
    5.685    9.5849
    5.700    9.2838
    5.715    9.2303
    5.730    9.1680
    5.745    9.0346
    5.760    8.9073
    5.775    8.9345
    5.790    8.9257
    5.805    8.8301
    5.820    8.7537
    5.835    8.7572
    5.850    8.6835
    5.865    8.7406
    5.880    8.7055
    5.895    8.6967
    5.910    8.6098
    5.925    8.6940
    5.940    8.7458
    5.955    8.5984
    5.970    8.6414
    5.985    8.5343
    6.000    8.6317
    6.015    8.6721
    6.030    8.5817
    6.045    8.5914
    6.060    8.6633
    6.075    8.6668
    6.090    8.6546
    6.105    8.6897
    6.120    8.6107
    6.135    8.6537
    6.150    8.7432
    6.165    8.6984
    6.180    8.8073
    6.195    8.6835
    6.210    8.8529
    6.225    8.8775
    6.240    8.9521
    6.255    8.8573
    6.270    8.9161
    6.285    8.9187
    6.300    9.0284
    6.315    9.0986
    6.330    9.0750
    6.345    9.0381
    6.360    9.3611
    6.375    9.4769
    6.390    9.5278
    6.405    9.5463
    6.420    9.4971
    6.435    9.6779
    6.450   10.0070
    6.465   10.0290
    6.480   10.1159
    6.495   10.3809
    6.510   10.5749
    6.525   10.6767
    6.540   10.7697
    6.555   10.9874
    6.570   11.2357
    6.585   11.5464
    6.600   11.8334
    6.615   12.2916
    6.630   12.6619
    6.645   13.1043
    6.660   13.5352
    6.675   14.2171
    6.690   14.9272
    6.705   15.9400
    6.720   17.2679
    6.735   18.9486
    6.750   20.6029
    6.765   22.3161
    6.780   22.7927
    6.795   22.0432
    6.810   19.7472
    6.825   16.4692
    6.840   13.2263
    6.855   10.3519
    6.870    9.0750
    6.885    8.4825
    6.900    8.4518
    6.915    8.4641
    6.930    8.2579
    6.945    8.2500
    6.960    8.2447
    6.975    8.3281
    6.990    8.4018
    7.005    8.3061
    7.020    8.1411
    7.035    8.1789
    7.050    8.0648
    7.065    8.0226
    7.080    8.1332
    7.095    7.9559
    7.110    7.9805
    7.125    7.9314
    7.140    7.9173
    7.155    7.9472
    7.170    7.9744
    7.185    8.0139
    7.200    8.0534
    7.215    8.1754
    7.230    8.0885
    7.245    8.0490
    7.260    8.1894
    7.275    8.1833
    7.290    8.0788
    7.305    8.2473
    7.320    8.4229
    7.335    8.3079
    7.350    8.3114
    7.365    8.3483
    7.380    8.4852
    7.395    8.6186
    7.410    8.6177
    7.425    8.7335
    7.440    8.8827
    7.455    8.8705
    7.470    8.9442
    7.485    9.0486
    7.500    9.3277
    7.515    9.4690
    7.530    9.4216
    7.545    9.6647
    7.560    9.8903
    7.575   10.0851
    7.590   10.4002
    7.605   10.4845
    7.620   10.8241
    7.635   11.0760
    7.650   11.4236
    7.665   11.8167
    7.680   12.2134
    7.695   12.6435
    7.710   13.2184
    7.725   13.9038
    7.740   14.8289
    7.755   15.8864
    7.770   17.3837
    7.785   19.0793
    7.800   21.1927
    7.815   22.8252
    7.830   23.3790
    7.845   22.8366
    7.860   20.4889
    7.875   17.0800
    7.890   13.3289
    7.905   10.3440
    7.920    8.7493
    7.935    8.0621
    7.950    7.8752
    7.965    7.7567
    7.980    7.8331
    7.995    7.8647
    8.010    7.6259
    8.025    7.6075
    8.040    7.6610
    8.055    7.5206
    8.070    7.5917
    8.085    7.5470
    8.100    7.5118
    8.115    7.5110
    8.130    7.4671
    8.145    7.5320
    8.160    7.4697
    8.175    7.3223
    8.190    7.3723
    8.205    7.3714
    8.220    7.4381
    8.235    7.4250
    8.250    7.3583
    8.265    7.4961
    8.280    7.3934
    8.295    7.4127
    8.310    7.3363
    8.325    7.3188
    8.340    7.4092
    8.355    7.4346
    8.370    7.4829
    8.385    7.4592
    8.400    7.4408
    8.415    7.4162
    8.430    7.3583
    8.445    7.4451
    8.460    7.4715
    8.475    7.4697
    8.490    7.4969
    8.505    7.4171
    8.520    7.5803
    8.535    7.5847
    8.550    7.5821
    8.565    7.5355
    8.580    7.6066
    8.595    7.6619
    8.610    7.6461
    8.625    7.6312
    8.640    7.6847
    8.655    7.7883
    8.670    7.8699
    8.685    8.0613
    8.700    8.1780
    8.715    8.3974
    8.730    8.6300
    8.745    8.7362
    8.760    8.8055
    8.775    8.7248
    8.790    8.4150
    8.805    7.9902
    8.820    7.7585
    8.835    7.5505
    8.850    7.4803
    8.865    7.2951
    8.880    7.2845
    8.895    7.3082
    8.910    7.2661
    8.925    7.4250
    8.940    7.3978
    8.955    7.3433
    8.970    7.4451
    8.985    7.4583
    9.000    7.3855
    9.015    7.4487
    9.030    7.6022
    9.045    7.6900
    9.060    7.7567
    9.075    7.8225
    9.090    7.9331
    9.105    7.9208
    9.120    8.0147
    9.135    8.1104
    9.150    8.2956
    9.165    8.4229
    9.180    8.6151
    9.195    8.6563
    9.210    8.7116
    9.225    9.0714
    9.240    9.3444
    9.255    9.3971
    9.270    9.5480
    9.285    9.8411
    9.300   10.1694
    9.315   10.5757
    9.330   10.9461
    9.345   11.3727
    9.360   11.8317
    9.375   12.3863
    9.390   12.8910
    9.405   13.7204
    9.420   14.3584
    9.435   15.0509
    9.450   16.0593
    9.465   17.1783
    9.480   18.6633
    9.495   20.1395
    9.510   22.3556
    9.525   24.8289
    9.540   28.4746
    9.555   32.4811
    9.570   36.6237
    9.585   39.6507
    9.600   40.1624
    9.615   37.8094
    9.630   32.2722
    9.645   24.8148
    9.660   17.5592
    9.675   12.1652
    9.690    9.3418
    9.705    8.3737
    9.720    7.8910
    9.735    7.7067
    9.750    7.4487
    9.765    7.3082
    9.780    7.3425
    9.795    7.3802
    9.810    7.2389
    9.825    7.1704
    9.840    7.1810
    9.855    7.4021
    9.870    7.3705
    9.885    7.3188
    9.900    7.2679
    9.915    7.3275
    9.930    7.3249
    9.945    7.2977
    9.960    7.4566
    9.975    7.5777
    9.990    7.4320
   10.005    7.5145
   10.020    7.5979
   10.035    7.8919
   10.050    7.8471
   10.065    7.8629
   10.080    7.9489
   10.095    8.0595
   10.110    8.2052
   10.125    8.2113
   10.140    8.2772
   10.155    8.6651
   10.170    8.8801
   10.185    9.1469
   10.200    9.4339
   10.215    9.6454
   10.230   10.1343
   10.245   10.5345
   10.260   10.9452
   10.275   11.5140
   10.290   12.3407
   10.305   13.3667
   10.320   14.8350
   10.335   16.2173
   10.350   17.3188
   10.365   17.7216
   10.380   17.0888
   10.395   15.9356
   10.410   13.8248
   10.425   11.5025
   10.440    9.4155
   10.455    8.0569
   10.470    7.5671
   10.485    7.3433
   10.500    7.2073
   10.515    7.0941
   10.530    7.0414
   10.545    7.0388
   10.560    7.0247
   10.575    7.0186
   10.590    7.0300
   10.605    6.9484
   10.620    6.9923
   10.635    7.0037
   10.650    7.0792
   10.665    7.0888
   10.680    7.0458
   10.695    7.1818
   10.710    7.2055
   10.725    7.1617
   10.740    7.4214
   10.755    7.4311
   10.770    7.5083
   10.785    7.4232
   10.800    7.6022
   10.815    7.8655
   10.830    7.8682
   10.845    7.9586
   10.860    8.1490
   10.875    8.3447
   10.890    8.4588
   10.905    8.6554
   10.920    8.8397
   10.935    9.2127
   10.950    9.5577
   10.965   10.0685
   10.980   10.6977
   10.995   11.1524
   11.010   11.8887
   11.025   12.9533
   11.040   14.1417
   11.055   15.3554
   11.070   16.3042
   11.085   16.5859
   11.100   15.9979
   11.115   14.8218
   11.130   12.8892
   11.145   10.6942
   11.160    9.0635
   11.175    7.8875
   11.190    7.3381
   11.205    7.0256
   11.220    6.9282
   11.235    6.8957
   11.250    6.8870
   11.265    6.9809
   11.280    6.9414
   11.295    7.0160
   11.310    6.9835
   11.325    6.9071
   11.340    6.9958
   11.355    7.0669
   11.370    7.0397
   11.385    7.0151
   11.400    7.0405
   11.415    7.1467
   11.430    7.2942
   11.445    7.2503
   11.460    7.3442
   11.475    7.6672
   11.490    7.7751
   11.505    7.8454
   11.520    7.8980
   11.535    7.9928
   11.550    8.1920
   11.565    8.2807
   11.580    8.6001
   11.595    8.9907
   11.610    9.3207
   11.625    9.6630
   11.640   10.2027
   11.655   10.7048
   11.670   11.4446
   11.685   12.3293
   11.700   13.5133
   11.715   14.7183
   11.730   16.1348
   11.745   17.1915
   11.760   17.5873
   11.775   17.2099
   11.790   15.5880
   11.805   13.4316
   11.820   11.2919
   11.835    9.1057
   11.850    7.8629
   11.865    7.2573
   11.880    7.0748
   11.895    6.8176
   11.910    6.7457
   11.925    6.6632
   11.940    6.5815
   11.955    6.6553
   11.970    6.6342
   11.985    6.7167
   12.000    6.5886
   12.015    6.7228
   12.030    6.6684
   12.045    6.7123
   12.060    6.6272
   12.075    6.4964
   12.090    6.5245
   12.105    6.5701
   12.120    6.7316
   12.135    6.6123
   12.150    6.7737
   12.165    6.7386
   12.180    6.7193
   12.195    6.8440
   12.210    6.9423
   12.225    6.9282
   12.240    6.9853
   12.255    6.8782
   12.270    6.9861
   12.285    7.1099
   12.300    7.2161
   12.315    7.2152
   12.330    7.3258
   12.345    7.6391
   12.360    7.9235
   12.375    8.1359
   12.390    8.1543
   12.405    8.2034
   12.420    8.0191
   12.435    7.9015
   12.450    7.4539
   12.465    7.0458
   12.480    6.8238
   12.495    6.6412
   12.510    6.6605
   12.525    6.5649
   12.540    6.5859
   12.555    6.5657
   12.570    6.5754
   12.585    6.5578
   12.600    6.6061
   12.615    6.6561
   12.630    6.6517
   12.645    6.6912
   12.660    6.7378
   12.675    6.7650
   12.690    6.8159
   12.705    6.8606
   12.720    6.9642
   12.735    7.1222
   12.750    7.0853
   12.765    7.2108
   12.780    7.1748
   12.795    7.4127
   12.810    7.6101
   12.825    7.7830
   12.840    7.8489
   12.855    8.0762
   12.870    8.3570
   12.885    8.7002
   12.900    9.1065
   12.915    9.6235
   12.930   10.1062
   12.945   10.9057
   12.960   11.7957
   12.975   12.7980
   12.990   13.4694
   13.005   13.7871
   13.020   13.5993
   13.035   12.6812
   13.050   11.3419
   13.065    9.8289
   13.080    8.5861
   13.095    7.3802
   13.110    6.9642
   13.125    6.7966
   13.140    6.6912
   13.155    6.7176
   13.170    6.5561
   13.185    6.4832
   13.200    6.5886
   13.215    6.5517
   13.230    6.4938
   13.245    6.6746
   13.260    6.5912
   13.275    6.5613
   13.290    6.6412
   13.305    6.6737
   13.320    6.6965
   13.335    6.7527
   13.350    6.8808
   13.365    6.8852
   13.380    6.9124
   13.395    7.0730
   13.410    7.0704
   13.425    7.1959
   13.440    7.3284
   13.455    7.6049
   13.470    7.7357
   13.485    7.9647
   13.500    8.1464
   13.515    8.5255
   13.530    8.9837
   13.545    9.4681
   13.560   10.0509
   13.575   10.2887
   13.590   10.5889
   13.605   10.2677
   13.620    9.7376
   13.635    8.9670
   13.650    8.0929
   13.665    7.4548
   13.680    6.9423
   13.695    6.7579
   13.710    6.6588
   13.725    6.5333
   13.740    6.5122
   13.755    6.5561
   13.770    6.6667
   13.785    6.5710
   13.800    6.5192
   13.815    6.5780
   13.830    6.6149
   13.845    6.7483
   13.860    6.6737
   13.875    6.7202
   13.890    6.7720
   13.905    6.8343
   13.920    7.0607
   13.935    7.1906
   13.950    7.1871
   13.965    7.3319
   13.980    7.4302
   13.995    7.6453
   14.010    7.9507
   14.025    8.2701
   14.040    8.5721
   14.055    8.9451
   14.070    9.4594
   14.085   10.2264
   14.100   10.9408
   14.115   11.7904
   14.130   12.3319
   14.145   12.4057
   14.160   12.1362
   14.175   11.4631
   14.190   10.3704
   14.205    9.0205
   14.220    8.0139
   14.235    7.3635
   14.250    6.8887
   14.265    6.4867
   14.280    6.5552
   14.295    6.5938
   14.310    6.4788
   14.325    6.4200
   14.340    6.3876
   14.355    6.3437
   14.370    6.3612
   14.385    6.4262
   14.400    6.4297
   14.415    6.4683
   14.430    6.1962
   14.445    6.1971
   14.460    6.3411
   14.475    6.4165
   14.490    6.3174
   14.505    6.3428
   14.520    6.3007
   14.535    6.3674
   14.550    6.3542
   14.565    6.3533
   14.580    6.3156
   14.595    6.4279
   14.610    6.2524
   14.625    6.3630
   14.640    6.3437
   14.655    6.3832
   14.670    6.3841
   14.685    6.3182
   14.700    6.3261
   14.715    6.3191
   14.730    6.3235
   14.745    6.2603
   14.760    6.4121
   14.775    6.3200
   14.790    6.3419
   14.805    6.2717
   14.820    6.3358
   14.835    6.4113
   14.850    6.3999
   14.865    6.3332
   14.880    6.3691
   14.895    6.4631
   14.910    6.3367
   14.925    6.5043
   14.940    6.4867
   14.955    6.5122
   14.970    6.4701
   14.985    6.4385
   15.000    6.4709
   15.015    6.4709
   15.030    6.6737
   15.045    6.6412
   15.060    6.6202
   15.075    6.6781
   15.090    6.7878
   15.105    6.9396
   15.120    7.0994
   15.135    7.2433
   15.150    7.4592
   15.165    7.4653
   15.180    7.7541
   15.195    7.8480
   15.210    7.6409
   15.225    7.7506
   15.240    7.4653
   15.255    7.0818
   15.270    6.7983
   15.285    6.5666
   15.300    6.4244
   15.315    6.4165
   15.330    6.4806
   15.345    6.3051
   15.360    6.2410
   15.375    6.3358
   15.390    6.3963
   15.405    6.2814
   15.420    6.2805
   15.435    6.2805
   15.450    6.3867
   15.465    6.3498
   15.480    6.3130
   15.495    6.3999
   15.510    6.3586
   15.525    6.2770
   15.540    6.3182
   15.555    6.3577
   15.570    6.4016
   15.585    6.2937
   15.600    6.3981
   15.615    6.3095
   15.630    6.3481
   15.645    6.3814
   15.660    6.3411
   15.675    6.2559
   15.690    6.2866
   15.705    6.2533
   15.720    6.3490
   15.735    6.3762
   15.750    6.3279
   15.765    6.3060
   15.780    6.3744
   15.795    6.3402
   15.810    6.3393
   15.825    6.3753
   15.840    6.4007
   15.855    6.3884
   15.870    6.2893
   15.885    6.3261
   15.900    6.3542
   15.915    6.3999
   15.930    6.3560
   15.945    6.5122
   15.960    6.4508
   15.975    6.5570
   15.990    6.6035
   16.005    6.4762
   16.020    6.6790
   16.035    6.7211
   16.050    6.6588
   16.065    6.5938
   16.080    6.7922
   16.095    6.9229
   16.110    7.0432
   16.125    7.3635
   16.140    7.5540
   16.155    7.7242
   16.170    7.8383
   16.185    7.8822
   16.200    7.8699
   16.215    7.8067
   16.230    7.4820
   16.245    7.3012
   16.260    7.0695
   16.275    6.7720
   16.290    6.5420
   16.305    6.3884
   16.320    6.6096
   16.335    6.3981
   16.350    6.4130
   16.365    6.4683
   16.380    6.3884
   16.395    6.5385
   16.410    6.5385
   16.425    6.5429
   16.440    6.4973
   16.455    6.5008
   16.470    6.5587
   16.485    6.7141
   16.500    6.6737
   16.515    6.6754
   16.530    6.6904
   16.545    6.8167
   16.560    7.0028
   16.575    7.1520
   16.590    7.4381
   16.605    7.5856
   16.620    7.8445
   16.635    8.0586
   16.650    8.1455
   16.665    8.2631
   16.680    8.1789
   16.695    7.8217
   16.710    7.6110
   16.725    7.3021
   16.740    7.0362
   16.755    6.7922
   16.770    6.5552
   16.785    6.6245
   16.800    6.4376
   16.815    6.5412
   16.830    6.6877
   16.845    6.5745
   16.860    6.7667
   16.875    6.6403
   16.890    6.7720
   16.905    6.8799
   16.920    7.0028
   16.935    7.0906
   16.950    7.2529
   16.965    7.3837
   16.980    7.5768
   16.995    7.6286
   17.010    8.0753
   17.025    8.4817
   17.040    9.0556
   17.055    9.6244
   17.070   10.3282
   17.085   10.9303
   17.100   11.4780
   17.115   11.8159
   17.130   11.7860
   17.145   11.2235
   17.160   10.5204
   17.175    9.6639
   17.190    8.6335
   17.205    7.8067
   17.220    7.1722
   17.235    6.8159
   17.250    6.6667
   17.265    6.4701
   17.280    6.4938
   17.295    6.6026
   17.310    6.5368
   17.325    6.5166
   17.340    6.5192
   17.355    6.4929
   17.370    6.5657
   17.385    6.4780
   17.400    6.4815
   17.415    6.5201
   17.430    6.5543
   17.445    6.6412
   17.460    6.7694
   17.475    6.7378
   17.490    6.8887
   17.505    7.0581
   17.520    7.1687
   17.535    7.2749
   17.550    7.3662
   17.565    7.4680
   17.580    7.6365
   17.595    7.4021
   17.610    7.1704
   17.625    7.0449
   17.640    6.8984
   17.655    6.7176
   17.670    6.4499
   17.685    6.4709
   17.700    6.5429
   17.715    6.5236
   17.730    6.5306
   17.745    6.4350
   17.760    6.4165
   17.775    6.5025
   17.790    6.5921
   17.805    6.4982
   17.820    6.4859
   17.835    6.5254
   17.850    6.6675
   17.865    6.6754
   17.880    6.6456
   17.895    6.7176
   17.910    6.8685
   17.925    6.8431
   17.940    7.0458
   17.955    7.1204
   17.970    7.2916
   17.985    7.4548
   18.000    7.5048
   18.015    7.4925
   18.030    7.4241
   18.045    7.2722
   18.060    7.0686
   18.075    6.8580
   18.090    6.7939
   18.105    6.6842
   18.120    6.6395
   18.135    6.5227
   18.150    6.4674
   18.165    6.5315
   18.180    6.5175
   18.195    6.5175
   18.210    6.5929
   18.225    6.5183
   18.240    6.4587
   18.255    6.4394
   18.270    6.6359
   18.285    6.8290
   18.300    6.8598
   18.315    6.7720
   18.330    6.8554
   18.345    7.0283
   18.360    7.1081
   18.375    7.3425
   18.390    7.5821
   18.405    7.7286
   18.420    7.9709
   18.435    7.8550
   18.450    7.8515
   18.465    7.7953
   18.480    7.5294
   18.495    7.0028
   18.510    6.8808
   18.525    6.8922
   18.540    6.5613
   18.555    6.5824
   18.570    6.4788
   18.585    6.5175
   18.600    6.5666
   18.615    6.5640
   18.630    6.4990
   18.645    6.4938
   18.660    6.4622
   18.675    6.5096
   18.690    6.5973
   18.705    6.6359
   18.720    6.4903
   18.735    6.5008
   18.750    6.5763
   18.765    6.6447
   18.780    6.6649
   18.795    6.7939
   18.810    6.8773
   18.825    6.9308
   18.840    6.8905
   18.855    7.0318
   18.870    6.9598
   18.885    6.9054
   18.900    6.7694
   18.915    6.6939
   18.930    6.5771
   18.945    6.5947
   18.960    6.6544
   18.975    6.5692
   18.990    6.4955
   19.005    6.7483
   19.020    6.6605
   19.035    6.5131
   19.050    6.5745
   19.065    6.6210
   19.080    6.5438
   19.095    6.5596
   19.110    6.4613
   19.125    6.5780
   19.140    6.5929
   19.155    6.5701
   19.170    6.5377
   19.185    6.4042
   19.200    6.5526
   19.215    6.6166
   19.230    6.5631
   19.245    6.7105
   19.260    6.6956
   19.275    6.7167
   19.290    6.7123
   19.305    6.6675
   19.320    6.5903
   19.335    6.6079
   19.350    6.5815
   19.365    6.3507
   19.380    6.4095
   19.395    6.5587
   19.410    6.4622
   19.425    6.5613
   19.440    6.5991
   19.455    6.6079
   19.470    6.6596
   19.485    6.7483
   19.500    6.6596
   19.515    6.7878
   19.530    6.9177
   19.545    6.9317
   19.560    6.9967
   19.575    7.1582
   19.590    7.4057
   19.605    7.4846
   19.620    7.7787
   19.635    8.0367
   19.650    8.1727
   19.665    8.2034
   19.680    8.2570
   19.695    7.8313
   19.710    7.6839
   19.725    7.3626
   19.740    7.1959
   19.755    6.9194
   19.770    6.7667
   19.785    6.6026
   19.800    6.4806
   19.815    6.5280
   19.830    6.4815
   19.845    6.4446
   19.860    6.4973
   19.875    6.4911
   19.890    6.5201
   19.905    6.5122
   19.920    6.5438
   19.935    6.4560
   19.950    6.3920
   19.965    6.4806
   19.980    6.5640
   19.995    6.4911
   20.010    6.7632
   20.025    6.6272
   20.040    6.7527
   20.055    6.7764
   20.070    6.8071
   20.085    6.8088
   20.100    6.5771
   20.115    6.6202
   20.130    6.4955
   20.145    6.5859
   20.160    6.5771
   20.175    6.6798
   20.190    6.5921
   20.205    6.6482
   20.220    6.7448
   20.235    6.9054
   20.250    6.9063
   20.265    7.1397
   20.280    7.2126
   20.295    7.2442
   20.310    7.3390
   20.325    7.6953
   20.340    8.0262
   20.355    8.4975
   20.370    8.8441
   20.385    9.3154
   20.400    9.7683
   20.415   10.2861
   20.430   10.6512
   20.445   10.6881
   20.460   10.3651
   20.475    9.9702
   20.490    9.4295
   20.505    8.8275
   20.520    8.1982
   20.535    7.6295
   20.550    7.1388
   20.565    6.8387
   20.580    6.6842
   20.595    6.6491
   20.610    6.5684
   20.625    6.6316
   20.640    6.6131
   20.655    6.6351
   20.670    6.4508
   20.685    6.5464
   20.700    6.5991
   20.715    6.6263
   20.730    6.5438
   20.745    6.6245
   20.760    6.5807
   20.775    6.6017
   20.790    6.5771
   20.805    6.6210
   20.820    6.6245
   20.835    6.5271
   20.850    6.5842
   20.865    6.6149
   20.880    6.5850
   20.895    6.6219
   20.910    6.6368
   20.925    6.5508
   20.940    6.4631
   20.955    6.5912
   20.970    6.5324
   20.985    6.5552
   21.000    6.5692
   21.015    6.5868
   21.030    6.4946
   21.045    6.5148
   21.060    6.5183
   21.075    6.5429
   21.090    6.4797
   21.105    6.5183
   21.120    6.4920
   21.135    6.4990
   21.150    6.6272
   21.165    6.6711
   21.180    6.6368
   21.195    6.6131
   21.210    6.6474
   21.225    6.6175
   21.240    6.5166
   21.255    6.4613
   21.270    6.5482
   21.285    6.5771
   21.300    6.5482
   21.315    6.4990
   21.330    6.5227
   21.345    6.5491
   21.360    6.6123
   21.375    6.4964
   21.390    6.5324
   21.405    6.5219
   21.420    6.5701
   21.435    6.5912
   21.450    6.6087
   21.465    6.5201
   21.480    6.4674
   21.495    6.5570
   21.510    6.5025
   21.525    6.5464
   21.540    6.6509
   21.555    6.4955
   21.570    6.4402
   21.585    6.6509
   21.600    6.6632
   21.615    6.6272
   21.630    6.5982
   21.645    6.6737
   21.660    6.6509
   21.675    6.6658
   21.690    6.6658
   21.705    6.6860
   21.720    6.7430
   21.735    6.7360
   21.750    6.7369
   21.765    6.8167
   21.780    6.8861
   21.795    6.9633
   21.810    7.0686
   21.825    7.2187
   21.840    7.3460
   21.855    7.5118
   21.870    7.6295
   21.885    7.8436
   21.900    8.0648
   21.915    8.0472
   21.930    8.1481
   21.945    8.0604
   21.960    8.0025
   21.975    7.7576
   21.990    7.4750
   22.005    7.0660
   22.020    6.9756
   22.035    6.9765
   22.050    6.9107
   22.065    6.7895
   22.080    6.7720
   22.095    6.7694
   22.110    6.8799
   22.125    6.8413
   22.140    6.8940
   22.155    6.9537
   22.170    6.9782
   22.185    7.1055
   22.200    7.2714
   22.215    7.3890
   22.230    7.5575
   22.245    7.6847
   22.260    7.7523
   22.275    7.7435
   22.290    7.6944
   22.305    7.6374
   22.320    7.6259
   22.335    7.4495
   22.350    7.3311
   22.365    7.2898
   22.380    6.9730
   22.395    6.9273
   22.410    6.9721
   22.425    7.1169
   22.440    7.1564
   22.455    7.1424
   22.470    7.3065
   22.485    7.4443
   22.500    7.6347
   22.515    7.9463
   22.530    8.3017
   22.545    8.8924
   22.560    9.2742
   22.575    9.9184
   22.590   10.4722
   22.605   10.9452
   22.620   11.1620
   22.635   11.1532
   22.650   10.7952
   22.665   10.4748
   22.680    9.9035
   22.695    9.3619
   22.710    8.6607
   22.725    8.1376
   22.740    7.6821
   22.755    7.2714
   22.770    7.2152
   22.785    7.2117
   22.800    7.2661
   22.815    7.3714
   22.830    7.6005
   22.845    7.8129
   22.860    8.2096
   22.875    8.5115
   22.890    9.0662
   22.905    9.5664
   22.920   10.1071
   22.935   10.5292
   22.950   10.9347
   22.965   11.2392
   22.980   11.3876
   22.995   11.0909
   23.010   10.7091
   23.025   10.0623
   23.040    9.3497
   23.055    8.6704
   23.070    8.0402
   23.085    7.4100
   23.100    7.1766
   23.115    7.0915
   23.130    6.9914
   23.145    6.9537
   23.160    6.9300
   23.175    6.8712
   23.190    6.9370
   23.205    7.0994
   23.220    7.2486
   23.235    7.3969
   23.250    7.5364
   23.265    7.7444
   23.280    7.9902
   23.295    8.0341
   23.310    7.9542
   23.325    8.0630
   23.340    8.0314
   23.355    7.8234
   23.370    7.5742
   23.385    7.2819
   23.400    6.9940
   23.415    6.9879
   23.430    6.9247
   23.445    6.7369
   23.460    6.6491
   23.475    6.6114
   23.490    6.6649
   23.505    6.7018
   23.520    6.6087
   23.535    6.6596
   23.550    6.6280
   23.565    6.7676
   23.580    6.7518
   23.595    6.7369
   23.610    6.6833
   23.625    6.7755
   23.640    6.8440
   23.655    6.8896
   23.670    6.9519
   23.685    6.7202
   23.700    6.7413
   23.715    6.7711
   23.730    6.7413
   23.745    6.7378
   23.760    6.5394
   23.775    6.6193
   23.790    6.5771
   23.805    6.6447
   23.820    6.7114
   23.835    6.7176
   23.850    6.8422
   23.865    6.9291
   23.880    7.0958
   23.895    7.1731
   23.910    7.3609
   23.925    7.5461
   23.940    7.6540
   23.955    7.8164
   23.970    7.8849
   23.985    7.9024
   24.000    7.7620
   24.015    7.7418
   24.030    7.6224
   24.045    7.3741
   24.060    7.2503
   24.075    6.9967
   24.090    6.7606
   24.105    6.6842
   24.120    6.5833
   24.135    6.5236
   24.150    6.6087
   24.165    6.5254
   24.180    6.6535
   24.195    6.6052
   24.210    6.5333
   24.225    6.6368
   24.240    6.6561
   24.255    6.6210
   24.270    6.6693
   24.285    6.5710
   24.300    6.5341
   24.315    6.6210
   24.330    6.7149
   24.345    6.6517
   24.360    6.6491
   24.375    6.5359
   24.390    6.4797
   24.405    6.4367
   24.420    6.4543
   24.435    6.5113
   24.450    6.5043
   24.465    6.4911
   24.480    6.5298
   24.495    6.4876
   24.510    6.5517
   24.525    6.6719
   24.540    6.5833
   24.555    6.7009
   24.570    6.7702
   24.585    6.6772
   24.600    6.8966
   24.615    6.9651
   24.630    6.8931
   24.645    6.8913
   24.660    6.9458
   24.675    6.8878
   24.690    6.7184
   24.705    6.6079
   24.720    6.5113
   24.735    6.5886
   24.750    6.5140
   24.765    6.4648
   24.780    6.4236
   24.795    6.4306
   24.810    6.5341
   24.825    6.4867
   24.840    6.4306
   24.855    6.5166
   24.870    6.5210
   24.885    6.4876
   24.900    6.6798
   24.915    6.5455
   24.930    6.6816
   24.945    6.7158
   24.960    6.6535
   24.975    6.7123
   24.990    6.7351
   25.005    6.7228
   25.020    6.5324
   25.035    6.5605
   25.050    6.5087
   25.065    6.5087
   25.080    6.4894
   25.095    6.4815
   25.110    6.4946
   25.125    6.5912
   25.140    6.6114
   25.155    6.5201
   25.170    6.7369
   25.185    6.7439
   25.200    6.9405
   25.215    6.9001
   25.230    6.9598
   25.245    7.0291
   25.260    7.0484
   25.275    7.1845
   25.290    7.0800
   25.305    6.9177
   25.320    6.9273
   25.335    6.8545
   25.350    6.7105
   25.365    6.5491
   25.380    6.5262
   25.395    6.5008
   25.410    6.4288
   25.425    6.5341
   25.440    6.5219
   25.455    6.6333
   25.470    6.6693
   25.485    6.7114
   25.500    6.6614
   25.515    6.7816
   25.530    6.8211
   25.545    6.9835
   25.560    6.8984
   25.575    6.9159
   25.590    6.9668
   25.605    6.9370
   25.620    6.9528
   25.635    6.7676
   25.650    6.6807
   25.665    6.6842
   25.680    6.6798
   25.695    6.7430
   25.710    6.6640
   25.725    6.7597
   25.740    7.0002
   25.755    7.2020
   25.770    7.4162
   25.785    7.7392
   25.800    8.0420
   25.815    8.4922
   25.830    8.9740
   25.845    9.1531
   25.860    9.5138
   25.875    9.5735
   25.890    9.5901
   25.905    9.5761
   25.920    9.3268
   25.935    8.9652
   25.950    8.4896
   25.965    8.0262
   25.980    7.5522
   25.995    7.1704
   26.010    6.8150
   26.025    6.5965
   26.040    6.5780
   26.055    6.4666
   26.070    6.4244
   26.085    6.4499
   26.100    6.4587
   26.115    6.6149
   26.130    6.6052
   26.145    6.5561
   26.160    6.6298
   26.175    6.5447
   26.190    6.5719
   26.205    6.4666
   26.220    6.6149
   26.235    6.5385
   26.250    6.5306
   26.265    6.5140
   26.280    6.5254
   26.295    6.4701
   26.310    6.3147
   26.325    6.3709
   26.340    6.4279
   26.355    6.4806
   26.370    6.5464
   26.385    6.7378
   26.400    6.8887
   26.415    7.0133
   26.430    7.1301
   26.445    7.3591
   26.460    7.2731
   26.475    7.2591
   26.490    7.4434
   26.505    7.3723
   26.520    7.2363
   26.535    7.2880
   26.550    7.1108
   26.565    6.9098
   26.580    6.7852
   26.595    6.6754
   26.610    6.5543
   26.625    6.4745
   26.640    6.3533
   26.655    6.2945
   26.670    6.2138
   26.685    6.2577
   26.700    6.3086
   26.715    6.2419
   26.730    6.2419
   26.745    6.2787
   26.760    6.2033
   26.775    6.2542
   26.790    6.3463
   26.805    6.1998
   26.820    6.3314
   26.835    6.2612
   26.850    6.1840
   26.865    6.3375
   26.880    6.3103
   26.895    6.3305
   26.910    6.3375
   26.925    6.3683
   26.940    6.3867
   26.955    6.6096
   26.970    6.6833
   26.985    6.7562
   27.000    6.8589
   27.015    7.0713
   27.030    7.3012
   27.045    7.5013
   27.060    7.5478
   27.075    7.6970
   27.090    7.6110
   27.105    7.6900
   27.120    7.4601
   27.135    7.2907
   27.150    7.2108
   27.165    6.9659
   27.180    6.6948
   27.195    6.5929
   27.210    6.4218
   27.225    6.3770
   27.240    6.3086
   27.255    6.1875
   27.270    6.1067
   27.285    6.1769
   27.300    6.3481
   27.315    6.3165
   27.330    6.3288
   27.345    6.2322
   27.360    6.2085
   27.375    6.1032
   27.390    6.0181
   27.405    6.2103
   27.420    6.2454
   27.435    6.2006
   27.450    6.3121
   27.465    6.2375
   27.480    6.2498
   27.495    6.2445
   27.510    6.2120
   27.525    6.3226
   27.540    6.2313
   27.555    6.4218
   27.570    6.4894
   27.585    6.5526
   27.600    6.7966
   27.615    6.8501
   27.630    6.8791
   27.645    6.9703
   27.660    7.1582
   27.675    7.0809
   27.690    6.9668
   27.705    6.9800
   27.720    6.9686
   27.735    6.7799
   27.750    6.7281
   27.765    6.6061
   27.780    6.3937
   27.795    6.2823
   27.810    6.3288
   27.825    6.2129
   27.840    6.2454
   27.855    6.3481
   27.870    6.3709
   27.885    6.5921
   27.900    6.5666
   27.915    6.5973
   27.930    6.7650
   27.945    6.6939
   27.960    6.6842
   27.975    6.6684
   27.990    6.6737
   28.005    6.6517
   28.020    6.8352
   28.035    6.7465
   28.050    6.5728
   28.065    6.6008
   28.080    6.5921
   28.095    6.5745
   28.110    6.4762
   28.125    6.6368
   28.140    6.7149
   28.155    6.9545
   28.170    7.0634
   28.185    7.2284
   28.200    7.4100
   28.215    7.5549
   28.230    7.5908
   28.245    7.5592
   28.260    7.4487
   28.275    7.5057
   28.290    7.3846
   28.305    7.0678
   28.320    6.9484
   28.335    6.7948
   28.350    6.6754
   28.365    6.6079
   28.380    6.5561
   28.395    6.5359
   28.410    6.5122
   28.425    6.7667
   28.440    7.0388
   28.455    7.0906
   28.470    7.1072
   28.485    7.2880
   28.500    7.2407
   28.515    7.2758
   28.530    7.3346
   28.545    7.3328
   28.560    7.1520
   28.575    6.9949
   28.590    6.8457
   28.605    6.7755
   28.620    6.6228
   28.635    6.4701
   28.650    6.3419
   28.665    6.2164
   28.680    6.2252
   28.695    6.1980
   28.710    6.2033
   28.725    6.1541
   28.740    6.2823
   28.755    6.2744
   28.770    6.2638
   28.785    6.2682
   28.800    6.2761
   28.815    6.3270
   28.830    6.2410
   28.845    6.2050
   28.860    6.1594
   28.875    6.1840
   28.890    6.1787
   28.905    6.1058
   28.920    6.1480
   28.935    6.0944
   28.950    6.0541
   28.965    6.1831
   28.980    6.3525
   28.995    6.2498
   29.010    6.3551
   29.025    6.4420
   29.040    6.3762
   29.055    6.3332
   29.070    6.3033
   29.085    6.3033
   29.100    6.4104
   29.115    6.1954
   29.130    6.2577
   29.145    6.2542
   29.160    6.3446
   29.175    6.2033
   29.190    6.3349
   29.205    6.2507
   29.220    6.2401
   29.235    6.3972
   29.250    6.5289
   29.265    6.5333
   29.280    6.7149
   29.295    6.9150
   29.310    6.9572
   29.325    7.0169
   29.340    7.0528
   29.355    7.0133
   29.370    6.9519
   29.385    6.9633
   29.400    6.8527
   29.415    6.6851
   29.430    6.6123
   29.445    6.4227
   29.460    6.3024
   29.475    6.0558
   29.490    6.0453
   29.505    6.0470
   29.520    6.0664
   29.535    6.0356
   29.550    5.9996
   29.565    5.9654
   29.580    5.9856
   29.595    5.9988
   29.610    5.9435
   29.625    5.9549
   29.640    5.9259
   29.655    5.8943
   29.670    5.9751
   29.685    5.9417
   29.700    5.9856
   29.715    5.8917
   29.730    6.0664
   29.745    6.0541
   29.760    6.0023
   29.775    6.1717
   29.790    6.2173
   29.805    6.2998
   29.820    6.2542
   29.835    6.2998
   29.850    6.2902
   29.865    6.4745
   29.880    6.3911
   29.895    6.5359
   29.910    6.4797
   29.925    6.4060
   29.940    6.3876
   29.955    6.2471
   29.970    6.2033
   29.985    6.1761
   30.000    6.1225
   30.015    6.1181
   30.030    6.0409
   30.045    6.1682
   30.060    6.1146
   30.075    6.0163
   30.090    6.1146
   30.105    6.1348
   30.120    6.1831
   30.135    6.2006
   30.150    6.1541
   30.165    6.1910
   30.180    6.2077
   30.195    6.3016
   30.210    6.0611
   30.225    6.0348
   30.240    6.1032
   30.255    5.9575
   30.270    5.9356
   30.285    5.9005
   30.300    6.1155
   30.315    5.9733
   30.330    6.0102
   30.345    6.0146
   30.360    6.1129
   30.375    6.0646
   30.390    6.0813
   30.405    6.1901
   30.420    6.3024
   30.435    6.1076
   30.450    6.1875
   30.465    6.0646
   30.480    5.9540
   30.495    5.9663
   30.510    5.9926
   30.525    5.8838
   30.540    5.9347
   30.555    5.9338
   30.570    6.0014
   30.585    6.1366
   30.600    6.1497
   30.615    6.0936
   30.630    6.3200
   30.645    6.2691
   30.660    6.3068
   30.675    6.3551
   30.690    6.3463
   30.705    6.2884
   30.720    6.3051
   30.735    6.2945
   30.750    6.2752
   30.765    6.1954
   30.780    6.1339
   30.795    5.9356
   30.810    5.8864
   30.825    5.8891
   30.840    5.7504
   30.855    5.9286
   30.870    5.9242
   30.885    5.8478
   30.900    5.9189
   30.915    5.9751
   30.930    5.9970
   30.945    5.9487
   30.960    5.9619
   30.975    5.8548
   30.990    5.8013
   31.005    5.8197
   31.020    5.8768
   31.035    5.7837
   31.050    5.7232
   31.065    5.7697
   31.080    5.8013
   31.095    5.8215
   31.110    5.7443
   31.125    5.7153
   31.140    5.7995
   31.155    5.7644
   31.170    5.7048
   31.185    5.8074
   31.200    5.8206
   31.215    5.6460
   31.230    5.7311
   31.245    5.7978
   31.260    5.6582
   31.275    5.7399
   31.290    5.8829
   31.305    5.8004
   31.320    5.7048
   31.335    5.9110
   31.350    5.8153
   31.365    5.9566
   31.380    5.9461
   31.395    5.9988
   31.410    6.1102
   31.425    6.1927
   31.440    6.2603
   31.455    6.2805
   31.470    6.2384
   31.485    6.2059
   31.500    6.1769
   31.515    6.1646
   31.530    6.1374
   31.545    6.0865
   31.560    6.0075
   31.575    5.8935
   31.590    5.8022
   31.605    5.7276
   31.620    5.8136
   31.635    5.8812
   31.650    5.8268
   31.665    5.7153
   31.680    5.8487
   31.695    5.9250
   31.710    5.8373
   31.725    5.8566
   31.740    5.7820
   31.755    5.8074
   31.770    5.8970
   31.785    5.8074
   31.800    5.9171
   31.815    5.8259
   31.830    5.8355
   31.845    5.9417
   31.860    5.8443
   31.875    5.8074
   31.890    5.9207
   31.905    5.9163
   31.920    5.8452
   31.935    5.9198
   31.950    5.9645
   31.965    6.0453
   31.980    6.0470
   31.995    5.9523
   32.010    5.9777
   32.025    5.9373
   32.040    5.8935
   32.055    5.8794
   32.070    5.9760
   32.085    5.9768
   32.100    5.9663
   32.115    6.0391
   32.130    6.1989
   32.145    6.2357
   32.160    6.1611
   32.175    5.9487
   32.190    5.9224
   32.205    5.9558
   32.220    5.8768
   32.235    5.9874
   32.250    5.7320
   32.265    5.7469
   32.280    5.8671
   32.295    5.7004
   32.310    5.6872
   32.325    5.6811
   32.340    5.6574
   32.355    5.6065
   32.370    5.6091
   32.385    5.6635
   32.400    5.6433
   32.415    5.6126
   32.430    5.6214
   32.445    5.6433
   32.460    5.5687
   32.475    5.5257
   32.490    5.6609
   32.505    5.7144
   32.520    5.6644
   32.535    5.5801
   32.550    5.5591
   32.565    5.6819
   32.580    5.5582
   32.595    5.6784
   32.610    5.6240
   32.625    5.6152
   32.640    5.5714
   32.655    5.5854
   32.670    5.5512
   32.685    5.5740
   32.700    5.6582
   32.715    5.5512
   32.730    5.5731
   32.745    5.5863
   32.760    5.6969
   32.775    5.5959
   32.790    5.6240
   32.805    5.6451
   32.820    5.6556
   32.835    5.6916
   32.850    5.7390
   32.865    5.6767
   32.880    5.6679
   32.895    5.8118
   32.910    5.8338
   32.925    6.0111
   32.940    5.9821
   32.955    5.8136
   32.970    5.9988
   32.985    6.0225
   33.000    6.0435
   33.015    5.8311
   33.030    5.7732
   33.045    5.7794
   33.060    5.7776
   33.075    5.6065
   33.090    5.6108
   33.105    5.5503
   33.120    5.4599
   33.135    5.4915
   33.150    5.5819
   33.165    5.4871
   33.180    5.3993
   33.195    5.4353
   33.210    5.5161
   33.225    5.4485
   33.240    5.4880
   33.255    5.4292
   33.270    5.3976
   33.285    5.4783
   33.300    5.4836
   33.315    5.4046
   33.330    5.4265
   33.345    5.3309
   33.360    5.4397
   33.375    5.3818
   33.390    5.4344
   33.405    5.4353
   33.420    5.4546
   33.435    5.5345
   33.450    5.4099
   33.465    5.4731
   33.480    5.4880
   33.495    5.5134
   33.510    5.3985
   33.525    5.4511
   33.540    5.3932
   33.555    5.4625
   33.570    5.3528
   33.585    5.4880
   33.600    5.5389
   33.615    5.4932
   33.630    5.5143
   33.645    5.5380
   33.660    5.5766
   33.675    5.5354
   33.690    5.5608
   33.705    5.6881
   33.720    5.6302
   33.735    5.5845
   33.750    5.5731
   33.765    5.6574
   33.780    5.6249
   33.795    5.6740
   33.810    5.5696
   33.825    5.7925
   33.840    5.8943
   33.855    5.7557
   33.870    5.9540
   33.885    5.9637
   33.900    5.9233
   33.915    6.0216
   33.930    6.0348
   33.945    6.1761
   33.960    6.0962
   33.975    5.9382
   33.990    5.9408
   34.005    5.8478
   34.020    5.9031
   34.035    5.7987
   34.050    5.7337
   34.065    5.6969
   34.080    5.5854
   34.095    5.5283
   34.110    5.5126
   34.125    5.4748
   34.140    5.5705
   34.155    5.5529
   34.170    5.5213
   34.185    5.5643
   34.200    5.5977
   34.215    5.5836
   34.230    5.4511
   34.245    5.4292
   34.260    5.4862
   34.275    5.3923
   34.290    5.3590
   34.305    5.4037
   34.320    5.4301
   34.335    5.3739
   34.350    5.4660
   34.365    5.3704
   34.380    5.4880
   34.395    5.4371
   34.410    5.4151
   34.425    5.4186
   34.440    5.4379
   34.455    5.3897
   34.470    5.3765
   34.485    5.3985
   34.500    5.4028
   34.515    5.3098
   34.530    5.2861
   34.545    5.3563
   34.560    5.4143
   34.575    5.3476
   34.590    5.3414
   34.605    5.2879
   34.620    5.3195
   34.635    5.3028
   34.650    5.3300
   34.665    5.2326
   34.680    5.1729
   34.695    5.1773
   34.710    5.3844
   34.725    5.3914
   34.740    5.3809
   34.755    5.3844
   34.770    5.3730
   34.785    5.4634
   34.800    5.4143
   34.815    5.4713
   34.830    5.4678
   34.845    5.4827
   34.860    5.5819
   34.875    5.5670
   34.890    5.5977
   34.905    5.6047
   34.920    5.6135
   34.935    5.5687
   34.950    5.5722
   34.965    5.5003
   34.980    5.3037
   34.995    5.2703
   35.010    5.3423
   35.025    5.2352
   35.040    5.1817
   35.055    5.1641
   35.070    5.2387
   35.085    5.2730
   35.100    5.1711
   35.115    5.2229
   35.130    5.1931
   35.145    5.1843
   35.160    5.2045
   35.175    5.2475
   35.190    5.0772
   35.205    5.1413
   35.220    5.1510
   35.235    5.1790
   35.250    5.2396
   35.265    5.2554
   35.280    5.2352
   35.295    5.3300
   35.310    5.3739
   35.325    5.3906
   35.340    5.3537
   35.355    5.3212
   35.370    5.2273
   35.385    5.2159
   35.400    5.2054
   35.415    5.2598
   35.430    5.2773
   35.445    5.2422
   35.460    5.1922
   35.475    5.1492
   35.490    5.2080
   35.505    5.0693
   35.520    5.1123
   35.535    5.1343
   35.550    5.2010
   35.565    5.1738
   35.580    5.0860
   35.595    5.1764
   35.610    5.1246
   35.625    5.1106
   35.640    5.1290
   35.655    5.2273
   35.670    5.1948
   35.685    5.2572
   35.700    5.2852
   35.715    5.2765
   35.730    5.2273
   35.745    5.2615
   35.760    5.2615
   35.775    5.3844
   35.790    5.3326
   35.805    5.3835
   35.820    5.3686
   35.835    5.2923
   35.850    5.3230
   35.865    5.3651
   35.880    5.2966
   35.895    5.2185
   35.910    5.2686
   35.925    5.2256
   35.940    5.2475
   35.955    5.1553
   35.970    5.2115
   35.985    5.2747
   36.000    5.2422
   36.015    5.2782
   36.030    5.2712
   36.045    5.3291
   36.060    5.3985
   36.075    5.2949
   36.090    5.3318
   36.105    5.3405
   36.120    5.2975
   36.135    5.2062
   36.150    5.3133
   36.165    5.1755
   36.180    5.2036
   36.195    5.3546
   36.210    5.2194
   36.225    5.1632
   36.240    5.1948
   36.255    5.2940
   36.270    5.2887
   36.285    5.2642
   36.300    5.2062
   36.315    5.2870
   36.330    5.2405
   36.345    5.1957
   36.360    5.1685
   36.375    5.2212
   36.390    5.1343
   36.405    5.1694
   36.420    5.0176
   36.435    5.0272
   36.450    5.0746
   36.465    5.0711
   36.480    5.0869
   36.495    5.0693
   36.510    5.1246
   36.525    5.1062
   36.540    5.1492
   36.555    5.0913
   36.570    5.1167
   36.585    5.2054
   36.600    5.2010
   36.615    5.1922
   36.630    5.1948
   36.645    5.2545
   36.660    5.2659
   36.675    5.2633
   36.690    5.3326
   36.705    5.3537
   36.720    5.2422
   36.735    5.2036
   36.750    5.2545
   36.765    5.1738
   36.780    5.2106
   36.795    5.2326
   36.810    5.1747
   36.825    5.2054
   36.840    5.1088
   36.855    5.0149
   36.870    4.9043
   36.885    4.9298
   36.900    4.9412
   36.915    4.9772
   36.930    5.0360
   36.945    4.9868
   36.960    4.9043
   36.975    4.9605
   36.990    5.1123
   37.005    5.2247
   37.020    5.1325
   37.035    5.0957
   37.050    5.2405
   37.065    5.2607
   37.080    5.3791
   37.095    5.3370
   37.110    5.3318
   37.125    5.5011
   37.140    5.6152
   37.155    5.4616
   37.170    5.4687
   37.185    5.4994
   37.200    5.4458
   37.215    5.3879
   37.230    5.4397
   37.245    5.3519
   37.260    5.3072
   37.275    5.2150
   37.290    5.1650
   37.305    5.1334
   37.320    5.0325
   37.335    4.9789
   37.350    4.8789
   37.365    4.9368
   37.380    4.8964
   37.395    4.9772
   37.410    5.0667
   37.425    4.9570
   37.440    5.0623
   37.455    5.0395
   37.470    5.0246
   37.485    4.9833
   37.500    5.0325
   37.515    5.0026
   37.530    5.1088
   37.545    5.1527
   37.560    5.1009
   37.575    5.1115
   37.590    5.1518
   37.605    5.0649
   37.620    5.1905
   37.635    5.1861
   37.650    5.1115
   37.665    5.1685
   37.680    5.1896
   37.695    5.0430
   37.710    4.9868
   37.725    5.0965
   37.740    5.1360
   37.755    5.0957
   37.770    5.0570
   37.785    5.0939
   37.800    5.1395
   37.815    5.0509
   37.830    5.0965
   37.845    5.1097
   37.860    5.0167
   37.875    4.9702
   37.890    4.9561
   37.905    5.0807
   37.920    5.1167
   37.935    5.1395
   37.950    5.1510
   37.965    5.1448
   37.980    5.1387
   37.995    5.1466
   38.010    5.1492
   38.025    5.0351
   38.040    5.1246
   38.055    5.1694
   38.070    5.0386
   38.085    5.1782
   38.100    5.0755
   38.115    5.0263
   38.130    5.1123
   38.145    5.1255
   38.160    4.9614
   38.175    5.0097
   38.190    4.9307
   38.205    5.0211
   38.220    4.9570
   38.235    4.9658
   38.250    5.0246
   38.265    4.9947
   38.280    4.9579
   38.295    4.9579
   38.310    4.9684
   38.325    4.9754
   38.340    4.9210
   38.355    5.0448
   38.370    5.0421
   38.385    4.9307
   38.400    5.0369
   38.415    5.0246
   38.430    5.0316
   38.445    5.0369
   38.460    5.0044
   38.475    5.1220
   38.490    5.0518
   38.505    4.9614
   38.520    5.0307
   38.535    4.9649
   38.550    4.9324
   38.565    4.9895
   38.580    5.0281
   38.595    4.9579
   38.610    4.9219
   38.625    4.8850
   38.640    5.0184
   38.655    4.9763
   38.670    5.0061
   38.685    4.9684
   38.700    4.9579
   38.715    4.9886
   38.730    4.9026
   38.745    4.9614
   38.760    4.9526
   38.775    4.9570
   38.790    4.9324
   38.805    4.9666
   38.820    4.9956
   38.835    4.9868
   38.850    4.9473
   38.865    4.9552
   38.880    5.0009
   38.895    4.8148
   38.910    4.9596
   38.925    5.0307
   38.940    5.0693
   38.955    4.7990
   38.970    4.9491
   38.985    4.8947
   39.000    4.9710
   39.015    4.9596
   39.030    4.8648
   39.045    4.8297
   39.060    4.9219
   39.075    4.7938
   39.090    4.8982
   39.105    4.8929
   39.120    4.9140
   39.135    4.9728
   39.150    4.9175
   39.165    4.7727
   39.180    4.9026
   39.195    4.8964
   39.210    4.9193
   39.225    4.9122
   39.240    5.0632
   39.255    5.0404
   39.270    5.0140
   39.285    5.0307
   39.300    5.0843
   39.315    5.0483
   39.330    5.0404
   39.345    5.1097
   39.360    5.0711
   39.375    5.2062
   39.390    5.0597
   39.405    4.9333
   39.420    4.8964
   39.435    4.9456
   39.450    4.9403
   39.465    4.9658
   39.480    4.8956
   39.495    4.9465
   39.510    4.9640
   39.525    4.9526
   39.540    4.8754
   39.555    4.9245
   39.570    4.9605
   39.585    4.9605
   39.600    4.9824
   39.615    4.9781
   39.630    4.9974
   39.645    4.9588
   39.660    4.8815
   39.675    4.8894
   39.690    4.8938
   39.705    4.9324
   39.720    4.9666
   39.735    5.0421
   39.750    4.9465
   39.765    4.9974
   39.780    4.9947
   39.795    5.0176
   39.810    4.9473
   39.825    4.9956
   39.840    4.9956
   39.855    4.9816
   39.870    4.9456
   39.885    4.9745
   39.900    4.9149
   39.915    4.9851
   39.930    4.9298
   39.945    4.8780
   39.960    4.8622
   39.975    4.8859
   39.990    4.9061
