    1.500    4.7512
    1.515    4.7512
    1.530    4.7512
    1.545    4.6121
    1.560    4.3981
    1.575    4.6763
    1.590    4.4623
    1.605    4.0342
    1.620    4.3018
    1.635    3.7453
    1.650    4.0128
    1.665    3.7560
    1.680    3.7346
    1.695    3.7346
    1.710    3.3601
    1.725    3.4885
    1.740    3.5955
    1.755    3.2424
    1.770    3.3387
    1.785    3.2745
    1.800    3.1568
    1.815    2.8571
    1.830    3.0819
    1.845    2.8571
    1.860    3.0819
    1.875    2.9642
    1.890    2.7929
    1.905    2.7073
    1.920    2.8571
    1.935    2.9213
    1.950    2.6538
    1.965    2.6324
    1.980    2.3114
    1.995    2.5789
    2.010    2.6110
    2.025    2.6324
    2.040    2.5468
    2.055    2.2793
    2.070    2.3007
    2.085    2.2793
    2.100    2.4719
    2.115    2.2365
    2.130    2.3970
    2.145    2.1830
    2.160    2.1402
    2.175    2.0653
    2.190    2.1081
    2.205    2.2151
    2.220    2.1937
    2.235    2.0546
    2.250    1.9583
    2.265    2.0653
    2.280    2.1509
    2.295    1.9797
    2.310    1.9583
    2.325    2.1188
    2.340    1.8192
    2.355    1.7978
    2.370    1.5944
    2.385    1.9583
    2.400    2.0332
    2.415    2.1402
    2.430    1.9155
    2.445    1.8406
    2.460    1.8192
    2.475    1.7228
    2.490    1.7335
    2.505    1.6479
    2.520    1.8727
    2.535    1.7549
    2.550    1.7442
    2.565    1.6265
    2.580    1.5944
    2.595    1.6479
    2.610    1.6372
    2.625    1.4660
    2.640    1.6265
    2.655    1.5730
    2.670    1.4874
    2.685    1.7228
    2.700    1.5944
    2.715    1.3055
    2.730    1.5516
    2.745    1.2841
    2.760    1.3804
    2.775    1.4339
    2.790    1.4232
    2.805    1.4018
    2.820    1.4446
    2.835    1.3697
    2.850    1.0915
    2.865    1.1343
    2.880    1.4018
    2.895    1.3055
    2.910    1.4660
    2.925    1.4125
    2.940    1.4660
    2.955    1.3162
    2.970    1.2306
    2.985    1.4874
    3.000    1.3376
    3.015    1.4125
    3.030    1.2948
    3.045    1.1878
    3.060    1.2199
    3.075    1.2306
    3.090    1.2841
    3.105    1.0487
    3.120    1.0915
    3.135    1.3697
    3.150    1.4232
    3.165    1.4981
    3.180    1.3269
    3.195    1.3376
    3.210    1.3162
    3.225    1.3697
    3.240    1.2092
    3.255    1.2627
    3.270    1.2413
    3.285    1.1022
    3.300    1.2092
    3.315    1.1450
    3.330    1.1771
    3.345    1.1129
    3.360    1.2199
    3.375    1.1343
    3.390    1.1664
    3.405    1.0808
    3.420    1.2627
    3.435    1.2092
    3.450    1.1129
    3.465    1.0701
    3.480    1.0701
    3.495    1.1129
    3.510    1.1985
    3.525    0.9952
    3.540    1.1236
    3.555    1.0594
    3.570    1.3590
    3.585    1.1985
    3.600    1.1878
    3.615    1.0915
    3.630    1.1236
    3.645    1.3697
    3.660    1.4339
    3.675    1.2520
    3.690    1.4446
    3.705    1.2627
    3.720    1.3376
    3.735    1.4553
    3.750    1.3269
    3.765    1.3590
    3.780    1.2734
    3.795    1.1236
    3.810    1.4874
    3.825    1.4553
    3.840    1.4874
    3.855    1.6800
    3.870    1.8620
    3.885    1.7871
    3.900    1.8727
    3.915    2.0439
    3.930    2.0867
    3.945    2.4077
    3.960    2.4184
    3.975    2.5361
    3.990    2.6538
    4.005    2.7929
    4.020    2.8678
    4.035    3.0926
    4.050    3.1354
    4.065    3.7239
    4.080    3.8737
    4.095    3.7881
    4.110    4.0342
    4.125    4.5051
    4.140    4.9331
    4.155    5.1685
    4.170    5.9711
    4.185    6.4419
    4.200    6.6453
    4.215    7.4585
    4.230    7.6512
    4.245    8.2504
    4.260    9.0744
    4.275    9.9625
    4.290   10.9898
    4.305   11.8994
    4.320   13.2370
    4.335   14.3713
    4.350   16.0514
    4.365   17.1750
    4.380   19.7967
    4.395   21.4660
    4.410   23.9379
    4.425   26.5169
    4.440   31.3858
    4.455   35.3879
    4.470   42.0546
    4.485   50.7651
    4.500   63.6490
    4.515   75.2381
    4.530   74.1252
    4.545   50.8614
    4.560   23.5634
    4.575   10.4762
    4.590    5.1578
    4.605    3.3708
    4.620    2.6538
    4.635    2.1723
    4.650    1.8192
    4.665    1.5516
    4.680    1.2520
    4.695    1.2413
    4.710    1.3269
    4.725    1.1022
    4.740    0.9203
    4.755    0.9952
    4.770    1.1450
    4.785    1.1343
    4.800    0.9417
    4.815    1.0380
    4.830    0.7919
    4.845    0.8882
    4.860    0.9738
    4.875    0.9845
    4.890    0.8454
    4.905    0.8882
    4.920    0.8561
    4.935    0.9417
    4.950    0.9203
    4.965    0.8240
    4.980    0.8561
    4.995    1.0166
    5.010    0.7170
    5.025    0.7384
    5.040    0.6849
    5.055    0.7598
    5.070    0.7491
    5.085    0.7063
    5.100    0.8133
    5.115    0.6528
    5.130    0.5886
    5.145    0.5993
    5.160    0.8026
    5.175    0.7812
    5.190    0.6635
    5.205    0.7598
    5.220    0.7598
    5.235    0.7598
    5.250    0.7170
    5.265    0.6528
    5.280    0.6849
    5.295    0.6421
    5.310    0.7705
    5.325    0.7491
    5.340    0.7063
    5.355    0.7384
    5.370    0.7919
    5.385    0.7812
    5.400    0.8454
    5.415    0.6421
    5.430    0.7277
    5.445    0.6635
    5.460    0.6421
    5.475    0.7063
    5.490    0.7812
    5.505    0.6849
    5.520    0.7170
    5.535    0.6207
    5.550    0.7812
    5.565    0.7919
    5.580    0.7063
    5.595    0.7491
    5.610    0.8240
    5.625    0.7384
    5.640    0.7384
    5.655    0.8347
    5.670    0.7812
    5.685    0.6528
    5.700    0.7812
    5.715    0.7170
    5.730    0.7919
    5.745    0.7063
    5.760    0.6528
    5.775    0.7170
    5.790    0.7170
    5.805    0.6314
    5.820    0.6314
    5.835    0.6956
    5.850    0.6100
    5.865    0.7491
    5.880    0.6849
    5.895    0.6100
    5.910    0.6956
    5.925    0.6207
    5.940    0.7705
    5.955    0.7705
    5.970    0.8989
    5.985    0.8133
    6.000    0.6635
    6.015    0.7919
    6.030    0.8347
    6.045    0.8454
    6.060    0.9524
    6.075    0.9524
    6.090    1.0380
    6.105    1.0059
    6.120    1.0701
    6.135    1.1664
    6.150    1.1343
    6.165    1.3590
    6.180    1.4446
    6.195    1.5088
    6.210    1.7121
    6.225    1.6158
    6.240    2.0546
    6.255    1.9797
    6.270    2.2365
    6.285    2.5575
    6.300    2.8464
    6.315    3.4778
    6.330    3.8951
    6.345    4.5051
    6.360    5.3719
    6.375    6.7951
    6.390    8.3039
    6.405    8.9674
    6.420    7.3408
    6.435    4.6228
    6.450    2.4612
    6.465    1.4767
    6.480    1.2199
    6.495    1.1771
    6.510    0.8026
    6.525    0.7063
    6.540    0.6635
    6.555    0.7919
    6.570    0.7812
    6.585    0.5886
    6.600    0.5886
    6.615    0.6100
    6.630    0.4815
    6.645    0.5243
    6.660    0.6207
    6.675    0.6421
    6.690    0.5886
    6.705    0.6742
    6.720    0.5564
    6.735    0.5993
    6.750    0.4922
    6.765    0.6421
    6.780    0.5993
    6.795    0.6742
    6.810    0.6635
    6.825    0.5564
    6.840    0.6314
    6.855    0.7384
    6.870    0.8026
    6.885    0.5671
    6.900    0.6314
    6.915    0.6528
    6.930    0.5993
    6.945    0.5886
    6.960    0.4922
    6.975    0.5136
    6.990    0.4815
    7.005    0.5993
    7.020    0.5886
    7.035    0.5564
    7.050    0.6100
    7.065    0.5350
    7.080    0.5457
    7.095    0.4708
    7.110    0.5886
    7.125    0.6956
    7.140    0.5778
    7.155    0.5671
    7.170    0.6528
    7.185    0.5886
    7.200    0.5243
    7.215    0.5029
    7.230    0.5778
    7.245    0.5029
    7.260    0.6100
    7.275    0.6100
    7.290    0.5457
    7.305    0.4708
    7.320    0.5243
    7.335    0.5993
    7.350    0.5564
    7.365    0.5778
    7.380    0.5671
    7.395    0.4815
    7.410    0.5671
    7.425    0.6207
    7.440    0.5886
    7.455    0.5029
    7.470    0.4387
    7.485    0.5350
    7.500    0.6742
    7.515    0.7384
    7.530    0.6742
    7.545    0.5457
    7.560    0.6421
    7.575    0.5993
    7.590    0.5136
    7.605    0.5457
    7.620    0.5671
    7.635    0.7063
    7.650    0.6742
    7.665    0.6421
    7.680    0.6207
    7.695    0.6421
    7.710    0.5886
    7.725    0.6528
    7.740    0.7705
    7.755    0.7384
    7.770    0.6849
    7.785    0.7170
    7.800    0.9310
    7.815    0.7598
    7.830    0.9524
    7.845    1.1985
    7.860    1.0915
    7.875    1.0273
    7.890    0.7063
    7.905    0.4708
    7.920    0.7277
    7.935    0.5564
    7.950    0.5993
    7.965    0.6207
    7.980    0.5564
    7.995    0.5457
    8.010    0.6314
    8.025    0.6100
    8.040    0.4815
    8.055    0.5564
    8.070    0.4708
    8.085    0.5671
    8.100    0.5457
    8.115    0.5350
    8.130    0.5350
    8.145    0.6421
    8.160    0.4922
    8.175    0.5350
    8.190    0.6421
    8.205    0.5993
    8.220    0.5136
    8.235    0.5778
    8.250    0.5350
    8.265    0.5243
    8.280    0.7277
    8.295    0.5564
    8.310    0.5778
    8.325    0.5778
    8.340    0.4066
    8.355    0.6207
    8.370    0.6314
    8.385    0.5457
    8.400    0.4601
    8.415    0.4815
    8.430    0.5350
    8.445    0.5136
    8.460    0.4601
    8.475    0.4708
    8.490    0.5243
    8.505    0.5029
    8.520    0.6207
    8.535    0.6100
    8.550    0.5350
    8.565    0.4173
    8.580    0.5457
    8.595    0.5564
    8.610    0.5671
    8.625    0.4387
    8.640    0.5350
    8.655    0.4708
    8.670    0.5886
    8.685    0.6100
    8.700    0.5136
    8.715    0.4173
    8.730    0.4815
    8.745    0.5243
    8.760    0.5457
    8.775    0.5778
    8.790    0.6100
    8.805    0.6314
    8.820    0.6207
    8.835    0.6314
    8.850    0.6314
    8.865    0.6207
    8.880    0.7919
    8.895    0.7812
    8.910    0.8026
    8.925    0.6956
    8.940    0.9845
    8.955    1.0166
    8.970    1.0380
    8.985    1.2841
    9.000    1.3269
    9.015    1.7657
    9.030    1.9155
    9.045    2.4826
    9.060    2.9749
    9.075    2.9428
    9.090    2.4719
    9.105    1.6800
    9.120    1.1129
    9.135    0.8133
    9.150    0.5136
    9.165    0.5457
    9.180    0.5778
    9.195    0.5564
    9.210    0.5136
    9.225    0.6742
    9.240    0.5350
    9.255    0.4708
    9.270    0.4066
    9.285    0.6100
    9.300    0.5457
    9.315    0.4601
    9.330    0.5457
    9.345    0.4815
    9.360    0.5029
    9.375    0.4815
    9.390    0.4387
    9.405    0.4922
    9.420    0.5671
    9.435    0.6100
    9.450    0.5564
    9.465    0.5136
    9.480    0.4601
    9.495    0.4601
    9.510    0.5136
    9.525    0.5243
    9.540    0.5136
    9.555    0.5029
    9.570    0.4708
    9.585    0.4494
    9.600    0.5029
    9.615    0.4815
    9.630    0.5136
    9.645    0.5029
    9.660    0.3959
    9.675    0.5136
    9.690    0.4066
    9.705    0.4280
    9.720    0.3959
    9.735    0.4708
    9.750    0.4922
    9.765    0.4280
    9.780    0.4173
    9.795    0.4922
    9.810    0.6742
    9.825    0.4708
    9.840    0.4173
    9.855    0.5029
    9.870    0.4815
    9.885    0.6100
    9.900    0.4280
    9.915    0.5029
    9.930    0.5993
    9.945    0.4387
    9.960    0.4922
    9.975    0.5029
    9.990    0.5993
   10.005    0.6100
   10.020    0.5457
   10.035    0.5457
   10.050    0.6314
   10.065    0.5886
   10.080    0.5993
   10.095    0.6849
   10.110    0.6956
   10.125    0.8347
   10.140    1.0915
   10.155    0.8240
   10.170    0.8454
   10.185    0.7384
   10.200    0.5778
   10.215    0.5243
   10.230    0.4601
   10.245    0.4601
   10.260    0.5029
   10.275    0.4815
   10.290    0.6421
   10.305    0.6314
   10.320    0.4066
   10.335    0.3531
   10.350    0.5350
   10.365    0.4815
   10.380    0.5993
   10.395    0.4387
   10.410    0.4494
   10.425    0.4815
   10.440    0.4387
   10.455    0.4387
   10.470    0.5136
   10.485    0.5350
   10.500    0.4280
   10.515    0.4494
   10.530    0.4280
   10.545    0.5029
   10.560    0.5350
   10.575    0.5671
   10.590    0.5243
   10.605    0.5350
   10.620    0.5564
   10.635    0.5993
   10.650    0.4601
   10.665    0.4815
   10.680    0.5778
   10.695    0.4708
   10.710    0.4601
   10.725    0.5136
   10.740    0.4066
   10.755    0.4494
   10.770    0.5243
   10.785    0.4815
   10.800    0.4922
   10.815    0.5243
   10.830    0.4387
   10.845    0.5029
   10.860    0.5136
   10.875    0.6207
   10.890    0.5993
   10.905    0.6528
   10.920    0.8668
   10.935    0.8775
   10.950    1.0380
   10.965    0.8026
   10.980    0.9203
   10.995    1.1022
   11.010    1.4553
   11.025    1.5837
   11.040    1.8727
   11.055    2.3970
   11.070    2.7287
   11.085    3.6704
   11.100    4.7726
   11.115    5.2648
   11.130    4.7833
   11.145    3.9058
   11.160    2.1188
   11.175    1.3911
   11.190    0.9952
   11.205    0.7812
   11.220    0.6635
   11.235    0.6207
   11.250    0.6421
   11.265    0.6528
   11.280    0.5457
   11.295    0.4815
   11.310    0.5778
   11.325    0.5350
   11.340    0.5243
   11.355    0.5457
   11.370    0.5993
   11.385    0.6100
   11.400    0.5136
   11.415    0.6528
   11.430    0.6100
   11.445    0.4815
   11.460    0.3959
   11.475    0.4922
   11.490    0.5993
   11.505    0.5886
   11.520    0.5136
   11.535    0.5136
   11.550    0.3531
   11.565    0.3959
   11.580    0.4494
   11.595    0.5029
   11.610    0.4387
   11.625    0.4173
   11.640    0.5029
   11.655    0.5243
   11.670    0.4601
   11.685    0.4173
   11.700    0.4173
   11.715    0.5136
   11.730    0.5564
   11.745    0.4708
   11.760    0.5564
   11.775    0.4173
   11.790    0.4601
   11.805    0.5136
   11.820    0.5564
   11.835    0.5457
   11.850    0.5457
   11.865    0.6849
   11.880    0.6528
   11.895    0.6314
   11.910    0.7598
   11.925    0.9310
   11.940    0.9952
   11.955    1.1343
   11.970    1.2627
   11.985    1.7335
   12.000    2.0653
   12.015    1.8941
   12.030    1.6693
   12.045    1.4874
   12.060    1.0273
   12.075    0.7919
   12.090    0.6314
   12.105    0.4708
   12.120    0.5778
   12.135    0.5029
   12.150    0.4387
   12.165    0.4494
   12.180    0.4922
   12.195    0.4387
   12.210    0.4708
   12.225    0.5886
   12.240    0.3959
   12.255    0.4601
   12.270    0.3638
   12.285    0.4387
   12.300    0.4494
   12.315    0.5243
   12.330    0.5350
   12.345    0.5243
   12.360    0.4066
   12.375    0.4494
   12.390    0.4387
   12.405    0.4601
   12.420    0.4494
   12.435    0.5671
   12.450    0.3745
   12.465    0.4066
   12.480    0.3959
   12.495    0.4173
   12.510    0.4708
   12.525    0.4922
   12.540    0.4815
   12.555    0.5457
   12.570    0.4922
   12.585    0.4066
   12.600    0.4815
   12.615    0.5671
   12.630    0.5243
   12.645    0.4922
   12.660    0.4601
   12.675    0.4922
   12.690    0.6528
   12.705    0.6742
   12.720    0.6635
   12.735    0.8347
   12.750    0.9417
   12.765    1.0273
   12.780    1.0273
   12.795    1.3162
   12.810    1.6586
   12.825    2.0867
   12.840    2.1188
   12.855    2.1295
   12.870    1.8513
   12.885    1.3911
   12.900    0.8668
   12.915    0.7919
   12.930    0.6421
   12.945    0.5350
   12.960    0.6314
   12.975    0.5029
   12.990    0.4494
   13.005    0.5243
   13.020    0.5993
   13.035    0.4387
   13.050    0.5029
   13.065    0.4601
   13.080    0.5457
   13.095    0.4066
   13.110    0.4280
   13.125    0.3959
   13.140    0.3959
   13.155    0.4066
   13.170    0.3959
   13.185    0.4601
   13.200    0.4708
   13.215    0.4708
   13.230    0.4494
   13.245    0.4922
   13.260    0.4922
   13.275    0.4494
   13.290    0.5029
   13.305    0.3638
   13.320    0.4601
   13.335    0.5564
   13.350    0.5136
   13.365    0.5243
   13.380    0.4708
   13.395    0.4387
   13.410    0.4601
   13.425    0.5029
   13.440    0.5243
   13.455    0.5886
   13.470    0.5778
   13.485    0.6314
   13.500    0.6956
   13.515    0.5671
   13.530    0.7063
   13.545    0.9524
   13.560    0.9952
   13.575    1.2413
   13.590    1.4981
   13.605    1.6586
   13.620    1.9476
   13.635    2.1081
   13.650    2.1295
   13.665    1.6907
   13.680    1.1343
   13.695    0.7598
   13.710    0.5564
   13.725    0.5243
   13.740    0.5029
   13.755    0.5671
   13.770    0.5993
   13.785    0.4494
   13.800    0.4494
   13.815    0.4280
   13.830    0.4494
   13.845    0.5243
   13.860    0.4494
   13.875    0.3638
   13.890    0.5029
   13.905    0.4601
   13.920    0.5029
   13.935    0.5350
   13.950    0.4708
   13.965    0.3852
   13.980    0.3424
   13.995    0.3103
   14.010    0.4280
   14.025    0.5886
   14.040    0.5136
   14.055    0.3852
   14.070    0.3531
   14.085    0.4173
   14.100    0.3852
   14.115    0.4708
   14.130    0.3852
   14.145    0.4708
   14.160    0.5243
   14.175    0.4601
   14.190    0.4922
   14.205    0.3959
   14.220    0.4494
   14.235    0.4601
   14.250    0.3959
   14.265    0.3638
   14.280    0.5029
   14.295    0.5778
   14.310    0.4387
   14.325    0.5886
   14.340    0.6956
   14.355    0.7598
   14.370    0.6956
   14.385    0.5886
   14.400    0.6207
   14.415    0.5778
   14.430    0.5029
   14.445    0.4387
   14.460    0.5350
   14.475    0.4708
   14.490    0.4815
   14.505    0.3745
   14.520    0.3210
   14.535    0.4387
   14.550    0.3745
   14.565    0.3531
   14.580    0.4173
   14.595    0.4708
   14.610    0.4173
   14.625    0.4708
   14.640    0.5243
   14.655    0.4494
   14.670    0.5457
   14.685    0.4066
   14.700    0.3959
   14.715    0.4922
   14.730    0.5136
   14.745    0.3745
   14.760    0.4173
   14.775    0.4280
   14.790    0.4280
   14.805    0.3745
   14.820    0.4708
   14.835    0.4815
   14.850    0.4922
   14.865    0.4280
   14.880    0.3424
   14.895    0.4280
   14.910    0.4815
   14.925    0.6207
   14.940    0.5350
   14.955    0.4922
   14.970    0.6528
   14.985    0.6849
   15.000    0.8133
   15.015    0.9952
   15.030    1.0701
   15.045    1.4446
   15.060    1.5837
   15.075    1.6693
   15.090    1.8085
   15.105    1.6051
   15.120    1.0701
   15.135    0.8347
   15.150    0.5993
   15.165    0.6528
   15.180    0.4280
   15.195    0.4708
   15.210    0.4494
   15.225    0.4601
   15.240    0.4815
   15.255    0.4494
   15.270    0.4922
   15.285    0.3317
   15.300    0.3210
   15.315    0.5136
   15.330    0.4066
   15.345    0.3852
   15.360    0.4708
   15.375    0.4280
   15.390    0.3424
   15.405    0.4280
   15.420    0.4280
   15.435    0.3531
   15.450    0.5029
   15.465    0.3745
   15.480    0.4280
   15.495    0.5136
   15.510    0.4387
   15.525    0.3745
   15.540    0.2568
   15.555    0.3852
   15.570    0.4280
   15.585    0.4280
   15.600    0.4601
   15.615    0.4815
   15.630    0.5457
   15.645    0.5243
   15.660    0.4815
   15.675    0.5457
   15.690    0.6635
   15.705    0.7063
   15.720    0.9096
   15.735    0.9631
   15.750    1.0594
   15.765    0.9417
   15.780    1.0380
   15.795    0.8989
   15.810    0.7170
   15.825    0.5243
   15.840    0.4494
   15.855    0.3317
   15.870    0.4066
   15.885    0.4173
   15.900    0.3103
   15.915    0.3852
   15.930    0.4708
   15.945    0.4601
   15.960    0.3531
   15.975    0.3745
   15.990    0.4708
   16.005    0.4494
   16.020    0.4708
   16.035    0.4601
   16.050    0.3852
   16.065    0.4708
   16.080    0.4173
   16.095    0.4173
   16.110    0.4708
   16.125    0.4066
   16.140    0.3745
   16.155    0.4066
   16.170    0.4280
   16.185    0.4708
   16.200    0.4280
   16.215    0.3745
   16.230    0.3638
   16.245    0.3531
   16.260    0.4815
   16.275    0.5457
   16.290    0.6528
   16.305    0.6207
   16.320    0.5993
   16.335    0.5886
   16.350    0.7705
   16.365    1.0166
   16.380    0.9952
   16.395    1.2413
   16.410    1.1878
   16.425    0.8989
   16.440    0.9524
   16.455    0.8026
   16.470    0.7277
   16.485    0.5993
   16.500    0.4601
   16.515    0.3852
   16.530    0.3638
   16.545    0.4601
   16.560    0.3531
   16.575    0.3745
   16.590    0.3852
   16.605    0.4066
   16.620    0.4815
   16.635    0.5671
   16.650    0.4066
   16.665    0.4280
   16.680    0.4173
   16.695    0.3745
   16.710    0.4066
   16.725    0.4066
   16.740    0.3745
   16.755    0.4708
   16.770    0.5029
   16.785    0.3852
   16.800    0.3959
   16.815    0.3745
   16.830    0.4387
   16.845    0.3959
   16.860    0.4494
   16.875    0.4173
   16.890    0.5136
   16.905    0.2996
   16.920    0.4280
   16.935    0.3959
   16.950    0.4280
   16.965    0.4494
   16.980    0.4601
   16.995    0.4387
   17.010    0.4066
   17.025    0.3531
   17.040    0.3852
   17.055    0.4815
   17.070    0.5457
   17.085    0.4066
   17.100    0.4280
   17.115    0.4173
   17.130    0.4387
   17.145    0.3959
   17.160    0.3745
   17.175    0.4280
   17.190    0.3424
   17.205    0.3745
   17.220    0.3852
   17.235    0.3959
   17.250    0.4387
   17.265    0.4066
   17.280    0.3852
   17.295    0.3852
   17.310    0.3638
   17.325    0.3638
   17.340    0.3424
   17.355    0.4494
   17.370    0.4173
   17.385    0.4066
   17.400    0.3531
   17.415    0.4494
   17.430    0.4601
   17.445    0.3745
   17.460    0.4494
   17.475    0.3959
   17.490    0.3210
   17.505    0.3852
   17.520    0.5350
   17.535    0.5136
   17.550    0.5029
   17.565    0.5886
   17.580    0.5886
   17.595    0.5778
   17.610    0.8882
   17.625    0.7384
   17.640    0.7919
   17.655    0.7705
   17.670    0.7170
   17.685    0.5886
   17.700    0.5243
   17.715    0.4280
   17.730    0.4387
   17.745    0.4066
   17.760    0.4280
   17.775    0.3959
   17.790    0.4708
   17.805    0.3638
   17.820    0.4922
   17.835    0.3959
   17.850    0.4173
   17.865    0.5564
   17.880    0.4815
   17.895    0.3317
   17.910    0.4280
   17.925    0.4387
   17.940    0.5029
   17.955    0.4387
   17.970    0.4815
   17.985    0.4280
   18.000    0.3531
   18.015    0.4173
   18.030    0.3638
   18.045    0.4815
   18.060    0.4387
   18.075    0.3317
   18.090    0.3852
   18.105    0.3638
   18.120    0.3210
   18.135    0.3638
   18.150    0.3852
   18.165    0.2996
   18.180    0.3210
   18.195    0.3531
   18.210    0.4173
   18.225    0.5136
   18.240    0.3210
   18.255    0.3424
   18.270    0.3210
   18.285    0.4280
   18.300    0.3210
   18.315    0.2782
   18.330    0.4387
   18.345    0.3852
   18.360    0.3531
   18.375    0.4494
   18.390    0.4066
   18.405    0.3638
   18.420    0.3531
   18.435    0.4387
   18.450    0.3210
   18.465    0.3424
   18.480    0.3531
   18.495    0.3638
   18.510    0.3531
   18.525    0.5136
   18.540    0.3531
   18.555    0.3638
   18.570    0.3745
   18.585    0.4066
   18.600    0.3531
   18.615    0.3638
   18.630    0.4066
   18.645    0.4708
   18.660    0.4280
   18.675    0.4280
   18.690    0.4601
   18.705    0.4387
   18.720    0.4387
   18.735    0.5671
   18.750    0.6528
   18.765    0.6849
   18.780    0.7063
   18.795    0.8240
   18.810    0.5886
   18.825    0.6100
   18.840    0.4815
   18.855    0.4601
   18.870    0.5029
   18.885    0.4494
   18.900    0.4066
   18.915    0.4280
   18.930    0.3103
   18.945    0.5029
   18.960    0.5136
   18.975    0.4173
   18.990    0.4280
   19.005    0.3959
   19.020    0.3531
   19.035    0.4387
   19.050    0.3638
   19.065    0.4387
   19.080    0.4066
   19.095    0.3959
   19.110    0.5136
   19.125    0.4066
   19.140    0.4387
   19.155    0.3638
   19.170    0.4173
   19.185    0.3959
   19.200    0.4601
   19.215    0.5671
   19.230    0.4173
   19.245    0.4494
   19.260    0.5136
   19.275    0.6314
   19.290    0.6956
   19.305    0.7919
   19.320    0.7812
   19.335    0.8347
   19.350    0.7384
   19.365    0.5671
   19.380    0.6849
   19.395    0.6635
   19.410    0.5457
   19.425    0.5350
   19.440    0.3852
   19.455    0.3745
   19.470    0.4815
   19.485    0.4066
   19.500    0.4173
   19.515    0.3852
   19.530    0.3959
   19.545    0.3745
   19.560    0.3638
   19.575    0.3317
   19.590    0.4066
   19.605    0.3852
   19.620    0.4601
   19.635    0.4173
   19.650    0.4173
   19.665    0.4601
   19.680    0.3424
   19.695    0.4815
   19.710    0.4280
   19.725    0.5029
   19.740    0.4708
   19.755    0.4066
   19.770    0.4280
   19.785    0.6528
   19.800    0.7170
   19.815    0.8668
   19.830    1.1557
   19.845    1.1236
   19.860    1.1664
   19.875    1.0594
   19.890    1.1771
   19.905    0.7063
   19.920    0.6849
   19.935    0.6528
   19.950    0.5029
   19.965    0.5350
   19.980    0.4601
   19.995    0.4601
   20.010    0.5029
   20.025    0.4066
   20.040    0.5136
   20.055    0.3745
   20.070    0.4815
   20.085    0.4280
   20.100    0.3745
   20.115    0.4173
   20.130    0.3959
   20.145    0.3959
   20.160    0.4387
   20.175    0.3638
   20.190    0.3852
   20.205    0.4815
   20.220    0.4387
   20.235    0.5136
   20.250    0.3852
   20.265    0.4601
   20.280    0.5136
   20.295    0.5243
   20.310    0.4387
   20.325    0.3852
   20.340    0.6100
   20.355    0.5243
   20.370    0.5350
   20.385    0.5457
   20.400    0.5350
   20.415    0.5136
   20.430    0.5243
   20.445    0.4066
   20.460    0.4922
   20.475    0.4280
   20.490    0.4280
   20.505    0.3638
   20.520    0.4815
   20.535    0.4066
   20.550    0.3103
   20.565    0.4601
   20.580    0.3638
   20.595    0.3424
   20.610    0.4494
   20.625    0.4601
   20.640    0.4280
   20.655    0.4066
   20.670    0.3745
   20.685    0.4815
   20.700    0.4066
   20.715    0.4922
   20.730    0.3959
   20.745    0.2996
   20.760    0.3103
   20.775    0.3959
   20.790    0.4280
   20.805    0.4494
   20.820    0.4494
   20.835    0.4494
   20.850    0.6207
   20.865    0.5671
   20.880    0.5350
   20.895    0.4922
   20.910    0.6421
   20.925    0.5564
   20.940    0.5778
   20.955    0.4708
   20.970    0.3745
   20.985    0.4280
   21.000    0.4708
   21.015    0.4280
   21.030    0.4494
   21.045    0.3959
   21.060    0.4387
   21.075    0.5136
   21.090    0.4387
   21.105    0.4173
   21.120    0.3317
   21.135    0.3638
   21.150    0.5029
   21.165    0.4387
   21.180    0.3852
   21.195    0.4922
   21.210    0.3959
   21.225    0.4601
   21.240    0.4601
   21.255    0.4601
   21.270    0.4066
   21.285    0.3531
   21.300    0.3959
   21.315    0.4708
   21.330    0.5029
   21.345    0.6207
   21.360    0.6528
   21.375    0.5564
   21.390    0.5993
   21.405    0.6849
   21.420    0.6528
   21.435    0.6421
   21.450    0.6742
   21.465    0.5886
   21.480    0.4173
   21.495    0.5136
   21.510    0.4280
   21.525    0.3103
   21.540    0.3638
   21.555    0.3959
   21.570    0.4601
   21.585    0.4280
   21.600    0.4387
   21.615    0.4922
   21.630    0.5350
   21.645    0.4387
   21.660    0.3317
   21.675    0.4494
   21.690    0.4280
   21.705    0.4173
   21.720    0.4066
   21.735    0.4601
   21.750    0.4815
   21.765    0.4922
   21.780    0.4708
   21.795    0.5029
   21.810    0.3745
   21.825    0.3531
   21.840    0.4708
   21.855    0.5136
   21.870    0.5457
   21.885    0.4387
   21.900    0.4066
   21.915    0.5243
   21.930    0.4815
   21.945    0.4387
   21.960    0.3638
   21.975    0.3638
   21.990    0.4173
   22.005    0.4815
   22.020    0.4066
   22.035    0.3852
   22.050    0.3531
   22.065    0.4601
   22.080    0.4494
   22.095    0.3103
   22.110    0.3745
   22.125    0.4494
   22.140    0.4922
   22.155    0.3424
   22.170    0.4280
   22.185    0.3424
   22.200    0.3317
   22.215    0.2996
   22.230    0.3638
   22.245    0.3638
   22.260    0.3638
   22.275    0.4280
   22.290    0.5136
   22.305    0.4494
   22.320    0.4066
   22.335    0.4708
   22.350    0.4922
   22.365    0.4494
   22.380    0.4173
   22.395    0.5886
   22.410    0.4922
   22.425    0.4601
   22.440    0.4601
   22.455    0.3745
   22.470    0.4708
   22.485    0.3852
   22.500    0.3745
   22.515    0.4494
   22.530    0.4173
   22.545    0.3852
   22.560    0.4066
   22.575    0.3852
   22.590    0.4601
   22.605    0.3959
   22.620    0.3745
   22.635    0.4066
   22.650    0.5350
   22.665    0.4922
   22.680    0.4601
   22.695    0.4815
   22.710    0.4708
   22.725    0.4280
   22.740    0.5350
   22.755    0.5671
   22.770    0.6528
   22.785    0.6849
   22.800    0.6314
   22.815    0.7170
   22.830    0.7705
   22.845    0.5671
   22.860    0.6421
   22.875    0.6742
   22.890    0.7277
   22.905    0.5778
   22.920    0.4815
   22.935    0.4708
   22.950    0.4066
   22.965    0.4708
   22.980    0.5564
   22.995    0.4708
   23.010    0.4494
   23.025    0.4922
   23.040    0.3959
   23.055    0.4173
   23.070    0.4387
   23.085    0.3852
   23.100    0.4173
   23.115    0.4494
   23.130    0.4280
   23.145    0.4173
   23.160    0.4494
   23.175    0.5350
   23.190    0.4922
   23.205    0.4922
   23.220    0.5350
   23.235    0.5671
   23.250    0.5243
   23.265    0.4066
   23.280    0.5778
   23.295    0.5029
   23.310    0.5564
   23.325    0.5243
   23.340    0.3424
   23.355    0.4494
   23.370    0.4922
   23.385    0.4280
   23.400    0.5778
   23.415    0.4494
   23.430    0.4601
   23.445    0.4280
   23.460    0.4494
   23.475    0.3959
   23.490    0.4494
   23.505    0.4280
   23.520    0.5136
   23.535    0.4601
   23.550    0.4387
   23.565    0.3424
   23.580    0.5029
   23.595    0.4173
   23.610    0.5136
   23.625    0.5029
   23.640    0.6100
   23.655    0.6528
   23.670    0.7705
   23.685    0.9845
   23.700    1.1343
   23.715    1.0915
   23.730    1.0487
   23.745    0.8668
   23.760    1.1129
   23.775    0.9845
   23.790    1.0059
   23.805    0.5350
   23.820    0.5350
   23.835    0.5243
   23.850    0.5886
   23.865    0.5564
   23.880    0.5136
   23.895    0.4066
   23.910    0.4708
   23.925    0.4066
   23.940    0.5029
   23.955    0.6100
   23.970    0.4815
   23.985    0.4708
   24.000    0.3531
   24.015    0.4066
   24.030    0.3745
   24.045    0.4494
   24.060    0.4494
   24.075    0.5136
   24.090    0.4815
   24.105    0.5029
   24.120    0.5457
   24.135    0.5457
   24.150    0.5671
   24.165    0.5778
   24.180    0.4280
   24.195    0.5029
   24.210    0.5029
   24.225    0.4601
   24.240    0.4173
   24.255    0.5136
   24.270    0.5029
   24.285    0.3638
   24.300    0.4494
   24.315    0.5671
   24.330    0.4494
   24.345    0.4494
   24.360    0.3959
   24.375    0.3745
   24.390    0.4922
   24.405    0.4173
   24.420    0.4387
   24.435    0.5243
   24.450    0.4708
   24.465    0.3852
   24.480    0.6207
   24.495    0.4708
   24.510    0.4280
   24.525    0.4601
   24.540    0.4494
   24.555    0.4280
   24.570    0.4280
   24.585    0.3745
   24.600    0.3959
   24.615    0.3638
   24.630    0.4387
   24.645    0.4494
   24.660    0.4066
   24.675    0.4066
   24.690    0.4173
   24.705    0.4922
   24.720    0.5243
   24.735    0.4066
   24.750    0.4280
   24.765    0.5243
   24.780    0.5136
   24.795    0.4708
   24.810    0.4387
   24.825    0.4494
   24.840    0.4280
   24.855    0.5243
   24.870    0.5564
   24.885    0.5671
   24.900    0.5671
   24.915    0.5136
   24.930    0.4922
   24.945    0.5564
   24.960    0.4387
   24.975    0.4066
   24.990    0.5243
   25.005    0.4066
   25.020    0.4601
   25.035    0.5243
   25.050    0.4494
   25.065    0.4815
   25.080    0.5136
   25.095    0.5778
   25.110    0.5350
   25.125    0.4387
   25.140    0.3745
   25.155    0.4173
   25.170    0.4922
   25.185    0.3745
   25.200    0.4280
   25.215    0.5136
   25.230    0.4280
   25.245    0.4066
   25.260    0.4601
   25.275    0.5778
   25.290    0.4066
   25.305    0.4601
   25.320    0.5243
   25.335    0.4922
   25.350    0.4708
   25.365    0.5136
   25.380    0.5564
   25.395    0.5778
   25.410    0.6314
   25.425    0.7277
   25.440    0.7705
   25.455    0.7491
   25.470    0.6528
   25.485    0.7598
   25.500    0.7384
   25.515    0.5993
   25.530    0.5564
   25.545    0.5243
   25.560    0.4708
   25.575    0.5136
   25.590    0.4601
   25.605    0.4601
   25.620    0.4708
   25.635    0.3852
   25.650    0.4280
   25.665    0.5457
   25.680    0.4280
   25.695    0.4494
   25.710    0.4922
   25.725    0.4066
   25.740    0.4494
   25.755    0.4601
   25.770    0.5029
   25.785    0.5136
   25.800    0.4387
   25.815    0.5886
   25.830    0.6635
   25.845    0.6421
   25.860    0.5993
   25.875    0.6849
   25.890    0.5671
   25.905    0.7812
   25.920    0.6956
   25.935    0.5993
   25.950    0.5457
   25.965    0.5350
   25.980    0.4815
   25.995    0.5886
   26.010    0.4708
   26.025    0.4280
   26.040    0.4173
   26.055    0.4601
   26.070    0.6207
   26.085    0.4387
   26.100    0.5243
   26.115    0.4387
   26.130    0.4815
   26.145    0.5029
   26.160    0.5457
   26.175    0.5243
   26.190    0.5778
   26.205    0.6635
   26.220    0.8561
   26.235    0.9631
   26.250    1.0915
   26.265    1.0059
   26.280    1.1343
   26.295    1.1129
   26.310    1.0487
   26.325    1.0701
   26.340    1.1450
   26.355    0.9845
   26.370    0.6742
   26.385    0.5671
   26.400    0.5993
   26.415    0.5243
   26.430    0.5350
   26.445    0.3852
   26.460    0.4494
   26.475    0.4387
   26.490    0.4922
   26.505    0.5136
   26.520    0.4708
   26.535    0.4815
   26.550    0.4387
   26.565    0.5886
   26.580    0.6421
   26.595    0.6635
   26.610    0.8026
   26.625    0.8989
   26.640    1.0594
   26.655    1.0166
   26.670    1.1985
   26.685    1.0701
   26.700    1.2520
   26.715    1.2199
   26.730    1.1022
   26.745    1.1878
   26.760    0.9203
   26.775    0.8561
   26.790    0.6742
   26.805    0.5457
   26.820    0.5671
   26.835    0.4601
   26.850    0.5136
   26.865    0.5457
   26.880    0.4708
   26.895    0.3531
   26.910    0.5350
   26.925    0.4601
   26.940    0.5564
   26.955    0.5029
   26.970    0.3745
   26.985    0.5136
   27.000    0.5671
   27.015    0.5243
   27.030    0.7170
   27.045    0.6100
   27.060    0.6207
   27.075    0.6635
   27.090    0.6421
   27.105    0.6421
   27.120    0.6100
   27.135    0.5993
   27.150    0.6421
   27.165    0.5671
   27.180    0.4922
   27.195    0.5243
   27.210    0.4815
   27.225    0.3959
   27.240    0.4280
   27.255    0.3745
   27.270    0.4173
   27.285    0.5564
   27.300    0.4494
   27.315    0.5350
   27.330    0.3745
   27.345    0.3959
   27.360    0.4494
   27.375    0.4387
   27.390    0.4708
   27.405    0.4815
   27.420    0.4922
   27.435    0.5457
   27.450    0.5029
   27.465    0.4922
   27.480    0.6956
   27.495    0.5778
   27.510    0.4173
   27.525    0.4387
   27.540    0.4173
   27.555    0.5029
   27.570    0.5671
   27.585    0.4922
   27.600    0.5350
   27.615    0.4601
   27.630    0.4280
   27.645    0.4387
   27.660    0.5350
   27.675    0.4815
   27.690    0.4922
   27.705    0.4815
   27.720    0.4387
   27.735    0.4815
   27.750    0.4173
   27.765    0.4922
   27.780    0.4708
   27.795    0.5564
   27.810    0.7170
   27.825    0.7277
   27.840    0.6849
   27.855    0.6100
   27.870    0.7170
   27.885    0.7812
   27.900    0.7277
   27.915    0.6314
   27.930    0.5993
   27.945    0.5029
   27.960    0.5243
   27.975    0.5029
   27.990    0.5564
   28.005    0.5778
   28.020    0.4494
   28.035    0.4066
   28.050    0.5029
   28.065    0.5457
   28.080    0.4601
   28.095    0.3959
   28.110    0.4494
   28.125    0.4601
   28.140    0.4387
   28.155    0.4173
   28.170    0.4708
   28.185    0.4387
   28.200    0.4494
   28.215    0.4494
   28.230    0.4387
   28.245    0.4387
   28.260    0.3852
   28.275    0.4708
   28.290    0.3745
   28.305    0.4815
   28.320    0.5457
   28.335    0.4173
   28.350    0.3317
   28.365    0.4066
   28.380    0.4815
   28.395    0.3638
   28.410    0.4280
   28.425    0.3745
   28.440    0.4280
   28.455    0.5243
   28.470    0.3852
   28.485    0.4173
   28.500    0.4066
   28.515    0.4494
   28.530    0.4066
   28.545    0.4387
   28.560    0.4708
   28.575    0.5029
   28.590    0.5993
   28.605    0.5350
   28.620    0.4601
   28.635    0.5993
   28.650    0.5564
   28.665    0.5993
   28.680    0.5350
   28.695    0.5136
   28.710    0.4815
   28.725    0.5457
   28.740    0.4601
   28.755    0.3424
   28.770    0.4280
   28.785    0.4708
   28.800    0.4280
   28.815    0.4494
   28.830    0.4815
   28.845    0.3424
   28.860    0.3959
   28.875    0.4815
   28.890    0.4922
   28.905    0.4815
   28.920    0.4173
   28.935    0.3745
   28.950    0.4280
   28.965    0.5136
   28.980    0.5136
   28.995    0.4922
   29.010    0.4387
   29.025    0.4066
   29.040    0.4708
   29.055    0.4280
   29.070    0.4494
   29.085    0.4066
   29.100    0.4066
   29.115    0.2996
   29.130    0.4815
   29.145    0.4815
   29.160    0.3959
   29.175    0.5029
   29.190    0.4708
   29.205    0.4280
   29.220    0.3852
   29.235    0.3638
   29.250    0.4922
   29.265    0.5350
   29.280    0.5029
   29.295    0.4601
   29.310    0.4708
   29.325    0.4815
   29.340    0.5671
   29.355    0.5136
   29.370    0.5243
   29.385    0.5671
   29.400    0.5243
   29.415    0.6100
   29.430    0.4922
   29.445    0.4708
   29.460    0.4708
   29.475    0.4173
   29.490    0.5136
   29.505    0.3959
   29.520    0.4494
   29.535    0.4173
   29.550    0.4494
   29.565    0.4815
   29.580    0.3745
   29.595    0.4494
   29.610    0.4387
   29.625    0.4494
   29.640    0.4066
   29.655    0.5243
   29.670    0.5136
   29.685    0.5136
   29.700    0.4922
   29.715    0.4922
   29.730    0.3638
   29.745    0.5350
   29.760    0.4815
   29.775    0.3852
   29.790    0.5457
   29.805    0.4494
   29.820    0.4922
   29.835    0.5029
   29.850    0.4601
   29.865    0.4066
   29.880    0.4173
   29.895    0.3317
   29.910    0.3531
   29.925    0.4280
   29.940    0.3424
   29.955    0.4815
   29.970    0.4708
   29.985    0.4280
   30.000    0.4922
   30.015    0.6207
   30.030    0.6956
   30.045    0.8240
   30.060    0.8026
   30.075    0.8668
   30.090    0.8561
   30.105    0.8347
   30.120    0.9310
   30.135    0.8347
   30.150    0.8133
   30.165    0.8026
   30.180    0.7063
   30.195    0.6207
   30.210    0.5136
   30.225    0.5029
   30.240    0.3959
   30.255    0.3745
   30.270    0.4601
   30.285    0.5350
   30.300    0.6100
   30.315    0.3852
   30.330    0.3852
   30.345    0.3531
   30.360    0.3638
   30.375    0.3531
   30.390    0.3317
   30.405    0.3317
   30.420    0.3852
   30.435    0.3852
   30.450    0.3959
   30.465    0.4494
   30.480    0.4387
   30.495    0.5136
   30.510    0.5778
   30.525    0.4387
   30.540    0.4280
   30.555    0.5029
   30.570    0.4280
   30.585    0.4066
   30.600    0.3531
   30.615    0.2889
   30.630    0.4387
   30.645    0.5671
   30.660    0.4173
   30.675    0.5350
   30.690    0.3852
   30.705    0.4922
   30.720    0.4066
   30.735    0.5350
   30.750    0.5886
   30.765    0.5993
   30.780    0.5457
   30.795    0.5993
   30.810    0.5457
   30.825    0.5457
   30.840    0.6100
   30.855    0.5564
   30.870    0.4494
   30.885    0.4387
   30.900    0.5778
   30.915    0.3959
   30.930    0.4708
   30.945    0.4601
   30.960    0.4922
   30.975    0.4066
   30.990    0.4708
   31.005    0.4066
   31.020    0.3959
   31.035    0.3852
   31.050    0.3638
   31.065    0.3531
   31.080    0.3852
   31.095    0.4280
   31.110    0.5886
   31.125    0.4922
   31.140    0.4815
   31.155    0.4387
   31.170    0.3745
   31.185    0.4815
   31.200    0.3745
   31.215    0.3638
   31.230    0.3317
   31.245    0.2996
   31.260    0.2996
   31.275    0.4601
   31.290    0.4173
   31.305    0.4494
   31.320    0.4066
   31.335    0.4494
   31.350    0.4066
   31.365    0.3531
   31.380    0.4173
   31.395    0.4066
   31.410    0.4494
   31.425    0.4387
   31.440    0.5350
   31.455    0.6100
   31.470    0.4280
   31.485    0.5778
   31.500    0.7598
   31.515    0.5993
   31.530    0.6314
   31.545    0.6742
   31.560    0.6742
   31.575    0.6100
   31.590    0.5457
   31.605    0.5671
   31.620    0.3959
   31.635    0.2889
   31.650    0.3852
   31.665    0.5350
   31.680    0.4708
   31.695    0.4387
   31.710    0.4066
   31.725    0.3103
   31.740    0.4173
   31.755    0.3638
   31.770    0.2782
   31.785    0.3317
   31.800    0.3745
   31.815    0.4494
   31.830    0.3852
   31.845    0.4280
   31.860    0.4173
   31.875    0.3317
   31.890    0.3531
   31.905    0.3531
   31.920    0.3852
   31.935    0.3959
   31.950    0.3103
   31.965    0.4708
   31.980    0.4280
   31.995    0.3959
   32.010    0.3424
   32.025    0.2782
   32.040    0.3638
   32.055    0.3424
   32.070    0.3638
   32.085    0.3959
   32.100    0.3103
   32.115    0.4494
   32.130    0.5029
   32.145    0.4922
   32.160    0.5243
   32.175    0.5136
   32.190    0.4494
   32.205    0.4815
   32.220    0.4708
   32.235    0.5993
   32.250    0.4601
   32.265    0.5457
   32.280    0.4066
   32.295    0.4601
   32.310    0.5778
   32.325    0.4173
   32.340    0.4280
   32.355    0.3424
   32.370    0.3424
   32.385    0.2996
   32.400    0.3210
   32.415    0.3959
   32.430    0.3852
   32.445    0.3852
   32.460    0.4173
   32.475    0.4922
   32.490    0.4494
   32.505    0.4922
   32.520    0.5243
   32.535    0.3959
   32.550    0.4922
   32.565    0.5671
   32.580    0.5243
   32.595    0.4494
   32.610    0.5136
   32.625    0.3638
   32.640    0.4708
   32.655    0.3745
   32.670    0.3959
   32.685    0.4387
   32.700    0.4708
   32.715    0.3424
   32.730    0.4708
   32.745    0.4387
   32.760    0.4922
   32.775    0.5136
   32.790    0.4601
   32.805    0.5993
   32.820    0.4601
   32.835    0.6100
   32.850    0.7170
   32.865    0.6314
   32.880    0.6314
   32.895    0.5029
   32.910    0.5886
   32.925    0.5136
   32.940    0.5671
   32.955    0.4815
   32.970    0.4280
   32.985    0.4922
   33.000    0.4387
   33.015    0.4173
   33.030    0.4601
   33.045    0.3745
   33.060    0.4280
   33.075    0.4601
   33.090    0.4280
   33.105    0.4066
   33.120    0.4494
   33.135    0.4815
   33.150    0.5350
   33.165    0.5029
   33.180    0.5993
   33.195    0.5778
   33.210    0.6100
   33.225    0.4494
   33.240    0.5778
   33.255    0.4708
   33.270    0.5457
   33.285    0.3852
   33.300    0.3852
   33.315    0.4494
   33.330    0.4387
   33.345    0.3638
   33.360    0.4066
   33.375    0.3103
   33.390    0.2889
   33.405    0.3424
   33.420    0.4494
   33.435    0.4815
   33.450    0.4708
   33.465    0.4922
   33.480    0.3852
   33.495    0.4066
   33.510    0.2889
   33.525    0.2889
   33.540    0.3852
   33.555    0.4173
   33.570    0.3210
   33.585    0.2568
   33.600    0.3317
   33.615    0.2996
   33.630    0.3103
   33.645    0.2675
   33.660    0.3424
   33.675    0.4708
   33.690    0.4601
   33.705    0.3745
   33.720    0.2996
   33.735    0.2889
   33.750    0.4708
   33.765    0.4280
   33.780    0.4601
   33.795    0.4387
   33.810    0.3638
   33.825    0.3852
   33.840    0.4066
   33.855    0.3745
   33.870    0.3210
   33.885    0.3852
   33.900    0.4387
   33.915    0.3638
   33.930    0.3103
   33.945    0.3317
   33.960    0.3852
   33.975    0.4387
   33.990    0.4280
   34.005    0.4708
   34.020    0.4280
   34.035    0.3745
   34.050    0.4494
   34.065    0.4601
   34.080    0.4387
   34.095    0.4708
   34.110    0.4708
   34.125    0.5029
   34.140    0.3959
   34.155    0.5029
   34.170    0.6635
   34.185    0.4922
   34.200    0.4280
   34.215    0.4601
   34.230    0.5029
   34.245    0.4922
   34.260    0.4708
   34.275    0.4601
   34.290    0.4708
   34.305    0.3745
   34.320    0.2996
   34.335    0.3745
   34.350    0.3424
   34.365    0.3424
   34.380    0.3317
   34.395    0.3638
   34.410    0.4173
   34.425    0.2675
   34.440    0.2568
   34.455    0.3317
   34.470    0.2675
   34.485    0.2996
   34.500    0.3531
   34.515    0.3852
   34.530    0.3745
   34.545    0.3424
   34.560    0.3531
   34.575    0.3210
   34.590    0.3959
   34.605    0.3959
   34.620    0.3531
   34.635    0.3103
   34.650    0.3638
   34.665    0.3531
   34.680    0.3424
   34.695    0.2461
   34.710    0.3959
   34.725    0.3745
   34.740    0.3103
   34.755    0.4494
   34.770    0.4494
   34.785    0.4173
   34.800    0.4601
   34.815    0.4280
   34.830    0.3317
   34.845    0.4708
   34.860    0.4066
   34.875    0.4815
   34.890    0.3852
   34.905    0.3745
   34.920    0.3852
   34.935    0.3745
   34.950    0.4708
   34.965    0.4280
   34.980    0.3210
   34.995    0.3745
   35.010    0.3317
   35.025    0.3103
   35.040    0.3531
   35.055    0.3745
   35.070    0.3852
   35.085    0.3103
   35.100    0.3531
   35.115    0.3745
   35.130    0.4280
   35.145    0.2889
   35.160    0.2782
   35.175    0.3531
   35.190    0.4066
   35.205    0.3959
   35.220    0.3424
   35.235    0.3210
   35.250    0.3638
   35.265    0.2996
   35.280    0.2461
   35.295    0.3210
   35.310    0.3638
   35.325    0.4173
   35.340    0.3210
   35.355    0.4815
   35.370    0.3638
   35.385    0.3103
   35.400    0.3424
   35.415    0.4494
   35.430    0.3745
   35.445    0.3317
   35.460    0.3531
   35.475    0.4922
   35.490    0.2889
   35.505    0.3210
   35.520    0.4387
   35.535    0.3531
   35.550    0.2782
   35.565    0.4387
   35.580    0.3852
   35.595    0.3317
   35.610    0.2996
   35.625    0.3852
   35.640    0.3531
   35.655    0.3317
   35.670    0.4173
   35.685    0.3745
   35.700    0.4280
   35.715    0.3638
   35.730    0.4280
   35.745    0.4387
   35.760    0.3745
   35.775    0.3210
   35.790    0.3852
   35.805    0.4280
   35.820    0.2675
   35.835    0.3210
   35.850    0.2889
   35.865    0.2354
   35.880    0.2996
   35.895    0.3103
   35.910    0.3424
   35.925    0.3638
   35.940    0.3531
   35.955    0.3959
   35.970    0.3210
   35.985    0.3531
   36.000    0.3531
   36.015    0.3745
   36.030    0.2461
   36.045    0.2782
   36.060    0.3531
   36.075    0.2247
   36.090    0.3103
   36.105    0.3852
   36.120    0.4066
   36.135    0.3638
   36.150    0.2889
   36.165    0.2889
   36.180    0.2247
   36.195    0.3852
   36.210    0.2996
   36.225    0.2996
   36.240    0.3103
   36.255    0.2782
   36.270    0.2782
   36.285    0.2568
   36.300    0.2889
   36.315    0.2889
   36.330    0.3424
   36.345    0.3424
   36.360    0.2889
   36.375    0.3210
   36.390    0.3424
   36.405    0.4387
   36.420    0.3210
   36.435    0.2033
   36.450    0.2568
   36.465    0.3210
   36.480    0.2461
   36.495    0.3424
   36.510    0.2675
   36.525    0.2675
   36.540    0.3317
   36.555    0.4708
   36.570    0.4066
   36.585    0.4601
   36.600    0.3959
   36.615    0.4922
   36.630    0.4708
   36.645    0.3103
   36.660    0.3317
   36.675    0.3959
   36.690    0.3745
   36.705    0.4066
   36.720    0.4708
   36.735    0.3852
   36.750    0.3210
   36.765    0.2461
   36.780    0.3531
   36.795    0.3424
   36.810    0.3531
   36.825    0.2675
   36.840    0.3531
   36.855    0.2889
   36.870    0.2889
   36.885    0.3424
   36.900    0.3210
   36.915    0.2675
   36.930    0.3638
   36.945    0.4066
   36.960    0.3103
   36.975    0.3531
   36.990    0.3852
   37.005    0.3317
   37.020    0.4494
   37.035    0.3638
   37.050    0.2782
   37.065    0.2461
   37.080    0.3103
   37.095    0.3424
   37.110    0.3424
   37.125    0.2996
   37.140    0.3745
   37.155    0.3317
   37.170    0.3210
   37.185    0.2996
   37.200    0.3317
   37.215    0.2354
   37.230    0.3210
   37.245    0.3103
   37.260    0.3103
   37.275    0.2782
   37.290    0.3531
   37.305    0.3852
   37.320    0.3210
   37.335    0.3103
   37.350    0.3103
   37.365    0.3103
   37.380    0.2461
   37.395    0.2889
   37.410    0.2461
   37.425    0.2247
   37.440    0.2461
   37.455    0.2675
   37.470    0.2889
   37.485    0.2461
   37.500    0.2996
   37.515    0.2782
   37.530    0.2889
   37.545    0.3103
   37.560    0.3103
   37.575    0.3852
   37.590    0.3210
   37.605    0.3852
   37.620    0.3103
   37.635    0.3210
   37.650    0.3210
   37.665    0.2782
   37.680    0.2782
   37.695    0.2033
   37.710    0.3424
   37.725    0.3317
   37.740    0.3103
   37.755    0.3210
   37.770    0.3424
   37.785    0.3531
   37.800    0.1926
   37.815    0.3424
   37.830    0.3531
   37.845    0.3103
   37.860    0.3852
   37.875    0.2461
   37.890    0.2247
   37.905    0.3103
   37.920    0.2354
   37.935    0.4066
   37.950    0.2568
   37.965    0.3210
   37.980    0.3424
   37.995    0.2140
   38.010    0.2140
   38.025    0.3210
   38.040    0.2889
   38.055    0.2889
   38.070    0.2354
   38.085    0.3638
   38.100    0.3424
   38.115    0.3317
   38.130    0.2782
   38.145    0.2568
   38.160    0.2996
   38.175    0.3210
   38.190    0.2996
   38.205    0.2782
   38.220    0.2568
   38.235    0.2461
   38.250    0.2354
   38.265    0.1926
   38.280    0.2889
   38.295    0.3317
   38.310    0.3638
   38.325    0.4387
   38.340    0.3210
   38.355    0.2996
   38.370    0.3531
   38.385    0.3638
   38.400    0.2568
   38.415    0.2782
   38.430    0.2782
   38.445    0.3745
   38.460    0.2782
   38.475    0.3210
   38.490    0.3103
   38.505    0.3852
   38.520    0.2889
   38.535    0.2889
   38.550    0.2354
   38.565    0.2568
   38.580    0.1926
   38.595    0.2247
   38.610    0.1926
   38.625    0.3103
   38.640    0.3424
   38.655    0.2889
   38.670    0.2568
   38.685    0.3210
   38.700    0.2889
   38.715    0.2140
   38.730    0.2675
   38.745    0.2461
   38.760    0.3103
   38.775    0.2889
   38.790    0.3317
   38.805    0.3210
   38.820    0.3745
   38.835    0.2782
   38.850    0.2889
   38.865    0.3424
   38.880    0.2996
   38.895    0.3103
   38.910    0.2568
   38.925    0.2568
   38.940    0.2247
   38.955    0.1926
   38.970    0.2247
   38.985    0.2568
   39.000    0.2782
   39.015    0.2996
   39.030    0.2782
   39.045    0.2247
   39.060    0.2996
   39.075    0.2889
   39.090    0.3210
   39.105    0.2461
   39.120    0.2675
   39.135    0.3317
   39.150    0.2247
   39.165    0.2461
   39.180    0.2782
   39.195    0.1926
   39.210    0.2889
   39.225    0.1926
   39.240    0.2247
   39.255    0.2889
   39.270    0.2889
   39.285    0.2568
   39.300    0.2568
   39.315    0.2461
   39.330    0.2675
   39.345    0.3103
   39.360    0.2461
   39.375    0.2461
   39.390    0.2568
   39.405    0.2889
   39.420    0.1926
   39.435    0.2675
   39.450    0.3103
   39.465    0.2996
   39.480    0.2889
   39.495    0.3210
   39.510    0.2996
   39.525    0.3959
   39.540    0.3210
   39.555    0.2568
   39.570    0.3317
   39.585    0.2354
   39.600    0.2889
   39.615    0.3210
   39.630    0.2996
   39.645    0.4066
   39.660    0.3317
   39.675    0.3317
   39.690    0.2675
   39.705    0.3638
   39.720    0.3103
   39.735    0.3103
   39.750    0.2889
   39.765    0.3210
   39.780    0.3638
   39.795    0.3103
   39.810    0.2354
   39.825    0.2675
   39.840    0.2568
   39.855    0.2461
   39.870    0.2889
   39.885    0.2568
   39.900    0.3210
   39.915    0.2889
   39.930    0.3210
   39.945    0.2889
   39.960    0.1819
   39.975    0.2675
   39.990    0.2461
