    1.500   16.1664
    1.515   16.1489
    1.530   16.2015
    1.545   15.2887
    1.560   14.5866
    1.575   15.2887
    1.590   15.3590
    1.605   14.9201
    1.620   15.7100
    1.635   14.5866
    1.650   14.3233
    1.665   13.5685
    1.680   13.7090
    1.695   13.4632
    1.710   14.3760
    1.725   13.6739
    1.740   13.4281
    1.755   12.9717
    1.770   13.3755
    1.785   13.3579
    1.800   12.2872
    1.815   12.5329
    1.830   12.7084
    1.845   11.9537
    1.860   11.8132
    1.875   12.8313
    1.890   12.0239
    1.905   12.1994
    1.920   12.1994
    1.935   11.0936
    1.950   10.8303
    1.965   11.4095
    1.980   10.5494
    1.995   10.6723
    2.010   10.7425
    2.025   10.7776
    2.040   10.6898
    2.055   10.7074
    2.070   10.3914
    2.085   11.0585
    2.100   10.4265
    2.115   10.2159
    2.130    9.9526
    2.145    9.9351
    2.160    9.4611
    2.175    9.0925
    2.190    9.2505
    2.205    9.6542
    2.220    9.3558
    2.235    9.6191
    2.250    9.3207
    2.265    9.0223
    2.280    8.8643
    2.295    9.2329
    2.310    9.1276
    2.325    9.6718
    2.340    9.1101
    2.355    8.9345
    2.370    9.2154
    2.385    8.5484
    2.400    8.9345
    2.415    9.0574
    2.430    9.0925
    2.445    8.5484
    2.460    8.5484
    2.475    8.4606
    2.490    8.8819
    2.505    8.8643
    2.520    8.3553
    2.535    8.5659
    2.550    8.3202
    2.565    8.5484
    2.580    8.2675
    2.595    7.9516
    2.610    8.0393
    2.625    7.9164
    2.640    7.9164
    2.655    8.4430
    2.670    8.2675
    2.685    8.2675
    2.700    8.3026
    2.715    7.6356
    2.730    8.0569
    2.745    8.0569
    2.760    7.9867
    2.775    8.1622
    2.790    8.6888
    2.805    8.7414
    2.820    8.3202
    2.835    7.4250
    2.850    8.5308
    2.865    8.4606
    2.880    8.0920
    2.895    8.5835
    2.910    8.3904
    2.925    8.6361
    2.940    9.5840
    2.955    9.2329
    2.970    9.2329
    2.985    9.8297
    3.000    9.3909
    3.015    9.5489
    3.030    9.8473
    3.045   10.3914
    3.060   10.4968
    3.075   11.0760
    3.090   11.3569
    3.105   11.1287
    3.120   12.2170
    3.135   12.6207
    3.150   12.6207
    3.165   13.1824
    3.180   14.0249
    3.195   14.8675
    3.210   15.8856
    3.225   17.0441
    3.240   17.7637
    3.255   17.7637
    3.270   18.8871
    3.285   19.7297
    3.300   20.8706
    3.315   21.8185
    3.330   23.6440
    3.345   25.6275
    3.360   25.4695
    3.375   27.0844
    3.390   28.5764
    3.405   30.9286
    3.420   33.9301
    3.435   35.0711
    3.450   37.6689
    3.465   40.0562
    3.480   43.1806
    3.495   45.2870
    3.510   47.4285
    3.525   52.7646
    3.540   56.8369
    3.555   59.1364
    3.570   65.9294
    3.585   70.8268
    3.600   76.5315
    3.615   84.6410
    3.630   92.3468
    3.645  101.6851
    3.660  113.0595
    3.675  127.6812
    3.690  146.3226
    3.705  168.8257
    3.720  200.4564
    3.735  236.8791
    3.750  271.8097
    3.765  282.0081
    3.780  259.8561
    3.795  219.5366
    3.810  154.9236
    3.825   91.5570
    3.840   47.5338
    3.855   24.4164
    3.870   15.8329
    3.885   12.0590
    3.900   10.5143
    3.915    9.7595
    3.930    8.3728
    3.945    7.8989
    3.960    7.7585
    3.975    7.0915
    3.990    6.4595
    4.005    6.8633
    4.020    6.7228
    4.035    6.1611
    4.050    5.7925
    4.065    5.9681
    4.080    5.6697
    4.095    5.7750
    4.110    5.8101
    4.125    5.9856
    4.140    6.1787
    4.155    5.5819
    4.170    5.8452
    4.185    5.8276
    4.200    5.8452
    4.215    5.9505
    4.230    5.9154
    4.245    5.3186
    4.260    5.6170
    4.275    5.2308
    4.290    5.0728
    4.305    5.5117
    4.320    5.1255
    4.335    5.4064
    4.350    5.3186
    4.365    5.1255
    4.380    4.5814
    4.395    5.5994
    4.410    5.1255
    4.425    4.7744
    4.440    4.7920
    4.455    4.8622
    4.470    5.0904
    4.485    5.2484
    4.500    5.5292
    4.515    5.7048
    4.530    5.4941
    4.545    5.1606
    4.560    5.0202
    4.575    5.1606
    4.590    4.8622
    4.605    5.6345
    4.620    5.1080
    4.635    5.2835
    4.650    5.3537
    4.665    4.7218
    4.680    4.8798
    4.695    5.1431
    4.710    5.2835
    4.725    5.5819
    4.740    4.7042
    4.755    4.9675
    4.770    5.0377
    4.785    4.9149
    4.800    5.0728
    4.815    5.6345
    4.830    6.1962
    4.845    6.0032
    4.860    5.7399
    4.875    5.5117
    4.890    5.4064
    4.905    6.0032
    4.920    6.1436
    4.935    6.4595
    4.950    6.3718
    4.965    6.7228
    4.980    6.5298
    4.995    7.0388
    5.010    7.1617
    5.025    7.3899
    5.040    7.2143
    5.055    7.5478
    5.070    7.9516
    5.085    8.7239
    5.100    9.3558
    5.115    9.7069
    5.130   10.2510
    5.145   10.6021
    5.160   11.9888
    5.175   13.0595
    5.190   13.2350
    5.205   14.7797
    5.220   15.7627
    5.235   17.6409
    5.250   19.7648
    5.265   21.7483
    5.280   24.5568
    5.295   30.5424
    5.310   34.4743
    5.325   39.1259
    5.340   44.0758
    5.355   46.2875
    5.370   43.1982
    5.385   36.4753
    5.400   27.5057
    5.415   17.9744
    5.430   11.3920
    5.445    8.0393
    5.460    7.0212
    5.475    5.4590
    5.490    5.4239
    5.505    5.2308
    5.520    5.0728
    5.535    5.0904
    5.550    4.8271
    5.565    5.1431
    5.580    5.1255
    5.595    4.7218
    5.610    4.8622
    5.625    4.4760
    5.640    5.0553
    5.655    5.3186
    5.670    5.0904
    5.685    5.1255
    5.700    5.1782
    5.715    5.0202
    5.730    4.5111
    5.745    4.7042
    5.760    4.5287
    5.775    4.5814
    5.790    5.0026
    5.805    4.4585
    5.820    4.7920
    5.835    4.5989
    5.850    4.8271
    5.865    4.3883
    5.880    4.5111
    5.895    4.6867
    5.910    4.2478
    5.925    3.9670
    5.940    4.4585
    5.955    4.4585
    5.970    4.5638
    5.985    4.6340
    6.000    4.6165
    6.015    4.4409
    6.030    4.6340
    6.045    4.5638
    6.060    4.4936
    6.075    4.3883
    6.090    4.3707
    6.105    5.0728
    6.120    4.7920
    6.135    4.7042
    6.150    4.8973
    6.165    4.8798
    6.180    4.3005
    6.195    4.4936
    6.210    4.4409
    6.225    4.7569
    6.240    5.0202
    6.255    5.1080
    6.270    5.0904
    6.285    5.1431
    6.300    5.0904
    6.315    5.0553
    6.330    5.1431
    6.345    5.2659
    6.360    5.6521
    6.375    5.4766
    6.390    6.3367
    6.405    6.6526
    6.420    6.4946
    6.435    6.7404
    6.450    7.2143
    6.465    8.0569
    6.480    8.4781
    6.495    9.4085
    6.510   10.7074
    6.525   11.7781
    6.540   13.5685
    6.555   14.6217
    6.570   15.4818
    6.585   15.9558
    6.600   14.4638
    6.615   12.0590
    6.630    9.0925
    6.645    7.1968
    6.660    5.5819
    6.675    5.0026
    6.690    5.1080
    6.705    4.9675
    6.720    4.7569
    6.735    4.4936
    6.750    4.4234
    6.765    4.4585
    6.780    4.4936
    6.795    4.4058
    6.810    4.2127
    6.825    4.4409
    6.840    3.9143
    6.855    4.2303
    6.870    4.3707
    6.885    4.0548
    6.900    4.5111
    6.915    4.4409
    6.930    4.0723
    6.945    4.0723
    6.960    4.2303
    6.975    4.3707
    6.990    4.2830
    7.005    4.8271
    7.020    4.1425
    7.035    4.3005
    7.050    3.8090
    7.065    4.0548
    7.080    4.3356
    7.095    3.9319
    7.110    4.2303
    7.125    4.5463
    7.140    4.6867
    7.155    4.2127
    7.170    4.1074
    7.185    4.1601
    7.200    4.4936
    7.215    4.5287
    7.230    4.4409
    7.245    4.0548
    7.260    4.4760
    7.275    4.8095
    7.290    4.6340
    7.305    4.3005
    7.320    4.3181
    7.335    4.5111
    7.350    4.5989
    7.365    4.8271
    7.380    4.9324
    7.395    5.3361
    7.410    5.1255
    7.425    5.4941
    7.440    5.1431
    7.455    5.3712
    7.470    6.3191
    7.485    6.2138
    7.500    6.6175
    7.515    6.8984
    7.530    7.8462
    7.545    8.5835
    7.560    9.6542
    7.575   10.2861
    7.590   11.6377
    7.605   12.0063
    7.620   11.6904
    7.635    9.9175
    7.650    8.4255
    7.665    7.2143
    7.680    5.2835
    7.695    4.5111
    7.710    4.4058
    7.725    4.3883
    7.740    4.5287
    7.755    4.4234
    7.770    4.4058
    7.785    4.0899
    7.800    4.4760
    7.815    4.1074
    7.830    4.1250
    7.845    4.2127
    7.860    4.3707
    7.875    3.9846
    7.890    3.9319
    7.905    4.0548
    7.920    4.1776
    7.935    4.2654
    7.950    4.2303
    7.965    4.0021
    7.980    4.3532
    7.995    4.2654
    8.010    4.1425
    8.025    4.0548
    8.040    3.9494
    8.055    3.8617
    8.070    4.3707
    8.085    4.3356
    8.100    4.2830
    8.115    3.9494
    8.130    3.9494
    8.145    3.7739
    8.160    3.7915
    8.175    4.0372
    8.190    4.0197
    8.205    4.3532
    8.220    4.2478
    8.235    4.0372
    8.250    4.2478
    8.265    4.2127
    8.280    4.0197
    8.295    4.2830
    8.310    4.8447
    8.325    4.6691
    8.340    4.5463
    8.355    4.6165
    8.370    4.9851
    8.385    5.0026
    8.400    5.3010
    8.415    5.5994
    8.430    6.0383
    8.445    6.3367
    8.460    6.9686
    8.475    7.9691
    8.490    8.4430
    8.505    9.4260
    8.520    9.0750
    8.535    8.2851
    8.550    7.4074
    8.565    5.7223
    8.580    5.4590
    8.595    4.8622
    8.610    4.4585
    8.625    4.4234
    8.640    4.4585
    8.655    4.0372
    8.670    4.0899
    8.685    3.7915
    8.700    3.7388
    8.715    4.1074
    8.730    3.9319
    8.745    4.0723
    8.760    4.1074
    8.775    3.8441
    8.790    3.9143
    8.805    3.8792
    8.820    3.6862
    8.835    4.1601
    8.850    4.2478
    8.865    4.0548
    8.880    3.8792
    8.895    3.8792
    8.910    4.0021
    8.925    3.7915
    8.940    4.1776
    8.955    4.1074
    8.970    3.7739
    8.985    3.7037
    9.000    3.8090
    9.015    3.8792
    9.030    4.0021
    9.045    4.4760
    9.060    4.1250
    9.075    4.2127
    9.090    4.1601
    9.105    4.5638
    9.120    4.7393
    9.135    4.7920
    9.150    5.2835
    9.165    5.4239
    9.180    5.9505
    9.195    5.8978
    9.210    5.9681
    9.225    6.2138
    9.240    7.0739
    9.255    7.4952
    9.270    9.1276
    9.285   11.0058
    9.300   13.0595
    9.315   14.2531
    9.330   14.5691
    9.345   13.0595
    9.360   11.3744
    9.375   10.6723
    9.390    8.0569
    9.405    5.5994
    9.420    4.6867
    9.435    4.3707
    9.450    3.7739
    9.465    4.4058
    9.480    4.0899
    9.495    3.7739
    9.510    3.9319
    9.525    3.8617
    9.540    3.8090
    9.555    3.8090
    9.570    3.7915
    9.585    4.0372
    9.600    3.7915
    9.615    3.5808
    9.630    3.5984
    9.645    3.8968
    9.660    3.6335
    9.675    4.0899
    9.690    3.9846
    9.705    4.1776
    9.720    3.7564
    9.735    3.8617
    9.750    3.8441
    9.765    4.4409
    9.780    3.8968
    9.795    3.9670
    9.810    3.8792
    9.825    4.0723
    9.840    4.0021
    9.855    4.3005
    9.870    4.3356
    9.885    4.7042
    9.900    4.6516
    9.915    4.9675
    9.930    5.2133
    9.945    5.5819
    9.960    5.7574
    9.975    6.1085
    9.990    6.8808
   10.005    7.9340
   10.020    8.8468
   10.035   10.4792
   10.050   12.1994
   10.065   13.7967
   10.080   14.6919
   10.095   14.0776
   10.110   13.0771
   10.125   10.9882
   10.140    8.5835
   10.155    7.0212
   10.170    5.2484
   10.185    4.5638
   10.200    3.9670
   10.215    3.9319
   10.230    3.9846
   10.245    4.0723
   10.260    4.1601
   10.275    4.0021
   10.290    4.0372
   10.305    3.5808
   10.320    3.7213
   10.335    3.7037
   10.350    3.7564
   10.365    3.3702
   10.380    3.9143
   10.395    4.1250
   10.410    3.8266
   10.425    4.1776
   10.440    3.5457
   10.455    3.8792
   10.470    3.8617
   10.485    4.2654
   10.500    4.0548
   10.515    4.0723
   10.530    4.0197
   10.545    4.4936
   10.560    4.4234
   10.575    4.2478
   10.590    4.1776
   10.605    4.2478
   10.620    4.6340
   10.635    4.4936
   10.650    4.6691
   10.665    5.1957
   10.680    5.4941
   10.695    5.3361
   10.710    5.9329
   10.725    6.8106
   10.740    8.1622
   10.755    9.1627
   10.770   10.2335
   10.785   10.0579
   10.800    9.8122
   10.815    9.8122
   10.830    8.1095
   10.845    6.7404
   10.860    5.4766
   10.875    4.5111
   10.890    4.1601
   10.905    4.1601
   10.920    3.8617
   10.935    4.0197
   10.950    3.6862
   10.965    3.8266
   10.980    3.9670
   10.995    4.0021
   11.010    3.9494
   11.025    3.7388
   11.040    3.7388
   11.055    3.4755
   11.070    3.5808
   11.085    3.3175
   11.100    3.5106
   11.115    3.6686
   11.130    3.5984
   11.145    3.8968
   11.160    3.9143
   11.175    3.7915
   11.190    3.8266
   11.205    3.6686
   11.220    4.1074
   11.235    3.8266
   11.250    3.8792
   11.265    4.1250
   11.280    4.2830
   11.295    4.0899
   11.310    4.1601
   11.325    4.1952
   11.340    4.5989
   11.355    4.5287
   11.370    4.9324
   11.385    5.7750
   11.400    6.0383
   11.415    6.9159
   11.430    7.7936
   11.445    8.2851
   11.460    7.2319
   11.475    6.6000
   11.490    6.6877
   11.505    5.5994
   11.520    4.9675
   11.535    4.1776
   11.550    3.9319
   11.565    4.0197
   11.580    3.9494
   11.595    3.9494
   11.610    4.2654
   11.625    3.8617
   11.640    3.8266
   11.655    3.6335
   11.670    3.5457
   11.685    3.9494
   11.700    3.6159
   11.715    3.6159
   11.730    3.6862
   11.745    3.6159
   11.760    3.6159
   11.775    3.5984
   11.790    3.5282
   11.805    3.8968
   11.820    4.0021
   11.835    3.9846
   11.850    3.5633
   11.865    3.8266
   11.880    3.7915
   11.895    3.8441
   11.910    3.7213
   11.925    3.7739
   11.940    3.6159
   11.955    3.9319
   11.970    4.5111
   11.985    4.0548
   12.000    4.5814
   12.015    4.6516
   12.030    5.1080
   12.045    5.3537
   12.060    5.7925
   12.075    6.0558
   12.090    6.4069
   12.105    5.3010
   12.120    5.1080
   12.135    4.7218
   12.150    4.1074
   12.165    3.7915
   12.180    3.9670
   12.195    3.9494
   12.210    3.8441
   12.225    3.7388
   12.240    3.3351
   12.255    3.6335
   12.270    3.8266
   12.285    3.6510
   12.300    3.4931
   12.315    3.9494
   12.330    4.0372
   12.345    3.7564
   12.360    3.7037
   12.375    3.5984
   12.390    3.7213
   12.405    3.6159
   12.420    3.3702
   12.435    3.7388
   12.450    4.1074
   12.465    3.5633
   12.480    3.5457
   12.495    3.9143
   12.510    3.6686
   12.525    3.9494
   12.540    3.8266
   12.555    4.1250
   12.570    4.2478
   12.585    4.6165
   12.600    5.2133
   12.615    6.1436
   12.630    6.1085
   12.645    6.5824
   12.660    6.9686
   12.675    7.2670
   12.690    6.4595
   12.705    6.1436
   12.720    5.5994
   12.735    4.7920
   12.750    4.4058
   12.765    3.8090
   12.780    3.3000
   12.795    3.4931
   12.810    3.3702
   12.825    3.7564
   12.840    3.5984
   12.855    3.4404
   12.870    3.3526
   12.885    3.7213
   12.900    3.6510
   12.915    3.1420
   12.930    3.1245
   12.945    3.4053
   12.960    3.3351
   12.975    3.4755
   12.990    3.6335
   13.005    3.6335
   13.020    3.6862
   13.035    3.7739
   13.050    3.3702
   13.065    3.5457
   13.080    3.7739
   13.095    3.8968
   13.110    3.6686
   13.125    3.4755
   13.140    3.6510
   13.155    4.1074
   13.170    4.1250
   13.185    4.5814
   13.200    4.3883
   13.215    4.5111
   13.230    4.7920
   13.245    4.7569
   13.260    4.8271
   13.275    4.3883
   13.290    4.7393
   13.305    4.5111
   13.320    3.7213
   13.335    3.8968
   13.350    3.4229
   13.365    3.7213
   13.380    3.6335
   13.395    3.5808
   13.410    3.3351
   13.425    3.4580
   13.440    3.4931
   13.455    3.7915
   13.470    3.6510
   13.485    3.2824
   13.500    3.6510
   13.515    3.7564
   13.530    3.8968
   13.545    3.6159
   13.560    3.4755
   13.575    4.0723
   13.590    3.7388
   13.605    3.5457
   13.620    3.7739
   13.635    4.4585
   13.650    4.2478
   13.665    4.5989
   13.680    4.7042
   13.695    5.5292
   13.710    5.7750
   13.725    6.3191
   13.740    7.0212
   13.755    7.9867
   13.770    9.2329
   13.785    9.3558
   13.800    9.0398
   13.815    8.1095
   13.830    6.9159
   13.845    5.7574
   13.860    5.0904
   13.875    4.3707
   13.890    3.7915
   13.905    3.5457
   13.920    3.4931
   13.935    3.4931
   13.950    3.4755
   13.965    3.1596
   13.980    3.2473
   13.995    3.4053
   14.010    3.6510
   14.025    3.5808
   14.040    3.8617
   14.055    3.9846
   14.070    3.5808
   14.085    3.5457
   14.100    3.7564
   14.115    3.5633
   14.130    3.4053
   14.145    3.1771
   14.160    3.3526
   14.175    3.3526
   14.190    3.6159
   14.205    3.6686
   14.220    3.6510
   14.235    3.6686
   14.250    3.6335
   14.265    3.3877
   14.280    3.4229
   14.295    3.8441
   14.310    3.8090
   14.325    3.5808
   14.340    3.4229
   14.355    2.9314
   14.370    3.2122
   14.385    3.4229
   14.400    3.9670
   14.415    3.5984
   14.430    3.8441
   14.445    4.0548
   14.460    3.6159
   14.475    3.3877
   14.490    3.5457
   14.505    3.4229
   14.520    3.5457
   14.535    3.3175
   14.550    3.2122
   14.565    3.4931
   14.580    3.3000
   14.595    3.3702
   14.610    3.6335
   14.625    3.6510
   14.640    3.5808
   14.655    3.7388
   14.670    3.8441
   14.685    3.6686
   14.700    3.5808
   14.715    3.9319
   14.730    4.0723
   14.745    3.8090
   14.760    3.8266
   14.775    4.5814
   14.790    5.0026
   14.805    4.5111
   14.820    4.8095
   14.835    5.0553
   14.850    4.8973
   14.865    4.7042
   14.880    4.2654
   14.895    3.6159
   14.910    3.5808
   14.925    3.2649
   14.940    3.4580
   14.955    3.4229
   14.970    3.2649
   14.985    3.1069
   15.000    3.5106
   15.015    3.5282
   15.030    3.3351
   15.045    3.2298
   15.060    3.5106
   15.075    3.6510
   15.090    3.8266
   15.105    3.8792
   15.120    3.9143
   15.135    3.7564
   15.150    3.5633
   15.165    3.3175
   15.180    3.5808
   15.195    3.3000
   15.210    3.3000
   15.225    3.9319
   15.240    3.4755
   15.255    3.0016
   15.270    3.3526
   15.285    3.5106
   15.300    3.4931
   15.315    3.6335
   15.330    3.8441
   15.345    3.4931
   15.360    3.5808
   15.375    3.1947
   15.390    3.6686
   15.405    3.4053
   15.420    3.2824
   15.435    3.0718
   15.450    3.0191
   15.465    3.5984
   15.480    3.6159
   15.495    3.4053
   15.510    3.3877
   15.525    3.2649
   15.540    3.3175
   15.555    3.3877
   15.570    3.4755
   15.585    3.6686
   15.600    3.5633
   15.615    3.7037
   15.630    3.7213
   15.645    3.5808
   15.660    3.3000
   15.675    3.6159
   15.690    4.0548
   15.705    4.1250
   15.720    4.5287
   15.735    5.0904
   15.750    5.5292
   15.765    5.2484
   15.780    5.3010
   15.795    5.1255
   15.810    5.0026
   15.825    4.7042
   15.840    4.4585
   15.855    4.1074
   15.870    3.5633
   15.885    4.0723
   15.900    3.4931
   15.915    3.4053
   15.930    3.9494
   15.945    3.5106
   15.960    3.3175
   15.975    3.6686
   15.990    3.4931
   16.005    3.3877
   16.020    3.4053
   16.035    3.5808
   16.050    3.4931
   16.065    3.1596
   16.080    3.7564
   16.095    3.4053
   16.110    3.3526
   16.125    3.6686
   16.140    3.7739
   16.155    3.6159
   16.170    4.0021
   16.185    4.0021
   16.200    4.3707
   16.215    4.6691
   16.230    4.5814
   16.245    4.5638
   16.260    4.1250
   16.275    4.3181
   16.290    4.6516
   16.305    4.1952
   16.320    3.4755
   16.335    3.4931
   16.350    3.3175
   16.365    3.4229
   16.380    3.5282
   16.395    3.4053
   16.410    3.7213
   16.425    3.4404
   16.440    3.2473
   16.455    3.1771
   16.470    3.5282
   16.485    3.5808
   16.500    3.7213
   16.515    3.5984
   16.530    3.4229
   16.545    3.5106
   16.560    3.9143
   16.575    3.5633
   16.590    3.4229
   16.605    3.9670
   16.620    4.3005
   16.635    4.5463
   16.650    4.7744
   16.665    5.4239
   16.680    4.9324
   16.695    5.0904
   16.710    5.3010
   16.725    5.0202
   16.740    4.8271
   16.755    4.5287
   16.770    3.9319
   16.785    3.5282
   16.800    3.4229
   16.815    3.3877
   16.830    3.6159
   16.845    3.5633
   16.860    3.7037
   16.875    3.4931
   16.890    3.7037
   16.905    3.5633
   16.920    3.3351
   16.935    3.5457
   16.950    3.7037
   16.965    3.7037
   16.980    3.7213
   16.995    3.6862
   17.010    3.3526
   17.025    3.5984
   17.040    3.8090
   17.055    3.9846
   17.070    3.9319
   17.085    4.3356
   17.100    4.5989
   17.115    4.6516
   17.130    4.8622
   17.145    4.7920
   17.160    4.8447
   17.175    4.1952
   17.190    4.2478
   17.205    4.2478
   17.220    3.8968
   17.235    3.7037
   17.250    3.3000
   17.265    3.1596
   17.280    3.6510
   17.295    3.4755
   17.310    3.4755
   17.325    3.4053
   17.340    3.3877
   17.355    3.5282
   17.370    3.4404
   17.385    3.4931
   17.400    3.3877
   17.415    3.7739
   17.430    3.8792
   17.445    3.5282
   17.460    3.7388
   17.475    3.7564
   17.490    3.5984
   17.505    3.4580
   17.520    3.9319
   17.535    4.0723
   17.550    3.9494
   17.565    4.2127
   17.580    3.8090
   17.595    4.1425
   17.610    4.0548
   17.625    3.4931
   17.640    3.8266
   17.655    3.5808
   17.670    3.5457
   17.685    3.8792
   17.700    3.6862
   17.715    3.7739
   17.730    3.7739
   17.745    4.0197
   17.760    3.9319
   17.775    3.4931
   17.790    3.6335
   17.805    3.7037
   17.820    3.5106
   17.835    3.8090
   17.850    4.2478
   17.865    3.9143
   17.880    3.8090
   17.895    3.6862
   17.910    3.8090
   17.925    3.7739
   17.940    3.8968
   17.955    4.3356
   17.970    4.6340
   17.985    4.1074
   18.000    4.5111
   18.015    4.3707
   18.030    3.8266
   18.045    4.0372
   18.060    4.1952
   18.075    3.7739
   18.090    3.6335
   18.105    3.8266
   18.120    3.5282
   18.135    3.6686
   18.150    3.4404
   18.165    3.4404
   18.180    3.6159
   18.195    3.2122
   18.210    4.1601
   18.225    3.8617
   18.240    3.7388
   18.255    3.4404
   18.270    3.7213
   18.285    3.8792
   18.300    3.8441
   18.315    4.0021
   18.330    4.2127
   18.345    4.1074
   18.360    4.1601
   18.375    4.3883
   18.390    4.5638
   18.405    3.8968
   18.420    4.4234
   18.435    3.8266
   18.450    3.7915
   18.465    3.9494
   18.480    3.6159
   18.495    3.9143
   18.510    3.6510
   18.525    3.7388
   18.540    3.8441
   18.555    3.8792
   18.570    3.3175
   18.585    3.4404
   18.600    3.6159
   18.615    3.5106
   18.630    3.3702
   18.645    3.8266
   18.660    4.0548
   18.675    3.7564
   18.690    3.4931
   18.705    3.4404
   18.720    3.7213
   18.735    3.5633
   18.750    3.7388
   18.765    3.6335
   18.780    3.7915
   18.795    3.6862
   18.810    3.8617
   18.825    3.6159
   18.840    3.5984
   18.855    3.8968
   18.870    3.7213
   18.885    3.3702
   18.900    3.8792
   18.915    3.5633
   18.930    3.3702
   18.945    3.8266
   18.960    3.7213
   18.975    3.4053
   18.990    3.6335
   19.005    3.8090
   19.020    3.8617
   19.035    3.7915
   19.050    3.8441
   19.065    3.7915
   19.080    3.7739
   19.095    3.6686
   19.110    3.6510
   19.125    3.6335
   19.140    4.2303
   19.155    4.2830
   19.170    4.0197
   19.185    4.4058
   19.200    4.1601
   19.215    3.8968
   19.230    4.2654
   19.245    4.1250
   19.260    3.9846
   19.275    3.5282
   19.290    3.5457
   19.305    3.6862
   19.320    3.5633
   19.335    3.1420
   19.350    3.6159
   19.365    3.7915
   19.380    3.4931
   19.395    3.3877
   19.410    3.4404
   19.425    3.5106
   19.440    3.4755
   19.455    3.9494
   19.470    3.5808
   19.485    3.4404
   19.500    3.0367
   19.515    3.4053
   19.530    3.4229
   19.545    3.5808
   19.560    3.2473
   19.575    3.4580
   19.590    3.8090
   19.605    3.8792
   19.620    3.6510
   19.635    3.3351
   19.650    3.5106
   19.665    3.5282
   19.680    3.5808
   19.695    3.6686
   19.710    3.5282
   19.725    3.4931
   19.740    3.3175
   19.755    3.4755
   19.770    3.7915
   19.785    3.9670
   19.800    3.7739
   19.815    3.3526
   19.830    3.7388
   19.845    3.7739
   19.860    4.3883
   19.875    4.7920
   19.890    4.7920
   19.905    5.5994
   19.920    5.1080
   19.935    5.7574
   19.950    6.1611
   19.965    5.5819
   19.980    5.3186
   19.995    4.8447
   20.010    4.5638
   20.025    4.7393
   20.040    4.4585
   20.055    3.9319
   20.070    3.8968
   20.085    3.7739
   20.100    3.7564
   20.115    3.6335
   20.130    3.7564
   20.145    3.9846
   20.160    3.4404
   20.175    3.6159
   20.190    3.4755
   20.205    3.5282
   20.220    3.6686
   20.235    3.6686
   20.250    4.0021
   20.265    4.1250
   20.280    3.8792
   20.295    3.7037
   20.310    3.2298
   20.325    3.5106
   20.340    3.7564
   20.355    3.6510
   20.370    3.7213
   20.385    3.4931
   20.400    3.3526
   20.415    3.6510
   20.430    3.7037
   20.445    3.6335
   20.460    3.6159
   20.475    4.0197
   20.490    3.9846
   20.505    3.6335
   20.520    3.3175
   20.535    3.3877
   20.550    3.8266
   20.565    3.7915
   20.580    3.9846
   20.595    3.8792
   20.610    3.8441
   20.625    3.9670
   20.640    4.1601
   20.655    4.4058
   20.670    4.0372
   20.685    4.2127
   20.700    4.2127
   20.715    4.1776
   20.730    3.9846
   20.745    3.6686
   20.760    4.1776
   20.775    3.6510
   20.790    3.7564
   20.805    3.6686
   20.820    3.6686
   20.835    4.0021
   20.850    3.8441
   20.865    4.0548
   20.880    3.4229
   20.895    3.4053
   20.910    3.2122
   20.925    3.4931
   20.940    3.6510
   20.955    3.8266
   20.970    3.4580
   20.985    3.5457
   21.000    3.8266
   21.015    3.9143
   21.030    3.3877
   21.045    3.5106
   21.060    3.6159
   21.075    3.5984
   21.090    3.6686
   21.105    3.7739
   21.120    3.8266
   21.135    3.5984
   21.150    3.8090
   21.165    3.7388
   21.180    3.2298
   21.195    3.5633
   21.210    3.5282
   21.225    4.0021
   21.240    3.6335
   21.255    3.9319
   21.270    3.4053
   21.285    3.7915
   21.300    3.7915
   21.315    3.9143
   21.330    4.1425
   21.345    4.4760
   21.360    4.5287
   21.375    4.1601
   21.390    4.8095
   21.405    4.1776
   21.420    4.1776
   21.435    3.6510
   21.450    4.2127
   21.465    4.3005
   21.480    3.9494
   21.495    4.2830
   21.510    3.7564
   21.525    3.7037
   21.540    3.7915
   21.555    3.4404
   21.570    3.2298
   21.585    3.2649
   21.600    3.5457
   21.615    3.0191
   21.630    3.3526
   21.645    4.0548
   21.660    3.9670
   21.675    3.8617
   21.690    3.9670
   21.705    4.2830
   21.720    4.0372
   21.735    3.9670
   21.750    4.0197
   21.765    4.2478
   21.780    4.3532
   21.795    3.8266
   21.810    3.3702
   21.825    3.4931
   21.840    3.4931
   21.855    3.7564
   21.870    3.5808
   21.885    3.6510
   21.900    3.5808
   21.915    3.9670
   21.930    3.7915
   21.945    3.9143
   21.960    4.1074
   21.975    4.0899
   21.990    4.1952
   22.005    4.4585
   22.020    4.2478
   22.035    4.7569
   22.050    5.0377
   22.065    5.3537
   22.080    5.8978
   22.095    5.6872
   22.110    5.6872
   22.125    5.4064
   22.140    5.0202
   22.155    4.8271
   22.170    4.3532
   22.185    4.0548
   22.200    3.7213
   22.215    3.4404
   22.230    3.2824
   22.245    3.6510
   22.260    3.7739
   22.275    3.5282
   22.290    3.6686
   22.305    3.9846
   22.320    4.3532
   22.335    4.1425
   22.350    4.8447
   22.365    5.0377
   22.380    4.8095
   22.395    5.0553
   22.410    5.5292
   22.425    5.5643
   22.440    5.6521
   22.455    5.5468
   22.470    5.1080
   22.485    4.9851
   22.500    4.6340
   22.515    4.1250
   22.530    3.8617
   22.545    4.0197
   22.560    4.3532
   22.575    3.8090
   22.590    3.5106
   22.605    3.4755
   22.620    3.4229
   22.635    3.4580
   22.650    3.7739
   22.665    3.9670
   22.680    3.6335
   22.695    3.8792
   22.710    3.4229
   22.725    4.0723
   22.740    3.9494
   22.755    3.9143
   22.770    3.8792
   22.785    3.5984
   22.800    3.2649
   22.815    3.7915
   22.830    4.1250
   22.845    3.6862
   22.860    4.2830
   22.875    4.1776
   22.890    3.8441
   22.905    3.2122
   22.920    3.7564
   22.935    3.7915
   22.950    3.6862
   22.965    3.5106
   22.980    3.8090
   22.995    4.1074
   23.010    4.0197
   23.025    3.4931
   23.040    3.7213
   23.055    3.7564
   23.070    3.6510
   23.085    3.6159
   23.100    3.8617
   23.115    3.6335
   23.130    3.9319
   23.145    4.0899
   23.160    3.8090
   23.175    3.9143
   23.190    3.5633
   23.205    3.5984
   23.220    3.5633
   23.235    4.0021
   23.250    3.9143
   23.265    3.6159
   23.280    3.8792
   23.295    3.8441
   23.310    3.9670
   23.325    4.6691
   23.340    4.8271
   23.355    4.5989
   23.370    4.8095
   23.385    5.0728
   23.400    5.3888
   23.415    4.9851
   23.430    5.1255
   23.445    5.3888
   23.460    4.6516
   23.475    3.9494
   23.490    3.9494
   23.505    4.1952
   23.520    3.9143
   23.535    3.8441
   23.550    4.1074
   23.565    4.0372
   23.580    3.8441
   23.595    3.9494
   23.610    4.1074
   23.625    3.8441
   23.640    3.8617
   23.655    3.8968
   23.670    3.6335
   23.685    3.6510
   23.700    3.9846
   23.715    3.9670
   23.730    3.7915
   23.745    3.7388
   23.760    3.7388
   23.775    3.7213
   23.790    3.5633
   23.805    3.3702
   23.820    3.6686
   23.835    3.7213
   23.850    3.8617
   23.865    4.1250
   23.880    3.9494
   23.895    3.6159
   23.910    3.4580
   23.925    3.4053
   23.940    3.5808
   23.955    3.7388
   23.970    3.4229
   23.985    3.3702
   24.000    3.6862
   24.015    4.3181
   24.030    3.5984
   24.045    3.6510
   24.060    3.5984
   24.075    3.8441
   24.090    3.9846
   24.105    3.6686
   24.120    3.8441
   24.135    3.7213
   24.150    3.5808
   24.165    3.1596
   24.180    3.5282
   24.195    3.8090
   24.210    3.8968
   24.225    3.8441
   24.240    3.5633
   24.255    3.3702
   24.270    3.6686
   24.285    3.8617
   24.300    3.8617
   24.315    3.7739
   24.330    3.5984
   24.345    3.5106
   24.360    3.6510
   24.375    3.6335
   24.390    4.0548
   24.405    3.9494
   24.420    3.4580
   24.435    3.5808
   24.450    3.7037
   24.465    3.5984
   24.480    3.6159
   24.495    3.5106
   24.510    3.4404
   24.525    3.3175
   24.540    3.7037
   24.555    3.3175
   24.570    3.3175
   24.585    3.3000
   24.600    3.2824
   24.615    3.8090
   24.630    3.5984
   24.645    3.8441
   24.660    4.0021
   24.675    3.5808
   24.690    3.7213
   24.705    3.6862
   24.720    4.0899
   24.735    3.9143
   24.750    3.7564
   24.765    3.7037
   24.780    3.7037
   24.795    3.5282
   24.810    3.6510
   24.825    3.8090
   24.840    3.4755
   24.855    3.4931
   24.870    3.6510
   24.885    3.3175
   24.900    3.6686
   24.915    3.7388
   24.930    3.7915
   24.945    4.5989
   24.960    4.0899
   24.975    4.4234
   24.990    4.4760
   25.005    4.1074
   25.020    3.7739
   25.035    3.7915
   25.050    3.9143
   25.065    3.8617
   25.080    3.6510
   25.095    3.8441
   25.110    3.8968
   25.125    3.7388
   25.140    3.9143
   25.155    4.1074
   25.170    3.8617
   25.185    4.2478
   25.200    4.7042
   25.215    5.2835
   25.230    5.3537
   25.245    5.3888
   25.260    5.5643
   25.275    5.1957
   25.290    5.1431
   25.305    5.0728
   25.320    5.1431
   25.335    4.9851
   25.350    4.3005
   25.365    4.4058
   25.380    4.2478
   25.395    3.5633
   25.410    3.8090
   25.425    3.5633
   25.440    3.3175
   25.455    3.7739
   25.470    3.8441
   25.485    3.7915
   25.500    3.7213
   25.515    3.5808
   25.530    3.5984
   25.545    3.2649
   25.560    3.6335
   25.575    3.7388
   25.590    3.7037
   25.605    3.4229
   25.620    3.5282
   25.635    3.8090
   25.650    3.7915
   25.665    3.7915
   25.680    3.4755
   25.695    3.6335
   25.710    3.0191
   25.725    3.3877
   25.740    3.8968
   25.755    3.6510
   25.770    3.9143
   25.785    4.1952
   25.800    4.0548
   25.815    4.0548
   25.830    4.2654
   25.845    4.3707
   25.860    4.3883
   25.875    3.7564
   25.890    4.1952
   25.905    4.1425
   25.920    3.8090
   25.935    3.8441
   25.950    4.1601
   25.965    3.7564
   25.980    3.9494
   25.995    3.7037
   26.010    3.3351
   26.025    3.3351
   26.040    3.6510
   26.055    3.7213
   26.070    3.6686
   26.085    3.6335
   26.100    3.1596
   26.115    3.5984
   26.130    3.3000
   26.145    3.2298
   26.160    3.4404
   26.175    3.3351
   26.190    3.3702
   26.205    3.8266
   26.220    3.5457
   26.235    3.3877
   26.250    3.6686
   26.265    3.8090
   26.280    3.5808
   26.295    3.2298
   26.310    3.2122
   26.325    3.5633
   26.340    3.6159
   26.355    3.5984
   26.370    3.4053
   26.385    3.5106
   26.400    3.4404
   26.415    4.0723
   26.430    3.8266
   26.445    3.9319
   26.460    3.7739
   26.475    4.3707
   26.490    3.5808
   26.505    3.5457
   26.520    3.6862
   26.535    3.8441
   26.550    3.5282
   26.565    3.6510
   26.580    3.7915
   26.595    3.4755
   26.610    3.4931
   26.625    3.2298
   26.640    3.2122
   26.655    3.2473
   26.670    3.7213
   26.685    3.1947
   26.700    3.2122
   26.715    3.5633
   26.730    3.6159
   26.745    3.6862
   26.760    3.4053
   26.775    3.4229
   26.790    3.5106
   26.805    3.4053
   26.820    3.3175
   26.835    3.4580
   26.850    3.2473
   26.865    3.4404
   26.880    4.0372
   26.895    3.5808
   26.910    3.2824
   26.925    3.4755
   26.940    3.3702
   26.955    3.9143
   26.970    3.7564
   26.985    4.1425
   27.000    3.7739
   27.015    3.4755
   27.030    3.6686
   27.045    3.6159
   27.060    3.8617
   27.075    3.8090
   27.090    3.5984
   27.105    3.7564
   27.120    3.6335
   27.135    3.5457
   27.150    3.3702
   27.165    3.4053
   27.180    3.4755
   27.195    3.2122
   27.210    3.7564
   27.225    3.3000
   27.240    3.4755
   27.255    3.9494
   27.270    3.2122
   27.285    3.3351
   27.300    3.9319
   27.315    3.4053
   27.330    3.2298
   27.345    3.4931
   27.360    3.3526
   27.375    3.1947
   27.390    3.2473
   27.405    3.3877
   27.420    3.4229
   27.435    3.0893
   27.450    3.3526
   27.465    3.7037
   27.480    3.5633
   27.495    3.8266
   27.510    3.4404
   27.525    3.3526
   27.540    3.7915
   27.555    3.9319
   27.570    3.8441
   27.585    3.9319
   27.600    3.7739
   27.615    3.4931
   27.630    3.6686
   27.645    3.8266
   27.660    3.6510
   27.675    3.2824
   27.690    3.2473
   27.705    3.5106
   27.720    3.3877
   27.735    3.5808
   27.750    3.6335
   27.765    3.3000
   27.780    3.5808
   27.795    3.4755
   27.810    3.4755
   27.825    3.5457
   27.840    3.8090
   27.855    3.7739
   27.870    3.8090
   27.885    3.5633
   27.900    3.5984
   27.915    3.4404
   27.930    3.4404
   27.945    3.4580
   27.960    3.1069
   27.975    3.5808
   27.990    3.3702
   28.005    3.3351
   28.020    3.3877
   28.035    3.3175
   28.050    3.5457
   28.065    3.5106
   28.080    3.2824
   28.095    3.3000
   28.110    3.3877
   28.125    3.0718
   28.140    3.1069
   28.155    3.2824
   28.170    2.9489
   28.185    3.1771
   28.200    3.1420
   28.215    3.4755
   28.230    3.4931
   28.245    3.4931
   28.260    3.1771
   28.275    3.4053
   28.290    3.4229
   28.305    3.4404
   28.320    3.4580
   28.335    3.5808
   28.350    3.7739
   28.365    3.3702
   28.380    3.3175
   28.395    3.3175
   28.410    3.3175
   28.425    3.2649
   28.440    3.4580
   28.455    3.8617
   28.470    3.6686
   28.485    3.5984
   28.500    3.2824
   28.515    3.1420
   28.530    3.0016
   28.545    2.9314
   28.560    3.7564
   28.575    3.7037
   28.590    4.0372
   28.605    3.7213
   28.620    4.1601
   28.635    4.3883
   28.650    4.5287
   28.665    4.2830
   28.680    3.8792
   28.695    3.9319
   28.710    4.0197
   28.725    3.7739
   28.740    3.6686
   28.755    3.7739
   28.770    3.9670
   28.785    3.2649
   28.800    3.0718
   28.815    3.1771
   28.830    3.1245
   28.845    3.4580
   28.860    3.2824
   28.875    3.3000
   28.890    3.2473
   28.905    3.1596
   28.920    3.3000
   28.935    3.3702
   28.950    3.1771
   28.965    3.4580
   28.980    3.0367
   28.995    3.2824
   29.010    3.3000
   29.025    3.6159
   29.040    3.3702
   29.055    3.2824
   29.070    3.3702
   29.085    3.3175
   29.100    3.1771
   29.115    3.4053
   29.130    3.4931
   29.145    3.4931
   29.160    3.7564
   29.175    3.9143
   29.190    3.3877
   29.205    3.7739
   29.220    3.8441
   29.235    3.7739
   29.250    3.5633
   29.265    3.3351
   29.280    3.3526
   29.295    3.8441
   29.310    3.4580
   29.325    3.6159
   29.340    3.3351
   29.355    3.2298
   29.370    3.3702
   29.385    3.0718
   29.400    3.0893
   29.415    3.6686
   29.430    3.7037
   29.445    3.8441
   29.460    3.4931
   29.475    3.4053
   29.490    3.1420
   29.505    3.3000
   29.520    3.4580
   29.535    3.2298
   29.550    3.2122
   29.565    3.2824
   29.580    3.6862
   29.595    3.4580
   29.610    3.3000
   29.625    3.4755
   29.640    3.3175
   29.655    3.3526
   29.670    3.2824
   29.685    3.3526
   29.700    3.5282
   29.715    3.2649
   29.730    3.3175
   29.745    3.2824
   29.760    3.3526
   29.775    3.5282
   29.790    3.8441
   29.805    3.7564
   29.820    3.4053
   29.835    3.3702
   29.850    3.4931
   29.865    3.2122
   29.880    3.4053
   29.895    3.2298
   29.910    3.2298
   29.925    3.1245
   29.940    3.3877
   29.955    3.7739
   29.970    3.6335
   29.985    3.0718
   30.000    3.0542
   30.015    3.4755
   30.030    3.1596
   30.045    2.9314
   30.060    3.3702
   30.075    3.1420
   30.090    3.0016
   30.105    3.4580
   30.120    3.5808
   30.135    3.2473
   30.150    3.1771
   30.165    3.2649
   30.180    3.4404
   30.195    3.1596
   30.210    3.6159
   30.225    3.5282
   30.240    3.5106
   30.255    3.5984
   30.270    3.1947
   30.285    3.4755
   30.300    3.3000
   30.315    3.1771
   30.330    3.2824
   30.345    3.0191
   30.360    2.9840
   30.375    3.1947
   30.390    3.4931
   30.405    3.0016
   30.420    2.9489
   30.435    3.0542
   30.450    3.0718
   30.465    3.1771
   30.480    3.1069
   30.495    3.1596
   30.510    3.1771
   30.525    3.1596
   30.540    3.2298
   30.555    3.1947
   30.570    2.9314
   30.585    3.0542
   30.600    2.9840
   30.615    3.0542
   30.630    3.2473
   30.645    3.1420
   30.660    3.0016
   30.675    3.0542
   30.690    2.9840
   30.705    3.1245
   30.720    2.9840
   30.735    3.2298
   30.750    2.9314
   30.765    3.4404
   30.780    2.9138
   30.795    3.3000
   30.810    3.3175
   30.825    3.3000
   30.840    3.2298
   30.855    2.7734
   30.870    2.7909
   30.885    2.9489
   30.900    3.1245
   30.915    2.9138
   30.930    2.9314
   30.945    3.0016
   30.960    2.7909
   30.975    2.9665
   30.990    3.1245
   31.005    3.1596
   31.020    3.0016
   31.035    3.1245
   31.050    3.6335
   31.065    3.4931
   31.080    3.1245
   31.095    3.3877
   31.110    3.5282
   31.125    3.0016
   31.140    3.0191
   31.155    2.8963
   31.170    3.1420
   31.185    3.4755
   31.200    3.5984
   31.215    3.2824
   31.230    3.5282
   31.245    3.1420
   31.260    3.3702
   31.275    3.4580
   31.290    3.2473
   31.305    3.0542
   31.320    3.0893
   31.335    3.1245
   31.350    3.3000
   31.365    3.4053
   31.380    3.2649
   31.395    3.3526
   31.410    3.1245
   31.425    3.0016
   31.440    3.2298
   31.455    3.2824
   31.470    3.2298
   31.485    3.0016
   31.500    3.5282
   31.515    3.0893
   31.530    3.2122
   31.545    2.9840
   31.560    2.9665
   31.575    3.0016
   31.590    3.3000
   31.605    3.3702
   31.620    3.2824
   31.635    3.0367
   31.650    3.3877
   31.665    3.4229
   31.680    3.2824
   31.695    3.6686
   31.710    3.3351
   31.725    3.4053
   31.740    3.3175
   31.755    3.5106
   31.770    3.4053
   31.785    3.3702
   31.800    3.4755
   31.815    3.3175
   31.830    3.1771
   31.845    2.9665
   31.860    3.0718
   31.875    2.8963
   31.890    2.9314
   31.905    3.2298
   31.920    3.2122
   31.935    3.2298
   31.950    2.9489
   31.965    3.1245
   31.980    2.9314
   31.995    3.3526
   32.010    3.1596
   32.025    3.0542
   32.040    2.9840
   32.055    3.3000
   32.070    3.2122
   32.085    3.2298
   32.100    3.1069
   32.115    2.9489
   32.130    2.8260
   32.145    2.8612
   32.160    2.8612
   32.175    3.1245
   32.190    3.5457
   32.205    3.1596
   32.220    3.4404
   32.235    3.4755
   32.250    3.2122
   32.265    3.1947
   32.280    3.1245
   32.295    3.1771
   32.310    3.1420
   32.325    3.0718
   32.340    3.0191
   32.355    3.0542
   32.370    2.7734
   32.385    2.7207
   32.400    2.8612
   32.415    2.7909
   32.430    2.8963
   32.445    3.0191
   32.460    3.1069
   32.475    2.9840
   32.490    2.6681
   32.505    2.8085
   32.520    3.0542
   32.535    2.8612
   32.550    2.7734
   32.565    2.7734
   32.580    3.1596
   32.595    2.6681
   32.610    2.7734
   32.625    2.8612
   32.640    3.0893
   32.655    3.1069
   32.670    3.1420
   32.685    3.2824
   32.700    3.0191
   32.715    2.6154
   32.730    3.1771
   32.745    3.0542
   32.760    2.9489
   32.775    3.1771
   32.790    2.9314
   32.805    3.1245
   32.820    2.8436
   32.835    3.0367
   32.850    3.2122
   32.865    3.0893
   32.880    3.0016
   32.895    3.2122
   32.910    3.1245
   32.925    2.8260
   32.940    3.0893
   32.955    3.1947
   32.970    2.8963
   32.985    3.0718
   33.000    3.0718
   33.015    2.9665
   33.030    2.9840
   33.045    3.2298
   33.060    3.0893
   33.075    3.0367
   33.090    2.7383
   33.105    2.8260
   33.120    2.9840
   33.135    2.8612
   33.150    3.0191
   33.165    3.1947
   33.180    3.0718
   33.195    3.2824
   33.210    2.8085
   33.225    3.1245
   33.240    3.1420
   33.255    2.9314
   33.270    2.9138
   33.285    2.9314
   33.300    2.9665
   33.315    3.0718
   33.330    2.9314
   33.345    2.6681
   33.360    2.4399
   33.375    2.9314
   33.390    2.9489
   33.405    2.9138
   33.420    2.9665
   33.435    2.8085
   33.450    3.0893
   33.465    3.0718
   33.480    2.6330
   33.495    2.7558
   33.510    2.8787
   33.525    2.7558
   33.540    2.7383
   33.555    2.6681
   33.570    2.9314
   33.585    2.8085
   33.600    2.7558
   33.615    2.5803
   33.630    2.4223
   33.645    3.1771
   33.660    2.8963
   33.675    2.9138
   33.690    2.9489
   33.705    2.6681
   33.720    2.8787
   33.735    3.0016
   33.750    3.1420
   33.765    2.7558
   33.780    2.7383
   33.795    2.8612
   33.810    2.9665
   33.825    2.8612
   33.840    2.8963
   33.855    2.9489
   33.870    3.2824
   33.885    3.2298
   33.900    2.8436
   33.915    2.7558
   33.930    3.0718
   33.945    2.9138
   33.960    2.3346
   33.975    2.4399
   33.990    2.8260
   34.005    2.8612
   34.020    2.6154
   34.035    2.6681
   34.050    2.4048
   34.065    2.7558
   34.080    2.9138
   34.095    2.6330
   34.110    2.8436
   34.125    2.6681
   34.140    2.8260
   34.155    2.6154
   34.170    2.5628
   34.185    3.0542
   34.200    2.7032
   34.215    2.5803
   34.230    2.6681
   34.245    2.9138
   34.260    2.5452
   34.275    2.6681
   34.290    2.3872
   34.305    2.5101
   34.320    2.6856
   34.335    2.4048
   34.350    2.7032
   34.365    2.6505
   34.380    2.4399
   34.395    2.6681
   34.410    2.7734
   34.425    2.9138
   34.440    3.0191
   34.455    2.7734
   34.470    2.8436
   34.485    2.7207
   34.500    2.7207
   34.515    2.5803
   34.530    2.7909
   34.545    2.7909
   34.560    2.7383
   34.575    2.8963
   34.590    2.9665
   34.605    2.3521
   34.620    2.5452
   34.635    2.4925
   34.650    2.6330
   34.665    2.8085
   34.680    3.0191
   34.695    2.8963
   34.710    2.8436
   34.725    2.8085
   34.740    2.7558
   34.755    2.9665
   34.770    3.0367
   34.785    2.7032
   34.800    2.6505
   34.815    2.6681
   34.830    2.9314
   34.845    3.3877
   34.860    2.9840
   34.875    2.7032
   34.890    2.9138
   34.905    3.0016
   34.920    2.5979
   34.935    2.2468
   34.950    2.5979
   34.965    2.7383
   34.980    2.7207
   34.995    2.8612
   35.010    2.4223
   35.025    2.6856
   35.040    3.0718
   35.055    2.8436
   35.070    2.5803
   35.085    2.7032
   35.100    2.7734
   35.115    2.6330
   35.130    2.9138
   35.145    2.5628
   35.160    2.7207
   35.175    2.8436
   35.190    2.8260
   35.205    2.5979
   35.220    2.6154
   35.235    2.6330
   35.250    2.8436
   35.265    2.5101
   35.280    2.4048
   35.295    2.7734
   35.310    2.4574
   35.325    2.4925
   35.340    2.5979
   35.355    2.7032
   35.370    2.3521
   35.385    2.8787
   35.400    2.7207
   35.415    2.6154
   35.430    2.7207
   35.445    2.6681
   35.460    2.5101
   35.475    2.7909
   35.490    2.5452
   35.505    2.8085
   35.520    2.5276
   35.535    2.4574
   35.550    2.2468
   35.565    2.4925
   35.580    2.4750
   35.595    2.5979
   35.610    2.4399
   35.625    2.5101
   35.640    2.4750
   35.655    2.4223
   35.670    2.7558
   35.685    2.5276
   35.700    2.7558
   35.715    2.5628
   35.730    2.5101
   35.745    2.4750
   35.760    2.6154
   35.775    2.4925
   35.790    2.5101
   35.805    2.4750
   35.820    2.3697
   35.835    2.7734
   35.850    2.7909
   35.865    2.9138
   35.880    2.7734
   35.895    2.6856
   35.910    2.6330
   35.925    2.5979
   35.940    2.7032
   35.955    2.6681
   35.970    2.4223
   35.985    2.6681
   36.000    2.4925
   36.015    2.6681
   36.030    2.3697
   36.045    2.6681
   36.060    2.5276
   36.075    2.3697
   36.090    2.6330
   36.105    2.5276
   36.120    2.5979
   36.135    2.5979
   36.150    2.8085
   36.165    2.7032
   36.180    2.5276
   36.195    2.4048
   36.210    2.7032
   36.225    2.7909
   36.240    2.8787
   36.255    2.1766
   36.270    2.5452
   36.285    2.4399
   36.300    2.4925
   36.315    2.6856
   36.330    2.5276
   36.345    2.9840
   36.360    2.3346
   36.375    2.4399
   36.390    2.7032
   36.405    2.7734
   36.420    2.7032
   36.435    2.3521
   36.450    2.4925
   36.465    2.5452
   36.480    2.5979
   36.495    2.4399
   36.510    2.3872
   36.525    2.6154
   36.540    2.7558
   36.555    2.4048
   36.570    2.3872
   36.585    2.6154
   36.600    2.6330
   36.615    2.6330
   36.630    2.5979
   36.645    2.7032
   36.660    2.2643
   36.675    2.7032
   36.690    2.7207
   36.705    2.5979
   36.720    2.2819
   36.735    2.4574
   36.750    2.7734
   36.765    2.6154
   36.780    2.4048
   36.795    2.4048
   36.810    2.6856
   36.825    2.3872
   36.840    2.4574
   36.855    2.3697
   36.870    2.4223
   36.885    2.6856
   36.900    2.5628
   36.915    2.4223
   36.930    2.5628
   36.945    2.6505
   36.960    2.6154
   36.975    2.7032
   36.990    2.5276
   37.005    2.4048
   37.020    2.7032
   37.035    3.1245
   37.050    2.7909
   37.065    2.7734
   37.080    2.7909
   37.095    2.8963
   37.110    2.7383
   37.125    2.5452
   37.140    2.4399
   37.155    2.6681
   37.170    2.7032
   37.185    2.4048
   37.200    2.4399
   37.215    2.6505
   37.230    2.4223
   37.245    2.3521
   37.260    2.4223
   37.275    2.5452
   37.290    2.3521
   37.305    2.2819
   37.320    2.7383
   37.335    2.6505
   37.350    2.7734
   37.365    2.7558
   37.380    2.4048
   37.395    2.3521
   37.410    2.6154
   37.425    2.5452
   37.440    2.1239
   37.455    2.5276
   37.470    2.5628
   37.485    2.8787
   37.500    2.6330
   37.515    2.3521
   37.530    2.5276
   37.545    2.8963
   37.560    2.5979
   37.575    2.2643
   37.590    2.2117
   37.605    2.2292
   37.620    2.5276
   37.635    2.6154
   37.650    2.4750
   37.665    2.4223
   37.680    2.4223
   37.695    2.5101
   37.710    2.5979
   37.725    2.5276
   37.740    2.4048
   37.755    2.5276
   37.770    2.4750
   37.785    2.4399
   37.800    2.4750
   37.815    2.3697
   37.830    2.5101
   37.845    2.4925
   37.860    2.6330
   37.875    2.4399
   37.890    2.1064
   37.905    2.4925
   37.920    2.1239
   37.935    2.5979
   37.950    2.4750
   37.965    2.3521
   37.980    2.2643
   37.995    2.5803
   38.010    2.3521
   38.025    2.5628
   38.040    2.5979
   38.055    2.3872
   38.070    2.4925
   38.085    2.6154
   38.100    2.4223
   38.115    2.2643
   38.130    2.2292
   38.145    2.4925
   38.160    2.4574
   38.175    2.7032
   38.190    2.8085
   38.205    2.2117
   38.220    2.1590
   38.235    2.3170
   38.250    2.3697
   38.265    2.3697
   38.280    2.3170
   38.295    2.2468
   38.310    2.8085
   38.325    2.8436
   38.340    2.5452
   38.355    2.5276
   38.370    2.6330
   38.385    2.5276
   38.400    2.5276
   38.415    2.8612
   38.430    2.6154
   38.445    2.4048
   38.460    2.5628
   38.475    2.2468
   38.490    2.3697
   38.505    2.5628
   38.520    2.5628
   38.535    2.4750
   38.550    2.2995
   38.565    2.4399
   38.580    2.1941
   38.595    2.6154
   38.610    2.3170
   38.625    2.4399
   38.640    2.4399
   38.655    2.1064
   38.670    2.3697
   38.685    2.2643
   38.700    2.7558
   38.715    2.5101
   38.730    2.6856
   38.745    2.6505
   38.760    2.8436
   38.775    2.4048
   38.790    2.6154
   38.805    2.5276
   38.820    2.6154
   38.835    2.6505
   38.850    2.5101
   38.865    2.8085
   38.880    2.7909
   38.895    2.5979
   38.910    2.4574
   38.925    2.7207
   38.940    2.0713
   38.955    2.2819
   38.970    2.5101
   38.985    2.5979
   39.000    2.5101
   39.015    2.5101
   39.030    2.4750
   39.045    2.6856
   39.060    2.6856
   39.075    2.5803
   39.090    2.4925
   39.105    2.2468
   39.120    2.4223
   39.135    2.4925
   39.150    2.5979
   39.165    2.6154
   39.180    2.4925
   39.195    2.2468
   39.210    2.4399
   39.225    2.7032
   39.240    2.5452
   39.255    2.1415
   39.270    2.3521
   39.285    2.1766
   39.300    2.5276
   39.315    2.4750
   39.330    2.2292
   39.345    2.1590
   39.360    2.2995
   39.375    2.1766
   39.390    2.7032
   39.405    2.6856
   39.420    2.7032
   39.435    2.2468
   39.450    2.3697
   39.465    2.5803
   39.480    2.5101
   39.495    2.6681
   39.510    2.6154
   39.525    2.9314
   39.540    2.4925
   39.555    2.6505
   39.570    2.6681
   39.585    2.5628
   39.600    2.3697
   39.615    2.5452
   39.630    2.4574
   39.645    2.6505
   39.660    2.5628
   39.675    2.7383
   39.690    2.7909
   39.705    2.6330
   39.720    2.2117
   39.735    2.1941
   39.750    2.3170
   39.765    2.5101
   39.780    2.2468
   39.795    2.5276
   39.810    2.4223
   39.825    2.4399
   39.840    2.4223
   39.855    2.1941
   39.870    2.1766
   39.885    2.0011
   39.900    1.9133
   39.915    2.3872
   39.930    2.4048
   39.945    2.4223
   39.960    2.0888
   39.975    2.1239
   39.990    2.3170
