    1.500   34.8815
    1.515   33.3544
    1.530   36.3981
    1.545   37.3038
    1.560   37.6093
    1.575   36.3981
    1.590   36.4297
    1.605   36.8088
    1.620   36.2612
    1.635   35.1027
    1.650   34.7657
    1.665   33.7862
    1.680   33.3755
    1.695   33.3755
    1.710   33.0595
    1.725   33.3017
    1.740   32.8067
    1.755   32.7435
    1.770   32.1222
    1.785   32.3433
    1.800   31.6166
    1.815   31.4165
    1.830   30.7109
    1.845   30.2686
    1.860   29.3839
    1.875   30.5740
    1.890   31.3218
    1.905   30.4897
    1.920   29.8473
    1.935   29.6156
    1.950   29.6051
    1.965   29.7314
    1.980   29.0785
    1.995   29.0047
    2.010   29.0258
    2.025   29.2048
    2.040   28.5519
    2.055   28.4887
    2.070   27.6356
    2.085   28.3939
    2.100   28.4571
    2.115   28.7520
    2.130   28.7625
    2.145   28.6572
    2.160   27.8462
    2.175   28.2991
    2.190   28.5203
    2.205   28.4781
    2.220   28.4887
    2.235   29.4471
    2.250   28.5519
    2.265   28.7836
    2.280   28.6045
    2.295   28.8994
    2.310   29.6788
    2.325   29.4155
    2.340   29.7630
    2.355   28.7941
    2.370   29.1101
    2.385   30.2264
    2.400   29.4787
    2.415   30.3633
    2.430   30.4160
    2.445   30.2264
    2.460   31.5535
    2.475   31.2164
    2.490   31.1006
    2.505   31.8589
    2.520   31.0585
    2.535   32.4697
    2.550   33.4387
    2.565   33.8178
    2.580   34.2075
    2.595   33.8810
    2.610   33.4702
    2.625   35.2712
    2.640   35.9347
    2.655   36.2507
    2.670   35.5029
    2.685   35.5766
    2.700   36.7983
    2.715   37.7357
    2.730   38.3465
    2.745   38.6940
    2.760   40.1580
    2.775   40.7478
    2.790   40.6635
    2.805   43.1280
    2.820   42.9700
    2.835   43.8652
    2.850   44.9921
    2.865   45.8978
    2.880   47.4671
    2.895   48.2359
    2.910   48.9100
    2.925   50.0369
    2.940   51.8167
    2.955   51.8483
    2.970   53.2491
    2.985   55.7346
    3.000   57.1564
    3.015   59.1996
    3.030   60.4107
    3.045   61.8536
    3.060   63.1912
    3.075   66.6245
    3.090   68.7414
    3.105   69.6893
    3.120   72.5750
    3.135   74.7446
    3.150   78.6414
    3.165   80.2844
    3.180   84.1496
    3.195   88.3623
    3.210   92.0063
    3.225   93.3860
    3.240   97.3144
    3.255  102.6646
    3.270  107.7831
    3.285  113.3333
    3.300  118.5150
    3.315  124.3075
    3.330  131.1111
    3.345  137.0827
    3.360  143.9600
    3.375  154.4497
    3.390  165.4344
    3.405  175.7451
    3.420  185.0448
    3.435  194.3760
    3.450  201.8852
    3.465  205.4871
    3.480  203.0753
    3.495  193.3439
    3.510  177.6303
    3.525  159.5682
    3.540  141.3481
    3.555  122.8331
    3.570  107.1090
    3.585   94.8710
    3.600   85.0974
    3.615   77.6619
    3.630   74.3865
    3.645   71.2586
    3.660   67.0458
    3.675   65.2027
    3.690   64.8763
    3.705   64.5287
    3.720   64.5919
    3.735   64.4339
    3.750   64.9500
    3.765   64.3813
    3.780   66.8984
    3.795   67.8778
    3.810   68.7836
    3.825   69.9947
    3.840   70.5529
    3.855   72.7541
    3.870   73.0490
    3.885   75.9136
    3.900   77.6725
    3.915   80.0421
    3.930   81.8747
    3.945   82.3697
    3.960   83.2754
    3.975   85.3502
    3.990   84.9605
    4.005   85.9189
    4.020   86.3718
    4.035   84.9816
    4.050   84.5498
    4.065   83.9179
    4.080   83.9705
    4.095   81.5693
    4.110   78.4202
    4.125   76.9458
    4.140   75.3344
    4.155   71.6272
    4.170   69.3207
    4.185   66.1506
    4.200   62.6646
    4.215   59.8842
    4.230   55.5766
    4.245   51.6166
    4.260   48.9100
    4.275   44.7815
    4.290   42.7383
    4.305   39.7367
    4.320   37.4724
    4.335   34.7551
    4.350   32.5645
    4.365   30.3002
    4.380   28.3728
    4.395   26.3402
    4.410   25.4976
    4.425   23.9073
    4.440   23.0964
    4.455   21.7799
    4.470   20.4423
    4.485   19.7367
    4.500   19.6103
    4.515   18.6098
    4.530   17.4092
    4.545   17.2933
    4.560   16.0927
    4.575   15.3239
    4.590   15.4292
    4.605   14.5656
    4.620   14.2601
    4.635   14.0284
    4.650   14.0074
    4.665   13.9968
    4.680   13.5756
    4.695   13.0490
    4.710   12.5013
    4.725   11.9010
    4.740   11.7957
    4.755   11.4165
    4.770   11.8167
    4.785   11.5956
    4.800   11.5324
    4.815   11.3639
    4.830   10.7425
    4.845   10.9215
    4.860   11.1006
    4.875   10.5740
    4.890   10.6056
    4.905   10.7425
    4.920   10.7004
    4.935   10.6161
    4.950   10.1632
    4.965   10.5108
    4.980   10.5635
    4.995   10.3212
    5.010    9.8052
    5.025   10.0369
    5.040    9.9526
    5.055    9.7314
    5.070    9.9842
    5.085    9.5103
    5.100    9.3312
    5.115    9.7420
    5.130    9.4997
    5.145    9.6893
    5.160    9.6788
    5.175    9.5524
    5.190    9.4050
    5.205    9.5313
    5.220    9.4260
    5.235    9.6682
    5.250    9.2996
    5.265    9.1732
    5.280    9.2680
    5.295    8.8362
    5.310    8.9205
    5.325    8.8678
    5.340    8.8573
    5.355    8.7204
    5.370    8.7730
    5.385    8.5308
    5.400    8.8678
    5.415    8.8784
    5.430    8.8257
    5.445    8.3518
    5.460    8.6783
    5.475    8.5203
    5.490    8.5940
    5.505    8.4887
    5.520    8.4360
    5.535    8.4360
    5.550    8.8468
    5.565    8.2254
    5.580    8.1622
    5.595    8.2149
    5.610    8.1201
    5.625    8.1411
    5.640    8.0253
    5.655    8.2570
    5.670    8.2043
    5.685    8.2359
    5.700    8.0147
    5.715    8.1201
    5.730    7.9726
    5.745    8.1517
    5.760    7.7936
    5.775    8.0463
    5.790    8.1938
    5.805    8.5519
    5.820    8.2254
    5.835    8.1833
    5.850    8.1306
    5.865    7.5619
    5.880    7.8989
    5.895    8.0674
    5.910    8.1517
    5.925    8.3412
    5.940    7.6672
    5.955    7.9305
    5.970    8.5413
    5.985    8.0674
    6.000    8.4360
    6.015    8.3096
    6.030    8.2464
    6.045    8.0042
    6.060    8.0463
    6.075    8.2570
    6.090    8.4781
    6.105    8.6151
    6.120    8.4571
    6.135    7.9094
    6.150    7.6040
    6.165    7.7199
    6.180    7.9621
    6.195    8.0147
    6.210    7.9200
    6.225    8.0569
    6.240    8.0147
    6.255    8.3518
    6.270    8.7941
    6.285    8.2149
    6.300    7.9410
    6.315    8.2149
    6.330    8.2570
    6.345    9.0890
    6.360    9.3628
    6.375    8.5940
    6.390    8.3518
    6.405    8.4150
    6.420    9.0258
    6.435    9.3944
    6.450    9.1522
    6.465    9.3734
    6.480    8.8784
    6.495    9.2891
    6.510    9.5840
    6.525    9.3628
    6.540    9.6472
    6.555   10.4371
    6.570    9.5629
    6.585   10.2896
    6.600   10.8899
    6.615   10.3528
    6.630   11.0058
    6.645   11.3007
    6.660   11.6061
    6.675   11.4692
    6.690   12.4908
    6.705   12.6909
    6.720   13.5334
    6.735   13.1122
    6.750   13.7019
    6.765   14.2180
    6.780   14.2917
    6.795   16.0716
    6.810   16.2296
    6.825   16.6087
    6.840   17.5566
    6.855   18.5255
    6.870   19.4629
    6.885   20.4845
    6.900   20.9479
    6.915   21.7588
    6.930   22.8752
    6.945   24.1811
    6.960   25.1290
    6.975   25.0764
    6.990   24.7393
    7.005   23.2122
    7.020   22.1801
    7.035   20.4318
    7.050   18.8415
    7.065   17.1669
    7.080   16.1243
    7.095   14.6182
    7.110   13.0174
    7.125   12.1011
    7.140   11.6166
    7.155   10.7320
    7.170   10.6266
    7.185   10.5424
    7.200   10.6056
    7.215   10.5319
    7.230    9.9842
    7.245    9.8789
    7.260   10.0579
    7.275    9.5524
    7.290    9.4576
    7.305    9.2786
    7.320    9.3312
    7.335    9.7736
    7.350    9.3102
    7.365    9.4260
    7.380    9.8473
    7.395    9.6682
    7.410    9.4365
    7.425    9.3418
    7.440    9.4050
    7.455    9.3839
    7.470    9.4471
    7.485    9.5103
    7.500    9.4050
    7.515    9.6472
    7.530    9.3102
    7.545    9.3207
    7.560    9.5840
    7.575    9.6682
    7.590    9.6472
    7.605    9.8999
    7.620   10.1948
    7.635   10.4476
    7.650   10.1211
    7.665   10.3633
    7.680   10.1738
    7.695   10.4371
    7.710   10.3107
    7.725   10.5845
    7.740   10.4055
    7.755   10.1738
    7.770   10.6898
    7.785   10.5951
    7.800   10.5319
    7.815   10.9321
    7.830   11.2375
    7.845   11.6272
    7.860   11.9642
    7.875   11.3849
    7.890   11.3533
    7.905   11.8905
    7.920   11.8483
    7.935   11.8799
    7.950   11.9010
    7.965   12.9121
    7.980   13.1016
    7.995   13.1543
    8.010   13.4597
    8.025   12.9331
    8.040   12.9858
    8.055   13.2175
    8.070   13.4597
    8.085   13.2596
    8.100   13.2491
    8.115   13.5650
    8.130   13.7335
    8.145   14.0706
    8.160   13.4597
    8.175   12.9542
    8.190   13.2807
    8.205   13.3123
    8.220   13.9442
    8.235   13.4281
    8.250   13.5966
    8.265   14.0495
    8.280   13.2596
    8.295   13.0068
    8.310   13.2385
    8.325   13.1754
    8.340   13.1964
    8.355   12.6382
    8.370   12.7541
    8.385   12.7225
    8.400   12.6382
    8.415   12.5013
    8.430   12.0590
    8.445   11.7220
    8.460   11.7430
    8.475   11.3533
    8.490   11.0058
    8.505   11.4587
    8.520   10.9637
    8.535   11.5113
    8.550   11.0479
    8.565   11.0269
    8.580   10.6161
    8.595   10.8268
    8.610   10.8268
    8.625   10.1738
    8.640    9.6893
    8.655   10.1001
    8.670    9.8262
    8.685   10.3212
    8.700    9.5945
    8.715    9.2786
    8.730    9.7314
    8.745    9.5313
    8.760    9.4471
    8.775    9.2154
    8.790    8.8784
    8.805    8.8889
    8.820    9.0258
    8.835    9.0469
    8.850    8.9521
    8.865    8.8362
    8.880    9.0995
    8.895    9.2154
    8.910    8.6993
    8.925    8.3834
    8.940    8.3096
    8.955    8.6677
    8.970    8.4676
    8.985    8.2886
    9.000    8.2675
    9.015    8.2886
    9.030    8.0569
    9.045    8.4150
    9.060    7.9516
    9.075    8.0569
    9.090    8.1411
    9.105    7.9094
    9.120    7.6040
    9.135    7.7304
    9.150    7.7514
    9.165    7.9200
    9.180    7.6988
    9.195    7.5408
    9.210    7.7093
    9.225    7.4882
    9.240    7.4882
    9.255    7.6777
    9.270    7.5619
    9.285    7.6356
    9.300    7.9094
    9.315    7.5303
    9.330    7.9516
    9.345    7.4566
    9.360    7.6988
    9.375    7.0879
    9.390    7.4987
    9.405    7.5197
    9.420    7.3407
    9.435    7.6251
    9.450    7.7304
    9.465    7.3828
    9.480    7.5935
    9.495    7.8778
    9.510    7.5408
    9.525    7.0037
    9.540    6.9194
    9.555    7.2038
    9.570    7.2670
    9.585    7.4671
    9.600    7.6040
    9.615    7.5197
    9.630    7.5092
    9.645    7.2038
    9.660    7.2249
    9.675    7.6356
    9.690    7.3723
    9.705    7.5935
    9.720    7.3407
    9.735    7.0774
    9.750    7.2354
    9.765    7.5303
    9.780    7.2775
    9.795    7.5724
    9.810    7.4144
    9.825    7.7620
    9.840    7.4460
    9.855    7.1406
    9.870    7.8989
    9.885    7.6251
    9.900    7.5619
    9.915    7.4566
    9.930    7.5408
    9.945    7.5619
    9.960    7.4776
    9.975    7.2565
    9.990    7.2565
   10.005    7.2775
   10.020    6.9194
   10.035    6.9300
   10.050    7.8252
   10.065    7.2670
   10.080    7.6672
   10.095    7.5408
   10.110    7.6356
   10.125    7.4776
   10.140    7.5408
   10.155    6.7825
   10.170    7.0774
   10.185    7.3618
   10.200    7.3934
   10.215    7.6356
   10.230    7.7409
   10.245    7.5619
   10.260    7.8041
   10.275    7.7830
   10.290    7.6040
   10.305    7.8568
   10.320    8.1727
   10.335    7.9094
   10.350    7.8462
   10.365    7.9516
   10.380    7.8884
   10.395    7.8778
   10.410    8.3834
   10.425    8.0674
   10.440    8.3623
   10.455    8.6256
   10.470    8.8257
   10.485    8.8257
   10.500    8.6045
   10.515    8.0779
   10.530    8.5729
   10.545    8.2570
   10.560    8.6151
   10.575    8.2991
   10.590    7.6461
   10.605    8.3518
   10.620    8.0990
   10.635    7.9410
   10.650    7.9094
   10.665    8.0779
   10.680    7.8146
   10.695    7.4144
   10.710    7.4671
   10.725    6.9510
   10.740    7.7936
   10.755    7.8146
   10.770    7.9726
   10.785    7.3302
   10.800    7.1406
   10.815    7.7199
   10.830    7.4566
   10.845    7.0037
   10.860    7.1933
   10.875    7.4039
   10.890    7.5303
   10.905    7.4144
   10.920    7.5197
   10.935    7.5619
   10.950    7.2038
   10.965    6.8352
   10.980    7.3723
   10.995    7.4355
   11.010    7.3934
   11.025    7.1090
   11.040    7.3512
   11.055    7.2038
   11.070    7.6461
   11.085    7.1195
   11.100    7.1617
   11.115    7.5619
   11.130    7.3302
   11.145    7.6145
   11.160    7.6251
   11.175    7.2249
   11.190    7.0669
   11.205    7.3934
   11.220    7.3302
   11.235    7.6251
   11.250    7.1933
   11.265    7.1827
   11.280    7.3934
   11.295    7.2565
   11.310    7.6145
   11.325    7.7199
   11.340    7.5724
   11.355    7.4460
   11.370    7.2143
   11.385    7.3828
   11.400    7.3618
   11.415    7.1722
   11.430    7.4987
   11.445    7.3196
   11.460    7.3828
   11.475    7.8041
   11.490    7.6883
   11.505    7.2880
   11.520    7.6251
   11.535    7.1511
   11.550    7.3512
   11.565    7.4987
   11.580    7.4460
   11.595    7.6988
   11.610    7.4355
   11.625    7.5303
   11.640    7.3196
   11.655    7.7830
   11.670    7.7409
   11.685    7.4355
   11.700    7.5935
   11.715    7.9937
   11.730    7.4882
   11.745    7.4566
   11.760    7.8989
   11.775    7.5092
   11.790    7.6461
   11.805    7.8357
   11.820    7.9200
   11.835    7.6040
   11.850    7.6356
   11.865    7.5092
   11.880    7.4250
   11.895    7.6040
   11.910    7.5513
   11.925    7.9200
   11.940    7.4039
   11.955    7.7830
   11.970    7.9516
   11.985    8.2991
   12.000    8.0885
   12.015    7.6461
   12.030    7.8252
   12.045    7.9305
   12.060    7.9831
   12.075    7.9726
   12.090    7.9621
   12.105    7.7620
   12.120    7.6777
   12.135    7.7830
   12.150    7.7830
   12.165    8.0990
   12.180    7.7830
   12.195    7.9094
   12.210    8.1201
   12.225    8.2886
   12.240    8.5308
   12.255    8.0779
   12.270    7.6672
   12.285    8.0147
   12.300    7.7409
   12.315    8.1517
   12.330    7.8041
   12.345    7.9726
   12.360    8.0674
   12.375    8.2675
   12.390    7.6883
   12.405    8.5203
   12.420    8.4360
   12.435    8.3307
   12.450    8.3518
   12.465    8.4044
   12.480    8.2675
   12.495    8.1306
   12.510    7.8884
   12.525    8.2043
   12.540    8.0569
   12.555    7.8252
   12.570    8.0042
   12.585    8.4992
   12.600    7.7514
   12.615    8.0358
   12.630    8.4150
   12.645    8.5097
   12.660    8.0358
   12.675    8.2464
   12.690    7.6988
   12.705    8.0885
   12.720    7.6988
   12.735    7.8462
   12.750    7.8041
   12.765    8.1517
   12.780    7.8462
   12.795    8.1727
   12.810    8.4676
   12.825    8.2149
   12.840    8.1938
   12.855    7.6567
   12.870    7.9200
   12.885    7.7304
   12.900    7.9937
   12.915    7.5829
   12.930    7.9516
   12.945    8.0779
   12.960    7.7093
   12.975    8.0463
   12.990    7.6672
   13.005    7.5619
   13.020    7.5829
   13.035    7.8252
   13.050    7.8884
   13.065    7.6777
   13.080    7.5619
   13.095    8.1095
   13.110    7.8041
   13.125    7.8041
   13.140    7.6567
   13.155    8.2254
   13.170    7.7620
   13.185    7.4144
   13.200    7.4671
   13.215    7.8989
   13.230    7.8462
   13.245    8.0990
   13.260    7.5829
   13.275    7.9831
   13.290    7.3196
   13.305    7.1933
   13.320    7.2775
   13.335    7.5197
   13.350    7.5513
   13.365    7.8041
   13.380    7.7936
   13.395    7.4987
   13.410    7.3618
   13.425    7.5724
   13.440    7.8673
   13.455    7.4460
   13.470    7.8778
   13.485    8.0253
   13.500    7.7620
   13.515    7.4250
   13.530    7.6567
   13.545    7.7409
   13.560    7.4987
   13.575    8.0042
   13.590    7.9516
   13.605    8.0990
   13.620    8.2991
   13.635    7.5935
   13.650    7.5197
   13.665    7.5303
   13.680    7.8462
   13.695    7.5935
   13.710    7.0985
   13.725    7.4566
   13.740    7.2143
   13.755    7.2249
   13.770    7.7936
   13.785    7.9937
   13.800    7.4566
   13.815    7.5197
   13.830    7.1195
   13.845    7.4882
   13.860    7.4987
   13.875    7.7830
   13.890    7.3618
   13.905    7.3512
   13.920    7.6883
   13.935    7.8252
   13.950    7.4039
   13.965    7.3828
   13.980    7.7725
   13.995    7.8041
   14.010    7.6461
   14.025    7.6567
   14.040    7.1301
   14.055    7.5408
   14.070    7.4882
   14.085    7.3934
   14.100    7.7409
   14.115    7.5408
   14.130    7.8041
   14.145    7.2880
   14.160    6.6351
   14.175    7.3407
   14.190    6.9826
   14.205    7.3828
   14.220    7.5935
   14.235    7.2986
   14.250    7.2354
   14.265    7.0248
   14.280    7.5197
   14.295    7.5619
   14.310    7.2670
   14.325    7.1827
   14.340    7.3196
   14.355    7.5935
   14.370    7.5092
   14.385    7.3618
   14.400    7.1827
   14.415    7.4039
   14.430    6.7404
   14.445    6.7509
   14.460    7.1617
   14.475    7.1195
   14.490    6.9932
   14.505    7.0458
   14.520    7.2249
   14.535    7.2459
   14.550    7.4671
   14.565    7.2775
   14.580    7.3723
   14.595    7.4566
   14.610    7.3302
   14.625    7.4460
   14.640    7.4987
   14.655    7.1406
   14.670    7.7093
   14.685    7.3091
   14.700    7.5408
   14.715    7.5197
   14.730    7.4882
   14.745    7.2880
   14.760    6.7299
   14.775    7.0879
   14.790    7.2459
   14.805    7.4039
   14.820    6.9616
   14.835    7.0774
   14.850    7.1827
   14.865    7.0774
   14.880    7.0879
   14.895    7.0774
   14.910    7.1511
   14.925    7.3934
   14.940    6.9194
   14.955    7.2038
   14.970    7.1195
   14.985    7.0142
   15.000    7.0563
   15.015    7.2354
   15.030    7.2670
   15.045    6.9194
   15.060    6.8668
   15.075    6.9194
   15.090    7.1406
   15.105    7.5092
   15.120    7.6672
   15.135    7.0985
   15.150    6.5403
   15.165    7.0985
   15.180    7.1511
   15.195    6.8141
   15.210    7.3091
   15.225    7.0774
   15.240    7.1406
   15.255    7.1301
   15.270    7.4566
   15.285    7.0248
   15.300    7.2249
   15.315    7.1511
   15.330    7.4144
   15.345    7.4566
   15.360    7.5303
   15.375    7.1617
   15.390    7.4355
   15.405    7.6777
   15.420    7.1722
   15.435    7.2986
   15.450    7.0774
   15.465    6.9405
   15.480    7.0669
   15.495    7.1090
   15.510    7.0774
   15.525    7.2038
   15.540    7.2354
   15.555    7.2565
   15.570    7.4355
   15.585    7.5619
   15.600    7.6461
   15.615    7.1195
   15.630    7.2775
   15.645    7.5829
   15.660    7.3934
   15.675    7.2354
   15.690    7.0669
   15.705    7.2249
   15.720    7.4144
   15.735    6.8246
   15.750    6.9510
   15.765    7.3934
   15.780    7.3407
   15.795    7.4460
   15.810    7.4776
   15.825    7.5197
   15.840    7.2249
   15.855    7.1722
   15.870    7.1827
   15.885    7.3091
   15.900    7.2038
   15.915    7.3828
   15.930    6.9405
   15.945    6.8984
   15.960    7.0563
   15.975    7.3302
   15.990    6.9721
   16.005    6.7615
   16.020    7.0879
   16.035    7.3934
   16.050    7.1511
   16.065    7.2038
   16.080    7.2775
   16.095    7.1617
   16.110    6.9089
   16.125    7.3934
   16.140    7.5619
   16.155    6.8141
   16.170    6.9932
   16.185    7.0353
   16.200    7.1406
   16.215    7.0669
   16.230    7.0774
   16.245    7.5092
   16.260    7.5408
   16.275    7.2038
   16.290    6.9300
   16.305    6.6877
   16.320    7.2986
   16.335    7.1722
   16.350    7.1933
   16.365    7.3196
   16.380    7.4355
   16.395    7.1722
   16.410    7.0563
   16.425    6.8562
   16.440    7.1406
   16.455    7.0353
   16.470    7.1195
   16.485    7.3196
   16.500    7.1090
   16.515    7.2459
   16.530    7.1511
   16.545    7.0774
   16.560    7.2143
   16.575    7.1511
   16.590    7.2565
   16.605    6.9616
   16.620    6.8141
   16.635    7.1827
   16.650    7.1722
   16.665    7.2249
   16.680    7.2354
   16.695    7.3828
   16.710    7.4566
   16.725    7.0563
   16.740    6.9405
   16.755    7.1406
   16.770    7.4144
   16.785    6.7088
   16.800    6.9616
   16.815    7.1933
   16.830    6.8562
   16.845    7.3302
   16.860    6.9194
   16.875    6.7930
   16.890    6.7615
   16.905    6.7509
   16.920    7.0248
   16.935    7.5935
   16.950    7.4250
   16.965    7.0142
   16.980    7.0774
   16.995    7.1617
   17.010    6.8562
   17.025    6.8246
   17.040    7.0248
   17.055    6.7193
   17.070    6.9721
   17.085    6.9300
   17.100    6.7404
   17.115    6.8668
   17.130    6.4666
   17.145    6.6245
   17.160    6.8562
   17.175    7.2038
   17.190    7.1195
   17.205    7.3618
   17.220    7.4882
   17.235    7.4460
   17.250    7.4039
   17.265    7.0985
   17.280    7.4250
   17.295    7.3512
   17.310    7.0142
   17.325    7.2143
   17.340    7.1301
   17.355    7.5724
   17.370    7.3091
   17.385    6.9510
   17.400    6.8352
   17.415    6.5508
   17.430    7.1406
   17.445    7.7304
   17.460    7.2354
   17.475    7.2038
   17.490    7.4039
   17.505    7.4987
   17.520    7.3196
   17.535    7.1301
   17.550    7.1406
   17.565    7.0458
   17.580    7.1933
   17.595    7.0458
   17.610    7.4144
   17.625    7.2249
   17.640    7.5197
   17.655    6.9826
   17.670    7.2670
   17.685    7.4250
   17.700    7.1827
   17.715    6.9616
   17.730    7.0458
   17.745    7.5303
   17.760    6.9616
   17.775    7.2459
   17.790    7.2038
   17.805    7.1827
   17.820    6.9932
   17.835    6.8246
   17.850    6.8141
   17.865    7.2354
   17.880    7.4039
   17.895    6.9721
   17.910    7.3091
   17.925    7.2986
   17.940    7.0985
   17.955    7.3091
   17.970    7.4671
   17.985    7.0985
   18.000    7.4671
   18.015    7.2459
   18.030    6.9932
   18.045    7.3302
   18.060    6.7088
   18.075    7.1511
   18.090    7.5197
   18.105    7.2038
   18.120    7.3618
   18.135    7.1511
   18.150    7.4776
   18.165    7.4882
   18.180    8.0463
   18.195    7.6988
   18.210    7.5408
   18.225    7.2565
   18.240    7.0985
   18.255    7.2986
   18.270    7.8462
   18.285    7.5829
   18.300    7.6567
   18.315    7.4250
   18.330    7.0458
   18.345    7.0774
   18.360    7.1090
   18.375    7.4460
   18.390    7.1617
   18.405    7.5408
   18.420    7.2459
   18.435    6.9721
   18.450    6.9510
   18.465    7.4144
   18.480    7.0353
   18.495    7.2880
   18.510    7.4987
   18.525    7.3618
   18.540    7.2143
   18.555    7.5092
   18.570    6.8878
   18.585    7.1406
   18.600    7.2143
   18.615    7.4355
   18.630    7.1195
   18.645    7.4566
   18.660    7.3407
   18.675    7.2986
   18.690    7.4355
   18.705    7.4355
   18.720    7.5935
   18.735    7.0669
   18.750    7.2354
   18.765    7.1301
   18.780    7.4882
   18.795    7.2986
   18.810    7.2038
   18.825    7.2459
   18.840    7.0774
   18.855    6.8562
   18.870    6.7299
   18.885    7.4882
   18.900    7.1406
   18.915    7.4250
   18.930    7.3723
   18.945    7.5303
   18.960    7.6251
   18.975    6.9826
   18.990    7.2986
   19.005    7.0774
   19.020    7.5935
   19.035    7.6145
   19.050    7.7199
   19.065    7.4250
   19.080    7.3618
   19.095    7.0985
   19.110    7.6040
   19.125    7.3828
   19.140    7.3618
   19.155    7.6461
   19.170    7.6672
   19.185    7.6567
   19.200    7.6777
   19.215    7.8357
   19.230    7.6356
   19.245    7.7304
   19.260    7.5935
   19.275    7.5619
   19.290    7.5303
   19.305    7.6040
   19.320    7.4460
   19.335    7.3302
   19.350    7.1617
   19.365    7.2775
   19.380    7.3828
   19.395    7.5303
   19.410    7.8357
   19.425    7.9726
   19.440    7.8357
   19.455    7.7514
   19.470    7.8568
   19.485    7.7093
   19.500    7.7199
   19.515    7.7936
   19.530    7.4987
   19.545    7.6777
   19.560    7.4144
   19.575    7.7514
   19.590    7.6145
   19.605    7.3091
   19.620    7.4776
   19.635    7.8146
   19.650    7.7514
   19.665    7.9621
   19.680    7.5197
   19.695    7.9305
   19.710    8.0674
   19.725    8.1517
   19.740    7.9305
   19.755    7.6145
   19.770    8.1833
   19.785    7.5935
   19.800    7.6145
   19.815    7.8146
   19.830    8.0990
   19.845    7.5513
   19.860    7.7620
   19.875    7.8462
   19.890    8.2043
   19.905    7.8041
   19.920    7.8146
   19.935    7.6672
   19.950    8.0147
   19.965    7.4882
   19.980    7.7620
   19.995    7.8041
   20.010    8.0463
   20.025    8.0674
   20.040    7.8673
   20.055    7.6777
   20.070    7.8673
   20.085    8.2149
   20.100    8.0674
   20.115    8.0885
   20.130    7.8673
   20.145    8.2043
   20.160    7.7620
   20.175    8.0358
   20.190    8.2254
   20.205    8.1517
   20.220    8.2675
   20.235    8.3939
   20.250    8.5835
   20.265    8.3623
   20.280    8.3623
   20.295    7.8462
   20.310    8.2886
   20.325    7.9516
   20.340    7.8568
   20.355    8.2254
   20.370    7.9200
   20.385    7.8989
   20.400    7.6777
   20.415    7.9937
   20.430    8.5835
   20.445    8.1938
   20.460    8.2570
   20.475    8.0674
   20.490    8.2991
   20.505    8.4992
   20.520    8.5624
   20.535    7.9305
   20.550    7.9200
   20.565    8.0358
   20.580    8.2675
   20.595    8.2043
   20.610    8.0147
   20.625    8.0147
   20.640    8.2570
   20.655    7.8778
   20.670    7.9621
   20.685    7.5197
   20.700    7.5724
   20.715    7.7936
   20.730    8.0885
   20.745    7.9937
   20.760    7.7830
   20.775    8.2570
   20.790    7.9410
   20.805    8.0990
   20.820    8.1833
   20.835    7.8673
   20.850    8.0885
   20.865    7.8252
   20.880    7.9410
   20.895    8.2886
   20.910    7.9094
   20.925    8.0463
   20.940    8.1833
   20.955    8.3412
   20.970    8.2780
   20.985    8.1727
   21.000    7.9937
   21.015    7.9516
   21.030    8.2886
   21.045    8.1833
   21.060    8.3623
   21.075    8.1411
   21.090    8.1622
   21.105    7.8462
   21.120    8.1622
   21.135    8.4571
   21.150    8.1833
   21.165    8.1833
   21.180    8.2464
   21.195    7.8568
   21.210    8.0253
   21.225    7.8673
   21.240    7.9516
   21.255    7.8568
   21.270    7.9094
   21.285    7.9305
   21.300    8.0253
   21.315    8.0779
   21.330    8.0674
   21.345    7.8357
   21.360    7.8989
   21.375    8.0885
   21.390    8.0147
   21.405    8.2359
   21.420    8.1517
   21.435    7.9094
   21.450    7.8568
   21.465    7.9726
   21.480    8.6572
   21.495    8.1201
   21.510    7.8462
   21.525    8.2780
   21.540    8.2043
   21.555    8.1201
   21.570    7.8778
   21.585    8.0463
   21.600    8.5097
   21.615    8.0042
   21.630    8.0569
   21.645    7.6777
   21.660    7.9937
   21.675    8.0569
   21.690    8.1201
   21.705    8.2254
   21.720    8.2886
   21.735    8.0253
   21.750    8.0990
   21.765    7.8673
   21.780    8.3202
   21.795    7.7830
   21.810    7.8989
   21.825    7.8778
   21.840    7.7936
   21.855    8.1833
   21.870    7.8357
   21.885    7.8462
   21.900    8.0042
   21.915    7.8673
   21.930    7.7725
   21.945    8.0147
   21.960    7.9410
   21.975    8.0463
   21.990    7.6461
   22.005    7.7093
   22.020    7.9516
   22.035    8.0885
   22.050    8.2991
   22.065    8.0990
   22.080    7.8989
   22.095    8.0885
   22.110    8.2570
   22.125    8.3202
   22.140    7.7936
   22.155    7.7620
   22.170    8.1095
   22.185    7.9621
   22.200    8.2570
   22.215    8.1938
   22.230    8.1306
   22.245    8.0990
   22.260    7.5724
   22.275    7.7725
   22.290    8.4044
   22.305    8.0990
   22.320    7.9621
   22.335    8.2149
   22.350    8.3728
   22.365    8.1833
   22.380    8.0779
   22.395    8.1517
   22.410    8.0463
   22.425    7.5619
   22.440    7.8673
   22.455    7.9516
   22.470    8.1622
   22.485    7.9831
   22.500    7.9726
   22.515    8.1306
   22.530    7.7199
   22.545    8.0147
   22.560    8.2043
   22.575    8.1411
   22.590    8.0253
   22.605    7.9831
   22.620    7.7409
   22.635    7.5829
   22.650    7.5829
   22.665    7.8673
   22.680    8.0569
   22.695    8.2254
   22.710    7.9937
   22.725    8.3518
   22.740    8.0253
   22.755    7.7409
   22.770    7.5935
   22.785    7.6777
   22.800    7.9831
   22.815    7.9831
   22.830    7.8989
   22.845    8.1833
   22.860    8.0885
   22.875    7.8041
   22.890    7.6356
   22.905    7.4776
   22.920    7.6251
   22.935    7.7936
   22.950    8.2464
   22.965    7.8357
   22.980    7.9726
   22.995    7.6251
   23.010    8.1095
   23.025    8.2254
   23.040    7.9516
   23.055    7.7725
   23.070    8.0358
   23.085    7.4039
   23.100    7.6672
   23.115    7.7936
   23.130    7.8252
   23.145    7.9094
   23.160    7.7620
   23.175    7.7936
   23.190    7.1827
   23.205    7.2880
   23.220    7.7514
   23.235    7.4776
   23.250    7.7725
   23.265    7.6040
   23.280    7.7304
   23.295    7.6461
   23.310    7.6883
   23.325    7.7936
   23.340    7.7199
   23.355    7.6145
   23.370    7.6251
   23.385    7.3828
   23.400    8.0463
   23.415    7.9410
   23.430    7.5619
   23.445    8.0358
   23.460    7.7830
   23.475    7.6672
   23.490    7.6567
   23.505    8.1517
   23.520    7.4144
   23.535    7.4144
   23.550    7.4776
   23.565    7.9094
   23.580    7.7304
   23.595    8.1833
   23.610    7.8462
   23.625    7.7304
   23.640    7.6672
   23.655    7.6988
   23.670    7.8673
   23.685    8.0358
   23.700    7.8462
   23.715    7.4566
   23.730    7.8568
   23.745    7.7093
   23.760    7.7514
   23.775    7.3196
   23.790    7.5092
   23.805    7.8357
   23.820    7.9937
   23.835    8.0042
   23.850    7.7093
   23.865    7.4460
   23.880    7.6356
   23.895    7.5513
   23.910    7.6461
   23.925    7.7514
   23.940    7.4460
   23.955    7.3302
   23.970    7.9726
   23.985    7.6988
   24.000    7.6988
   24.015    7.5197
   24.030    7.3407
   24.045    7.4460
   24.060    7.4671
   24.075    7.0669
   24.090    7.0669
   24.105    7.5092
   24.120    7.5092
   24.135    7.4355
   24.150    7.6356
   24.165    7.3723
   24.180    7.8568
   24.195    7.6251
   24.210    7.4987
   24.225    7.8252
   24.240    7.4882
   24.255    7.2249
   24.270    7.2565
   24.285    7.5724
   24.300    7.4144
   24.315    7.2459
   24.330    7.4987
   24.345    7.3407
   24.360    7.4882
   24.375    7.3407
   24.390    7.4671
   24.405    7.3934
   24.420    7.6145
   24.435    7.7725
   24.450    7.3302
   24.465    7.7620
   24.480    7.5303
   24.495    7.7514
   24.510    7.4250
   24.525    7.5197
   24.540    7.3302
   24.555    7.4460
   24.570    7.6567
   24.585    7.4250
   24.600    7.8357
   24.615    7.5724
   24.630    7.5619
   24.645    7.8146
   24.660    7.6145
   24.675    7.6040
   24.690    7.5829
   24.705    7.0985
   24.720    7.2459
   24.735    7.3723
   24.750    7.3618
   24.765    7.9726
   24.780    7.1195
   24.795    7.7409
   24.810    7.6988
   24.825    7.2354
   24.840    7.0879
   24.855    6.9932
   24.870    6.8562
   24.885    7.1827
   24.900    7.4566
   24.915    7.5408
   24.930    7.4987
   24.945    7.0669
   24.960    7.3512
   24.975    7.2775
   24.990    6.9721
   25.005    7.1301
   25.020    7.3512
   25.035    7.7093
   25.050    7.2565
   25.065    7.3091
   25.080    7.2986
   25.095    7.0669
   25.110    7.4355
   25.125    7.3723
   25.140    7.4671
   25.155    7.1406
   25.170    7.1195
   25.185    7.5724
   25.200    7.4250
   25.215    7.3512
   25.230    7.3828
   25.245    7.3091
   25.260    7.6356
   25.275    7.0458
   25.290    7.4250
   25.305    7.2143
   25.320    7.2986
   25.335    7.4039
   25.350    7.2986
   25.365    7.0879
   25.380    7.2775
   25.395    7.5303
   25.410    7.2775
   25.425    7.7620
   25.440    7.3091
   25.455    7.4144
   25.470    6.9826
   25.485    6.8457
   25.500    6.9721
   25.515    6.9826
   25.530    6.9300
   25.545    7.2880
   25.560    7.1511
   25.575    7.3618
   25.590    7.2775
   25.605    7.0774
   25.620    7.3618
   25.635    7.3723
   25.650    6.9826
   25.665    7.0142
   25.680    6.7193
   25.695    7.0142
   25.710    6.9089
   25.725    6.9510
   25.740    7.4039
   25.755    7.1827
   25.770    6.8773
   25.785    6.9194
   25.800    7.1090
   25.815    6.8457
   25.830    7.0879
   25.845    7.2038
   25.860    7.1406
   25.875    6.9194
   25.890    6.8562
   25.905    7.0774
   25.920    7.2354
   25.935    7.2459
   25.950    7.3618
   25.965    7.2670
   25.980    6.9089
   25.995    6.5824
   26.010    7.1090
   26.025    6.8036
   26.040    6.9194
   26.055    7.0353
   26.070    7.2038
   26.085    7.2565
   26.100    7.0142
   26.115    7.3723
   26.130    7.0563
   26.145    6.7088
   26.160    6.5613
   26.175    6.8036
   26.190    6.9721
   26.205    6.4771
   26.220    7.0142
   26.235    6.8878
   26.250    6.5192
   26.265    6.9721
   26.280    7.0248
   26.295    7.3407
   26.310    6.8036
   26.325    6.5719
   26.340    6.5824
   26.355    6.7299
   26.370    6.8984
   26.385    6.6351
   26.400    6.6035
   26.415    6.6772
   26.430    6.6035
   26.445    7.0774
   26.460    6.8773
   26.475    7.1406
   26.490    7.1090
   26.505    6.3718
   26.520    6.5298
   26.535    6.6561
   26.550    6.7615
   26.565    6.6561
   26.580    6.5403
   26.595    6.6456
   26.610    6.8246
   26.625    6.8352
   26.640    6.8984
   26.655    6.8878
   26.670    6.7930
   26.685    6.8246
   26.700    6.8036
   26.715    6.8668
   26.730    6.6456
   26.745    6.7930
   26.760    6.7825
   26.775    6.9616
   26.790    7.1722
   26.805    6.6351
   26.820    6.2243
   26.835    7.0458
   26.850    6.5929
   26.865    6.9194
   26.880    6.9194
   26.895    6.6561
   26.910    6.6772
   26.925    6.5719
   26.940    6.8668
   26.955    6.4771
   26.970    6.8773
   26.985    6.6561
   27.000    6.7615
   27.015    6.9616
   27.030    6.7615
   27.045    6.8562
   27.060    6.6456
   27.075    7.0774
   27.090    6.9826
   27.105    7.0985
   27.120    7.2249
   27.135    7.0458
   27.150    6.4771
   27.165    6.8668
   27.180    6.8562
   27.195    7.2775
   27.210    6.9721
   27.225    6.9089
   27.240    6.5087
   27.255    6.5192
   27.270    6.4560
   27.285    6.8246
   27.300    6.9826
   27.315    6.7404
   27.330    6.8352
   27.345    6.7088
   27.360    6.9932
   27.375    6.6667
   27.390    6.6140
   27.405    6.8562
   27.420    6.7299
   27.435    6.7299
   27.450    6.5403
   27.465    6.5403
   27.480    6.1506
   27.495    6.4350
   27.510    6.6772
   27.525    6.8668
   27.540    6.4560
   27.555    6.5192
   27.570    6.8562
   27.585    6.6561
   27.600    6.6983
   27.615    6.8562
   27.630    6.7615
   27.645    6.6245
   27.660    6.7193
   27.675    6.8562
   27.690    6.7299
   27.705    7.0248
   27.720    6.7404
   27.735    6.5508
   27.750    6.5824
   27.765    6.6667
   27.780    6.7930
   27.795    6.9721
   27.810    6.4244
   27.825    7.0774
   27.840    6.7509
   27.855    6.7404
   27.870    6.9194
   27.885    6.5087
   27.900    6.6245
   27.915    6.5929
   27.930    6.3928
   27.945    6.5192
   27.960    6.8457
   27.975    6.9300
   27.990    6.8668
   28.005    6.6456
   28.020    6.5192
   28.035    6.6667
   28.050    6.3402
   28.065    6.5298
   28.080    6.7088
   28.095    6.7404
   28.110    6.8984
   28.125    6.4139
   28.140    6.6035
   28.155    7.0985
   28.170    6.8878
   28.185    7.1090
   28.200    6.8457
   28.215    7.5619
   28.230    7.0985
   28.245    6.5087
   28.260    6.2349
   28.275    6.7193
   28.290    6.6983
   28.305    7.1722
   28.320    7.0248
   28.335    6.9089
   28.350    6.7615
   28.365    7.2249
   28.380    7.4144
   28.395    7.0985
   28.410    6.5929
   28.425    6.3296
   28.440    6.7930
   28.455    6.5508
   28.470    6.6351
   28.485    6.6456
   28.500    6.8352
   28.515    6.8141
   28.530    6.9194
   28.545    6.6772
   28.560    6.8773
   28.575    6.8984
   28.590    6.7825
   28.605    6.4034
   28.620    6.7720
   28.635    6.4034
   28.650    6.8668
   28.665    6.8773
   28.680    6.6140
   28.695    6.4560
   28.710    6.5087
   28.725    6.4034
   28.740    6.8141
   28.755    6.3612
   28.770    6.7299
   28.785    6.3612
   28.800    6.2981
   28.815    6.1927
   28.830    6.6140
   28.845    6.6456
   28.860    6.8036
   28.875    6.6983
   28.890    6.4666
   28.905    6.5719
   28.920    6.6245
   28.935    6.4771
   28.950    6.3928
   28.965    6.6035
   28.980    6.5192
   28.995    6.3402
   29.010    6.2033
   29.025    6.7615
   29.040    6.7299
   29.055    6.5192
   29.070    6.7615
   29.085    6.4350
   29.100    6.5929
   29.115    6.7825
   29.130    6.3296
   29.145    6.3823
   29.160    6.6456
   29.175    6.6035
   29.190    6.6245
   29.205    6.6351
   29.220    6.3086
   29.235    6.0769
   29.250    6.3823
   29.265    6.3718
   29.280    6.3612
   29.295    6.0664
   29.310    6.1927
   29.325    6.4034
   29.340    6.4560
   29.355    6.4560
   29.370    7.2775
   29.385    6.6351
   29.400    6.1611
   29.415    5.9294
   29.430    6.8141
   29.445    6.6035
   29.460    6.3823
   29.475    6.2559
   29.490    6.5087
   29.505    6.3928
   29.520    6.2243
   29.535    6.5508
   29.550    6.5403
   29.565    6.5929
   29.580    6.5192
   29.595    6.1822
   29.610    6.2559
   29.625    6.4982
   29.640    6.0348
   29.655    6.1085
   29.670    6.2770
   29.685    6.4139
   29.700    6.6245
   29.715    6.8246
   29.730    6.3823
   29.745    6.6245
   29.760    6.0874
   29.775    6.3718
   29.790    6.3402
   29.805    6.5087
   29.820    6.3296
   29.835    6.5192
   29.850    6.4771
   29.865    6.5508
   29.880    6.3507
   29.895    6.3928
   29.910    6.4982
   29.925    6.1190
   29.940    6.1401
   29.955    6.4139
   29.970    6.0032
   29.985    6.4350
   30.000    6.4771
   30.015    6.1401
   30.030    6.1085
   30.045    6.5824
   30.060    6.3507
   30.075    6.1401
   30.090    6.5403
   30.105    6.6983
   30.120    6.2349
   30.135    6.0032
   30.150    6.7509
   30.165    6.4771
   30.180    6.0769
   30.195    6.1295
   30.210    6.4139
   30.225    6.5613
   30.240    6.0874
   30.255    6.0769
   30.270    6.3296
   30.285    6.7299
   30.300    6.5192
   30.315    6.2559
   30.330    6.4666
   30.345    6.3296
   30.360    6.5929
   30.375    6.5403
   30.390    6.5087
   30.405    6.6351
   30.420    6.4139
   30.435    6.6140
   30.450    6.0769
   30.465    6.0979
   30.480    5.8452
   30.495    6.1085
   30.510    6.0348
   30.525    6.1085
   30.540    6.3296
   30.555    6.3507
   30.570    6.4455
   30.585    6.1927
   30.600    6.4982
   30.615    6.2243
   30.630    6.2033
   30.645    6.1085
   30.660    6.0874
   30.675    6.6561
   30.690    6.2349
   30.705    6.4244
   30.720    6.6561
   30.735    5.9084
   30.750    6.2033
   30.765    6.3823
   30.780    6.0453
   30.795    6.0137
   30.810    6.2981
   30.825    6.2875
   30.840    6.3086
   30.855    6.2349
   30.870    6.2454
   30.885    6.3507
   30.900    6.3823
   30.915    6.0769
   30.930    6.4876
   30.945    6.6456
   30.960    6.3823
   30.975    6.2138
   30.990    6.4876
   31.005    6.5298
   31.020    6.0032
   31.035    6.5929
   31.050    6.3718
   31.065    6.5719
   31.080    6.3928
   31.095    6.1295
   31.110    5.9716
   31.125    5.9821
   31.140    5.8662
   31.155    5.8768
   31.170    6.1401
   31.185    6.0979
   31.200    6.0453
   31.215    6.5929
   31.230    6.4034
   31.245    6.3823
   31.260    6.0137
   31.275    6.1927
   31.290    6.3191
   31.305    6.0874
   31.320    6.4034
   31.335    6.1295
   31.350    5.7820
   31.365    6.0979
   31.380    6.0137
   31.395    6.3191
   31.410    6.2138
   31.425    6.2349
   31.440    6.3296
   31.455    6.2454
   31.470    6.1085
   31.485    5.9821
   31.500    6.3507
   31.515    6.5192
   31.530    6.1190
   31.545    5.9400
   31.560    6.3191
   31.575    6.3928
   31.590    6.2033
   31.605    6.5613
   31.620    6.6667
   31.635    5.7188
   31.650    5.6872
   31.665    6.1085
   31.680    6.3718
   31.695    6.2559
   31.710    6.2559
   31.725    6.2981
   31.740    6.7825
   31.755    6.7930
   31.770    6.4666
   31.785    6.5929
   31.800    6.7615
   31.815    6.4244
   31.830    6.5087
   31.845    6.4771
   31.860    6.6456
   31.875    6.4982
   31.890    6.5403
   31.905    6.4666
   31.920    6.4350
   31.935    6.4034
   31.950    6.0979
   31.965    6.4139
   31.980    6.6983
   31.995    6.4982
   32.010    6.1190
   32.025    6.1822
   32.040    6.0874
   32.055    6.0348
   32.070    6.1822
   32.085    6.2770
   32.100    5.9610
   32.115    6.4666
   32.130    6.4666
   32.145    6.1717
   32.160    5.9294
   32.175    6.2033
   32.190    6.3928
   32.205    6.2875
   32.220    6.2243
   32.235    6.2243
   32.250    5.8347
   32.265    6.0137
   32.280    6.5719
   32.295    6.3718
   32.310    6.4139
   32.325    6.1190
   32.340    6.1927
   32.355    6.3928
   32.370    6.3612
   32.385    6.2349
   32.400    6.0032
   32.415    5.9189
   32.430    5.8557
   32.445    6.3507
   32.460    6.4560
   32.475    6.1717
   32.490    6.0874
   32.505    6.4244
   32.520    6.1085
   32.535    6.0137
   32.550    6.4034
   32.565    6.1506
   32.580    6.2981
   32.595    6.3823
   32.610    6.1506
   32.625    6.3823
   32.640    6.1927
   32.655    5.8557
   32.670    6.3612
   32.685    6.2243
   32.700    6.1506
   32.715    5.9610
   32.730    6.3402
   32.745    6.1927
   32.760    6.1190
   32.775    6.1717
   32.790    6.2349
   32.805    6.0348
   32.820    5.9716
   32.835    6.3402
   32.850    6.4982
   32.865    6.2033
   32.880    6.0874
   32.895    6.3296
   32.910    5.8241
   32.925    6.2349
   32.940    6.7615
   32.955    6.2454
   32.970    6.1611
   32.985    5.9400
   33.000    6.2454
   33.015    6.1611
   33.030    6.0769
   33.045    5.9821
   33.060    6.0453
   33.075    6.0558
   33.090    6.0874
   33.105    6.1822
   33.120    5.9821
   33.135    5.7504
   33.150    5.9716
   33.165    5.7083
   33.180    5.8136
   33.195    5.6240
   33.210    5.8978
   33.225    6.1611
   33.240    6.2349
   33.255    6.2349
   33.270    6.3086
   33.285    5.8978
   33.300    5.8241
   33.315    6.1295
   33.330    6.1611
   33.345    5.6345
   33.360    5.9821
   33.375    6.0874
   33.390    6.3402
   33.405    5.9821
   33.420    6.0979
   33.435    6.1401
   33.450    5.8452
   33.465    6.0769
   33.480    5.8768
   33.495    5.8452
   33.510    5.7188
   33.525    5.7293
   33.540    5.7083
   33.555    5.8768
   33.570    6.1717
   33.585    5.9084
   33.600    6.1717
   33.615    5.9716
   33.630    6.1506
   33.645    6.1506
   33.660    5.8347
   33.675    5.8978
   33.690    6.2138
   33.705    6.0242
   33.720    5.7293
   33.735    5.6661
   33.750    5.8873
   33.765    5.6872
   33.780    5.8978
   33.795    5.8347
   33.810    6.0032
   33.825    5.6977
   33.840    5.7083
   33.855    5.5924
   33.870    5.6345
   33.885    5.8873
   33.900    5.8557
   33.915    5.6451
   33.930    5.7188
   33.945    5.4450
   33.960    5.6661
   33.975    5.7083
   33.990    5.4028
   34.005    5.7504
   34.020    5.7399
   34.035    6.1717
   34.050    5.8978
   34.065    5.6345
   34.080    5.6556
   34.095    5.9716
   34.110    5.6556
   34.125    5.9084
   34.140    6.1611
   34.155    6.0032
   34.170    5.6661
   34.185    5.6240
   34.200    6.2243
   34.215    6.0242
   34.230    5.7399
   34.245    5.8768
   34.260    6.2033
   34.275    5.7820
   34.290    6.3718
   34.305    6.0348
   34.320    5.8347
   34.335    5.7820
   34.350    5.8136
   34.365    5.9084
   34.380    5.7820
   34.395    5.8873
   34.410    5.7399
   34.425    5.8136
   34.440    5.5292
   34.455    5.5503
   34.470    5.7188
   34.485    5.9084
   34.500    6.0874
   34.515    5.5082
   34.530    5.7083
   34.545    5.4450
   34.560    5.4871
   34.575    5.8136
   34.590    5.7083
   34.605    6.1822
   34.620    6.0558
   34.635    6.0032
   34.650    5.9189
   34.665    5.4871
   34.680    5.5187
   34.695    5.3397
   34.710    5.7399
   34.725    6.0664
   34.740    5.9294
   34.755    5.5714
   34.770    5.7293
   34.785    5.9610
   34.800    5.8347
   34.815    5.8031
   34.830    5.4134
   34.845    6.0558
   34.860    5.8768
   34.875    5.7820
   34.890    5.7820
   34.905    5.6135
   34.920    5.7083
   34.935    5.9716
   34.950    5.6872
   34.965    5.4976
   34.980    5.8136
   34.995    5.7609
   35.010    5.7504
   35.025    5.6872
   35.040    5.9610
   35.055    5.8031
   35.070    6.0348
   35.085    5.6661
   35.100    5.7188
   35.115    5.7609
   35.130    5.8136
   35.145    6.2875
   35.160    5.9189
   35.175    5.9294
   35.190    5.8873
   35.205    5.5714
   35.220    5.9821
   35.235    5.9926
   35.250    5.7293
   35.265    5.5714
   35.280    5.6240
   35.295    5.5819
   35.310    5.8347
   35.325    6.1822
   35.340    6.1401
   35.355    5.5714
   35.370    5.5503
   35.385    5.7504
   35.400    5.7504
   35.415    5.5819
   35.430    5.2659
   35.445    5.5819
   35.460    5.7188
   35.475    6.0558
   35.490    6.1190
   35.505    5.9294
   35.520    5.8452
   35.535    5.9294
   35.550    5.4450
   35.565    5.9084
   35.580    5.9505
   35.595    5.9716
   35.610    5.6661
   35.625    5.4239
   35.640    5.6977
   35.655    5.5503
   35.670    5.9294
   35.685    5.7820
   35.700    5.5082
   35.715    5.6029
   35.730    5.5819
   35.745    5.5608
   35.760    5.6872
   35.775    5.5503
   35.790    5.7609
   35.805    5.4766
   35.820    5.7293
   35.835    5.8662
   35.850    5.6661
   35.865    5.8978
   35.880    5.9294
   35.895    5.9084
   35.910    5.5398
   35.925    5.7399
   35.940    5.7293
   35.955    5.5398
   35.970    5.7820
   35.985    6.0242
   36.000    5.3818
   36.015    5.3081
   36.030    5.4766
   36.045    5.7293
   36.060    5.7293
   36.075    5.8136
   36.090    5.8031
   36.105    5.6977
   36.120    6.0874
   36.135    5.5819
   36.150    5.4871
   36.165    5.4555
   36.180    5.5924
   36.195    5.6240
   36.210    5.4766
   36.225    5.6451
   36.240    5.9610
   36.255    5.8978
   36.270    5.6451
   36.285    5.9716
   36.300    6.1190
   36.315    5.6029
   36.330    5.5608
   36.345    5.5503
   36.360    5.7925
   36.375    5.5608
   36.390    5.8347
   36.405    5.4450
   36.420    5.8557
   36.435    5.3081
   36.450    5.3712
   36.465    5.7504
   36.480    5.3818
   36.495    5.3081
   36.510    5.6345
   36.525    5.8136
   36.540    5.8662
   36.555    5.6767
   36.570    5.6240
   36.585    5.3712
   36.600    5.4134
   36.615    5.7715
   36.630    5.7399
   36.645    5.8136
   36.660    6.0032
   36.675    5.8347
   36.690    5.8978
   36.705    5.9821
   36.720    6.1085
   36.735    5.9821
   36.750    5.8347
   36.765    5.5187
   36.780    5.5714
   36.795    5.4660
   36.810    5.5187
   36.825    5.5503
   36.840    6.0348
   36.855    5.8031
   36.870    5.5714
   36.885    5.8031
   36.900    5.5714
   36.915    5.9716
   36.930    5.5398
   36.945    5.8031
   36.960    5.5503
   36.975    5.4766
   36.990    5.3712
   37.005    5.6029
   37.020    5.7925
   37.035    5.4766
   37.050    5.4871
   37.065    5.7715
   37.080    5.7188
   37.095    5.7504
   37.110    5.9716
   37.125    6.0453
   37.140    5.6767
   37.155    5.5292
   37.170    5.6556
   37.185    5.6135
   37.200    5.4239
   37.215    5.8768
   37.230    5.5819
   37.245    5.3291
   37.260    5.2870
   37.275    5.6240
   37.290    6.1611
   37.305    5.4660
   37.320    5.5082
   37.335    5.5082
   37.350    5.2659
   37.365    5.7504
   37.380    5.3818
   37.395    5.4766
   37.410    5.7820
   37.425    5.4555
   37.440    5.7399
   37.455    5.8347
   37.470    5.9610
   37.485    5.4555
   37.500    5.3186
   37.515    5.5398
   37.530    5.4660
   37.545    5.8136
   37.560    5.7504
   37.575    5.4766
   37.590    5.5187
   37.605    5.7504
   37.620    5.6240
   37.635    5.3818
   37.650    5.4239
   37.665    5.1290
   37.680    5.1606
   37.695    5.3291
   37.710    5.4976
   37.725    5.6556
   37.740    5.4344
   37.755    5.3502
   37.770    5.3502
   37.785    5.5187
   37.800    5.8347
   37.815    5.5503
   37.830    5.7188
   37.845    5.6240
   37.860    5.5924
   37.875    5.7399
   37.890    5.8873
   37.905    5.8873
   37.920    5.5292
   37.935    5.8241
   37.950    5.2027
   37.965    5.5503
   37.980    5.6029
   37.995    5.7083
   38.010    5.7399
   38.025    5.4976
   38.040    5.2133
   38.055    5.4028
   38.070    5.7715
   38.085    5.6661
   38.100    5.3712
   38.115    5.5503
   38.130    5.1711
   38.145    5.4134
   38.160    5.4134
   38.175    5.5503
   38.190    5.5398
   38.205    5.4976
   38.220    5.2975
   38.235    5.6767
   38.250    5.6451
   38.265    5.6029
   38.280    5.5082
   38.295    5.2765
   38.310    5.4555
   38.325    5.4660
   38.340    5.7293
   38.355    5.3923
   38.370    5.4555
   38.385    5.2027
   38.400    5.7504
   38.415    5.3818
   38.430    5.1711
   38.445    5.5187
   38.460    5.5924
   38.475    5.1817
   38.490    5.6872
   38.505    5.5398
   38.520    5.4239
   38.535    5.1501
   38.550    5.7504
   38.565    5.2449
   38.580    5.5819
   38.595    5.2238
   38.610    5.3291
   38.625    5.7083
   38.640    5.4450
   38.655    5.6556
   38.670    5.6872
   38.685    5.4871
   38.700    5.9189
   38.715    5.7715
   38.730    5.5292
   38.745    5.7504
   38.760    5.4555
   38.775    5.6240
   38.790    5.4555
   38.805    5.2870
   38.820    5.6135
   38.835    5.5503
   38.850    4.9500
   38.865    5.6977
   38.880    5.4134
   38.895    5.2554
   38.910    5.2343
   38.925    5.3712
   38.940    5.4239
   38.955    5.5187
   38.970    5.4766
   38.985    5.6029
   39.000    5.6977
   39.015    5.2975
   39.030    5.7715
   39.045    5.4134
   39.060    5.3712
   39.075    5.6661
   39.090    5.4239
   39.105    5.3607
   39.120    5.3291
   39.135    5.6029
   39.150    5.4660
   39.165    5.3081
   39.180    5.3923
   39.195    5.5503
   39.210    5.0342
   39.225    5.4239
   39.240    5.5292
   39.255    5.5082
   39.270    5.6345
   39.285    5.6240
   39.300    5.4660
   39.315    5.6029
   39.330    5.8347
   39.345    5.3923
   39.360    5.3397
   39.375    5.6240
   39.390    5.4871
   39.405    5.2343
   39.420    5.2554
   39.435    5.0237
   39.450    5.8557
   39.465    5.7293
   39.480    5.5714
   39.495    5.7399
   39.510    5.6977
   39.525    5.5398
   39.540    5.4976
   39.555    5.4239
   39.570    5.2133
   39.585    5.4028
   39.600    5.6872
   39.615    5.6345
   39.630    5.7609
   39.645    5.6135
   39.660    5.7820
   39.675    5.9821
   39.690    5.6556
   39.705    5.7504
   39.720    5.6240
   39.735    5.2238
   39.750    5.6661
   39.765    5.5819
   39.780    5.5292
   39.795    5.4134
   39.810    5.1922
   39.825    5.5292
   39.840    5.7399
   39.855    5.7820
   39.870    5.6872
   39.885    5.5924
   39.900    5.4660
   39.915    5.4028
   39.930    5.5503
   39.945    5.2238
   39.960    5.1395
   39.975    5.7504
   39.990    5.5819
