    1.500   70.2370
    1.515   70.9531
    1.530   69.5313
    1.545   66.7931
    1.560   65.1922
    1.575   64.1496
    1.590   62.9173
    1.605   61.5377
    1.620   60.4634
    1.635   61.2638
    1.650   59.1153
    1.665   58.4729
    1.680   57.5461
    1.695   55.3976
    1.710   55.0711
    1.725   54.4602
    1.740   53.1964
    1.755   51.3112
    1.770   52.3644
    1.785   51.3323
    1.800   49.9000
    1.815   49.5629
    1.830   48.4044
    1.845   47.6988
    1.860   47.2986
    1.875   45.5082
    1.890   44.3391
    1.905   45.5082
    1.920   43.8757
    1.935   42.7488
    1.950   42.9384
    1.965   42.9700
    1.980   41.8852
    1.995   40.3792
    2.010   40.6635
    2.025   40.4739
    2.040   40.9584
    2.055   40.1264
    2.070   39.5682
    2.085   37.4618
    2.100   36.4402
    2.115   36.8299
    2.130   36.3033
    2.145   35.4924
    2.160   35.2501
    2.175   34.3339
    2.190   33.9652
    2.205   35.0922
    2.220   34.2180
    2.235   33.3649
    2.250   32.4065
    2.265   31.6588
    2.280   31.9642
    2.295   31.4271
    2.310   30.2686
    2.325   30.3739
    2.340   30.3423
    2.355   29.7841
    2.370   29.1417
    2.385   28.6151
    2.400   29.3839
    2.415   28.5519
    2.430   28.0042
    2.445   27.1511
    2.460   27.9410
    2.475   26.8036
    2.490   27.5092
    2.505   26.9405
    2.520   26.1927
    2.535   26.7825
    2.550   26.2138
    2.565   25.9610
    2.580   25.2975
    2.595   25.2659
    2.610   25.6240
    2.625   25.1711
    2.640   24.2970
    2.655   23.6651
    2.670   23.4439
    2.685   22.9910
    2.700   23.2859
    2.715   24.0337
    2.730   22.9910
    2.745   22.4434
    2.760   22.2117
    2.775   22.1801
    2.790   21.8009
    2.805   21.1690
    2.820   22.2012
    2.835   22.2222
    2.850   20.9163
    2.865   21.6008
    2.880   20.9479
    2.895   20.2422
    2.910   20.3581
    2.925   20.2949
    2.940   20.1369
    2.955   19.6525
    2.970   19.5682
    2.985   19.8631
    3.000   19.1259
    3.015   18.8099
    3.030   18.7046
    3.045   19.3997
    3.060   19.2733
    3.075   18.6519
    3.090   18.8520
    3.105   18.7888
    3.120   18.0411
    3.135   18.0095
    3.150   17.8936
    3.165   17.5461
    3.180   17.5882
    3.195   17.7883
    3.210   17.8199
    3.225   17.8515
    3.240   17.0405
    3.255   17.6514
    3.270   17.0405
    3.285   16.6930
    3.300   17.0511
    3.315   17.0300
    3.330   17.1037
    3.345   16.5456
    3.360   16.3454
    3.375   16.2507
    3.390   15.6925
    3.405   15.8399
    3.420   16.1875
    3.435   15.7451
    3.450   15.4081
    3.465   15.8504
    3.480   16.1559
    3.495   15.2185
    3.510   16.2401
    3.525   15.8399
    3.540   15.6609
    3.555   15.1975
    3.570   15.2291
    3.585   14.9763
    3.600   14.3339
    3.615   15.0395
    3.630   14.9868
    3.645   14.5234
    3.660   14.4708
    3.675   14.4918
    3.690   14.9236
    3.705   14.6077
    3.720   14.3760
    3.735   14.0179
    3.750   13.8073
    3.765   14.1654
    3.780   14.3128
    3.795   14.3971
    3.810   14.1759
    3.825   13.9758
    3.840   14.1232
    3.855   14.3971
    3.870   13.6704
    3.885   13.5440
    3.900   12.9331
    3.915   13.3228
    3.930   13.3544
    3.945   13.4597
    3.960   13.1754
    3.975   12.9858
    3.990   12.9753
    4.005   12.7225
    4.020   13.2280
    4.035   13.6704
    4.050   13.3228
    4.065   13.5440
    4.080   12.7330
    4.095   12.9647
    4.110   12.7646
    4.125   12.6066
    4.140   12.3433
    4.155   12.1432
    4.170   12.4697
    4.185   12.5434
    4.200   12.1854
    4.215   12.2486
    4.230   12.4171
    4.245   12.0906
    4.260   12.1748
    4.275   11.9958
    4.290   12.2064
    4.305   12.3328
    4.320   11.4587
    4.335   11.9010
    4.350   11.5008
    4.365   11.5956
    4.380   12.0695
    4.395   11.8589
    4.410   11.7009
    4.425   11.4376
    4.440   11.7114
    4.455   11.3744
    4.470   11.0269
    4.485   10.8899
    4.500   11.2586
    4.515   11.3428
    4.530   11.1743
    4.545   11.3112
    4.560   11.2480
    4.575   10.9742
    4.590   11.0479
    4.605   10.8689
    4.620   10.5845
    4.635   10.5740
    4.650   10.9321
    4.665   11.3007
    4.680   11.2375
    4.695   10.6688
    4.710   10.4265
    4.725   10.5740
    4.740   10.5740
    4.755   10.0790
    4.770   10.5108
    4.785   10.7320
    4.800    9.9947
    4.815    9.9842
    4.830   10.0790
    4.845   10.1001
    4.860    9.9842
    4.875   10.3423
    4.890   10.1106
    4.905   10.5740
    4.920    9.7630
    4.935    9.8473
    4.950   10.3318
    4.965   10.2054
    4.980    9.5945
    4.995    9.8262
    5.010    9.4892
    5.025    9.8157
    5.040    9.9421
    5.055    9.5524
    5.070    9.5419
    5.085    9.8368
    5.100    9.6788
    5.115    9.5735
    5.130    9.8262
    5.145    9.1838
    5.160    9.5208
    5.175    9.2048
    5.190    8.9205
    5.205    9.0258
    5.220    9.2680
    5.235    8.7414
    5.250    9.2259
    5.265    8.8889
    5.280    9.1101
    5.295    9.3102
    5.310    8.6045
    5.325    9.1206
    5.340    8.9415
    5.355    9.3418
    5.370    8.7836
    5.385    8.4571
    5.400    8.6151
    5.415    8.8046
    5.430    8.8468
    5.445    8.9942
    5.460    9.2891
    5.475    9.2575
    5.490    8.7309
    5.505    8.6888
    5.520    8.7414
    5.535    9.2259
    5.550    8.9205
    5.565    8.5624
    5.580    8.8362
    5.595    8.7730
    5.610    8.8994
    5.625    8.7414
    5.640    8.5940
    5.655    8.5729
    5.670    8.5413
    5.685    8.9205
    5.700    8.8046
    5.715    8.4255
    5.730    8.2886
    5.745    8.5940
    5.760    8.7309
    5.775    8.0990
    5.790    8.4676
    5.805    8.8784
    5.820    9.1943
    5.835    8.8152
    5.850    8.6572
    5.865    8.2675
    5.880    8.3202
    5.895    8.4255
    5.910    8.0253
    5.925    8.1727
    5.940    8.0463
    5.955    8.4150
    5.970    8.0779
    5.985    8.6045
    6.000    8.1095
    6.015    8.1306
    6.030    8.2149
    6.045    8.1727
    6.060    8.6151
    6.075    8.4887
    6.090    8.2675
    6.105    7.8146
    6.120    8.0042
    6.135    7.8041
    6.150    8.3623
    6.165    7.9516
    6.180    7.9410
    6.195    8.0779
    6.210    7.9516
    6.225    8.0674
    6.240    8.2464
    6.255    8.0990
    6.270    7.8989
    6.285    7.6883
    6.300    7.5092
    6.315    7.9094
    6.330    7.8989
    6.345    8.1095
    6.360    8.3834
    6.375    8.5624
    6.390    8.2570
    6.405    7.8673
    6.420    8.1938
    6.435    8.0147
    6.450    7.7620
    6.465    7.8357
    6.480    8.3412
    6.495    8.1095
    6.510    8.1411
    6.525    7.6883
    6.540    7.5829
    6.555    8.0885
    6.570    8.1833
    6.585    8.4887
    6.600    8.4255
    6.615    7.7936
    6.630    8.3202
    6.645    8.4255
    6.660    8.2991
    6.675    7.8673
    6.690    7.9937
    6.705    8.1622
    6.720    8.1517
    6.735    7.8146
    6.750    8.1306
    6.765    8.1306
    6.780    8.1411
    6.795    8.1517
    6.810    8.0885
    6.825    8.2675
    6.840    7.8568
    6.855    8.4255
    6.870    8.2359
    6.885    8.1411
    6.900    7.9516
    6.915    8.2991
    6.930    8.3202
    6.945    8.6151
    6.960    8.2149
    6.975    8.3412
    6.990    8.6045
    7.005    8.3096
    7.020    8.3834
    7.035    8.1833
    7.050    8.3518
    7.065    7.8884
    7.080    8.0779
    7.095    8.2991
    7.110    8.5413
    7.125    8.5519
    7.140    8.7098
    7.155    8.6045
    7.170    8.2254
    7.185    8.0885
    7.200    7.8462
    7.215    8.1095
    7.230    8.4150
    7.245    7.7830
    7.260    7.7830
    7.275    8.4044
    7.290    8.5624
    7.305    8.3623
    7.320    8.9415
    7.335    8.5097
    7.350    8.0358
    7.365    8.4466
    7.380    8.3412
    7.395    8.2675
    7.410    8.1622
    7.425    8.4571
    7.440    8.6783
    7.455    8.6888
    7.470    8.6361
    7.485    8.1622
    7.500    8.2043
    7.515    8.7941
    7.530    8.8362
    7.545    8.6151
    7.560    8.7520
    7.575    8.2780
    7.590    8.9521
    7.605    8.9415
    7.620    8.8784
    7.635    8.4466
    7.650    8.4255
    7.665    8.4255
    7.680    8.2254
    7.695    8.9100
    7.710    8.4150
    7.725    8.7625
    7.740    8.9626
    7.755    8.6572
    7.770    8.6677
    7.785    8.6888
    7.800    8.8889
    7.815    8.6677
    7.830    8.8994
    7.845    8.9626
    7.860    8.4781
    7.875    8.5519
    7.890    8.4992
    7.905    8.2780
    7.920    8.3518
    7.935    8.4571
    7.950    8.4255
    7.965    8.5308
    7.980    8.2886
    7.995    8.2043
    8.010    8.3834
    8.025    8.7836
    8.040    8.6993
    8.055    8.5308
    8.070    8.7520
    8.085    8.5729
    8.100    8.6361
    8.115    8.6677
    8.130    8.4150
    8.145    8.8362
    8.160    7.9200
    8.175    8.0042
    8.190    8.6467
    8.205    8.7520
    8.220    8.5624
    8.235    8.4781
    8.250    8.0358
    8.265    8.0147
    8.280    8.1306
    8.295    8.7309
    8.310    8.4150
    8.325    8.2675
    8.340    8.6888
    8.355    8.4781
    8.370    8.2043
    8.385    8.1306
    8.400    7.9305
    8.415    7.8884
    8.430    7.8146
    8.445    7.6040
    8.460    8.3096
    8.475    7.9831
    8.490    7.9621
    8.505    8.2570
    8.520    7.8568
    8.535    8.0990
    8.550    8.4150
    8.565    8.2780
    8.580    8.1622
    8.595    7.8041
    8.610    7.9410
    8.625    8.3728
    8.640    7.9726
    8.655    7.6988
    8.670    8.0885
    8.685    7.8041
    8.700    8.3728
    8.715    8.1411
    8.730    7.6988
    8.745    7.8778
    8.760    7.8673
    8.775    7.9726
    8.790    8.0674
    8.805    7.4460
    8.820    7.7830
    8.835    7.7514
    8.850    7.5197
    8.865    7.6988
    8.880    7.6883
    8.895    7.7514
    8.910    7.4355
    8.925    7.5303
    8.940    7.5724
    8.955    7.5829
    8.970    7.5935
    8.985    7.5724
    9.000    7.5408
    9.015    7.2038
    9.030    7.6883
    9.045    7.7830
    9.060    7.6883
    9.075    7.4250
    9.090    7.5408
    9.105    7.1722
    9.120    7.4460
    9.135    7.3091
    9.150    7.3196
    9.165    7.2249
    9.180    7.4566
    9.195    7.8357
    9.210    7.2354
    9.225    7.5408
    9.240    7.6251
    9.255    7.1827
    9.270    7.1827
    9.285    7.4776
    9.300    7.5092
    9.315    6.9932
    9.330    7.1722
    9.345    6.8878
    9.360    7.3091
    9.375    7.3407
    9.390    7.0774
    9.405    6.8773
    9.420    7.4039
    9.435    6.9826
    9.450    7.0985
    9.465    7.1301
    9.480    7.1511
    9.495    7.0037
    9.510    6.9721
    9.525    7.0248
    9.540    7.1301
    9.555    7.0669
    9.570    7.0879
    9.585    6.7720
    9.600    6.9405
    9.615    6.6667
    9.630    6.9510
    9.645    6.6983
    9.660    6.9721
    9.675    6.7509
    9.690    6.6772
    9.705    6.7193
    9.720    6.5719
    9.735    7.2143
    9.750    7.1406
    9.765    6.9510
    9.780    6.9194
    9.795    7.1406
    9.810    7.2775
    9.825    6.9721
    9.840    6.8352
    9.855    6.7930
    9.870    6.6772
    9.885    6.6561
    9.900    6.8036
    9.915    7.1406
    9.930    6.9721
    9.945    6.9194
    9.960    6.7825
    9.975    6.5929
    9.990    6.6983
   10.005    6.8668
   10.020    6.8352
   10.035    6.5508
   10.050    7.0037
   10.065    6.8773
   10.080    7.0879
   10.095    6.6456
   10.110    6.9300
   10.125    6.8984
   10.140    7.0458
   10.155    7.0037
   10.170    6.7509
   10.185    6.6983
   10.200    6.5719
   10.215    6.9616
   10.230    6.7404
   10.245    6.8562
   10.260    6.7615
   10.275    6.7930
   10.290    6.7404
   10.305    6.6456
   10.320    6.8246
   10.335    6.8246
   10.350    6.2243
   10.365    6.7404
   10.380    6.9405
   10.395    6.9194
   10.410    6.6351
   10.425    6.7299
   10.440    6.9721
   10.455    6.8036
   10.470    6.4982
   10.485    6.6140
   10.500    6.6351
   10.515    6.8352
   10.530    6.9826
   10.545    7.0458
   10.560    6.8036
   10.575    6.7404
   10.590    6.2033
   10.605    6.8352
   10.620    6.7193
   10.635    6.7088
   10.650    6.4982
   10.665    6.7299
   10.680    6.8352
   10.695    7.0248
   10.710    6.7720
   10.725    6.2559
   10.740    6.6983
   10.755    7.1617
   10.770    6.9510
   10.785    6.5192
   10.800    6.5613
   10.815    6.7825
   10.830    6.6140
   10.845    6.3718
   10.860    6.7825
   10.875    6.6561
   10.890    6.8457
   10.905    7.0353
   10.920    6.8036
   10.935    6.3191
   10.950    6.1717
   10.965    6.5087
   10.980    6.5824
   10.995    6.4244
   11.010    6.8457
   11.025    6.7825
   11.040    6.7193
   11.055    6.5192
   11.070    6.2033
   11.085    6.2033
   11.100    6.6667
   11.115    6.7825
   11.130    6.6772
   11.145    6.6561
   11.160    6.3086
   11.175    6.5087
   11.190    6.7509
   11.205    6.7088
   11.220    6.7404
   11.235    6.5298
   11.250    6.3086
   11.265    6.6877
   11.280    6.7930
   11.295    6.5087
   11.310    6.4244
   11.325    6.5192
   11.340    6.6561
   11.355    6.6877
   11.370    6.5087
   11.385    6.4139
   11.400    6.3823
   11.415    6.6351
   11.430    6.4455
   11.445    6.1085
   11.460    6.1822
   11.475    6.3402
   11.490    6.0558
   11.505    6.2138
   11.520    6.3928
   11.535    6.3191
   11.550    6.5719
   11.565    6.0874
   11.580    6.3823
   11.595    5.9400
   11.610    6.3612
   11.625    6.3086
   11.640    6.4455
   11.655    6.3296
   11.670    6.2981
   11.685    6.3928
   11.700    6.1190
   11.715    6.4982
   11.730    6.0874
   11.745    6.0453
   11.760    6.0874
   11.775    6.0979
   11.790    6.1822
   11.805    6.3296
   11.820    6.1927
   11.835    6.2349
   11.850    6.2875
   11.865    5.8241
   11.880    6.0769
   11.895    6.4771
   11.910    6.4034
   11.925    5.8347
   11.940    5.9821
   11.955    6.2875
   11.970    6.3191
   11.985    6.2665
   12.000    5.9926
   12.015    6.1611
   12.030    6.2349
   12.045    6.2349
   12.060    5.8347
   12.075    6.2349
   12.090    6.3086
   12.105    6.1190
   12.120    6.4666
   12.135    6.1611
   12.150    6.0242
   12.165    5.6451
   12.180    5.8662
   12.195    5.6135
   12.210    5.9716
   12.225    5.9821
   12.240    6.0979
   12.255    6.2559
   12.270    5.8452
   12.285    5.6135
   12.300    5.8768
   12.315    6.0032
   12.330    5.8978
   12.345    6.3402
   12.360    5.8873
   12.375    5.6977
   12.390    5.6977
   12.405    5.8031
   12.420    5.8031
   12.435    5.7293
   12.450    5.8768
   12.465    5.5082
   12.480    5.8452
   12.495    5.7715
   12.510    5.6977
   12.525    5.7399
   12.540    6.0558
   12.555    6.0137
   12.570    5.5503
   12.585    5.9189
   12.600    6.0453
   12.615    5.7925
   12.630    5.8241
   12.645    5.6661
   12.660    5.7504
   12.675    5.6767
   12.690    5.6872
   12.705    5.3818
   12.720    5.7083
   12.735    5.7083
   12.750    5.7083
   12.765    5.8136
   12.780    5.3081
   12.795    5.4976
   12.810    5.7715
   12.825    5.3923
   12.840    5.5714
   12.855    5.9400
   12.870    5.7188
   12.885    5.8557
   12.900    6.1506
   12.915    5.7609
   12.930    5.6345
   12.945    5.9400
   12.960    5.4660
   12.975    5.8978
   12.990    5.7609
   13.005    5.7715
   13.020    5.7925
   13.035    5.6345
   13.050    6.1927
   13.065    6.0348
   13.080    5.8031
   13.095    5.8873
   13.110    5.6135
   13.125    5.8241
   13.140    5.5924
   13.155    5.8662
   13.170    5.5503
   13.185    5.6977
   13.200    5.8136
   13.215    5.8452
   13.230    5.7504
   13.245    5.4028
   13.260    5.6451
   13.275    5.2554
   13.290    5.5292
   13.305    5.7820
   13.320    5.8241
   13.335    6.0137
   13.350    5.8136
   13.365    5.5187
   13.380    5.7399
   13.395    5.8768
   13.410    5.8873
   13.425    5.8873
   13.440    6.1085
   13.455    5.6029
   13.470    5.5082
   13.485    5.8347
   13.500    5.9610
   13.515    5.4555
   13.530    5.6872
   13.545    5.5819
   13.560    5.8347
   13.575    5.5819
   13.590    5.2554
   13.605    5.1395
   13.620    5.6767
   13.635    5.4450
   13.650    5.9294
   13.665    5.9716
   13.680    5.9189
   13.695    5.8347
   13.710    5.7188
   13.725    5.8031
   13.740    5.7399
   13.755    5.9610
   13.770    5.7504
   13.785    5.8662
   13.800    5.8978
   13.815    5.4028
   13.830    5.4134
   13.845    5.2554
   13.860    5.6661
   13.875    5.8347
   13.890    6.0979
   13.905    5.6661
   13.920    5.9505
   13.935    5.6345
   13.950    5.7609
   13.965    5.6977
   13.980    5.8768
   13.995    6.1295
   14.010    6.0558
   14.025    5.6661
   14.040    5.4766
   14.055    5.6661
   14.070    5.6872
   14.085    5.5714
   14.100    5.9084
   14.115    6.0769
   14.130    6.3296
   14.145    5.7820
   14.160    5.5398
   14.175    5.8873
   14.190    5.8241
   14.205    6.1295
   14.220    5.8662
   14.235    6.2138
   14.250    5.9716
   14.265    5.8241
   14.280    5.4871
   14.295    5.7715
   14.310    5.8031
   14.325    5.6451
   14.340    5.6977
   14.355    5.8136
   14.370    5.7715
   14.385    5.3712
   14.400    5.6451
   14.415    6.0137
   14.430    6.0664
   14.445    6.0874
   14.460    5.8662
   14.475    6.1295
   14.490    5.4976
   14.505    5.8557
   14.520    5.6661
   14.535    5.7715
   14.550    6.2559
   14.565    6.0979
   14.580    5.9189
   14.595    5.7504
   14.610    5.5714
   14.625    5.7925
   14.640    6.0453
   14.655    5.9400
   14.670    5.6767
   14.685    5.7188
   14.700    5.9084
   14.715    5.8452
   14.730    5.8031
   14.745    5.7925
   14.760    5.5082
   14.775    6.0558
   14.790    5.8452
   14.805    5.8241
   14.820    5.4976
   14.835    5.7188
   14.850    5.8873
   14.865    6.0769
   14.880    6.4244
   14.895    6.1190
   14.910    5.9400
   14.925    5.6240
   14.940    5.6767
   14.955    6.0137
   14.970    6.1506
   14.985    6.0453
   15.000    6.2665
   15.015    5.8136
   15.030    5.7715
   15.045    5.5187
   15.060    5.7925
   15.075    6.0242
   15.090    5.6661
   15.105    5.8662
   15.120    5.6556
   15.135    5.7820
   15.150    6.0453
   15.165    6.0032
   15.180    6.2454
   15.195    6.0874
   15.210    5.8557
   15.225    6.1822
   15.240    5.9294
   15.255    5.8662
   15.270    5.8873
   15.285    5.6451
   15.300    5.9400
   15.315    6.1190
   15.330    5.7188
   15.345    5.8031
   15.360    5.5608
   15.375    5.8662
   15.390    5.8873
   15.405    5.6872
   15.420    6.0137
   15.435    6.0453
   15.450    5.8768
   15.465    5.7293
   15.480    5.8557
   15.495    5.7504
   15.510    5.8978
   15.525    5.7188
   15.540    5.8978
   15.555    5.7293
   15.570    5.8241
   15.585    5.6977
   15.600    5.8557
   15.615    6.0664
   15.630    6.1401
   15.645    6.0769
   15.660    6.0558
   15.675    5.8347
   15.690    5.8136
   15.705    5.9400
   15.720    6.2138
   15.735    6.1822
   15.750    5.7925
   15.765    5.9505
   15.780    5.8452
   15.795    6.1611
   15.810    5.9610
   15.825    5.9610
   15.840    5.8557
   15.855    6.0769
   15.870    5.9610
   15.885    5.8557
   15.900    6.0453
   15.915    6.3823
   15.930    5.8978
   15.945    5.8768
   15.960    6.0664
   15.975    5.9189
   15.990    5.9084
   16.005    5.9926
   16.020    5.9926
   16.035    5.7609
   16.050    5.6977
   16.065    6.1085
   16.080    6.4244
   16.095    6.0558
   16.110    6.0664
   16.125    5.6661
   16.140    6.0348
   16.155    5.7188
   16.170    6.0137
   16.185    6.3823
   16.200    6.0558
   16.215    5.9505
   16.230    5.7609
   16.245    5.7609
   16.260    6.0664
   16.275    5.7504
   16.290    5.9926
   16.305    6.0453
   16.320    6.0137
   16.335    5.7609
   16.350    5.9400
   16.365    6.3718
   16.380    6.1506
   16.395    5.8978
   16.410    5.8241
   16.425    5.5819
   16.440    6.0242
   16.455    6.1085
   16.470    6.1401
   16.485    6.1822
   16.500    6.0453
   16.515    5.7504
   16.530    6.1717
   16.545    5.8662
   16.560    5.7820
   16.575    6.0558
   16.590    5.8557
   16.605    6.1085
   16.620    5.7609
   16.635    6.0032
   16.650    5.8768
   16.665    6.0032
   16.680    5.9084
   16.695    6.3823
   16.710    6.0558
   16.725    6.0979
   16.740    6.1190
   16.755    6.2454
   16.770    6.1927
   16.785    6.2138
   16.800    6.1717
   16.815    5.9821
   16.830    6.2981
   16.845    5.8768
   16.860    6.2981
   16.875    6.2349
   16.890    6.2981
   16.905    5.7820
   16.920    5.9505
   16.935    6.2033
   16.950    6.1295
   16.965    5.9189
   16.980    6.0032
   16.995    6.0453
   17.010    6.0137
   17.025    6.0664
   17.040    6.1085
   17.055    6.3507
   17.070    6.3402
   17.085    6.0979
   17.100    6.1190
   17.115    6.1295
   17.130    5.9505
   17.145    5.8873
   17.160    6.2559
   17.175    6.1401
   17.190    5.8557
   17.205    5.7609
   17.220    6.3928
   17.235    6.4455
   17.250    6.3612
   17.265    6.2770
   17.280    6.2138
   17.295    5.9821
   17.310    6.2243
   17.325    5.9610
   17.340    5.8452
   17.355    6.0348
   17.370    5.9294
   17.385    6.1401
   17.400    6.1190
   17.415    6.2981
   17.430    6.0558
   17.445    6.1295
   17.460    6.1190
   17.475    6.3928
   17.490    6.4560
   17.505    5.9716
   17.520    5.9610
   17.535    6.0348
   17.550    6.3402
   17.565    6.2033
   17.580    6.1717
   17.595    5.5398
   17.610    6.0558
   17.625    6.3086
   17.640    6.4455
   17.655    6.2138
   17.670    6.1085
   17.685    6.1611
   17.700    6.3823
   17.715    6.2559
   17.730    6.3507
   17.745    6.0242
   17.760    6.2559
   17.775    6.1611
   17.790    6.3086
   17.805    6.0769
   17.820    5.8241
   17.835    5.8136
   17.850    6.1401
   17.865    6.0874
   17.880    6.1611
   17.895    5.8768
   17.910    5.9084
   17.925    6.4455
   17.940    6.4455
   17.955    6.1717
   17.970    5.9505
   17.985    6.2454
   18.000    6.1927
   18.015    6.0242
   18.030    6.1085
   18.045    5.5503
   18.060    6.0453
   18.075    6.5298
   18.090    6.4350
   18.105    6.4560
   18.120    6.0032
   18.135    6.2665
   18.150    6.3928
   18.165    5.9716
   18.180    6.3612
   18.195    6.0558
   18.210    5.7188
   18.225    6.0874
   18.240    6.4876
   18.255    6.5403
   18.270    6.0242
   18.285    6.2243
   18.300    6.2243
   18.315    6.2243
   18.330    6.7615
   18.345    6.5403
   18.360    6.5087
   18.375    6.6035
   18.390    6.1506
   18.405    5.6345
   18.420    6.3086
   18.435    6.2559
   18.450    6.0769
   18.465    6.1927
   18.480    6.2138
   18.495    6.2981
   18.510    6.4350
   18.525    6.4560
   18.540    6.1927
   18.555    6.4876
   18.570    6.2243
   18.585    6.2349
   18.600    6.2559
   18.615    6.3612
   18.630    6.3296
   18.645    6.3402
   18.660    6.7615
   18.675    6.7825
   18.690    6.4350
   18.705    6.5087
   18.720    6.4560
   18.735    6.4244
   18.750    6.3928
   18.765    6.0769
   18.780    6.1190
   18.795    6.7088
   18.810    6.8246
   18.825    6.5719
   18.840    6.8562
   18.855    6.4455
   18.870    6.7930
   18.885    6.6772
   18.900    6.6561
   18.915    6.7299
   18.930    6.6983
   18.945    7.0458
   18.960    7.3407
   18.975    7.2354
   18.990    7.2459
   19.005    6.9510
   19.020    6.9089
   19.035    6.8036
   19.050    6.9089
   19.065    6.6351
   19.080    6.3191
   19.095    6.0979
   19.110    5.9926
   19.125    6.1401
   19.140    6.7088
   19.155    6.8562
   19.170    6.5298
   19.185    6.4455
   19.200    6.3612
   19.215    6.2770
   19.230    6.3507
   19.245    6.1822
   19.260    6.4560
   19.275    6.2559
   19.290    6.1401
   19.305    6.3086
   19.320    6.3928
   19.335    6.3928
   19.350    6.7299
   19.365    6.8036
   19.380    6.5298
   19.395    6.4771
   19.410    6.4666
   19.425    6.2033
   19.440    6.5613
   19.455    6.7088
   19.470    6.3823
   19.485    6.7825
   19.500    6.8246
   19.515    6.5824
   19.530    6.4982
   19.545    6.3823
   19.560    6.4139
   19.575    6.0242
   19.590    5.8978
   19.605    6.4982
   19.620    6.5508
   19.635    6.4455
   19.650    6.0769
   19.665    6.5508
   19.680    6.4350
   19.695    6.0242
   19.710    6.0137
   19.725    6.5508
   19.740    6.8036
   19.755    6.5298
   19.770    6.4350
   19.785    6.6035
   19.800    6.3718
   19.815    6.5719
   19.830    6.5508
   19.845    6.8984
   19.860    6.8773
   19.875    6.4244
   19.890    6.2665
   19.905    6.5508
   19.920    6.2349
   19.935    6.3296
   19.950    6.4034
   19.965    6.2033
   19.980    6.6035
   19.995    6.6140
   20.010    6.1295
   20.025    6.0664
   20.040    6.1506
   20.055    6.4034
   20.070    6.2770
   20.085    6.3191
   20.100    6.1717
   20.115    6.6772
   20.130    6.8562
   20.145    6.3191
   20.160    6.5719
   20.175    6.2665
   20.190    6.7509
   20.205    6.6456
   20.220    6.1717
   20.235    6.3191
   20.250    6.2981
   20.265    6.1190
   20.280    6.0874
   20.295    6.0979
   20.310    6.4455
   20.325    6.2981
   20.340    6.2665
   20.355    6.2559
   20.370    6.3612
   20.385    6.6877
   20.400    6.1401
   20.415    6.4771
   20.430    6.5508
   20.445    6.4034
   20.460    6.5719
   20.475    6.6351
   20.490    6.1085
   20.505    6.1401
   20.520    6.7930
   20.535    6.4139
   20.550    6.3612
   20.565    6.5298
   20.580    6.6140
   20.595    6.7509
   20.610    6.6035
   20.625    6.4244
   20.640    6.2875
   20.655    6.1295
   20.670    6.6456
   20.685    6.6351
   20.700    6.3823
   20.715    6.4876
   20.730    6.5087
   20.745    6.3296
   20.760    6.5192
   20.775    6.3402
   20.790    6.7193
   20.805    6.4034
   20.820    6.2665
   20.835    6.1822
   20.850    6.8036
   20.865    6.3612
   20.880    6.0453
   20.895    6.4244
   20.910    6.4982
   20.925    6.1717
   20.940    6.3612
   20.955    6.3191
   20.970    6.6983
   20.985    6.2559
   21.000    6.6351
   21.015    6.4560
   21.030    6.6983
   21.045    6.7720
   21.060    6.6772
   21.075    6.2770
   21.090    6.5298
   21.105    6.3718
   21.120    6.4244
   21.135    6.3296
   21.150    6.3296
   21.165    6.2981
   21.180    6.3823
   21.195    6.5087
   21.210    6.4560
   21.225    6.6245
   21.240    6.4455
   21.255    6.3507
   21.270    6.3086
   21.285    6.0348
   21.300    6.0979
   21.315    6.1611
   21.330    6.1295
   21.345    6.1506
   21.360    6.5508
   21.375    6.3612
   21.390    6.5298
   21.405    6.6877
   21.420    5.9400
   21.435    6.2770
   21.450    6.6877
   21.465    6.6245
   21.480    6.4771
   21.495    6.6983
   21.510    6.2138
   21.525    6.0137
   21.540    6.2033
   21.555    6.2875
   21.570    6.4666
   21.585    6.1927
   21.600    6.4876
   21.615    6.6245
   21.630    6.2981
   21.645    6.0032
   21.660    6.1295
   21.675    6.4139
   21.690    6.3402
   21.705    6.2454
   21.720    6.0979
   21.735    6.5613
   21.750    6.7404
   21.765    6.6245
   21.780    6.5087
   21.795    6.4455
   21.810    6.1717
   21.825    5.9610
   21.840    6.2770
   21.855    6.3507
   21.870    6.0664
   21.885    6.0769
   21.900    6.2033
   21.915    6.1611
   21.930    5.9505
   21.945    6.3507
   21.960    6.3507
   21.975    6.1401
   21.990    6.5824
   22.005    6.3718
   22.020    6.4350
   22.035    6.1822
   22.050    6.2875
   22.065    6.2875
   22.080    6.1927
   22.095    6.0558
   22.110    6.0453
   22.125    5.8978
   22.140    6.4350
   22.155    6.1506
   22.170    5.9084
   22.185    5.8768
   22.200    5.9926
   22.215    6.2138
   22.230    6.3718
   22.245    5.9821
   22.260    6.1295
   22.275    5.8241
   22.290    6.3612
   22.305    6.2349
   22.320    6.2875
   22.335    6.3086
   22.350    6.2033
   22.365    6.2770
   22.380    5.9821
   22.395    5.9084
   22.410    6.1506
   22.425    5.9400
   22.440    6.1401
   22.455    6.2559
   22.470    6.0979
   22.485    6.1611
   22.500    6.3928
   22.515    6.1401
   22.530    6.4560
   22.545    6.5824
   22.560    6.8668
   22.575    6.0348
   22.590    6.4560
   22.605    6.2559
   22.620    6.0453
   22.635    6.2033
   22.650    6.0032
   22.665    5.7188
   22.680    5.9716
   22.695    5.9821
   22.710    6.0979
   22.725    5.8347
   22.740    5.7715
   22.755    5.6872
   22.770    5.9189
   22.785    5.9294
   22.800    5.8662
   22.815    6.1190
   22.830    6.0453
   22.845    5.8241
   22.860    5.7504
   22.875    5.8452
   22.890    6.2033
   22.905    6.2033
   22.920    6.4771
   22.935    6.1611
   22.950    6.1927
   22.965    6.2981
   22.980    6.3718
   22.995    6.1822
   23.010    5.7399
   23.025    5.5187
   23.040    6.3928
   23.055    6.4244
   23.070    6.1085
   23.085    6.1295
   23.100    6.0032
   23.115    5.7399
   23.130    6.2349
   23.145    6.0874
   23.160    6.1927
   23.175    6.4982
   23.190    6.2454
   23.205    6.1190
   23.220    5.7715
   23.235    5.3818
   23.250    5.7083
   23.265    5.9084
   23.280    5.8662
   23.295    6.0032
   23.310    5.4239
   23.325    5.6135
   23.340    5.5082
   23.355    5.4976
   23.370    5.6029
   23.385    5.5924
   23.400    6.0769
   23.415    5.8031
   23.430    5.9400
   23.445    6.1611
   23.460    5.8241
   23.475    6.0769
   23.490    5.5924
   23.505    5.7609
   23.520    6.1401
   23.535    5.8768
   23.550    5.9505
   23.565    6.0032
   23.580    5.8873
   23.595    5.9926
   23.610    5.7715
   23.625    5.6661
   23.640    5.9505
   23.655    5.6767
   23.670    5.8452
   23.685    5.6240
   23.700    5.8557
   23.715    5.6029
   23.730    5.4976
   23.745    5.4239
   23.760    5.5503
   23.775    5.5082
   23.790    5.6977
   23.805    5.7293
   23.820    5.8031
   23.835    5.6977
   23.850    5.9294
   23.865    5.6240
   23.880    5.5819
   23.895    5.5398
   23.910    5.5819
   23.925    5.6029
   23.940    5.5924
   23.955    5.6556
   23.970    5.8978
   23.985    5.8136
   24.000    5.7188
   24.015    5.4766
   24.030    5.5292
   24.045    5.3186
   24.060    5.5819
   24.075    5.4134
   24.090    5.4450
   24.105    5.7504
   24.120    5.2765
   24.135    5.7715
   24.150    5.3397
   24.165    5.0869
   24.180    5.5082
   24.195    5.5819
   24.210    5.7293
   24.225    5.6240
   24.240    5.6135
   24.255    5.5398
   24.270    5.3502
   24.285    5.5503
   24.300    5.5187
   24.315    5.5398
   24.330    5.9189
   24.345    5.6451
   24.360    5.3186
   24.375    5.3502
   24.390    5.7188
   24.405    5.8768
   24.420    5.8873
   24.435    5.4028
   24.450    5.6029
   24.465    5.1711
   24.480    5.6977
   24.495    5.7504
   24.510    5.4450
   24.525    5.5187
   24.540    5.3818
   24.555    5.8136
   24.570    5.9400
   24.585    5.2765
   24.600    5.0132
   24.615    5.5924
   24.630    5.3923
   24.645    5.3502
   24.660    5.4239
   24.675    5.3081
   24.690    5.5714
   24.705    5.5398
   24.720    5.5082
   24.735    5.2343
   24.750    5.2659
   24.765    5.4239
   24.780    5.5819
   24.795    5.6451
   24.810    5.3818
   24.825    5.5503
   24.840    5.0342
   24.855    4.7709
   24.870    5.0342
   24.885    5.1606
   24.900    5.4871
   24.915    5.6451
   24.930    5.5608
   24.945    5.4766
   24.960    5.5608
   24.975    5.4660
   24.990    5.0974
   25.005    5.0764
   25.020    5.2133
   25.035    5.2659
   25.050    5.0974
   25.065    5.2343
   25.080    5.0448
   25.095    5.4134
   25.110    4.8025
   25.125    5.0658
   25.140    5.4028
   25.155    5.2554
   25.170    5.3923
   25.185    5.1080
   25.200    5.1185
   25.215    5.0026
   25.230    5.2343
   25.245    5.1817
   25.260    4.9078
   25.275    4.8868
   25.290    4.9710
   25.305    5.2238
   25.320    5.3818
   25.335    5.2659
   25.350    4.9921
   25.365    4.8973
   25.380    5.2027
   25.395    5.4976
   25.410    4.8236
   25.425    5.0026
   25.440    5.2133
   25.455    5.2343
   25.470    4.8973
   25.485    4.9078
   25.500    5.3397
   25.515    5.4450
   25.530    5.4239
   25.545    5.3818
   25.560    5.3186
   25.575    5.2027
   25.590    4.9710
   25.605    5.2554
   25.620    5.3291
   25.635    5.2554
   25.650    4.9605
   25.665    4.9394
   25.680    4.8868
   25.695    4.8341
   25.710    5.2975
   25.725    5.1185
   25.740    5.3502
   25.755    5.0342
   25.770    4.6340
   25.785    4.9921
   25.800    4.8236
   25.815    4.9816
   25.830    5.0342
   25.845    4.6235
   25.860    4.6867
   25.875    4.8763
   25.890    4.8657
   25.905    4.9078
   25.920    4.4971
   25.935    4.8973
   25.950    5.1080
   25.965    5.1817
   25.980    5.0132
   25.995    5.1080
   26.010    4.9078
   26.025    4.9078
   26.040    4.6445
   26.055    5.1711
   26.070    4.8763
   26.085    5.0448
   26.100    5.0553
   26.115    5.2027
   26.130    5.0237
   26.145    5.0869
   26.160    4.7393
   26.175    4.9289
   26.190    4.6551
   26.205    4.8447
   26.220    4.7920
   26.235    4.6867
   26.250    4.9605
   26.265    4.8973
   26.280    4.8236
   26.295    4.7815
   26.310    4.9710
   26.325    4.9500
   26.340    4.7499
   26.355    4.5708
   26.370    4.9605
   26.385    4.9078
   26.400    5.0237
   26.415    4.7183
   26.430    4.8236
   26.445    4.7499
   26.460    4.7604
   26.475    4.6656
   26.490    4.7815
   26.505    4.6761
   26.520    4.6024
   26.535    4.8131
   26.550    4.7815
   26.565    4.8973
   26.580    4.9605
   26.595    4.5287
   26.610    4.6761
   26.625    4.9605
   26.640    4.5919
   26.655    4.6130
   26.670    4.5708
   26.685    4.5287
   26.700    4.4234
   26.715    4.5919
   26.730    4.3813
   26.745    4.5814
   26.760    4.3707
   26.775    4.7499
   26.790    4.6024
   26.805    4.7183
   26.820    4.7499
   26.835    4.7815
   26.850    4.8657
   26.865    4.5392
   26.880    4.2443
   26.895    4.1180
   26.910    4.4550
   26.925    4.6867
   26.940    4.5498
   26.955    4.2865
   26.970    4.3391
   26.985    4.5814
   27.000    4.8131
   27.015    4.7815
   27.030    4.7920
   27.045    4.7815
   27.060    4.7499
   27.075    4.7499
   27.090    4.4234
   27.105    4.9605
   27.120    5.0026
   27.135    4.2970
   27.150    4.4655
   27.165    4.7393
   27.180    4.4444
   27.195    4.2443
   27.210    4.3602
   27.225    4.4655
   27.240    4.5076
   27.255    4.3707
   27.270    4.4971
   27.285    4.2443
   27.300    4.0126
   27.315    4.2338
   27.330    4.6551
   27.345    4.2865
   27.360    4.2549
   27.375    4.7077
   27.390    4.5708
   27.405    4.4339
   27.420    4.5392
   27.435    4.2865
   27.450    4.3286
   27.465    4.6445
   27.480    4.4234
   27.495    4.4339
   27.510    4.5814
   27.525    4.4128
   27.540    4.6340
   27.555    4.3918
   27.570    4.0653
   27.585    4.2022
   27.600    4.5814
   27.615    4.3707
   27.630    4.3707
   27.645    4.1496
   27.660    4.1180
   27.675    4.4128
   27.690    4.4023
   27.705    4.3286
   27.720    4.3707
   27.735    4.5708
   27.750    4.3813
   27.765    4.3602
   27.780    4.1180
   27.795    4.1180
   27.810    4.4234
   27.825    4.2759
   27.840    4.3497
   27.855    4.3181
   27.870    4.6024
   27.885    4.7183
   27.900    4.4128
   27.915    4.6445
   27.930    4.7920
   27.945    4.8973
   27.960    4.7815
   27.975    4.9710
   27.990    4.8236
   28.005    4.9289
   28.020    4.9289
   28.035    5.0026
   28.050    4.9816
   28.065    4.9500
   28.080    4.6551
   28.095    4.5919
   28.110    4.5498
   28.125    4.5919
   28.140    4.2549
   28.155    4.3497
   28.170    4.1917
   28.185    4.1601
   28.200    4.2654
   28.215    4.1706
   28.230    4.1706
   28.245    3.9705
   28.260    4.4866
   28.275    4.1285
   28.290    4.3286
   28.305    3.9810
   28.320    4.2654
   28.335    4.0758
   28.350    4.1390
   28.365    4.0864
   28.380    4.2549
   28.395    4.0232
   28.410    4.6445
   28.425    4.0758
   28.440    4.1917
   28.455    4.3707
   28.470    4.1285
   28.485    3.9705
   28.500    4.0232
   28.515    4.0653
   28.530    4.2970
   28.545    4.1496
   28.560    3.9705
   28.575    4.0864
   28.590    4.2127
   28.605    4.1390
   28.620    3.8968
   28.635    4.2022
   28.650    3.9810
   28.665    4.2233
   28.680    4.3602
   28.695    4.2233
   28.710    4.2338
   28.725    4.2759
   28.740    4.1601
   28.755    4.1180
   28.770    4.1285
   28.785    4.0126
   28.800    4.3707
   28.815    4.0337
   28.830    4.0232
   28.845    4.5182
   28.860    4.2338
   28.875    4.3181
   28.890    4.4971
   28.905    4.4866
   28.920    4.6130
   28.935    4.4866
   28.950    4.5919
   28.965    4.6761
   28.980    4.4339
   28.995    4.3602
   29.010    4.5919
   29.025    4.6445
   29.040    4.3813
   29.055    4.3286
   29.070    4.3918
   29.085    4.2127
   29.100    4.1390
   29.115    4.3918
   29.130    4.3181
   29.145    3.8863
   29.160    3.8968
   29.175    3.7915
   29.190    3.9284
   29.205    3.9916
   29.220    3.9073
   29.235    3.5071
   29.250    3.9600
   29.265    3.9494
   29.280    3.9600
   29.295    3.7915
   29.310    3.5598
   29.325    3.7177
   29.340    3.8547
   29.355    3.7599
   29.370    3.9284
   29.385    4.0548
   29.400    3.8020
   29.415    3.9916
   29.430    3.8020
   29.445    3.8547
   29.460    3.9600
   29.475    3.7809
   29.490    3.6124
   29.505    3.5914
   29.520    3.8441
   29.535    4.2022
   29.550    3.8125
   29.565    3.7177
   29.580    3.5914
   29.595    3.5282
   29.610    3.6756
   29.625    3.8757
   29.640    3.7072
   29.655    3.7809
   29.670    3.7704
   29.685    3.8441
   29.700    3.7493
   29.715    3.8231
   29.730    3.6019
   29.745    3.5176
   29.760    3.6546
   29.775    3.6335
   29.790    4.0758
   29.805    3.8336
   29.820    3.7599
   29.835    3.8652
   29.850    3.8441
   29.865    3.4123
   29.880    3.7283
   29.895    3.5598
   29.910    3.3702
   29.925    3.7493
   29.940    3.8020
   29.955    3.8231
   29.970    3.8125
   29.985    3.8757
   30.000    3.6756
   30.015    3.6019
   30.030    3.7283
   30.045    3.8231
   30.060    3.6124
   30.075    3.3807
   30.090    3.6967
   30.105    3.7809
   30.120    3.5914
   30.135    3.4755
   30.150    3.5598
   30.165    3.7177
   30.180    3.4966
   30.195    3.5808
   30.210    3.5598
   30.225    3.3386
   30.240    3.6335
   30.255    3.3702
   30.270    3.6440
   30.285    3.4018
   30.300    3.4755
   30.315    3.4439
   30.330    3.4966
   30.345    3.7493
   30.360    3.6440
   30.375    3.6756
   30.390    3.6124
   30.405    3.3807
   30.420    3.2543
   30.435    3.7599
   30.450    3.4544
   30.465    3.6651
   30.480    3.4755
   30.495    3.6335
   30.510    3.5808
   30.525    3.6230
   30.540    3.4018
   30.555    3.3491
   30.570    3.3702
   30.585    3.6230
   30.600    3.6230
   30.615    3.4123
   30.630    3.4018
   30.645    3.4229
   30.660    3.3807
   30.675    3.4439
   30.690    3.4650
   30.705    3.3386
   30.720    3.3913
   30.735    3.6019
   30.750    3.6335
   30.765    3.5387
   30.780    3.5071
   30.795    3.5071
   30.810    3.4650
   30.825    3.6546
   30.840    3.4439
   30.855    3.3281
   30.870    3.4544
   30.885    3.4966
   30.900    3.4018
   30.915    3.2543
   30.930    3.2017
   30.945    2.9489
   30.960    3.2227
   30.975    3.7599
   30.990    3.4544
   31.005    3.5071
   31.020    3.1069
   31.035    3.4229
   31.050    3.7177
   31.065    3.4123
   31.080    3.3702
   31.095    3.3281
   31.110    3.3070
   31.125    3.3913
   31.140    3.1385
   31.155    3.7283
   31.170    3.5598
   31.185    3.3807
   31.200    3.1280
   31.215    3.4334
   31.230    3.5703
   31.245    3.6967
   31.260    3.3070
   31.275    3.2754
   31.290    3.2754
   31.305    3.3491
   31.320    3.3807
   31.335    3.2543
   31.350    3.3386
   31.365    2.9700
   31.380    3.3913
   31.395    3.3386
   31.410    3.4966
   31.425    3.3597
   31.440    3.2438
   31.455    3.1385
   31.470    3.4229
   31.485    3.0964
   31.500    3.4544
   31.515    3.0753
   31.530    3.5071
   31.545    3.2543
   31.560    3.1806
   31.575    3.3807
   31.590    3.4123
   31.605    3.4018
   31.620    3.4650
   31.635    3.5071
   31.650    3.2754
   31.665    3.2543
   31.680    3.7072
   31.695    3.2649
   31.710    3.2227
   31.725    3.4966
   31.740    3.5492
   31.755    3.3597
   31.770    3.9810
   31.785    3.8547
   31.800    3.6124
   31.815    3.6019
   31.830    3.5492
   31.845    3.4334
   31.860    3.7283
   31.875    3.8231
   31.890    3.6967
   31.905    3.6440
   31.920    3.5387
   31.935    3.4966
   31.950    3.3913
   31.965    3.3175
   31.980    3.5492
   31.995    3.8441
   32.010    3.7809
   32.025    3.8336
   32.040    4.1601
   32.055    4.5076
   32.070    4.2549
   32.085    4.2127
   32.100    4.5076
   32.115    4.2970
   32.130    4.3391
   32.145    4.2338
   32.160    4.3286
   32.175    3.9073
   32.190    3.8441
   32.205    3.4439
   32.220    3.2333
   32.235    2.9910
   32.250    3.2122
   32.265    3.0858
   32.280    3.1806
   32.295    3.1912
   32.310    2.9068
   32.325    3.1701
   32.340    3.0964
   32.355    3.2227
   32.370    3.0648
   32.385    2.8541
   32.400    2.7593
   32.415    2.9489
   32.430    2.9910
   32.445    3.1596
   32.460    3.3281
   32.475    3.1806
   32.490    3.1069
   32.505    2.7593
   32.520    2.8541
   32.535    2.8120
   32.550    3.2649
   32.565    3.0016
   32.580    3.1596
   32.595    3.1174
   32.610    3.0121
   32.625    3.2227
   32.640    3.1806
   32.655    3.1385
   32.670    2.8120
   32.685    2.9279
   32.700    2.9384
   32.715    2.9173
   32.730    2.9910
   32.745    3.0016
   32.760    2.9595
   32.775    2.8647
   32.790    2.9805
   32.805    2.8857
   32.820    2.7909
   32.835    2.8647
   32.850    2.8436
   32.865    2.7804
   32.880    2.9384
   32.895    2.9805
   32.910    2.8225
   32.925    2.8015
   32.940    2.7699
   32.955    3.0437
   32.970    3.1596
   32.985    2.8752
   33.000    2.9910
   33.015    2.9489
   33.030    2.8857
   33.045    2.8225
   33.060    2.9068
   33.075    2.6540
   33.090    2.5698
   33.105    2.6014
   33.120    2.5698
   33.135    3.0753
   33.150    2.9384
   33.165    2.9595
   33.180    3.0437
   33.195    2.7699
   33.210    2.9279
   33.225    3.1490
   33.240    2.8015
   33.255    2.5382
   33.270    2.8015
   33.285    2.7067
   33.300    2.8647
   33.315    2.6751
   33.330    2.7383
   33.345    2.9279
   33.360    3.1280
   33.375    2.8015
   33.390    2.8331
   33.405    2.8120
   33.420    2.7172
   33.435    2.7593
   33.450    2.8963
   33.465    2.7067
   33.480    2.6751
   33.495    2.6751
   33.510    2.6540
   33.525    2.7488
   33.540    2.8752
   33.555    2.8963
   33.570    2.9068
   33.585    2.6435
   33.600    2.7909
   33.615    2.8225
   33.630    2.7172
   33.645    2.8225
   33.660    2.9805
   33.675    2.8647
   33.690    2.8015
   33.705    3.0858
   33.720    3.2122
   33.735    3.0648
   33.750    3.2859
   33.765    3.3386
   33.780    3.2438
   33.795    3.2543
   33.810    3.4439
   33.825    3.3702
   33.840    3.5176
   33.855    3.3597
   33.870    3.2965
   33.885    3.3281
   33.900    3.0542
   33.915    3.0332
   33.930    3.0437
   33.945    3.0648
   33.960    3.0016
   33.975    2.9279
   33.990    3.0964
   34.005    2.6962
   34.020    2.8331
   34.035    2.9173
   34.050    2.8015
   34.065    2.6646
   34.080    2.6751
   34.095    2.7909
   34.110    2.6435
   34.125    2.5908
   34.140    2.7488
   34.155    2.6962
   34.170    2.9910
   34.185    2.9700
   34.200    2.7488
   34.215    2.6330
   34.230    2.4434
   34.245    2.6435
   34.260    2.5171
   34.275    2.4750
   34.290    2.6014
   34.305    2.6435
   34.320    2.9173
   34.335    2.8752
   34.350    2.6224
   34.365    2.8436
   34.380    2.8225
   34.395    2.8225
   34.410    2.6646
   34.425    2.9489
   34.440    2.6435
   34.455    2.4329
   34.470    2.8647
   34.485    2.8120
   34.500    2.4961
   34.515    2.5276
   34.530    2.5171
   34.545    2.7172
   34.560    2.5276
   34.575    2.6751
   34.590    2.7172
   34.605    2.5698
   34.620    2.6646
   34.635    2.6224
   34.650    2.7172
   34.665    2.9384
   34.680    2.6962
   34.695    2.6962
   34.710    2.9384
   34.725    2.8120
   34.740    2.8225
   34.755    2.6540
   34.770    2.7488
   34.785    2.8963
   34.800    2.8331
   34.815    2.5592
   34.830    2.6646
   34.845    2.7278
   34.860    2.6646
   34.875    2.4855
   34.890    2.3065
   34.905    2.4961
   34.920    2.7067
   34.935    2.7278
   34.950    2.5592
   34.965    2.3486
   34.980    2.6119
   34.995    2.6856
   35.010    2.6962
   35.025    2.7067
   35.040    2.6540
   35.055    2.4329
   35.070    2.6435
   35.085    2.4539
   35.100    2.6014
   35.115    2.6224
   35.130    2.5171
   35.145    2.6014
   35.160    2.6540
   35.175    2.6119
   35.190    2.5803
   35.205    2.5698
   35.220    2.2959
   35.235    2.4645
   35.250    2.7172
   35.265    2.5592
   35.280    2.6962
   35.295    2.6962
   35.310    2.6224
   35.325    2.3907
   35.340    2.5698
   35.355    2.6962
   35.370    2.5276
   35.385    2.6330
   35.400    2.4750
   35.415    2.4750
   35.430    2.5698
   35.445    2.5066
   35.460    2.4750
   35.475    2.5066
   35.490    2.6646
   35.505    2.6856
   35.520    2.5698
   35.535    2.4855
   35.550    2.4329
   35.565    2.7172
   35.580    2.5487
   35.595    2.4434
   35.610    2.7383
   35.625    2.6646
   35.640    2.5171
   35.655    2.5908
   35.670    2.6646
   35.685    2.4645
   35.700    2.3486
   35.715    2.1590
   35.730    2.2749
   35.745    2.6751
   35.760    2.5171
   35.775    2.6119
   35.790    2.6540
   35.805    2.4223
   35.820    2.4961
   35.835    2.7699
   35.850    2.4223
   35.865    2.2959
   35.880    2.5908
   35.895    2.4539
   35.910    2.7699
   35.925    2.7383
   35.940    2.4645
   35.955    2.3907
   35.970    2.5066
   35.985    2.4855
   36.000    2.5066
   36.015    2.4961
   36.030    2.6014
   36.045    2.4329
   36.060    2.6962
   36.075    2.8436
   36.090    2.3907
   36.105    2.4118
   36.120    2.5698
   36.135    2.4539
   36.150    2.6435
   36.165    2.4961
   36.180    2.5803
   36.195    2.5066
   36.210    2.7278
   36.225    2.4223
   36.240    2.5487
   36.255    2.3486
   36.270    2.3065
   36.285    2.2012
   36.300    2.3486
   36.315    2.3802
   36.330    2.5382
   36.345    2.6751
   36.360    2.5171
   36.375    2.4750
   36.390    2.4855
   36.405    2.7383
   36.420    2.4223
   36.435    2.4118
   36.450    2.4434
   36.465    2.4750
   36.480    2.5276
   36.495    2.3802
   36.510    2.5066
   36.525    2.5698
   36.540    2.4434
   36.555    2.4013
   36.570    2.4434
   36.585    2.3065
   36.600    2.3697
   36.615    2.4539
   36.630    2.6119
   36.645    2.3591
   36.660    2.3170
   36.675    2.3907
   36.690    2.6224
   36.705    2.7172
   36.720    2.3802
   36.735    2.5276
   36.750    2.2538
   36.765    2.1064
   36.780    2.3802
   36.795    2.3486
   36.810    2.5908
   36.825    2.4434
   36.840    2.4118
   36.855    2.5487
   36.870    2.5171
   36.885    2.3802
   36.900    2.2749
   36.915    2.4750
   36.930    2.3065
   36.945    2.3381
   36.960    2.4539
   36.975    2.3907
   36.990    2.2854
   37.005    2.3802
   37.020    2.2328
   37.035    2.4855
   37.050    2.3065
   37.065    2.3065
   37.080    2.5698
   37.095    2.5803
   37.110    2.3697
   37.125    2.5066
   37.140    2.1380
   37.155    2.0748
   37.170    2.1801
   37.185    2.2959
   37.200    2.4329
   37.215    2.5276
   37.230    2.0853
   37.245    2.4013
   37.260    2.2012
   37.275    2.3907
   37.290    2.2328
   37.305    2.1380
   37.320    2.2538
   37.335    2.5066
   37.350    2.5803
   37.365    2.6224
   37.380    2.4118
   37.395    2.4013
   37.410    2.5803
   37.425    2.4750
   37.440    2.2222
   37.455    2.5066
   37.470    2.2749
   37.485    2.3697
   37.500    2.3170
   37.515    2.4223
   37.530    2.4645
   37.545    2.4645
   37.560    2.5276
   37.575    2.2643
   37.590    2.2538
   37.605    2.2538
   37.620    2.2328
   37.635    2.2433
   37.650    2.3065
   37.665    2.4329
   37.680    2.3275
   37.695    2.2643
   37.710    2.4223
   37.725    2.2222
   37.740    2.5171
   37.755    2.2538
   37.770    2.0642
   37.785    2.2222
   37.800    2.6014
   37.815    2.4329
   37.830    2.3802
   37.845    2.2222
   37.860    2.0748
   37.875    2.2538
   37.890    2.4855
   37.905    2.3697
   37.920    2.5698
   37.935    2.2643
   37.950    2.3802
   37.965    2.2854
   37.980    2.2959
   37.995    2.3802
   38.010    2.4539
   38.025    2.5171
   38.040    2.4223
   38.055    2.3065
   38.070    2.3275
   38.085    2.2854
   38.100    2.4329
   38.115    2.5066
   38.130    2.2959
   38.145    2.3275
   38.160    2.2643
   38.175    2.3486
   38.190    2.1696
   38.205    2.4329
   38.220    2.4855
   38.235    2.3591
   38.250    2.3275
   38.265    2.1590
   38.280    2.0221
   38.295    2.2538
   38.310    2.4118
   38.325    2.5382
   38.340    2.4645
   38.355    2.3802
   38.370    2.6119
   38.385    2.4645
   38.400    2.1169
   38.415    2.3170
   38.430    2.5698
   38.445    2.3381
   38.460    2.0958
   38.475    2.1485
   38.490    2.2012
   38.505    2.5276
   38.520    2.6014
   38.535    2.6540
   38.550    2.7278
   38.565    2.4645
   38.580    2.5487
   38.595    2.4223
   38.610    2.5171
   38.625    2.6646
   38.640    2.5066
   38.655    2.4434
   38.670    2.3381
   38.685    2.1380
   38.700    2.3486
   38.715    2.4961
   38.730    2.1801
   38.745    1.9800
   38.760    2.1696
   38.775    2.3802
   38.790    2.3591
   38.805    2.2328
   38.820    2.3907
   38.835    2.1801
   38.850    2.3802
   38.865    2.2433
   38.880    2.2433
   38.895    2.1064
   38.910    2.2538
   38.925    2.3697
   38.940    2.4434
   38.955    2.4539
   38.970    2.4223
   38.985    2.1590
   39.000    2.4434
   39.015    2.4118
   39.030    2.3381
   39.045    2.1801
   39.060    2.0748
   39.075    2.1169
   39.090    2.2222
   39.105    2.1485
   39.120    2.3381
   39.135    2.4539
   39.150    2.1590
   39.165    2.3170
   39.180    2.3802
   39.195    2.1696
   39.210    2.2749
   39.225    2.3065
   39.240    2.4013
   39.255    2.5171
   39.270    2.5908
   39.285    2.3802
   39.300    2.5908
   39.315    2.4855
   39.330    2.3170
   39.345    2.4329
   39.360    2.1906
   39.375    2.1906
   39.390    2.3381
   39.405    2.2222
   39.420    2.2538
   39.435    2.2959
   39.450    2.2854
   39.465    2.2749
   39.480    2.2538
   39.495    2.4750
   39.510    2.3275
   39.525    2.3486
   39.540    2.1380
   39.555    2.1590
   39.570    2.2433
   39.585    2.2643
   39.600    2.1590
   39.615    2.2012
   39.630    2.3275
   39.645    2.0748
   39.660    2.3170
   39.675    2.1274
   39.690    2.3802
   39.705    2.0958
   39.720    2.2328
   39.735    2.1696
   39.750    2.4750
   39.765    2.5066
   39.780    2.3591
   39.795    2.3275
   39.810    2.1169
   39.825    2.1169
   39.840    2.3170
   39.855    2.3275
   39.870    2.4118
   39.885    2.4750
   39.900    2.1801
   39.915    2.1906
   39.930    2.3486
   39.945    2.5276
   39.960    2.4118
   39.975    2.3802
   39.990    2.2643
