    1.500   42.6856
    1.515   42.8541
    1.530   42.5066
    1.545   42.8541
    1.560   41.2112
    1.575   41.4113
    1.590   40.0632
    1.605   39.3576
    1.620   39.8631
    1.635   39.7156
    1.650   38.9784
    1.665   38.3044
    1.680   37.3354
    1.695   37.1037
    1.710   36.3876
    1.725   36.5245
    1.740   36.5456
    1.755   35.5872
    1.770   34.7341
    1.785   35.1343
    1.800   35.4081
    1.815   35.1238
    1.830   35.0395
    1.845   34.1338
    1.860   33.9758
    1.875   32.7330
    1.890   33.0490
    1.905   33.4281
    1.920   32.8278
    1.935   32.5750
    1.950   33.3439
    1.965   33.1648
    1.980   31.8905
    1.995   31.6272
    2.010   31.5219
    2.025   32.0590
    2.040   31.8483
    2.055   32.2907
    2.070   32.1538
    2.085   31.6166
    2.100   31.9853
    2.115   31.0690
    2.130   32.2696
    2.145   31.0374
    2.160   30.9426
    2.175   32.3855
    2.190   31.9431
    2.205   31.1006
    2.220   30.9953
    2.235   31.4587
    2.250   30.8899
    2.265   31.1848
    2.280   32.9858
    2.295   32.5750
    2.310   32.9542
    2.325   32.8699
    2.340   32.9015
    2.355   32.9753
    2.370   32.5224
    2.385   32.2170
    2.400   33.1332
    2.415   32.7962
    2.430   33.7125
    2.445   32.8067
    2.460   32.9858
    2.475   34.4392
    2.490   35.1975
    2.505   35.4186
    2.520   35.1659
    2.535   36.2191
    2.550   36.9036
    2.565   35.2607
    2.580   37.6198
    2.595   38.0200
    2.610   37.2723
    2.625   38.8836
    2.640   39.4313
    2.655   39.4523
    2.670   40.1369
    2.685   39.9263
    2.700   40.6740
    2.715   41.4429
    2.730   43.0437
    2.745   43.9073
    2.760   44.1285
    2.775   45.3713
    2.790   45.4660
    2.805   45.7399
    2.820   47.1933
    2.835   48.3834
    2.850   48.9416
    2.865   50.5213
    2.880   51.2586
    2.895   53.1122
    2.910   53.7757
    2.925   55.1448
    2.940   55.1975
    2.955   56.4192
    2.970   59.2944
    2.985   61.4113
    3.000   62.2328
    3.015   64.5708
    3.030   65.9084
    3.045   68.5203
    3.060   69.4365
    3.075   71.6798
    3.090   74.3865
    3.105   76.9142
    3.120   79.0627
    3.135   82.8963
    3.150   84.8341
    3.165   87.8884
    3.180   92.4697
    3.195   93.7651
    3.210   97.9779
    3.225  101.0532
    3.240  106.0874
    3.255  109.7420
    3.270  115.3976
    3.285  122.2960
    3.300  127.0458
    3.315  135.4818
    3.330  143.0542
    3.345  149.9737
    3.360  157.3354
    3.375  167.4355
    3.390  179.5787
    3.405  191.1848
    3.420  203.1806
    3.435  211.8589
    3.450  220.0843
    3.465  216.5982
    3.480  209.5524
    3.495  194.2917
    3.510  175.1238
    3.525  150.9110
    3.540  127.6988
    3.555  109.7104
    3.570   97.3670
    3.585   86.7404
    3.600   79.4208
    3.615   73.9758
    3.630   69.4787
    3.645   66.4982
    3.660   64.4339
    3.675   64.0232
    3.690   64.6340
    3.705   64.8763
    3.720   64.2022
    3.735   65.1185
    3.750   64.1706
    3.765   65.7293
    3.780   68.2149
    3.795   68.7625
    3.810   70.6477
    3.825   72.2591
    3.840   72.9542
    3.855   75.3660
    3.870   77.8199
    3.885   79.2417
    3.900   82.0011
    3.915   84.6235
    3.930   85.6767
    3.945   84.7920
    3.960   86.6877
    3.975   89.0469
    3.990   89.9421
    4.005   91.9747
    4.020   92.4381
    4.035   91.4587
    4.050   90.2791
    4.065   89.6998
    4.080   87.5198
    4.095   84.1706
    4.110   83.6230
    4.125   80.9163
    4.140   78.7783
    4.155   73.4176
    4.170   71.1848
    4.185   68.4150
    4.200   65.6872
    4.215   61.0743
    4.230   57.4092
    4.245   54.1759
    4.260   51.7009
    4.275   48.5308
    4.290   44.6340
    4.305   41.7167
    4.320   39.4734
    4.335   37.3249
    4.350   34.6604
    4.365   32.3539
    4.380   29.8684
    4.395   28.5940
    4.410   26.3086
    4.425   24.8973
    4.440   23.6546
    4.455   22.8752
    4.470   20.8952
    4.485   20.2001
    4.500   20.1685
    4.515   19.2838
    4.530   18.6625
    4.545   17.9779
    4.560   16.3665
    4.575   15.6082
    4.590   15.9136
    4.605   15.2396
    4.620   16.0084
    4.635   14.8394
    4.650   14.2285
    4.665   14.1022
    4.680   13.8494
    4.695   14.0390
    4.710   13.6388
    4.725   13.8178
    4.740   13.0595
    4.755   12.8278
    4.770   13.0068
    4.785   12.0800
    4.800   12.4697
    4.815   12.2696
    4.830   12.0695
    4.845   11.3639
    4.860   11.7114
    4.875   11.4587
    4.890   11.4481
    4.905   11.8062
    4.920   11.4376
    4.935   11.0058
    4.950   11.0585
    4.965   10.8268
    4.980   10.4371
    4.995   10.5424
    5.010   10.6793
    5.025   11.2375
    5.040   11.1006
    5.055   10.5529
    5.070   10.7846
    5.085   10.8057
    5.100   10.4055
    5.115   10.4371
    5.130   10.3949
    5.145   10.6477
    5.160   10.6372
    5.175   10.4371
    5.190   10.7214
    5.205   10.5319
    5.220   10.2159
    5.235   10.1422
    5.250   10.0685
    5.265   10.0579
    5.280   10.3212
    5.295   10.0685
    5.310   10.2370
    5.325   10.1738
    5.340   10.0474
    5.355   10.5319
    5.370   10.1527
    5.385   10.2370
    5.400    9.5629
    5.415    9.7104
    5.430    9.6893
    5.445    9.8473
    5.460    9.5629
    5.475    9.5103
    5.490    9.8473
    5.505    9.9105
    5.520    9.7736
    5.535   10.1211
    5.550    9.7104
    5.565    9.7314
    5.580    9.3734
    5.595    9.4155
    5.610    9.1943
    5.625    8.7204
    5.640    9.1101
    5.655    9.2048
    5.670    8.8889
    5.685    9.3312
    5.700    9.1311
    5.715    8.9731
    5.730    9.3523
    5.745    8.8994
    5.760    8.6572
    5.775    8.9942
    5.790    8.6151
    5.805    8.8678
    5.820    8.9731
    5.835    9.0047
    5.850    8.8046
    5.865    8.8152
    5.880    8.8046
    5.895    8.2780
    5.910    8.4571
    5.925    8.6677
    5.940    9.1101
    5.955    8.9205
    5.970    8.8046
    5.985    8.7098
    6.000    8.9837
    6.015    9.3839
    6.030    8.7204
    6.045    8.7204
    6.060    9.2575
    6.075    8.7625
    6.090    8.6361
    6.105    9.0258
    6.120    8.9205
    6.135    9.4997
    6.150    9.1417
    6.165    9.4050
    6.180    9.3628
    6.195    9.4787
    6.210    9.4050
    6.225    9.6156
    6.240    9.9105
    6.255    9.3628
    6.270    9.2786
    6.285    9.5419
    6.300    8.9415
    6.315    9.0890
    6.330    9.2680
    6.345    9.3312
    6.360    9.6893
    6.375    9.4997
    6.390    9.6472
    6.405    9.9842
    6.420    9.8473
    6.435   10.4055
    6.450   10.4476
    6.465   10.1211
    6.480   10.4160
    6.495   10.6582
    6.510   10.7004
    6.525   10.6582
    6.540   10.5108
    6.555   10.3107
    6.570   11.3323
    6.585   11.8378
    6.600   11.8273
    6.615   11.9431
    6.630   12.2064
    6.645   12.6593
    6.660   12.7962
    6.675   13.0174
    6.690   13.4597
    6.705   13.5229
    6.720   13.9968
    6.735   14.5761
    6.750   14.8394
    6.765   16.0295
    6.780   16.1032
    6.795   17.3460
    6.810   17.8094
    6.825   18.0516
    6.840   19.1890
    6.855   19.9263
    6.870   21.2217
    6.885   23.0542
    6.900   24.0232
    6.915   25.8347
    6.930   27.1827
    6.945   26.9932
    6.960   27.5829
    6.975   26.7615
    6.990   26.3402
    7.005   24.0758
    7.020   22.7699
    7.035   20.2949
    7.050   18.0832
    7.065   16.9352
    7.080   15.6714
    7.095   14.0495
    7.110   12.6382
    7.125   12.5856
    7.140   12.3855
    7.155   11.4060
    7.170   11.3955
    7.185   11.4481
    7.200   10.6266
    7.215   10.1738
    7.230   10.1527
    7.245   10.1211
    7.260   10.0053
    7.275    9.9842
    7.290    9.8368
    7.305   10.1527
    7.320   10.3107
    7.335    9.8684
    7.350    9.4576
    7.365    9.9105
    7.380   10.1211
    7.395    9.8368
    7.410   10.1316
    7.425   10.5213
    7.440   10.5845
    7.455   10.4581
    7.470   10.8268
    7.485   10.7320
    7.500   10.3423
    7.515   10.1106
    7.530   10.4265
    7.545   10.1632
    7.560   10.4792
    7.575   10.8794
    7.590   10.5845
    7.605   10.2791
    7.620   10.6582
    7.635   10.7214
    7.650   10.5635
    7.665   10.8373
    7.680   10.6477
    7.695   10.7530
    7.710   11.5324
    7.725   11.9853
    7.740   11.4060
    7.755   11.8062
    7.770   11.6904
    7.785   11.6904
    7.800   12.7120
    7.815   12.4171
    7.830   11.8273
    7.845   11.6588
    7.860   12.5329
    7.875   12.8067
    7.890   12.8173
    7.905   13.1859
    7.920   13.2701
    7.935   13.5440
    7.950   13.2912
    7.965   13.4176
    7.980   13.9126
    7.995   13.5124
    8.010   13.3649
    8.025   13.7967
    8.040   14.0495
    8.055   14.2391
    8.070   14.3233
    8.085   14.1022
    8.100   14.3233
    8.115   14.7867
    8.130   14.3760
    8.145   14.2285
    8.160   14.1969
    8.175   14.8710
    8.190   14.9026
    8.205   14.6603
    8.220   14.5445
    8.235   13.8494
    8.250   14.3444
    8.265   14.0074
    8.280   14.2496
    8.295   14.0284
    8.310   13.9126
    8.325   14.0284
    8.340   14.4181
    8.355   13.9231
    8.370   13.8915
    8.385   13.7441
    8.400   13.5334
    8.415   13.6388
    8.430   13.5650
    8.445   13.0806
    8.460   12.6698
    8.475   12.9121
    8.490   12.4592
    8.505   12.5645
    8.520   12.4487
    8.535   11.9537
    8.550   11.6482
    8.565   11.6798
    8.580   11.2902
    8.595   11.4587
    8.610   11.2902
    8.625   11.4376
    8.640   11.2691
    8.655   11.1848
    8.670   11.0374
    8.685   10.9110
    8.700   10.5635
    8.715   10.3528
    8.730   10.3949
    8.745   10.0790
    8.760   10.3318
    8.775   10.1106
    8.790   10.2264
    8.805   10.2896
    8.820    9.5945
    8.835    9.6893
    8.850    9.4050
    8.865    9.1838
    8.880    9.8368
    8.895    9.4365
    8.910    9.1417
    8.925    9.0679
    8.940    8.8889
    8.955    8.7520
    8.970    9.2259
    8.985    9.8368
    9.000    8.8046
    9.015    8.6888
    9.030    8.8678
    9.045    8.7941
    9.060    8.6572
    9.075    8.4360
    9.090    8.3623
    9.105    8.5624
    9.120    8.7204
    9.135    8.1727
    9.150    8.2359
    9.165    8.9100
    9.180    8.5835
    9.195    8.5203
    9.210    8.4360
    9.225    8.3939
    9.240    8.1411
    9.255    8.0147
    9.270    8.2464
    9.285    8.4676
    9.300    8.3307
    9.315    8.3412
    9.330    8.1095
    9.345    8.3834
    9.360    8.2780
    9.375    8.1938
    9.390    8.4676
    9.405    8.4150
    9.420    8.7309
    9.435    8.5203
    9.450    8.1201
    9.465    8.1938
    9.480    8.2254
    9.495    8.0358
    9.510    8.0674
    9.525    8.7520
    9.540    7.9831
    9.555    7.6672
    9.570    8.6045
    9.585    8.5940
    9.600    7.9726
    9.615    8.0779
    9.630    8.4360
    9.645    8.4466
    9.660    8.0990
    9.675    7.9200
    9.690    8.0147
    9.705    8.0253
    9.720    7.7830
    9.735    7.9516
    9.750    8.5203
    9.765    7.7093
    9.780    8.0463
    9.795    8.3834
    9.810    8.3307
    9.825    7.9726
    9.840    7.9410
    9.855    8.0990
    9.870    8.3307
    9.885    8.2570
    9.900    7.9831
    9.915    8.1517
    9.930    8.1411
    9.945    8.2359
    9.960    7.9410
    9.975    7.9200
    9.990    8.3623
   10.005    8.0358
   10.020    7.9305
   10.035    8.0674
   10.050    8.3202
   10.065    7.8146
   10.080    8.0358
   10.095    8.0569
   10.110    8.0147
   10.125    8.2464
   10.140    8.4571
   10.155    8.0990
   10.170    7.7830
   10.185    8.0358
   10.200    8.0358
   10.215    7.8673
   10.230    8.0674
   10.245    8.2780
   10.260    7.8462
   10.275    8.1833
   10.290    8.3623
   10.305    9.0890
   10.320    8.5413
   10.335    8.8573
   10.350    9.1101
   10.365    9.0258
   10.380    8.7309
   10.395    8.9731
   10.410    8.8784
   10.425    9.5313
   10.440    9.9947
   10.455    9.1311
   10.470    9.2786
   10.485    9.6156
   10.500    9.3944
   10.515    9.0363
   10.530    9.2154
   10.545    8.7098
   10.560    9.1732
   10.575    8.8573
   10.590    9.0679
   10.605    8.3834
   10.620    8.4360
   10.635    8.3518
   10.650    8.6572
   10.665    8.3623
   10.680    8.1622
   10.695    8.5097
   10.710    8.3202
   10.725    7.8252
   10.740    8.0569
   10.755    7.9831
   10.770    8.2675
   10.785    7.8568
   10.800    8.1411
   10.815    7.8041
   10.830    7.8462
   10.845    7.8357
   10.860    7.9305
   10.875    8.4676
   10.890    8.1622
   10.905    8.1411
   10.920    8.1833
   10.935    7.7620
   10.950    8.0674
   10.965    7.7304
   10.980    8.3202
   10.995    7.9937
   11.010    8.0042
   11.025    8.1411
   11.040    7.9937
   11.055    8.4781
   11.070    8.3518
   11.085    8.1306
   11.100    8.3728
   11.115    8.2675
   11.130    8.0990
   11.145    8.1938
   11.160    8.2675
   11.175    8.0253
   11.190    8.1727
   11.205    8.2359
   11.220    8.0253
   11.235    7.6461
   11.250    7.9937
   11.265    8.0885
   11.280    8.1517
   11.295    8.1622
   11.310    8.0358
   11.325    8.1833
   11.340    8.0990
   11.355    7.9621
   11.370    8.2675
   11.385    8.3728
   11.400    8.2359
   11.415    8.0147
   11.430    8.1727
   11.445    8.0779
   11.460    7.9305
   11.475    7.7725
   11.490    7.9305
   11.505    8.0253
   11.520    8.6256
   11.535    8.3307
   11.550    8.3834
   11.565    8.2991
   11.580    7.8041
   11.595    7.8673
   11.610    8.1201
   11.625    8.4992
   11.640    7.9410
   11.655    8.1201
   11.670    8.4044
   11.685    8.3728
   11.700    8.8362
   11.715    8.4150
   11.730    8.2043
   11.745    7.8462
   11.760    8.2570
   11.775    8.5308
   11.790    8.2254
   11.805    8.3518
   11.820    8.4887
   11.835    8.1727
   11.850    8.3307
   11.865    8.6256
   11.880    8.0042
   11.895    8.6888
   11.910    8.3834
   11.925    8.4044
   11.940    8.4360
   11.955    9.0679
   11.970    8.8678
   11.985    8.8046
   12.000    8.7730
   12.015    8.7625
   12.030    8.8152
   12.045    8.8257
   12.060    8.7520
   12.075    8.6361
   12.090    8.6256
   12.105    8.9100
   12.120    9.1522
   12.135    8.8257
   12.150    8.8994
   12.165    8.8257
   12.180    8.4992
   12.195    8.6361
   12.210    8.7941
   12.225    8.9310
   12.240    8.9626
   12.255    9.1311
   12.270    8.8994
   12.285    8.6151
   12.300    9.1943
   12.315    9.1627
   12.330    9.0258
   12.345    8.6993
   12.360    8.8468
   12.375    8.6572
   12.390    8.4360
   12.405    8.4466
   12.420    8.7836
   12.435    8.4992
   12.450    8.5519
   12.465    9.0995
   12.480    8.9731
   12.495    8.6467
   12.510    8.7625
   12.525    8.9731
   12.540    8.8046
   12.555    8.6888
   12.570    8.2043
   12.585    8.4781
   12.600    8.8468
   12.615    8.8046
   12.630    8.8889
   12.645    8.5729
   12.660    8.6467
   12.675    8.7730
   12.690    8.8889
   12.705    8.3202
   12.720    8.5413
   12.735    8.8994
   12.750    8.8994
   12.765    8.6993
   12.780    8.8784
   12.795    8.6783
   12.810    8.7414
   12.825    8.4255
   12.840    8.6783
   12.855    9.0047
   12.870    8.4255
   12.885    8.7309
   12.900    8.3518
   12.915    8.6572
   12.930    8.4150
   12.945    7.9937
   12.960    8.4887
   12.975    8.2149
   12.990    8.5413
   13.005    8.4360
   13.020    8.2149
   13.035    8.8468
   13.050    8.5835
   13.065    8.7941
   13.080    8.5519
   13.095    8.2886
   13.110    8.2780
   13.125    8.8046
   13.140    8.9626
   13.155    8.6783
   13.170    7.9305
   13.185    8.2675
   13.200    7.9621
   13.215    8.2464
   13.230    8.3096
   13.245    8.0990
   13.260    8.2359
   13.275    8.5835
   13.290    8.3412
   13.305    8.8152
   13.320    8.4150
   13.335    8.2149
   13.350    8.4150
   13.365    8.3939
   13.380    8.4466
   13.395    8.6783
   13.410    8.3412
   13.425    8.2780
   13.440    8.3623
   13.455    8.3623
   13.470    8.1517
   13.485    7.8778
   13.500    7.8357
   13.515    8.4255
   13.530    8.4150
   13.545    7.7725
   13.560    8.5097
   13.575    8.3518
   13.590    8.2991
   13.605    8.2149
   13.620    8.3834
   13.635    8.6045
   13.650    8.4150
   13.665    8.3412
   13.680    8.0569
   13.695    8.0885
   13.710    8.4781
   13.725    8.1833
   13.740    8.6256
   13.755    8.4255
   13.770    8.1095
   13.785    8.0990
   13.800    8.6151
   13.815    8.0779
   13.830    7.8884
   13.845    8.4360
   13.860    8.1727
   13.875    8.1517
   13.890    8.1622
   13.905    8.0779
   13.920    7.9516
   13.935    7.8989
   13.950    8.2675
   13.965    7.7936
   13.980    8.0779
   13.995    8.1095
   14.010    8.3096
   14.025    8.0253
   14.040    8.0147
   14.055    8.2675
   14.070    8.4571
   14.085    8.5519
   14.100    8.2149
   14.115    7.5829
   14.130    7.8989
   14.145    8.0885
   14.160    8.2991
   14.175    8.0463
   14.190    8.4044
   14.205    8.3202
   14.220    8.0463
   14.235    7.9726
   14.250    8.3307
   14.265    7.7936
   14.280    7.6672
   14.295    7.7409
   14.310    8.2780
   14.325    7.7199
   14.340    7.7620
   14.355    7.7830
   14.370    8.1095
   14.385    8.2254
   14.400    7.6988
   14.415    7.4882
   14.430    7.8357
   14.445    7.8884
   14.460    7.9094
   14.475    7.7936
   14.490    8.0253
   14.505    7.9094
   14.520    7.9305
   14.535    7.5829
   14.550    7.4039
   14.565    8.0569
   14.580    7.8884
   14.595    7.9094
   14.610    7.7725
   14.625    7.5513
   14.640    7.6145
   14.655    7.4355
   14.670    7.7936
   14.685    7.6883
   14.700    7.8778
   14.715    7.6040
   14.730    8.0885
   14.745    7.8989
   14.760    7.5513
   14.775    7.7830
   14.790    7.9200
   14.805    7.6672
   14.820    7.5829
   14.835    7.6672
   14.850    7.5408
   14.865    7.4987
   14.880    7.7830
   14.895    7.7304
   14.910    8.0569
   14.925    7.7830
   14.940    8.1833
   14.955    7.7304
   14.970    7.8252
   14.985    7.7725
   15.000    7.7304
   15.015    7.8989
   15.030    7.8462
   15.045    7.8673
   15.060    7.7093
   15.075    7.7304
   15.090    7.6040
   15.105    7.8778
   15.120    7.8357
   15.135    7.6461
   15.150    7.3934
   15.165    7.2459
   15.180    7.4460
   15.195    7.6145
   15.210    8.2675
   15.225    7.9410
   15.240    7.9305
   15.255    8.0253
   15.270    7.8673
   15.285    7.6567
   15.300    7.6040
   15.315    7.4776
   15.330    7.6040
   15.345    7.5724
   15.360    7.6883
   15.375    7.8673
   15.390    8.0358
   15.405    7.7409
   15.420    7.7620
   15.435    8.0569
   15.450    8.0147
   15.465    8.1938
   15.480    7.6988
   15.495    7.6251
   15.510    7.6777
   15.525    8.0569
   15.540    8.0569
   15.555    7.7514
   15.570    7.9410
   15.585    7.7304
   15.600    8.1727
   15.615    8.0990
   15.630    8.1201
   15.645    7.9726
   15.660    8.3202
   15.675    7.7620
   15.690    7.7409
   15.705    7.7409
   15.720    7.8146
   15.735    8.0569
   15.750    8.0147
   15.765    7.5303
   15.780    8.1411
   15.795    8.1727
   15.810    7.6145
   15.825    7.8357
   15.840    8.1727
   15.855    7.9516
   15.870    7.7830
   15.885    7.8357
   15.900    8.1095
   15.915    7.7936
   15.930    8.1727
   15.945    7.4566
   15.960    7.9726
   15.975    8.0147
   15.990    8.2043
   16.005    8.2149
   16.020    8.0042
   16.035    7.6461
   16.050    8.0147
   16.065    7.9831
   16.080    7.7830
   16.095    8.1095
   16.110    8.1411
   16.125    8.4150
   16.140    8.0147
   16.155    7.9831
   16.170    8.1727
   16.185    8.0885
   16.200    7.2986
   16.215    7.7409
   16.230    7.9200
   16.245    7.7830
   16.260    7.9410
   16.275    7.9937
   16.290    7.5092
   16.305    7.2775
   16.320    7.2354
   16.335    7.4671
   16.350    7.7830
   16.365    7.8146
   16.380    8.0885
   16.395    7.5408
   16.410    7.6567
   16.425    7.8568
   16.440    7.6040
   16.455    7.3828
   16.470    7.6461
   16.485    7.9937
   16.500    7.4250
   16.515    7.7409
   16.530    7.7725
   16.545    7.8673
   16.560    7.5724
   16.575    8.0674
   16.590    8.1201
   16.605    8.2254
   16.620    7.7093
   16.635    7.8357
   16.650    8.1411
   16.665    7.9621
   16.680    7.9410
   16.695    7.8568
   16.710    7.6251
   16.725    7.8673
   16.740    7.7093
   16.755    7.7725
   16.770    7.4460
   16.785    7.5829
   16.800    7.4355
   16.815    7.2354
   16.830    7.4039
   16.845    7.7514
   16.860    7.8884
   16.875    7.4882
   16.890    7.4671
   16.905    7.6145
   16.920    7.5303
   16.935    7.9094
   16.950    8.1201
   16.965    7.8989
   16.980    7.9410
   16.995    7.8673
   17.010    7.5829
   17.025    8.0463
   17.040    7.9937
   17.055    7.9305
   17.070    7.7409
   17.085    7.7830
   17.100    7.7936
   17.115    7.6777
   17.130    7.6672
   17.145    7.9516
   17.160    7.7409
   17.175    7.6145
   17.190    7.7199
   17.205    7.7830
   17.220    7.8778
   17.235    7.5092
   17.250    7.7936
   17.265    7.4250
   17.280    8.0042
   17.295    7.6251
   17.310    7.5829
   17.325    7.6145
   17.340    7.8568
   17.355    7.6883
   17.370    7.4355
   17.385    7.6777
   17.400    7.7514
   17.415    7.9094
   17.430    7.7514
   17.445    7.8252
   17.460    7.5619
   17.475    8.1306
   17.490    8.1622
   17.505    7.8041
   17.520    7.3407
   17.535    7.9200
   17.550    7.9305
   17.565    8.0042
   17.580    7.6672
   17.595    7.9621
   17.610    8.0463
   17.625    8.1833
   17.640    7.7620
   17.655    7.8252
   17.670    8.0253
   17.685    7.9410
   17.700    7.8568
   17.715    8.3202
   17.730    7.9937
   17.745    7.7830
   17.760    8.1727
   17.775    8.2464
   17.790    7.7093
   17.805    7.6883
   17.820    7.8357
   17.835    7.7409
   17.850    7.2459
   17.865    7.6251
   17.880    8.1622
   17.895    8.0042
   17.910    7.8673
   17.925    8.0042
   17.940    7.8462
   17.955    7.9200
   17.970    8.0569
   17.985    8.0358
   18.000    7.8357
   18.015    7.7725
   18.030    7.6251
   18.045    7.6988
   18.060    7.9516
   18.075    7.6040
   18.090    7.9094
   18.105    7.9937
   18.120    7.8252
   18.135    7.6461
   18.150    7.9410
   18.165    8.0674
   18.180    8.1938
   18.195    8.0253
   18.210    8.1622
   18.225    7.8673
   18.240    7.5303
   18.255    7.6777
   18.270    7.5197
   18.285    7.9305
   18.300    7.6145
   18.315    7.3091
   18.330    7.7199
   18.345    7.8146
   18.360    8.1938
   18.375    8.4781
   18.390    7.7725
   18.405    7.7514
   18.420    7.7725
   18.435    7.8252
   18.450    7.8462
   18.465    8.1095
   18.480    7.8989
   18.495    7.6883
   18.510    7.2354
   18.525    7.6567
   18.540    7.9726
   18.555    8.0674
   18.570    7.8462
   18.585    8.0990
   18.600    7.9726
   18.615    8.3412
   18.630    8.0569
   18.645    7.8884
   18.660    8.0042
   18.675    8.3202
   18.690    8.2464
   18.705    8.0463
   18.720    7.6251
   18.735    7.4776
   18.750    7.6672
   18.765    7.9831
   18.780    8.0358
   18.795    7.9726
   18.810    7.8357
   18.825    8.0463
   18.840    8.0358
   18.855    8.0147
   18.870    7.8462
   18.885    8.0990
   18.900    7.8252
   18.915    7.5829
   18.930    7.5619
   18.945    7.8568
   18.960    7.9410
   18.975    7.9621
   18.990    7.9621
   19.005    7.7304
   19.020    7.7199
   19.035    8.0358
   19.050    8.1727
   19.065    8.0674
   19.080    8.1306
   19.095    7.9937
   19.110    8.2886
   19.125    8.3939
   19.140    8.0042
   19.155    7.8252
   19.170    7.9621
   19.185    7.9726
   19.200    7.8041
   19.215    8.4466
   19.230    8.3623
   19.245    8.1938
   19.260    8.3096
   19.275    8.0358
   19.290    8.1622
   19.305    8.1517
   19.320    7.9200
   19.335    8.4676
   19.350    8.3307
   19.365    7.8884
   19.380    8.2780
   19.395    8.0674
   19.410    8.6993
   19.425    8.5519
   19.440    8.2359
   19.455    8.2254
   19.470    8.4255
   19.485    8.4887
   19.500    8.4992
   19.515    7.9937
   19.530    8.2886
   19.545    8.3728
   19.560    8.6677
   19.575    8.9310
   19.590    8.4044
   19.605    8.0779
   19.620    8.1306
   19.635    8.4360
   19.650    8.3307
   19.665    8.3412
   19.680    8.3307
   19.695    9.0574
   19.710    8.8152
   19.725    8.7625
   19.740    8.6783
   19.755    8.6256
   19.770    9.0363
   19.785    8.8468
   19.800    8.5519
   19.815    8.7309
   19.830    8.5203
   19.845    8.8046
   19.860    9.2575
   19.875    8.4150
   19.890    8.4466
   19.905    8.6256
   19.920    8.3518
   19.935    8.8678
   19.950    8.3202
   19.965    8.6783
   19.980    8.5729
   19.995    9.0258
   20.010    9.1417
   20.025    8.4466
   20.040    8.4887
   20.055    8.8257
   20.070    8.4676
   20.085    8.5729
   20.100    8.8784
   20.115    8.6677
   20.130    8.5413
   20.145    8.3096
   20.160    8.2570
   20.175    8.4044
   20.190    8.4360
   20.205    8.8889
   20.220    8.6361
   20.235    8.0253
   20.250    8.8152
   20.265    8.6256
   20.280    9.1732
   20.295    9.0785
   20.310    8.9942
   20.325    8.4992
   20.340    8.4360
   20.355    8.9205
   20.370    8.6361
   20.385    9.0574
   20.400    9.0258
   20.415    8.6151
   20.430    8.2675
   20.445    8.5413
   20.460    8.9942
   20.475    8.7520
   20.490    8.8046
   20.505    8.9205
   20.520    8.8468
   20.535    9.1311
   20.550    8.7204
   20.565    8.7098
   20.580    8.8889
   20.595    8.4781
   20.610    8.8889
   20.625    8.7414
   20.640    8.5413
   20.655    8.2780
   20.670    8.5097
   20.685    8.4044
   20.700    8.5413
   20.715    8.9310
   20.730    8.6888
   20.745    8.5519
   20.760    8.3412
   20.775    8.7520
   20.790    8.4150
   20.805    8.7414
   20.820    8.3307
   20.835    8.6045
   20.850    8.6467
   20.865    8.2886
   20.880    8.4466
   20.895    8.5519
   20.910    8.2464
   20.925    8.4255
   20.940    9.0785
   20.955    8.8889
   20.970    9.0469
   20.985    8.9100
   21.000    8.8046
   21.015    8.6256
   21.030    8.8573
   21.045    8.7520
   21.060    9.0995
   21.075    8.9837
   21.090    8.4466
   21.105    8.4150
   21.120    8.4992
   21.135    8.8468
   21.150    9.1311
   21.165    9.1206
   21.180    9.1732
   21.195    8.9521
   21.210    8.6256
   21.225    8.5413
   21.240    8.7836
   21.255    8.8678
   21.270    8.8573
   21.285    8.7730
   21.300    9.0047
   21.315    8.7204
   21.330    8.2570
   21.345    8.6888
   21.360    8.6572
   21.375    8.8889
   21.390    8.6151
   21.405    8.3412
   21.420    8.8784
   21.435    8.7098
   21.450    8.3202
   21.465    8.4781
   21.480    8.6993
   21.495    8.2886
   21.510    8.7836
   21.525    8.9837
   21.540    8.8152
   21.555    8.8362
   21.570    8.4466
   21.585    8.8152
   21.600    9.3312
   21.615    8.7098
   21.630    8.6993
   21.645    8.7836
   21.660    8.6993
   21.675    8.5097
   21.690    8.4360
   21.705    8.6467
   21.720    8.6467
   21.735    8.3307
   21.750    9.0153
   21.765    8.8468
   21.780    8.7730
   21.795    8.4992
   21.810    8.6361
   21.825    8.5729
   21.840    9.0363
   21.855    8.5940
   21.870    8.4887
   21.885    8.8046
   21.900    8.5203
   21.915    8.4360
   21.930    9.2154
   21.945    9.0153
   21.960    8.8362
   21.975    8.3834
   21.990    8.5308
   22.005    8.6677
   22.020    8.6993
   22.035    8.6993
   22.050    8.5203
   22.065    8.2886
   22.080    8.5308
   22.095    8.5519
   22.110    8.3623
   22.125    8.4150
   22.140    8.6256
   22.155    8.8678
   22.170    8.9626
   22.185    9.0258
   22.200    8.7625
   22.215    8.9521
   22.230    8.7309
   22.245    8.5308
   22.260    8.3307
   22.275    8.2675
   22.290    8.5519
   22.305    8.9205
   22.320    8.4150
   22.335    9.5735
   22.350    8.9100
   22.365    8.2254
   22.380    8.6677
   22.395    8.5835
   22.410    8.7098
   22.425    8.5203
   22.440    8.4466
   22.455    8.7309
   22.470    8.7941
   22.485    8.2675
   22.500    8.9100
   22.515    8.8257
   22.530    8.5308
   22.545    8.3939
   22.560    9.0785
   22.575    8.7520
   22.590    8.8046
   22.605    8.5729
   22.620    8.5835
   22.635    8.4150
   22.650    8.0253
   22.665    8.8784
   22.680    8.8257
   22.695    8.8994
   22.710    8.8152
   22.725    8.5519
   22.740    8.5413
   22.755    8.3412
   22.770    8.3834
   22.785    8.1517
   22.800    8.7414
   22.815    8.2675
   22.830    8.5835
   22.845    8.4676
   22.860    8.5729
   22.875    8.4887
   22.890    8.4676
   22.905    8.6467
   22.920    8.5308
   22.935    8.6888
   22.950    8.8678
   22.965    8.7414
   22.980    8.1833
   22.995    8.4887
   23.010    8.4044
   23.025    8.0990
   23.040    8.3096
   23.055    8.3623
   23.070    8.3096
   23.085    8.5097
   23.100    8.1833
   23.115    8.0885
   23.130    8.5097
   23.145    8.3939
   23.160    8.7098
   23.175    8.3728
   23.190    8.4044
   23.205    8.1306
   23.220    8.6467
   23.235    8.5835
   23.250    8.6993
   23.265    8.7520
   23.280    8.5624
   23.295    7.9831
   23.310    8.4571
   23.325    8.4466
   23.340    8.5835
   23.355    8.6151
   23.370    8.1622
   23.385    8.1622
   23.400    8.0569
   23.415    8.4150
   23.430    8.3518
   23.445    8.1727
   23.460    8.6045
   23.475    8.3096
   23.490    8.2254
   23.505    8.4887
   23.520    8.0885
   23.535    8.4255
   23.550    8.4044
   23.565    8.0674
   23.580    8.3412
   23.595    8.6572
   23.610    8.6151
   23.625    8.0042
   23.640    8.0569
   23.655    8.3412
   23.670    8.4360
   23.685    8.3307
   23.700    8.1095
   23.715    8.3202
   23.730    8.2886
   23.745    8.2464
   23.760    8.5835
   23.775    7.9831
   23.790    8.1411
   23.805    8.1095
   23.820    8.3307
   23.835    8.2886
   23.850    8.0779
   23.865    8.3518
   23.880    8.0253
   23.895    8.0885
   23.910    8.1622
   23.925    7.8357
   23.940    8.6467
   23.955    8.2675
   23.970    8.0147
   23.985    8.3307
   24.000    8.1095
   24.015    8.2675
   24.030    8.1833
   24.045    7.8778
   24.060    8.5835
   24.075    8.2991
   24.090    7.8673
   24.105    7.5197
   24.120    7.9410
   24.135    8.1938
   24.150    8.0042
   24.165    8.0463
   24.180    8.2886
   24.195    8.2464
   24.210    8.1201
   24.225    8.0990
   24.240    8.1833
   24.255    8.1622
   24.270    8.0463
   24.285    8.3202
   24.300    8.5624
   24.315    8.2254
   24.330    8.2570
   24.345    8.2359
   24.360    8.0463
   24.375    8.4044
   24.390    8.3096
   24.405    8.0569
   24.420    8.1727
   24.435    8.1411
   24.450    8.4887
   24.465    8.9415
   24.480    8.3939
   24.495    8.3412
   24.510    8.0779
   24.525    8.1938
   24.540    8.4150
   24.555    8.4571
   24.570    8.8468
   24.585    8.0674
   24.600    8.2570
   24.615    8.5729
   24.630    8.0990
   24.645    8.1727
   24.660    8.2675
   24.675    8.5624
   24.690    7.8778
   24.705    7.9516
   24.720    7.9305
   24.735    8.1833
   24.750    8.1727
   24.765    7.8252
   24.780    8.2991
   24.795    8.4571
   24.810    8.0569
   24.825    8.0990
   24.840    8.0885
   24.855    8.2464
   24.870    8.2570
   24.885    8.1095
   24.900    8.0569
   24.915    8.1517
   24.930    8.0358
   24.945    8.0674
   24.960    8.1201
   24.975    8.0147
   24.990    8.3939
   25.005    8.3307
   25.020    8.5624
   25.035    8.3728
   25.050    7.9831
   25.065    7.8252
   25.080    8.1306
   25.095    7.7093
   25.110    7.4987
   25.125    7.8462
   25.140    7.9305
   25.155    8.1938
   25.170    8.3096
   25.185    7.9726
   25.200    7.9200
   25.215    7.6251
   25.230    7.8989
   25.245    8.0674
   25.260    7.8884
   25.275    8.0463
   25.290    7.5935
   25.305    7.6356
   25.320    7.7725
   25.335    8.0147
   25.350    8.4044
   25.365    7.6883
   25.380    7.5303
   25.395    7.6145
   25.410    7.5724
   25.425    7.9516
   25.440    7.7725
   25.455    7.9937
   25.470    7.7514
   25.485    7.6251
   25.500    7.6251
   25.515    7.8884
   25.530    7.7093
   25.545    7.5829
   25.560    7.8673
   25.575    7.8884
   25.590    7.7199
   25.605    7.5829
   25.620    7.6461
   25.635    7.4355
   25.650    7.3407
   25.665    7.6777
   25.680    7.7304
   25.695    7.7093
   25.710    7.9621
   25.725    7.7620
   25.740    7.7830
   25.755    7.5408
   25.770    7.8041
   25.785    7.3512
   25.800    7.5303
   25.815    7.9516
   25.830    7.9305
   25.845    8.0147
   25.860    7.6567
   25.875    7.7830
   25.890    7.3618
   25.905    8.3096
   25.920    7.8673
   25.935    7.6567
   25.950    7.2459
   25.965    7.3091
   25.980    7.6356
   25.995    7.5408
   26.010    7.7620
   26.025    7.6988
   26.040    7.6251
   26.055    7.8989
   26.070    8.1833
   26.085    7.4460
   26.100    7.1933
   26.115    7.6356
   26.130    7.4460
   26.145    6.8668
   26.160    7.3723
   26.175    7.4039
   26.190    7.7409
   26.205    7.5092
   26.220    7.7514
   26.235    7.7304
   26.250    7.6988
   26.265    7.4144
   26.280    7.3618
   26.295    7.3196
   26.310    7.1301
   26.325    7.4355
   26.340    7.5303
   26.355    7.5829
   26.370    7.4460
   26.385    6.9194
   26.400    7.2986
   26.415    7.4566
   26.430    7.6461
   26.445    7.2565
   26.460    7.4250
   26.475    7.4250
   26.490    7.3407
   26.505    7.3407
   26.520    7.3618
   26.535    7.2670
   26.550    7.3512
   26.565    7.8989
   26.580    7.5408
   26.595    7.8357
   26.610    7.7409
   26.625    7.6251
   26.640    7.2670
   26.655    7.1406
   26.670    7.5724
   26.685    7.6672
   26.700    7.2143
   26.715    7.6672
   26.730    7.2354
   26.745    7.4355
   26.760    7.3407
   26.775    7.4144
   26.790    7.5724
   26.805    7.2670
   26.820    6.9826
   26.835    7.0458
   26.850    6.9826
   26.865    7.2986
   26.880    7.1722
   26.895    7.0353
   26.910    6.9510
   26.925    7.3723
   26.940    7.4039
   26.955    7.2143
   26.970    7.4355
   26.985    7.0142
   27.000    7.0142
   27.015    7.2143
   27.030    7.3934
   27.045    7.2670
   27.060    6.9510
   27.075    7.6040
   27.090    7.5619
   27.105    7.4776
   27.120    7.0563
   27.135    7.1722
   27.150    7.6040
   27.165    7.5408
   27.180    7.2249
   27.195    7.4566
   27.210    7.3196
   27.225    6.7404
   27.240    7.2143
   27.255    7.3618
   27.270    7.0985
   27.285    7.4144
   27.300    7.4355
   27.315    7.4039
   27.330    7.2354
   27.345    7.4882
   27.360    6.9616
   27.375    6.6877
   27.390    7.4250
   27.405    7.2775
   27.420    7.4566
   27.435    7.0563
   27.450    7.1722
   27.465    7.4250
   27.480    7.4250
   27.495    7.2249
   27.510    7.4144
   27.525    7.1406
   27.540    7.5408
   27.555    7.6461
   27.570    7.2354
   27.585    7.6251
   27.600    7.7514
   27.615    6.9826
   27.630    7.1827
   27.645    7.3091
   27.660    7.3828
   27.675    7.6567
   27.690    7.2459
   27.705    7.1827
   27.720    7.1933
   27.735    7.0142
   27.750    7.0353
   27.765    7.0985
   27.780    7.4039
   27.795    7.5408
   27.810    7.2986
   27.825    7.1195
   27.840    7.1617
   27.855    7.0774
   27.870    7.5303
   27.885    6.9932
   27.900    7.4144
   27.915    7.4987
   27.930    7.4250
   27.945    7.4671
   27.960    7.1195
   27.975    7.0879
   27.990    7.3091
   28.005    7.1617
   28.020    7.6145
   28.035    7.5197
   28.050    7.6777
   28.065    6.9826
   28.080    7.4355
   28.095    7.5935
   28.110    7.5408
   28.125    7.5829
   28.140    7.7409
   28.155    7.5829
   28.170    7.4987
   28.185    7.6356
   28.200    7.7409
   28.215    7.2670
   28.230    7.7620
   28.245    7.5303
   28.260    7.1933
   28.275    7.2986
   28.290    7.3934
   28.305    7.2565
   28.320    7.4776
   28.335    7.7304
   28.350    7.3723
   28.365    7.2775
   28.380    7.4987
   28.395    7.2143
   28.410    7.1301
   28.425    7.3512
   28.440    7.2143
   28.455    7.2986
   28.470    7.1406
   28.485    7.2670
   28.500    7.3091
   28.515    7.3091
   28.530    6.9826
   28.545    6.9194
   28.560    7.4566
   28.575    7.5197
   28.590    7.4671
   28.605    7.3934
   28.620    7.4144
   28.635    7.4776
   28.650    7.4355
   28.665    7.3512
   28.680    7.3723
   28.695    7.1406
   28.710    6.9510
   28.725    6.8668
   28.740    6.9932
   28.755    7.2143
   28.770    6.9826
   28.785    6.9721
   28.800    7.1722
   28.815    7.2038
   28.830    7.2249
   28.845    6.9510
   28.860    7.0774
   28.875    6.8457
   28.890    6.9616
   28.905    6.9510
   28.920    7.3723
   28.935    7.7514
   28.950    7.1617
   28.965    7.1195
   28.980    6.9300
   28.995    7.3618
   29.010    7.0879
   29.025    6.8878
   29.040    7.0353
   29.055    7.0037
   29.070    7.3828
   29.085    7.0458
   29.100    6.9194
   29.115    6.9405
   29.130    6.9721
   29.145    6.8352
   29.160    6.9510
   29.175    7.4460
   29.190    6.9405
   29.205    7.2143
   29.220    7.1617
   29.235    6.7720
   29.250    7.1827
   29.265    7.3723
   29.280    6.7930
   29.295    6.9616
   29.310    7.1301
   29.325    7.0985
   29.340    7.0353
   29.355    6.7509
   29.370    6.8878
   29.385    7.0774
   29.400    7.1511
   29.415    7.2038
   29.430    7.3828
   29.445    7.1933
   29.460    6.8141
   29.475    6.8668
   29.490    6.6351
   29.505    7.0458
   29.520    6.9826
   29.535    6.8984
   29.550    7.3934
   29.565    7.0774
   29.580    7.1722
   29.595    7.1933
   29.610    6.9616
   29.625    6.8773
   29.640    7.0353
   29.655    7.2880
   29.670    7.2354
   29.685    7.2038
   29.700    6.8246
   29.715    6.8352
   29.730    7.0353
   29.745    7.1195
   29.760    6.9405
   29.775    6.8036
   29.790    7.2775
   29.805    7.0142
   29.820    6.9089
   29.835    7.1195
   29.850    6.9826
   29.865    6.8352
   29.880    7.1511
   29.895    7.1195
   29.910    6.8036
   29.925    6.8562
   29.940    7.0248
   29.955    7.0142
   29.970    6.7509
   29.985    6.7825
   30.000    6.8668
   30.015    6.8562
   30.030    6.8562
   30.045    6.9405
   30.060    6.9300
   30.075    6.9194
   30.090    6.8668
   30.105    6.8457
   30.120    6.9826
   30.135    7.0669
   30.150    6.6351
   30.165    6.8036
   30.180    6.4244
   30.195    6.6456
   30.210    6.8246
   30.225    7.0774
   30.240    7.0142
   30.255    7.0774
   30.270    7.1406
   30.285    6.4560
   30.300    6.6245
   30.315    6.8141
   30.330    7.1511
   30.345    6.9721
   30.360    7.1722
   30.375    6.9194
   30.390    7.0669
   30.405    6.9194
   30.420    6.9616
   30.435    6.7088
   30.450    6.9826
   30.465    7.1301
   30.480    6.7088
   30.495    6.6877
   30.510    7.3196
   30.525    7.0774
   30.540    6.7720
   30.555    6.8668
   30.570    7.1617
   30.585    6.9510
   30.600    6.7193
   30.615    6.8668
   30.630    6.8562
   30.645    7.0353
   30.660    7.0879
   30.675    6.4666
   30.690    6.4876
   30.705    7.0458
   30.720    6.7615
   30.735    6.8773
   30.750    6.9616
   30.765    7.1827
   30.780    7.1933
   30.795    7.0563
   30.810    7.2986
   30.825    7.1090
   30.840    6.8668
   30.855    7.1722
   30.870    7.0353
   30.885    7.1511
   30.900    6.9826
   30.915    6.8878
   30.930    6.7088
   30.945    6.5719
   30.960    6.6877
   30.975    6.9089
   30.990    6.8773
   31.005    6.7299
   31.020    6.7825
   31.035    7.1722
   31.050    6.7193
   31.065    6.8878
   31.080    6.6772
   31.095    6.8036
   31.110    7.1617
   31.125    7.0353
   31.140    7.0248
   31.155    7.0353
   31.170    6.3718
   31.185    6.8878
   31.200    6.8036
   31.215    6.5508
   31.230    6.8878
   31.245    6.7299
   31.260    6.6667
   31.275    6.3928
   31.290    6.6035
   31.305    6.9721
   31.320    6.9194
   31.335    6.7299
   31.350    6.7404
   31.365    6.7404
   31.380    7.3723
   31.395    7.0669
   31.410    7.0669
   31.425    6.6140
   31.440    6.6983
   31.455    6.8457
   31.470    7.1722
   31.485    7.0248
   31.500    6.7720
   31.515    6.6140
   31.530    6.6983
   31.545    7.1195
   31.560    6.7615
   31.575    6.7720
   31.590    6.9616
   31.605    6.7509
   31.620    6.7825
   31.635    7.2249
   31.650    6.8562
   31.665    6.8352
   31.680    7.3723
   31.695    6.6667
   31.710    6.6877
   31.725    6.6877
   31.740    7.2670
   31.755    6.8246
   31.770    6.8562
   31.785    7.2670
   31.800    6.7825
   31.815    7.0037
   31.830    7.5197
   31.845    6.9089
   31.860    7.2354
   31.875    6.9932
   31.890    6.6772
   31.905    6.6245
   31.920    6.9826
   31.935    7.4039
   31.950    7.3828
   31.965    6.8457
   31.980    6.8878
   31.995    7.2775
   32.010    7.1933
   32.025    7.2038
   32.040    6.7615
   32.055    6.9616
   32.070    6.7088
   32.085    6.5087
   32.100    6.5719
   32.115    6.7404
   32.130    7.0142
   32.145    7.0669
   32.160    6.8984
   32.175    7.0353
   32.190    6.6245
   32.205    6.8668
   32.220    6.4771
   32.235    6.8352
   32.250    6.3928
   32.265    6.9510
   32.280    6.9089
   32.295    6.5719
   32.310    6.8352
   32.325    6.4244
   32.340    6.5298
   32.355    6.5613
   32.370    6.5192
   32.385    6.9826
   32.400    6.8668
   32.415    6.4771
   32.430    6.2349
   32.445    6.3191
   32.460    6.7720
   32.475    6.6245
   32.490    6.6983
   32.505    6.3191
   32.520    6.5719
   32.535    6.7404
   32.550    6.8668
   32.565    6.7509
   32.580    6.4876
   32.595    6.7088
   32.610    6.4560
   32.625    6.6561
   32.640    6.7088
   32.655    6.7404
   32.670    6.5613
   32.685    6.8246
   32.700    6.5719
   32.715    6.4982
   32.730    6.4139
   32.745    6.4876
   32.760    6.3402
   32.775    6.4982
   32.790    7.0563
   32.805    6.9194
   32.820    6.9510
   32.835    6.5929
   32.850    6.4244
   32.865    6.6983
   32.880    6.4982
   32.895    6.6667
   32.910    6.3612
   32.925    6.6351
   32.940    6.9826
   32.955    7.0563
   32.970    6.9405
   32.985    6.3823
   33.000    6.2665
   33.015    6.6983
   33.030    6.3086
   33.045    6.5192
   33.060    6.1611
   33.075    6.7088
   33.090    7.0563
   33.105    6.2454
   33.120    6.2875
   33.135    6.2559
   33.150    6.4666
   33.165    6.3612
   33.180    6.4560
   33.195    6.7720
   33.210    6.7299
   33.225    6.7088
   33.240    6.7720
   33.255    6.3086
   33.270    6.6772
   33.285    6.4982
   33.300    6.1717
   33.315    6.4982
   33.330    6.8246
   33.345    6.2770
   33.360    6.2033
   33.375    6.4982
   33.390    6.5087
   33.405    6.4139
   33.420    6.4666
   33.435    6.4350
   33.450    6.4876
   33.465    6.7930
   33.480    6.7509
   33.495    6.4244
   33.510    6.2981
   33.525    6.1822
   33.540    6.3823
   33.555    6.4034
   33.570    6.4560
   33.585    6.5824
   33.600    6.0874
   33.615    6.2981
   33.630    6.4034
   33.645    6.0664
   33.660    6.2454
   33.675    6.6561
   33.690    6.7509
   33.705    6.8036
   33.720    6.3507
   33.735    6.8352
   33.750    6.8246
   33.765    6.4666
   33.780    6.6351
   33.795    6.5403
   33.810    6.4982
   33.825    6.6877
   33.840    6.3296
   33.855    6.4876
   33.870    6.3718
   33.885    6.3612
   33.900    5.8031
   33.915    5.9926
   33.930    5.9716
   33.945    6.1085
   33.960    6.2559
   33.975    6.0874
   33.990    6.2770
   34.005    6.4455
   34.020    6.3402
   34.035    6.3191
   34.050    6.4244
   34.065    6.1927
   34.080    5.9821
   34.095    6.5403
   34.110    6.3718
   34.125    6.4666
   34.140    6.6561
   34.155    6.6772
   34.170    6.6456
   34.185    6.5508
   34.200    6.4771
   34.215    6.4771
   34.230    6.1085
   34.245    6.1401
   34.260    6.1190
   34.275    6.4244
   34.290    6.2559
   34.305    6.4244
   34.320    6.2875
   34.335    6.2559
   34.350    6.3296
   34.365    6.4771
   34.380    5.9610
   34.395    6.0137
   34.410    6.4982
   34.425    6.4560
   34.440    6.2033
   34.455    6.0664
   34.470    6.0558
   34.485    6.2875
   34.500    6.1927
   34.515    6.2981
   34.530    6.5613
   34.545    6.6983
   34.560    6.3612
   34.575    6.4244
   34.590    6.3191
   34.605    6.4034
   34.620    6.8878
   34.635    6.3402
   34.650    6.1611
   34.665    6.3928
   34.680    6.4455
   34.695    6.6456
   34.710    6.4876
   34.725    6.5403
   34.740    6.1611
   34.755    6.3402
   34.770    6.3612
   34.785    6.2981
   34.800    6.2559
   34.815    6.2559
   34.830    6.5719
   34.845    6.1822
   34.860    6.2875
   34.875    6.6877
   34.890    6.3718
   34.905    6.3402
   34.920    6.3928
   34.935    6.3928
   34.950    5.8873
   34.965    6.0453
   34.980    5.9926
   34.995    5.9505
   35.010    5.8873
   35.025    6.2665
   35.040    6.0979
   35.055    6.1401
   35.070    6.3823
   35.085    6.4666
   35.100    6.5719
   35.115    6.3402
   35.130    6.1085
   35.145    6.0979
   35.160    6.2349
   35.175    5.8768
   35.190    6.2559
   35.205    6.5824
   35.220    6.3507
   35.235    6.5403
   35.250    6.2875
   35.265    6.4876
   35.280    6.1822
   35.295    6.3718
   35.310    6.3823
   35.325    6.2770
   35.340    6.3086
   35.355    6.3086
   35.370    6.2875
   35.385    6.5719
   35.400    6.3823
   35.415    6.0874
   35.430    6.2770
   35.445    6.1717
   35.460    6.1295
   35.475    6.2033
   35.490    6.6772
   35.505    6.6772
   35.520    6.6667
   35.535    6.4876
   35.550    6.5298
   35.565    6.2875
   35.580    6.5613
   35.595    6.1085
   35.610    6.0558
   35.625    6.1822
   35.640    5.9505
   35.655    6.5403
   35.670    6.4560
   35.685    6.4666
   35.700    6.3612
   35.715    6.1717
   35.730    6.5087
   35.745    6.4350
   35.760    6.1717
   35.775    6.0769
   35.790    6.3612
   35.805    6.3823
   35.820    6.4560
   35.835    6.0032
   35.850    5.8241
   35.865    5.8768
   35.880    5.7609
   35.895    6.0979
   35.910    6.3191
   35.925    6.0242
   35.940    6.3507
   35.955    6.0032
   35.970    6.0664
   35.985    6.0769
   36.000    6.0242
   36.015    5.9926
   36.030    6.4455
   36.045    5.9821
   36.060    5.9294
   36.075    6.3296
   36.090    6.3823
   36.105    6.4982
   36.120    6.4560
   36.135    6.4666
   36.150    6.3612
   36.165    6.3296
   36.180    6.3086
   36.195    5.9084
   36.210    6.1822
   36.225    6.1927
   36.240    6.1401
   36.255    5.8241
   36.270    5.8452
   36.285    6.2243
   36.300    6.0242
   36.315    5.7820
   36.330    5.6556
   36.345    6.0242
   36.360    6.3191
   36.375    6.1085
   36.390    5.9400
   36.405    6.2349
   36.420    6.3191
   36.435    6.0558
   36.450    6.5192
   36.465    6.1927
   36.480    6.2981
   36.495    6.0874
   36.510    6.0874
   36.525    5.9821
   36.540    5.9716
   36.555    6.3296
   36.570    5.9505
   36.585    5.9505
   36.600    6.0348
   36.615    6.0874
   36.630    6.1295
   36.645    6.5613
   36.660    6.5192
   36.675    5.9610
   36.690    6.0558
   36.705    6.4350
   36.720    5.8347
   36.735    5.9610
   36.750    6.5824
   36.765    6.2033
   36.780    5.9716
   36.795    5.8452
   36.810    6.2138
   36.825    5.9716
   36.840    6.2559
   36.855    6.0558
   36.870    6.2138
   36.885    6.0558
   36.900    6.0979
   36.915    6.0558
   36.930    6.3718
   36.945    6.0453
   36.960    6.0664
   36.975    6.2243
   36.990    6.1085
   37.005    6.2454
   37.020    5.9294
   37.035    5.7504
   37.050    5.8662
   37.065    5.8452
   37.080    6.0874
   37.095    6.0032
   37.110    6.1085
   37.125    6.2875
   37.140    5.9505
   37.155    6.1085
   37.170    6.0032
   37.185    6.2559
   37.200    6.0558
   37.215    6.1295
   37.230    6.1822
   37.245    6.1190
   37.260    5.9821
   37.275    6.1611
   37.290    5.7188
   37.305    5.9505
   37.320    6.1611
   37.335    5.7715
   37.350    6.0348
   37.365    5.6661
   37.380    6.1401
   37.395    6.1611
   37.410    6.1717
   37.425    6.2665
   37.440    6.1611
   37.455    6.4034
   37.470    6.2138
   37.485    6.2138
   37.500    6.3296
   37.515    5.9926
   37.530    5.9716
   37.545    5.9610
   37.560    6.2138
   37.575    6.0348
   37.590    6.0558
   37.605    5.9505
   37.620    6.0453
   37.635    6.4560
   37.650    6.0979
   37.665    5.8557
   37.680    6.4982
   37.695    6.1717
   37.710    5.8873
   37.725    5.7925
   37.740    6.1611
   37.755    6.2665
   37.770    6.2559
   37.785    6.2559
   37.800    5.7820
   37.815    6.0348
   37.830    6.3296
   37.845    5.9189
   37.860    5.9505
   37.875    5.9294
   37.890    6.2559
   37.905    6.1401
   37.920    6.2770
   37.935    6.5087
   37.950    6.4666
   37.965    6.0979
   37.980    6.2981
   37.995    5.9716
   38.010    6.2559
   38.025    6.1190
   38.040    6.1190
   38.055    5.9716
   38.070    6.1822
   38.085    5.7293
   38.100    6.0032
   38.115    6.2349
   38.130    5.9610
   38.145    6.1295
   38.160    6.3507
   38.175    6.1611
   38.190    6.0664
   38.205    5.9716
   38.220    5.8662
   38.235    5.9400
   38.250    6.0242
   38.265    6.1611
   38.280    6.2138
   38.295    6.0453
   38.310    6.1717
   38.325    6.0874
   38.340    6.0137
   38.355    6.2243
   38.370    5.6872
   38.385    5.8452
   38.400    6.0453
   38.415    6.1085
   38.430    5.8557
   38.445    5.9926
   38.460    6.0558
   38.475    6.1506
   38.490    6.1190
   38.505    6.4034
   38.520    5.9716
   38.535    6.0874
   38.550    5.8768
   38.565    6.0979
   38.580    6.2243
   38.595    6.1506
   38.610    6.4350
   38.625    6.1295
   38.640    5.7820
   38.655    6.0137
   38.670    6.1717
   38.685    6.3296
   38.700    5.9610
   38.715    5.9926
   38.730    6.0874
   38.745    6.0137
   38.760    6.0453
   38.775    6.1717
   38.790    5.6661
   38.805    5.9926
   38.820    5.8662
   38.835    5.6872
   38.850    6.2138
   38.865    5.8662
   38.880    6.0769
   38.895    6.3507
   38.910    6.0348
   38.925    6.1401
   38.940    5.6029
   38.955    6.1506
   38.970    6.1190
   38.985    6.2243
   39.000    6.5403
   39.015    6.3191
   39.030    5.9505
   39.045    6.1506
   39.060    6.1927
   39.075    6.4982
   39.090    5.9505
   39.105    5.9505
   39.120    5.7609
   39.135    6.2981
   39.150    5.9716
   39.165    6.1822
   39.180    5.4976
   39.195    5.9821
   39.210    5.8241
   39.225    6.2138
   39.240    5.8662
   39.255    6.3086
   39.270    5.9821
   39.285    6.0137
   39.300    5.8662
   39.315    6.2665
   39.330    6.3823
   39.345    6.0874
   39.360    5.8241
   39.375    5.8873
   39.390    6.2349
   39.405    5.6767
   39.420    6.2559
   39.435    6.1506
   39.450    5.9294
   39.465    5.8768
   39.480    6.0242
   39.495    6.2349
   39.510    6.0558
   39.525    6.0137
   39.540    6.5298
   39.555    6.5298
   39.570    6.1506
   39.585    5.9821
   39.600    6.0979
   39.615    6.3191
   39.630    6.2665
   39.645    6.2665
   39.660    5.8347
   39.675    5.7399
   39.690    5.7715
   39.705    6.0137
   39.720    6.4666
   39.735    6.3612
   39.750    5.8662
   39.765    5.8768
   39.780    5.7293
   39.795    5.9189
   39.810    6.0874
   39.825    6.0453
   39.840    5.8347
   39.855    6.1401
   39.870    5.9084
   39.885    5.6872
   39.900    5.6240
   39.915    6.0874
   39.930    5.6240
   39.945    5.9294
   39.960    5.9505
   39.975    6.0874
   39.990    6.1717
