    1.500   36.8720
    1.515   36.8404
    1.530   36.9036
    1.545   37.3249
    1.560   38.3360
    1.575   38.2833
    1.590   38.4202
    1.605   38.9468
    1.620   39.2312
    1.635   39.3576
    1.650   39.0311
    1.665   39.2838
    1.680   40.4318
    1.695   41.1585
    1.710   41.1269
    1.725   41.9063
    1.740   41.5166
    1.755   41.3691
    1.770   41.9484
    1.785   43.2228
    1.800   43.5598
    1.815   44.3075
    1.830   44.6867
    1.845   45.6345
    1.860   45.8768
    1.875   45.0764
    1.890   47.7093
    1.905   48.6572
    1.920   49.8894
    1.935   49.5313
    1.950   49.7420
    1.965   50.7214
    1.980   53.4702
    1.995   52.9437
    2.010   53.0174
    2.025   54.1232
    2.040   55.3449
    2.055   57.5040
    2.070   58.1780
    2.085   59.1259
    2.100   61.3797
    2.115   63.6546
    2.130   64.7393
    2.145   65.3713
    2.160   65.3607
    2.175   68.0990
    2.190   68.7520
    2.205   70.8689
    2.220   74.2707
    2.235   76.7351
    2.250   77.1459
    2.265   77.7251
    2.280   79.5261
    2.295   82.6119
    2.310   84.8447
    2.325   87.0774
    2.340   88.3307
    2.355   92.4171
    2.370   95.5029
    2.385   97.7883
    2.400  101.6324
    2.415  104.9816
    2.430  107.4355
    2.445  111.6272
    2.460  112.9015
    2.475  118.7994
    2.490  121.6956
    2.505  127.3196
    2.520  130.5740
    2.535  135.8715
    2.550  141.2533
    2.565  148.8046
    2.580  155.8820
    2.595  161.1796
    2.610  169.3734
    2.625  177.3776
    2.640  185.8768
    2.655  196.7773
    2.670  207.8884
    2.685  220.1790
    2.700  235.7557
    2.715  248.4887
    2.730  259.6525
    2.745  271.9853
    2.760  279.1785
    2.775  283.4439
    2.790  281.8010
    2.805  272.2486
    2.820  256.6298
    2.835  233.7546
    2.850  206.8247
    2.865  177.8515
    2.880  150.7952
    2.895  124.6551
    2.910  105.2449
    2.925   89.8789
    2.940   74.1338
    2.955   62.2644
    2.970   52.5329
    2.985   45.9294
    3.000   40.5582
    3.015   36.3349
    3.030   31.6272
    3.045   28.5413
    3.060   26.0558
    3.075   23.6230
    3.090   21.3375
    3.105   20.3476
    3.120   18.4623
    3.135   17.9463
    3.150   16.4192
    3.165   15.8820
    3.180   15.3133
    3.195   14.6393
    3.210   14.2707
    3.225   13.1122
    3.240   12.5118
    3.255   12.3539
    3.270   11.8694
    3.285   11.5956
    3.300   11.5534
    3.315   10.8373
    3.330   11.1638
    3.345   10.6372
    3.360    9.9315
    3.375    9.6893
    3.390   10.0369
    3.405    9.5419
    3.420    9.5313
    3.435    9.2470
    3.450    9.0258
    3.465    8.7730
    3.480    8.9205
    3.495    8.8257
    3.510    8.9415
    3.525    8.3518
    3.540    8.2886
    3.555    8.3518
    3.570    8.3939
    3.585    8.0042
    3.600    8.1517
    3.615    7.6777
    3.630    7.9516
    3.645    7.6672
    3.660    7.8989
    3.675    7.7936
    3.690    7.7514
    3.705    8.2254
    3.720    7.8778
    3.735    7.7620
    3.750    7.7199
    3.765    7.6461
    3.780    7.9094
    3.795    8.0885
    3.810    7.6883
    3.825    7.1195
    3.840    7.8357
    3.855    7.6567
    3.870    7.5408
    3.885    7.5303
    3.900    7.6040
    3.915    7.4671
    3.930    7.4882
    3.945    7.9094
    3.960    8.0147
    3.975    7.8884
    3.990    8.1411
    4.005    7.8568
    4.020    7.8989
    4.035    8.1306
    4.050    8.2780
    4.065    8.4992
    4.080    8.6256
    4.095    8.4676
    4.110    8.4150
    4.125    8.1727
    4.140    8.4150
    4.155    8.7836
    4.170    8.7836
    4.185    8.8994
    4.200    9.1943
    4.215    9.1417
    4.230    9.5313
    4.245    9.5629
    4.260    9.7630
    4.275    9.3628
    4.290    9.8157
    4.305   10.2054
    4.320    9.8578
    4.335   10.1738
    4.350   10.2054
    4.365   10.5529
    4.380   10.9847
    4.395   10.4265
    4.410   10.7004
    4.425   11.3849
    4.440   11.3639
    4.455   11.7009
    4.470   11.9537
    4.485   12.2907
    4.500   12.7751
    4.515   13.1964
    4.530   13.3649
    4.545   13.4492
    4.560   13.6177
    4.575   14.7551
    4.590   14.9552
    4.605   15.5029
    4.620   16.3033
    4.635   16.5350
    4.650   17.3460
    4.665   17.7251
    4.680   18.4834
    4.695   19.7788
    4.710   20.8636
    4.725   21.6956
    4.740   21.8747
    4.755   23.6440
    4.770   24.4339
    4.785   25.4871
    4.800   26.9510
    4.815   26.9300
    4.830   27.1827
    4.845   26.8141
    4.860   26.1190
    4.875   25.1185
    4.890   23.6862
    4.905   21.8536
    4.920   20.2844
    4.935   18.5255
    4.950   16.3454
    4.965   14.5550
    4.980   13.8073
    4.995   12.5750
    5.010   12.2591
    5.025   12.0484
    5.040   11.4376
    5.055   11.1954
    5.070   11.4587
    5.085   11.2375
    5.100   11.3323
    5.115   11.3849
    5.130   11.5640
    5.145   11.6272
    5.160   12.0800
    5.175   12.6698
    5.190   12.8383
    5.205   12.6804
    5.220   13.5440
    5.235   14.1022
    5.250   14.2707
    5.265   15.2607
    5.280   15.5240
    5.295   16.5140
    5.310   16.9668
    5.325   17.1248
    5.340   18.0727
    5.355   19.1890
    5.370   20.2212
    5.385   20.6635
    5.400   22.3802
    5.415   23.7072
    5.430   24.4866
    5.445   26.7088
    5.460   28.2570
    5.475   29.6788
    5.490   31.3639
    5.505   33.0490
    5.520   35.5872
    5.535   36.8510
    5.550   38.8099
    5.565   40.5582
    5.580   41.2744
    5.595   41.3270
    5.610   40.0948
    5.625   37.8199
    5.640   36.0611
    5.655   32.4381
    5.670   29.1417
    5.685   26.7615
    5.700   22.4434
    5.715   19.4839
    5.730   17.6619
    5.745   16.4297
    5.760   15.0184
    5.775   13.7441
    5.790   12.3749
    5.805   11.3849
    5.820   10.8057
    5.835    9.5840
    5.850    9.0995
    5.865    8.8152
    5.880    8.8573
    5.895    8.5203
    5.910    8.0569
    5.925    8.3096
    5.940    7.7199
    5.955    7.6040
    5.970    7.0669
    5.985    6.9510
    6.000    6.4139
    6.015    6.1506
    6.030    6.2770
    6.045    6.2770
    6.060    6.2349
    6.075    6.1927
    6.090    6.0979
    6.105    6.2559
    6.120    5.7188
    6.135    5.6556
    6.150    5.8241
    6.165    5.4660
    6.180    5.5082
    6.195    5.3291
    6.210    5.4766
    6.225    5.4976
    6.240    5.6240
    6.255    5.2238
    6.270    5.1711
    6.285    5.4555
    6.300    5.6240
    6.315    5.6767
    6.330    5.2449
    6.345    5.4871
    6.360    5.2238
    6.375    5.3186
    6.390    5.3923
    6.405    5.7820
    6.420    5.5187
    6.435    4.9289
    6.450    5.4555
    6.465    5.2554
    6.480    5.1080
    6.495    5.4871
    6.510    5.0553
    6.525    5.2870
    6.540    5.3923
    6.555    5.3081
    6.570    5.3923
    6.585    5.3186
    6.600    5.1290
    6.615    5.5714
    6.630    5.4660
    6.645    5.1922
    6.660    5.2343
    6.675    5.5608
    6.690    5.8136
    6.705    5.7925
    6.720    5.6767
    6.735    5.9400
    6.750    5.6345
    6.765    5.6872
    6.780    6.1085
    6.795    5.9400
    6.810    5.8768
    6.825    6.0664
    6.840    6.1190
    6.855    6.4666
    6.870    6.6667
    6.885    6.5719
    6.900    6.8036
    6.915    6.5192
    6.930    6.7615
    6.945    6.8773
    6.960    6.9826
    6.975    7.3934
    6.990    7.5619
    7.005    8.0569
    7.020    8.3623
    7.035    8.1517
    7.050    8.1201
    7.065    8.9205
    7.080    9.0574
    7.095    9.3207
    7.110    9.7525
    7.125   10.3318
    7.140   10.5635
    7.155   11.3112
    7.170   11.6798
    7.185   11.9115
    7.200   12.1116
    7.215   12.6804
    7.230   13.9021
    7.245   14.9868
    7.260   15.4081
    7.275   16.3454
    7.290   17.0721
    7.305   18.0411
    7.320   18.5993
    7.335   19.6840
    7.350   20.8110
    7.365   21.6430
    7.380   22.4855
    7.395   22.4750
    7.410   22.0221
    7.425   21.4323
    7.440   21.2322
    7.455   19.4207
    7.470   18.0516
    7.485   16.2928
    7.500   13.9021
    7.515   13.0068
    7.530   11.8378
    7.545   10.3002
    7.560    9.3523
    7.575    9.1943
    7.590    8.3939
    7.605    7.4460
    7.620    6.9194
    7.635    6.6667
    7.650    6.3507
    7.665    6.0769
    7.680    6.0453
    7.695    5.9610
    7.710    5.7188
    7.725    5.5082
    7.740    5.7715
    7.755    5.4028
    7.770    5.0764
    7.785    5.2343
    7.800    5.2449
    7.815    5.0869
    7.830    4.9605
    7.845    4.9289
    7.860    5.1080
    7.875    4.5392
    7.890    4.6235
    7.905    4.8131
    7.920    5.1080
    7.935    4.8131
    7.950    4.7709
    7.965    4.4760
    7.980    4.2759
    7.995    4.7077
    8.010    4.6867
    8.025    4.5919
    8.040    4.7709
    8.055    4.6024
    8.070    4.4339
    8.085    4.4023
    8.100    4.2127
    8.115    4.3497
    8.130    4.6340
    8.145    4.5392
    8.160    4.5814
    8.175    4.0864
    8.190    4.3075
    8.205    4.4550
    8.220    4.6445
    8.235    4.7183
    8.250    4.5708
    8.265    4.4234
    8.280    4.1601
    8.295    4.0758
    8.310    4.4444
    8.325    4.5287
    8.340    4.3497
    8.355    4.5287
    8.370    4.4655
    8.385    4.7393
    8.400    4.5076
    8.415    4.3813
    8.430    4.7709
    8.445    4.9289
    8.460    4.4444
    8.475    4.7288
    8.490    4.2970
    8.505    4.3707
    8.520    4.3497
    8.535    4.3181
    8.550    4.3918
    8.565    4.2865
    8.580    4.8973
    8.595    4.8341
    8.610    4.7183
    8.625    4.4971
    8.640    4.3602
    8.655    4.5919
    8.670    4.1496
    8.685    4.0232
    8.700    4.1074
    8.715    4.3813
    8.730    4.5498
    8.745    4.4234
    8.760    4.3707
    8.775    4.5498
    8.790    4.4234
    8.805    4.2759
    8.820    3.9073
    8.835    4.3497
    8.850    4.3497
    8.865    4.2549
    8.880    4.1285
    8.895    4.1601
    8.910    4.0864
    8.925    4.0548
    8.940    4.3286
    8.955    4.4339
    8.970    4.3707
    8.985    4.3918
    9.000    4.0126
    9.015    4.0653
    9.030    4.3286
    9.045    4.3707
    9.060    4.2970
    9.075    4.3497
    9.090    4.4655
    9.105    4.2549
    9.120    4.1496
    9.135    4.2970
    9.150    4.3918
    9.165    4.4023
    9.180    4.5708
    9.195    4.4234
    9.210    4.3707
    9.225    4.4128
    9.240    4.2759
    9.255    4.4655
    9.270    4.6024
    9.285    4.4234
    9.300    4.2443
    9.315    4.8447
    9.330    4.8657
    9.345    4.9605
    9.360    4.8131
    9.375    4.4866
    9.390    4.6972
    9.405    4.6656
    9.420    4.8763
    9.435    4.9605
    9.450    5.1501
    9.465    5.0658
    9.480    5.2765
    9.495    5.2554
    9.510    5.2659
    9.525    5.5082
    9.540    6.0979
    9.555    5.8241
    9.570    5.9505
    9.585    6.2875
    9.600    6.3402
    9.615    6.7404
    9.630    6.7615
    9.645    7.4250
    9.660    7.6356
    9.675    7.7304
    9.690    8.0253
    9.705    7.7304
    9.720    7.4566
    9.735    7.5724
    9.750    7.0774
    9.765    6.7615
    9.780    6.6983
    9.795    6.1717
    9.810    5.7609
    9.825    5.9505
    9.840    5.6240
    9.855    5.3923
    9.870    5.0974
    9.885    4.8868
    9.900    4.7077
    9.915    4.5182
    9.930    4.7288
    9.945    4.7288
    9.960    4.4971
    9.975    4.5919
    9.990    5.0026
   10.005    4.7288
   10.020    4.7709
   10.035    4.5182
   10.050    4.1811
   10.065    4.6235
   10.080    4.5392
   10.095    4.4444
   10.110    4.7815
   10.125    4.6235
   10.140    4.6130
   10.155    4.5287
   10.170    4.3918
   10.185    4.0337
   10.200    3.8757
   10.215    4.2022
   10.230    4.3918
   10.245    3.8652
   10.260    3.8336
   10.275    3.4966
   10.290    3.7072
   10.305    3.9179
   10.320    3.6124
   10.335    3.7177
   10.350    3.7177
   10.365    3.7493
   10.380    3.7809
   10.395    3.7599
   10.410    3.7072
   10.425    3.9179
   10.440    3.5914
   10.455    3.7388
   10.470    3.6440
   10.485    3.7388
   10.500    3.7388
   10.515    3.8652
   10.530    3.7809
   10.545    3.8336
   10.560    3.9810
   10.575    3.6967
   10.590    3.5808
   10.605    3.4439
   10.620    3.7599
   10.635    3.8020
   10.650    3.7809
   10.665    3.9810
   10.680    3.8336
   10.695    3.8863
   10.710    4.0337
   10.725    3.9389
   10.740    3.9705
   10.755    3.7704
   10.770    3.8020
   10.785    3.7809
   10.800    3.6546
   10.815    3.7072
   10.830    3.4755
   10.845    3.6019
   10.860    3.3386
   10.875    3.6862
   10.890    3.8547
   10.905    3.7177
   10.920    3.4755
   10.935    3.4123
   10.950    3.7388
   10.965    4.1601
   10.980    3.8231
   10.995    3.9284
   11.010    3.6335
   11.025    3.7493
   11.040    3.7388
   11.055    3.7704
   11.070    4.0864
   11.085    3.7388
   11.100    3.8547
   11.115    3.7283
   11.130    3.4966
   11.145    3.7283
   11.160    3.6019
   11.175    3.7388
   11.190    3.8547
   11.205    3.9494
   11.220    3.8231
   11.235    3.9284
   11.250    3.7283
   11.265    3.8231
   11.280    3.5492
   11.295    3.8336
   11.310    4.1496
   11.325    4.0021
   11.340    3.9810
   11.355    3.6651
   11.370    3.7388
   11.385    3.7493
   11.400    3.8757
   11.415    3.8231
   11.430    3.8231
   11.445    3.9389
   11.460    3.9494
   11.475    3.9179
   11.490    3.8757
   11.505    4.0232
   11.520    3.9179
   11.535    4.1811
   11.550    3.7177
   11.565    3.6546
   11.580    3.8020
   11.595    4.1285
   11.610    4.1917
   11.625    4.0232
   11.640    4.1285
   11.655    4.0653
   11.670    4.2865
   11.685    4.1390
   11.700    3.8652
   11.715    3.8441
   11.730    4.0653
   11.745    3.9494
   11.760    3.7177
   11.775    3.7915
   11.790    3.8020
   11.805    4.1180
   11.820    3.8968
   11.835    3.9705
   11.850    3.8020
   11.865    3.7704
   11.880    3.8125
   11.895    3.8231
   11.910    3.5914
   11.925    3.5598
   11.940    3.5914
   11.955    3.6651
   11.970    3.7283
   11.985    3.6124
   12.000    3.6651
   12.015    3.8441
   12.030    3.8231
   12.045    3.9284
   12.060    3.6967
   12.075    3.6651
   12.090    3.9389
   12.105    4.0969
   12.120    4.0653
   12.135    3.8547
   12.150    3.8863
   12.165    4.1601
   12.180    4.5603
   12.195    4.2549
   12.210    4.2338
   12.225    4.1706
   12.240    3.9705
   12.255    3.7915
   12.270    3.9600
   12.285    4.1811
   12.300    4.1811
   12.315    3.9810
   12.330    3.8757
   12.345    3.9705
   12.360    3.8231
   12.375    3.5282
   12.390    3.5808
   12.405    3.6335
   12.420    3.9284
   12.435    3.8441
   12.450    3.7283
   12.465    3.6335
   12.480    3.6230
   12.495    3.6440
   12.510    3.6967
   12.525    3.7809
   12.540    3.7915
   12.555    3.6546
   12.570    3.8020
   12.585    3.6335
   12.600    3.6335
   12.615    3.8125
   12.630    3.7704
   12.645    3.7704
   12.660    3.8231
   12.675    3.7072
   12.690    3.8968
   12.705    3.7388
   12.720    3.6651
   12.735    3.5808
   12.750    3.7809
   12.765    3.6546
   12.780    4.0864
   12.795    4.0021
   12.810    4.0337
   12.825    3.6862
   12.840    3.9810
   12.855    3.5703
   12.870    3.4018
   12.885    3.4755
   12.900    3.5176
   12.915    3.8441
   12.930    3.8757
   12.945    3.7809
   12.960    3.8968
   12.975    4.0548
   12.990    3.9284
   13.005    3.6967
   13.020    3.8125
   13.035    3.7809
   13.050    3.8547
   13.065    3.8125
   13.080    3.6862
   13.095    3.8968
   13.110    3.9600
   13.125    4.0864
   13.140    3.7809
   13.155    3.7493
   13.170    3.7493
   13.185    3.5914
   13.200    3.6019
   13.215    3.7072
   13.230    3.7283
   13.245    3.8968
   13.260    3.8547
   13.275    3.6756
   13.290    3.7388
   13.305    3.7072
   13.320    3.8968
   13.335    3.7072
   13.350    3.5914
   13.365    3.5387
   13.380    3.4123
   13.395    3.5492
   13.410    3.5703
   13.425    3.7283
   13.440    3.9284
   13.455    4.0969
   13.470    4.0548
   13.485    3.8757
   13.500    3.7388
   13.515    3.6230
   13.530    3.7493
   13.545    3.7599
   13.560    3.7388
   13.575    3.9705
   13.590    3.8441
   13.605    3.8231
   13.620    3.7283
   13.635    3.6967
   13.650    4.2233
   13.665    3.9284
   13.680    4.3707
   13.695    4.2022
   13.710    3.8441
   13.725    3.9810
   13.740    4.1811
   13.755    3.9284
   13.770    3.9916
   13.785    4.1601
   13.800    4.0337
   13.815    3.9705
   13.830    3.7809
   13.845    4.3813
   13.860    4.2549
   13.875    4.1074
   13.890    4.0548
   13.905    4.0232
   13.920    4.0232
   13.935    4.1811
   13.950    4.1601
   13.965    4.4760
   13.980    4.3075
   13.995    4.7288
   14.010    4.6024
   14.025    4.3813
   14.040    4.5814
   14.055    4.6340
   14.070    4.4444
   14.085    4.4023
   14.100    4.4339
   14.115    4.5287
   14.130    4.4655
   14.145    4.4128
   14.160    4.7077
   14.175    4.4760
   14.190    4.5076
   14.205    4.4760
   14.220    4.4444
   14.235    4.3391
   14.250    4.4550
   14.265    4.5392
   14.280    4.3602
   14.295    4.4444
   14.310    4.1496
   14.325    4.2233
   14.340    4.2338
   14.355    4.1706
   14.370    4.1706
   14.385    4.0021
   14.400    4.4655
   14.415    4.2759
   14.430    4.1390
   14.445    3.9389
   14.460    4.2022
   14.475    4.3918
   14.490    4.1285
   14.505    4.2549
   14.520    4.2127
   14.535    4.1601
   14.550    4.2865
   14.565    4.3707
   14.580    3.9179
   14.595    3.9810
   14.610    4.0442
   14.625    3.7072
   14.640    3.8231
   14.655    3.8125
   14.670    3.8547
   14.685    4.1180
   14.700    4.1285
   14.715    4.2233
   14.730    4.1917
   14.745    4.2865
   14.760    4.0653
   14.775    3.8652
   14.790    3.9916
   14.805    3.8441
   14.820    4.1917
   14.835    4.3707
   14.850    4.0864
   14.865    4.2654
   14.880    4.0548
   14.895    4.0758
   14.910    3.9494
   14.925    3.8441
   14.940    4.0126
   14.955    4.0758
   14.970    3.8757
   14.985    4.0653
   15.000    3.9494
   15.015    4.0232
   15.030    3.9389
   15.045    3.9494
   15.060    4.0548
   15.075    4.0232
   15.090    4.1180
   15.105    3.8125
   15.120    3.8547
   15.135    4.0442
   15.150    4.1811
   15.165    4.2233
   15.180    4.1390
   15.195    4.0442
   15.210    3.8336
   15.225    3.8231
   15.240    3.9705
   15.255    4.2022
   15.270    3.8125
   15.285    3.8336
   15.300    3.9389
   15.315    4.1390
   15.330    4.0126
   15.345    3.8968
   15.360    4.0969
   15.375    3.7809
   15.390    3.7809
   15.405    4.0969
   15.420    4.1496
   15.435    4.1074
   15.450    4.2865
   15.465    4.0758
   15.480    3.9389
   15.495    3.8968
   15.510    4.1496
   15.525    3.9916
   15.540    3.9600
   15.555    4.0021
   15.570    4.1601
   15.585    4.1706
   15.600    4.2233
   15.615    3.9600
   15.630    3.8968
   15.645    3.8968
   15.660    3.7599
   15.675    4.0758
   15.690    4.2865
   15.705    4.0126
   15.720    3.7072
   15.735    4.0126
   15.750    3.8547
   15.765    3.6440
   15.780    3.9600
   15.795    4.1496
   15.810    3.9494
   15.825    4.0653
   15.840    3.9810
   15.855    3.7704
   15.870    3.9284
   15.885    4.0442
   15.900    3.7388
   15.915    3.7283
   15.930    3.7915
   15.945    4.1390
   15.960    4.0442
   15.975    3.7283
   15.990    3.8968
   16.005    3.8336
   16.020    4.0758
   16.035    4.0653
   16.050    4.2549
   16.065    3.9810
   16.080    4.0126
   16.095    4.1180
   16.110    4.0126
   16.125    3.9284
   16.140    4.0653
   16.155    4.1601
   16.170    4.2443
   16.185    4.1496
   16.200    4.1180
   16.215    3.8757
   16.230    4.1601
   16.245    4.2233
   16.260    4.4444
   16.275    4.4234
   16.290    4.0864
   16.305    3.9284
   16.320    4.0021
   16.335    4.0548
   16.350    4.1917
   16.365    4.2443
   16.380    4.2233
   16.395    3.9284
   16.410    3.8336
   16.425    3.9810
   16.440    3.9705
   16.455    4.1074
   16.470    4.1180
   16.485    3.9916
   16.500    4.0232
   16.515    4.2865
   16.530    3.8441
   16.545    3.9284
   16.560    3.9284
   16.575    3.8231
   16.590    3.7493
   16.605    3.8652
   16.620    4.0653
   16.635    3.5598
   16.650    3.8441
   16.665    3.6124
   16.680    3.9600
   16.695    3.8336
   16.710    3.8863
   16.725    3.8125
   16.740    3.8441
   16.755    3.8547
   16.770    4.0337
   16.785    4.0337
   16.800    3.8336
   16.815    3.5387
   16.830    3.7072
   16.845    3.9916
   16.860    3.7072
   16.875    3.7915
   16.890    3.8125
   16.905    3.7809
   16.920    3.8125
   16.935    3.8757
   16.950    3.7809
   16.965    4.0126
   16.980    3.5808
   16.995    3.9600
   17.010    4.0126
   17.025    3.9284
   17.040    4.0126
   17.055    3.5071
   17.070    3.8441
   17.085    4.2443
   17.100    3.7493
   17.115    3.7704
   17.130    3.9600
   17.145    4.0232
   17.160    3.9389
   17.175    3.9705
   17.190    3.8231
   17.205    4.1285
   17.220    3.7072
   17.235    3.7599
   17.250    3.9494
   17.265    3.9600
   17.280    3.9073
   17.295    3.8652
   17.310    3.9389
   17.325    4.0021
   17.340    4.1811
   17.355    4.2127
   17.370    4.3918
   17.385    3.8441
   17.400    3.8020
   17.415    3.8441
   17.430    3.7915
   17.445    4.2443
   17.460    3.8757
   17.475    3.9705
   17.490    4.1917
   17.505    4.0021
   17.520    4.0126
   17.535    4.3181
   17.550    4.2022
   17.565    3.5808
   17.580    4.2233
   17.595    4.0969
   17.610    3.8863
   17.625    3.6651
   17.640    4.0969
   17.655    4.0653
   17.670    4.2549
   17.685    4.0758
   17.700    4.0232
   17.715    3.6651
   17.730    3.8547
   17.745    3.9600
   17.760    4.2127
   17.775    3.9705
   17.790    3.8125
   17.805    4.0442
   17.820    4.2443
   17.835    4.0969
   17.850    4.1496
   17.865    4.1496
   17.880    4.0337
   17.895    3.7915
   17.910    3.9494
   17.925    4.0969
   17.940    4.0021
   17.955    4.0758
   17.970    3.9284
   17.985    4.1074
   18.000    3.9494
   18.015    3.7283
   18.030    4.2127
   18.045    4.1180
   18.060    4.0758
   18.075    4.0548
   18.090    4.1811
   18.105    4.1180
   18.120    3.7599
   18.135    3.8547
   18.150    4.0969
   18.165    3.9284
   18.180    3.8231
   18.195    3.8863
   18.210    4.1601
   18.225    4.2654
   18.240    3.9179
   18.255    3.7493
   18.270    4.1706
   18.285    3.9179
   18.300    4.1074
   18.315    4.0969
   18.330    4.1180
   18.345    4.0758
   18.360    4.1917
   18.375    4.3497
   18.390    4.1285
   18.405    4.0021
   18.420    3.9284
   18.435    3.8020
   18.450    3.9284
   18.465    4.0021
   18.480    3.7283
   18.495    3.8652
   18.510    4.1074
   18.525    3.9810
   18.540    3.9179
   18.555    3.9494
   18.570    3.8336
   18.585    3.8020
   18.600    3.8863
   18.615    4.2338
   18.630    4.1496
   18.645    3.8757
   18.660    4.0758
   18.675    3.8125
   18.690    3.8968
   18.705    3.9073
   18.720    3.9494
   18.735    3.9073
   18.750    3.8968
   18.765    4.1811
   18.780    3.9916
   18.795    3.9494
   18.810    3.7704
   18.825    4.0653
   18.840    4.2127
   18.855    4.0021
   18.870    4.0232
   18.885    3.9284
   18.900    4.0548
   18.915    3.9705
   18.930    3.8968
   18.945    4.0864
   18.960    3.8652
   18.975    3.8968
   18.990    3.7704
   19.005    4.0653
   19.020    3.9179
   19.035    4.0548
   19.050    4.0021
   19.065    3.8547
   19.080    3.8968
   19.095    3.9494
   19.110    3.9073
   19.125    4.0021
   19.140    3.7809
   19.155    4.0548
   19.170    3.8336
   19.185    3.7915
   19.200    3.7809
   19.215    3.7704
   19.230    4.1496
   19.245    3.7177
   19.260    3.7072
   19.275    3.7493
   19.290    3.9494
   19.305    3.8547
   19.320    3.8020
   19.335    3.6862
   19.350    3.7388
   19.365    3.8020
   19.380    3.8441
   19.395    4.1601
   19.410    3.7809
   19.425    3.8336
   19.440    3.9600
   19.455    3.9810
   19.470    4.1180
   19.485    3.6230
   19.500    4.0021
   19.515    3.9705
   19.530    4.2338
   19.545    3.9494
   19.560    4.0232
   19.575    3.6967
   19.590    3.7809
   19.605    3.9810
   19.620    3.7599
   19.635    4.0126
   19.650    4.1390
   19.665    4.0653
   19.680    4.1706
   19.695    4.2022
   19.710    4.0442
   19.725    3.7493
   19.740    3.9705
   19.755    4.1601
   19.770    3.9073
   19.785    3.7493
   19.800    3.9389
   19.815    4.2233
   19.830    4.0548
   19.845    3.9179
   19.860    4.0126
   19.875    3.8757
   19.890    4.0337
   19.905    3.6756
   19.920    4.0548
   19.935    3.6440
   19.950    3.6019
   19.965    3.6546
   19.980    3.8968
   19.995    4.0864
   20.010    3.7599
   20.025    3.9705
   20.040    3.7493
   20.055    3.7915
   20.070    3.8336
   20.085    3.8336
   20.100    3.7809
   20.115    3.8652
   20.130    3.8652
   20.145    4.0548
   20.160    3.3175
   20.175    3.7388
   20.190    3.8125
   20.205    3.6967
   20.220    3.9284
   20.235    3.7388
   20.250    3.9494
   20.265    3.7388
   20.280    3.6546
   20.295    3.7704
   20.310    4.0758
   20.325    3.7177
   20.340    3.8441
   20.355    3.6335
   20.370    3.8231
   20.385    3.7915
   20.400    3.5808
   20.415    3.7072
   20.430    3.7599
   20.445    3.7072
   20.460    3.7915
   20.475    3.5282
   20.490    3.9705
   20.505    3.7915
   20.520    4.0548
   20.535    3.8020
   20.550    3.6651
   20.565    4.0969
   20.580    3.6335
   20.595    3.7915
   20.610    3.9494
   20.625    3.7177
   20.640    3.7072
   20.655    3.9705
   20.670    3.8020
   20.685    3.7915
   20.700    3.9600
   20.715    3.8757
   20.730    3.7177
   20.745    3.6651
   20.760    3.7493
   20.775    3.6124
   20.790    3.7704
   20.805    3.9916
   20.820    3.7072
   20.835    3.5598
   20.850    3.9284
   20.865    4.0021
   20.880    3.7493
   20.895    4.1074
   20.910    4.0232
   20.925    3.9284
   20.940    3.7072
   20.955    4.0969
   20.970    4.0232
   20.985    3.6651
   21.000    3.8968
   21.015    3.7283
   21.030    3.4860
   21.045    3.5914
   21.060    3.8231
   21.075    3.6546
   21.090    3.8968
   21.105    3.9705
   21.120    3.8757
   21.135    3.8020
   21.150    3.8863
   21.165    3.9810
   21.180    4.0126
   21.195    3.9494
   21.210    3.8125
   21.225    4.0548
   21.240    4.2970
   21.255    4.1285
   21.270    4.0548
   21.285    3.9810
   21.300    4.2549
   21.315    4.0969
   21.330    4.2022
   21.345    3.6862
   21.360    3.8757
   21.375    3.9600
   21.390    4.0442
   21.405    4.0021
   21.420    3.8757
   21.435    3.9179
   21.450    3.7599
   21.465    4.0232
   21.480    4.0548
   21.495    4.0021
   21.510    3.7915
   21.525    3.5703
   21.540    4.0126
   21.555    3.8968
   21.570    4.2338
   21.585    4.1074
   21.600    3.8336
   21.615    3.8757
   21.630    4.0021
   21.645    3.9705
   21.660    3.9916
   21.675    4.0021
   21.690    3.7599
   21.705    3.7809
   21.720    3.7704
   21.735    3.7072
   21.750    3.9810
   21.765    4.0548
   21.780    3.9916
   21.795    4.0337
   21.810    4.2233
   21.825    3.7599
   21.840    3.7283
   21.855    3.6546
   21.870    4.0864
   21.885    4.0758
   21.900    3.9600
   21.915    3.8125
   21.930    4.0442
   21.945    3.8125
   21.960    3.8757
   21.975    3.9810
   21.990    4.2549
   22.005    4.1180
   22.020    3.6124
   22.035    3.7493
   22.050    4.1285
   22.065    3.7809
   22.080    3.9179
   22.095    4.3391
   22.110    4.1706
   22.125    4.0021
   22.140    3.8125
   22.155    3.7072
   22.170    3.7704
   22.185    3.9073
   22.200    4.0548
   22.215    3.8547
   22.230    3.6756
   22.245    3.6651
   22.260    4.0126
   22.275    3.9389
   22.290    3.7177
   22.305    3.7283
   22.320    3.9284
   22.335    4.2970
   22.350    3.7177
   22.365    3.9073
   22.380    4.0864
   22.395    4.0548
   22.410    4.0337
   22.425    3.8863
   22.440    3.9284
   22.455    3.9600
   22.470    4.0126
   22.485    3.8968
   22.500    4.0969
   22.515    3.9389
   22.530    4.1074
   22.545    3.8968
   22.560    4.1390
   22.575    4.0548
   22.590    3.8757
   22.605    3.6440
   22.620    4.0337
   22.635    3.8652
   22.650    3.9916
   22.665    4.2443
   22.680    3.7072
   22.695    3.6124
   22.710    3.6230
   22.725    3.9179
   22.740    3.9179
   22.755    3.9284
   22.770    3.8968
   22.785    3.8125
   22.800    3.6967
   22.815    4.1180
   22.830    4.0864
   22.845    4.0337
   22.860    3.7599
   22.875    3.5598
   22.890    3.8757
   22.905    4.0442
   22.920    3.8547
   22.935    4.0021
   22.950    3.7072
   22.965    4.0758
   22.980    4.1811
   22.995    3.9600
   23.010    3.6756
   23.025    3.6440
   23.040    3.7704
   23.055    3.5598
   23.070    3.8231
   23.085    3.8231
   23.100    3.7599
   23.115    3.8441
   23.130    3.7599
   23.145    3.9916
   23.160    3.8757
   23.175    3.8547
   23.190    3.8441
   23.205    3.8547
   23.220    3.8757
   23.235    3.9389
   23.250    3.9494
   23.265    4.0021
   23.280    3.6440
   23.295    3.9073
   23.310    4.1074
   23.325    3.9284
   23.340    4.0337
   23.355    3.8968
   23.370    4.0442
   23.385    3.8125
   23.400    3.7177
   23.415    4.0126
   23.430    3.9073
   23.445    3.5703
   23.460    4.1390
   23.475    4.0653
   23.490    3.6756
   23.505    3.8652
   23.520    4.1601
   23.535    3.9179
   23.550    3.8336
   23.565    4.0653
   23.580    4.0442
   23.595    3.9705
   23.610    3.6967
   23.625    3.9810
   23.640    3.9179
   23.655    4.0758
   23.670    4.0126
   23.685    4.0337
   23.700    4.2022
   23.715    3.7072
   23.730    3.7177
   23.745    3.9810
   23.760    3.8547
   23.775    4.1811
   23.790    4.3813
   23.805    4.0337
   23.820    4.1601
   23.835    3.8231
   23.850    4.0337
   23.865    3.9916
   23.880    3.5703
   23.895    3.9810
   23.910    4.1601
   23.925    4.3602
   23.940    3.9600
   23.955    4.1601
   23.970    4.4128
   23.985    4.0548
   24.000    3.9810
   24.015    4.3497
   24.030    4.2654
   24.045    4.0232
   24.060    4.0442
   24.075    4.2127
   24.090    4.1811
   24.105    4.3497
   24.120    4.1496
   24.135    3.8757
   24.150    4.3181
   24.165    4.2654
   24.180    4.4023
   24.195    4.2549
   24.210    4.5814
   24.225    4.3497
   24.240    4.0864
   24.255    4.0442
   24.270    4.2865
   24.285    3.9494
   24.300    3.8547
   24.315    4.0653
   24.330    4.4128
   24.345    4.4234
   24.360    4.3707
   24.375    4.2233
   24.390    4.3286
   24.405    4.4234
   24.420    4.0442
   24.435    4.2443
   24.450    4.5076
   24.465    4.4339
   24.480    4.2654
   24.495    4.4023
   24.510    4.7604
   24.525    4.6130
   24.540    4.2759
   24.555    4.2759
   24.570    4.2443
   24.585    4.5182
   24.600    4.7077
   24.615    4.4971
   24.630    4.7288
   24.645    4.3918
   24.660    4.7604
   24.675    4.9605
   24.690    5.2027
   24.705    4.9710
   24.720    5.1080
   24.735    5.0237
   24.750    4.8763
   24.765    5.2238
   24.780    4.8552
   24.795    4.5603
   24.810    4.9816
   24.825    5.2343
   24.840    5.1395
   24.855    5.1606
   24.870    5.3923
   24.885    5.2975
   24.900    5.3923
   24.915    5.5503
   24.930    5.9821
   24.945    5.5398
   24.960    5.6240
   24.975    5.8452
   24.990    5.9821
   25.005    5.7925
   25.020    5.8557
   25.035    5.5819
   25.050    5.4871
   25.065    5.6345
   25.080    5.9189
   25.095    5.5398
   25.110    5.6240
   25.125    6.0664
   25.140    5.9084
   25.155    5.7083
   25.170    5.8136
   25.185    5.5608
   25.200    5.6029
   25.215    5.5924
   25.230    5.7609
   25.245    5.7504
   25.260    6.1085
   25.275    5.8347
   25.290    5.6872
   25.305    5.9294
   25.320    5.6345
   25.335    5.4555
   25.350    5.7083
   25.365    5.5292
   25.380    6.0558
   25.395    6.1717
   25.410    5.8452
   25.425    5.6872
   25.440    5.7715
   25.455    5.9821
   25.470    5.9189
   25.485    5.6556
   25.500    5.7820
   25.515    5.7293
   25.530    5.5292
   25.545    5.5187
   25.560    5.6029
   25.575    5.5924
   25.590    5.1922
   25.605    5.3397
   25.620    5.3818
   25.635    5.5924
   25.650    5.3818
   25.665    4.9921
   25.680    5.2870
   25.695    5.3186
   25.710    5.0658
   25.725    5.2449
   25.740    4.9394
   25.755    5.1395
   25.770    5.3186
   25.785    5.2765
   25.800    5.1922
   25.815    4.7920
   25.830    4.9816
   25.845    5.2554
   25.860    5.0974
   25.875    4.8763
   25.890    4.7815
   25.905    5.0237
   25.920    4.9289
   25.935    4.8657
   25.950    4.8868
   25.965    4.6972
   25.980    4.7288
   25.995    5.0026
   26.010    4.9078
   26.025    4.7815
   26.040    4.6867
   26.055    4.8236
   26.070    4.8657
   26.085    4.7077
   26.100    4.6024
   26.115    4.5182
   26.130    4.4339
   26.145    4.3707
   26.160    4.2233
   26.175    4.4655
   26.190    4.4866
   26.205    4.4866
   26.220    4.4234
   26.235    4.3181
   26.250    4.4234
   26.265    4.4339
   26.280    4.3075
   26.295    4.3391
   26.310    4.0653
   26.325    4.3918
   26.340    4.4128
   26.355    4.5498
   26.370    4.3181
   26.385    4.0337
   26.400    3.9284
   26.415    4.2022
   26.430    4.1601
   26.445    4.0442
   26.460    4.1285
   26.475    4.0653
   26.490    4.0758
   26.505    3.9916
   26.520    4.0548
   26.535    4.3075
   26.550    4.1074
   26.565    4.0232
   26.580    3.8441
   26.595    3.8547
   26.610    3.8863
   26.625    4.0969
   26.640    3.7388
   26.655    4.0969
   26.670    3.9916
   26.685    3.9389
   26.700    4.3286
   26.715    4.0864
   26.730    3.9916
   26.745    4.2338
   26.760    3.9284
   26.775    4.1496
   26.790    4.1496
   26.805    4.1390
   26.820    3.8125
   26.835    3.8336
   26.850    4.1180
   26.865    3.9389
   26.880    3.8020
   26.895    3.7809
   26.910    3.4966
   26.925    3.6546
   26.940    3.7072
   26.955    3.7388
   26.970    3.7177
   26.985    3.8441
   27.000    3.7704
   27.015    3.6019
   27.030    3.6651
   27.045    3.7704
   27.060    3.5282
   27.075    3.7704
   27.090    3.8231
   27.105    3.7283
   27.120    3.5598
   27.135    3.5808
   27.150    3.6756
   27.165    4.0548
   27.180    3.8968
   27.195    3.5703
   27.210    3.6546
   27.225    3.5282
   27.240    3.8336
   27.255    3.9705
   27.270    3.7704
   27.285    3.7072
   27.300    3.6230
   27.315    3.4544
   27.330    3.5492
   27.345    3.6124
   27.360    3.6019
   27.375    3.5703
   27.390    3.8441
   27.405    3.6019
   27.420    3.4018
   27.435    3.8231
   27.450    3.5387
   27.465    3.4966
   27.480    3.1806
   27.495    3.2227
   27.510    3.6230
   27.525    3.5176
   27.540    3.4860
   27.555    3.1490
   27.570    3.7177
   27.585    3.7599
   27.600    3.4018
   27.615    3.3913
   27.630    3.5492
   27.645    3.6967
   27.660    3.5492
   27.675    3.5282
   27.690    3.8757
   27.705    3.6756
   27.720    3.7493
   27.735    3.7072
   27.750    3.6230
   27.765    3.4650
   27.780    3.5598
   27.795    3.5914
   27.810    3.5387
   27.825    3.6019
   27.840    3.4966
   27.855    3.5598
   27.870    3.6546
   27.885    3.3807
   27.900    3.4018
   27.915    3.4650
   27.930    3.4229
   27.945    3.5492
   27.960    3.5282
   27.975    3.4966
   27.990    3.4018
   28.005    3.4650
   28.020    3.4755
   28.035    3.1596
   28.050    3.5703
   28.065    3.7599
   28.080    3.2438
   28.095    3.1280
   28.110    3.2543
   28.125    3.4544
   28.140    3.2438
   28.155    3.4966
   28.170    3.1596
   28.185    3.3070
   28.200    3.2754
   28.215    3.6124
   28.230    3.4018
   28.245    3.2543
   28.260    3.1385
   28.275    3.4334
   28.290    3.7177
   28.305    3.7493
   28.320    3.2543
   28.335    3.3070
   28.350    3.1280
   28.365    3.2649
   28.380    3.5176
   28.395    3.6862
   28.410    3.2859
   28.425    3.2543
   28.440    3.3597
   28.455    3.5387
   28.470    3.3175
   28.485    3.1385
   28.500    3.3913
   28.515    3.4650
   28.530    3.4439
   28.545    3.3386
   28.560    3.4439
   28.575    3.4966
   28.590    3.2965
   28.605    3.5282
   28.620    3.3702
   28.635    3.4123
   28.650    3.0542
   28.665    3.2227
   28.680    3.7388
   28.695    3.4860
   28.710    3.3491
   28.725    3.4018
   28.740    3.4544
   28.755    3.4123
   28.770    3.0964
   28.785    3.5492
   28.800    3.5387
   28.815    3.4018
   28.830    3.2543
   28.845    3.1280
   28.860    3.3386
   28.875    3.4650
   28.890    3.3070
   28.905    2.9805
   28.920    3.0121
   28.935    3.2017
   28.950    3.1490
   28.965    3.2649
   28.980    3.3491
   28.995    3.3070
   29.010    3.0858
   29.025    3.0542
   29.040    3.1069
   29.055    3.3491
   29.070    3.4966
   29.085    3.1596
   29.100    3.2965
   29.115    3.1806
   29.130    3.3491
   29.145    3.4650
   29.160    3.3070
   29.175    3.2965
   29.190    3.1490
   29.205    3.2227
   29.220    3.4650
   29.235    3.4544
   29.250    3.2438
   29.265    3.2649
   29.280    3.1385
   29.295    3.2965
   29.310    3.2227
   29.325    3.3807
   29.340    3.0964
   29.355    3.0437
   29.370    2.8963
   29.385    3.1385
   29.400    2.8752
   29.415    3.0858
   29.430    2.9384
   29.445    3.0332
   29.460    3.0648
   29.475    3.1174
   29.490    2.8015
   29.505    3.0332
   29.520    2.9279
   29.535    3.4966
   29.550    3.5387
   29.565    3.2122
   29.580    3.1174
   29.595    3.1174
   29.610    3.0016
   29.625    3.0226
   29.640    3.0332
   29.655    2.9910
   29.670    3.3070
   29.685    3.0858
   29.700    3.1385
   29.715    2.9068
   29.730    3.1490
   29.745    3.0753
   29.760    3.1069
   29.775    3.0858
   29.790    2.9700
   29.805    3.0648
   29.820    3.0121
   29.835    3.2438
   29.850    3.1701
   29.865    3.3070
   29.880    2.7172
   29.895    2.8120
   29.910    3.0753
   29.925    3.1069
   29.940    3.0016
   29.955    3.1490
   29.970    2.8647
   29.985    3.0016
   30.000    2.8225
   30.015    3.0964
   30.030    3.0332
   30.045    3.0858
   30.060    3.0332
   30.075    2.8436
   30.090    2.8015
   30.105    3.1596
   30.120    3.2438
   30.135    2.9489
   30.150    3.2333
   30.165    3.1806
   30.180    3.3702
   30.195    3.1490
   30.210    2.8963
   30.225    2.8857
   30.240    3.2859
   30.255    3.0858
   30.270    2.9173
   30.285    3.0542
   30.300    2.8647
   30.315    3.1069
   30.330    2.8647
   30.345    3.1385
   30.360    2.9595
   30.375    2.8225
   30.390    2.9910
   30.405    2.8436
   30.420    2.6224
   30.435    2.6540
   30.450    2.9805
   30.465    3.0016
   30.480    3.1069
   30.495    2.8963
   30.510    3.1490
   30.525    2.9384
   30.540    3.0542
   30.555    2.9173
   30.570    2.6962
   30.585    2.8436
   30.600    3.0226
   30.615    3.0648
   30.630    3.1596
   30.645    3.3175
   30.660    3.0016
   30.675    2.9279
   30.690    2.7172
   30.705    2.9595
   30.720    2.9068
   30.735    2.8225
   30.750    2.7067
   30.765    3.1174
   30.780    2.8752
   30.795    2.7488
   30.810    3.0121
   30.825    2.8857
   30.840    2.9805
   30.855    2.9595
   30.870    2.9910
   30.885    3.1385
   30.900    2.8647
   30.915    2.7278
   30.930    2.7067
   30.945    2.8120
   30.960    2.6224
   30.975    2.6962
   30.990    3.0016
   31.005    2.9910
   31.020    2.8857
   31.035    2.7804
   31.050    2.8752
   31.065    2.8331
   31.080    2.8541
   31.095    2.7804
   31.110    2.8015
   31.125    2.7383
   31.140    3.1069
   31.155    3.0753
   31.170    3.2122
   31.185    2.7593
   31.200    2.9384
   31.215    2.7593
   31.230    2.8963
   31.245    2.7488
   31.260    2.6751
   31.275    2.7278
   31.290    2.6856
   31.305    2.6014
   31.320    2.6330
   31.335    2.6856
   31.350    2.7804
   31.365    2.5803
   31.380    2.7488
   31.395    2.9173
   31.410    2.8331
   31.425    2.6119
   31.440    2.8541
   31.455    2.7593
   31.470    2.7593
   31.485    2.5908
   31.500    2.6751
   31.515    2.6119
   31.530    2.8857
   31.545    3.0226
   31.560    2.9489
   31.575    2.8225
   31.590    2.7804
   31.605    2.7699
   31.620    2.7383
   31.635    2.6751
   31.650    2.7172
   31.665    2.8963
   31.680    2.7278
   31.695    2.5908
   31.710    2.7593
   31.725    2.7278
   31.740    2.7909
   31.755    2.6014
   31.770    2.6224
   31.785    2.6856
   31.800    2.6224
   31.815    2.6962
   31.830    2.3802
   31.845    2.6119
   31.860    2.3065
   31.875    2.6224
   31.890    2.6119
   31.905    2.7278
   31.920    3.0016
   31.935    2.8120
   31.950    2.9700
   31.965    2.7488
   31.980    2.6962
   31.995    3.0332
   32.010    2.4434
   32.025    2.4961
   32.040    2.5171
   32.055    2.3486
   32.070    2.8436
   32.085    2.6435
   32.100    2.6751
   32.115    2.6014
   32.130    2.4329
   32.145    2.5908
   32.160    2.6751
   32.175    2.3486
   32.190    2.5908
   32.205    2.5592
   32.220    2.3907
   32.235    2.5382
   32.250    2.5698
   32.265    2.3486
   32.280    2.5382
   32.295    2.5276
   32.310    2.4434
   32.325    2.2959
   32.340    2.5171
   32.355    2.6646
   32.370    2.5171
   32.385    2.5382
   32.400    2.3591
   32.415    2.3065
   32.430    2.5698
   32.445    2.6330
   32.460    2.6014
   32.475    2.3802
   32.490    2.6330
   32.505    2.3697
   32.520    2.3697
   32.535    2.2854
   32.550    2.2959
   32.565    2.4750
   32.580    2.7278
   32.595    2.5592
   32.610    2.5382
   32.625    2.5276
   32.640    2.4961
   32.655    2.1906
   32.670    2.4961
   32.685    2.4645
   32.700    2.5171
   32.715    2.4118
   32.730    2.4434
   32.745    2.4750
   32.760    2.6330
   32.775    2.4750
   32.790    2.6646
   32.805    2.5803
   32.820    2.4855
   32.835    2.4118
   32.850    2.2959
   32.865    2.3802
   32.880    2.3170
   32.895    2.3170
   32.910    2.3170
   32.925    2.2749
   32.940    2.4329
   32.955    2.4013
   32.970    2.4750
   32.985    2.3697
   33.000    2.3697
   33.015    2.4645
   33.030    2.3381
   33.045    2.2538
   33.060    2.4750
   33.075    2.5803
   33.090    2.5276
   33.105    2.6119
   33.120    2.5803
   33.135    2.2959
   33.150    2.5592
   33.165    2.5908
   33.180    2.4013
   33.195    2.3065
   33.210    2.4223
   33.225    2.4855
   33.240    2.2538
   33.255    2.6646
   33.270    2.5487
   33.285    2.2012
   33.300    2.2012
   33.315    2.3591
   33.330    2.3486
   33.345    2.3907
   33.360    2.4961
   33.375    2.5066
   33.390    2.2749
   33.405    2.3907
   33.420    2.2643
   33.435    2.0958
   33.450    2.3697
   33.465    2.2854
   33.480    2.3275
   33.495    2.2854
   33.510    2.3907
   33.525    2.2643
   33.540    2.2854
   33.555    2.4118
   33.570    2.2328
   33.585    2.3907
   33.600    2.0116
   33.615    2.0853
   33.630    2.2643
   33.645    2.3381
   33.660    2.2433
   33.675    2.4539
   33.690    2.4434
   33.705    2.2854
   33.720    2.3591
   33.735    2.2643
   33.750    2.4118
   33.765    2.1696
   33.780    2.2117
   33.795    2.3486
   33.810    2.2749
   33.825    2.4013
   33.840    2.5276
   33.855    2.2749
   33.870    2.2854
   33.885    2.4013
   33.900    2.3065
   33.915    2.0748
   33.930    1.9800
   33.945    2.1696
   33.960    2.1590
   33.975    2.1169
   33.990    2.4223
   34.005    2.2749
   34.020    2.1801
   34.035    2.5171
   34.050    2.3486
   34.065    2.3697
   34.080    2.3591
   34.095    2.3907
   34.110    2.0853
   34.125    2.2959
   34.140    2.3275
   34.155    2.0642
   34.170    1.9695
   34.185    2.1380
   34.200    2.2854
   34.215    2.1801
   34.230    2.3802
   34.245    2.2117
   34.260    2.4750
   34.275    2.3170
   34.290    2.3381
   34.305    2.1169
   34.320    1.9589
   34.335    2.1696
   34.350    2.3907
   34.365    2.3381
   34.380    2.1906
   34.395    2.3275
   34.410    1.9800
   34.425    1.7588
   34.440    2.1274
   34.455    2.1274
   34.470    1.9695
   34.485    2.0432
   34.500    2.0748
   34.515    2.0432
   34.530    2.1380
   34.545    2.0116
   34.560    2.1801
   34.575    2.1801
   34.590    2.0011
   34.605    2.1696
   34.620    2.0853
   34.635    1.9695
   34.650    2.0853
   34.665    1.8115
   34.680    2.1801
   34.695    1.9800
   34.710    1.7799
   34.725    1.8431
   34.740    1.6956
   34.755    2.1274
   34.770    2.1485
   34.785    2.1169
   34.800    2.0326
   34.815    1.9905
   34.830    2.0221
   34.845    2.1696
   34.860    2.0748
   34.875    2.1696
   34.890    2.0011
   34.905    2.0011
   34.920    2.1590
   34.935    1.9800
   34.950    2.1696
   34.965    2.0432
   34.980    1.9273
   34.995    2.0432
   35.010    1.9800
   35.025    2.0853
   35.040    1.9168
   35.055    1.6324
   35.070    2.1169
   35.085    2.0432
   35.100    2.2012
   35.115    2.0221
   35.130    1.9168
   35.145    1.8431
   35.160    2.0748
   35.175    1.9484
   35.190    1.9273
   35.205    2.0537
   35.220    2.1380
   35.235    1.7904
   35.250    1.7062
   35.265    1.8641
   35.280    1.6851
   35.295    2.1380
   35.310    1.9695
   35.325    1.9484
   35.340    2.0221
   35.355    2.1064
   35.370    2.0432
   35.385    1.9063
   35.400    1.9484
   35.415    1.7694
   35.430    2.0221
   35.445    2.1590
   35.460    2.0011
   35.475    1.8325
   35.490    2.0537
   35.505    2.0011
   35.520    2.1380
   35.535    2.0326
   35.550    1.8641
   35.565    1.9484
   35.580    1.8009
   35.595    1.9063
   35.610    2.0537
   35.625    1.8115
   35.640    1.8852
   35.655    1.7904
   35.670    1.8747
   35.685    1.9695
   35.700    2.0537
   35.715    1.9063
   35.730    2.0748
   35.745    2.0011
   35.760    2.2433
   35.775    2.0537
   35.790    2.0221
   35.805    1.8747
   35.820    1.9273
   35.835    2.0537
   35.850    1.9905
   35.865    1.9273
   35.880    1.8325
   35.895    1.7694
   35.910    1.8957
   35.925    1.9168
   35.940    1.8852
   35.955    1.8536
   35.970    1.8852
   35.985    2.0326
   36.000    1.9273
   36.015    1.9800
   36.030    1.6851
   36.045    1.8431
   36.060    1.8325
   36.075    1.7904
   36.090    1.7062
   36.105    1.6008
   36.120    1.8641
   36.135    1.7062
   36.150    1.6640
   36.165    1.6640
   36.180    1.8115
   36.195    1.6956
   36.210    1.6746
   36.225    1.6324
   36.240    1.7272
   36.255    1.9168
   36.270    1.7483
   36.285    1.7062
   36.300    1.6851
   36.315    1.6008
   36.330    1.8325
   36.345    1.8325
   36.360    1.8431
   36.375    1.8747
   36.390    1.8431
   36.405    2.0432
   36.420    2.1064
   36.435    1.9273
   36.450    1.7378
   36.465    1.8536
   36.480    1.8536
   36.495    1.8957
   36.510    1.7272
   36.525    1.6324
   36.540    1.7694
   36.555    1.8325
   36.570    1.9589
   36.585    1.9168
   36.600    1.7378
   36.615    1.7167
   36.630    1.8747
   36.645    1.8641
   36.660    1.9063
   36.675    1.8957
   36.690    1.9800
   36.705    1.6114
   36.720    1.7799
   36.735    1.9168
   36.750    1.7062
   36.765    1.9168
   36.780    1.7904
   36.795    1.8220
   36.810    1.8325
   36.825    1.6956
   36.840    1.8325
   36.855    1.8009
   36.870    1.6956
   36.885    1.9484
   36.900    1.8325
   36.915    1.6851
   36.930    1.7904
   36.945    1.6008
   36.960    1.5692
   36.975    1.6746
   36.990    1.8115
   37.005    1.6430
   37.020    1.6008
   37.035    1.6430
   37.050    1.5587
   37.065    1.5377
   37.080    1.6535
   37.095    1.6956
   37.110    1.7062
   37.125    1.6956
   37.140    1.6430
   37.155    1.7588
   37.170    1.6640
   37.185    1.8220
   37.200    1.8747
   37.215    1.7272
   37.230    1.7588
   37.245    1.6008
   37.260    1.6430
   37.275    1.6324
   37.290    1.6430
   37.305    1.5798
   37.320    1.4955
   37.335    1.7167
   37.350    1.6430
   37.365    1.7272
   37.380    1.5166
   37.395    1.6324
   37.410    1.6219
   37.425    1.7062
   37.440    1.7378
   37.455    1.5798
   37.470    1.6851
   37.485    1.6640
   37.500    1.6640
   37.515    1.6114
   37.530    1.4323
   37.545    1.7062
   37.560    1.4429
   37.575    1.7272
   37.590    1.9063
   37.605    1.6746
   37.620    1.7694
   37.635    1.6746
   37.650    1.4745
   37.665    1.6114
   37.680    1.9063
   37.695    1.5903
   37.710    1.4323
   37.725    1.6324
   37.740    1.6114
   37.755    1.5061
   37.770    1.6008
   37.785    1.6114
   37.800    1.5271
   37.815    1.6535
   37.830    1.6956
   37.845    1.6219
   37.860    1.6324
   37.875    1.9063
   37.890    1.7799
   37.905    1.7378
   37.920    1.5798
   37.935    1.4745
   37.950    1.5166
   37.965    1.6430
   37.980    1.5271
   37.995    1.2849
   38.010    1.3902
   38.025    1.7378
   38.040    1.8325
   38.055    1.3375
   38.070    1.5903
   38.085    1.6430
   38.100    1.5692
   38.115    1.6430
   38.130    1.7272
   38.145    1.5587
   38.160    1.6008
   38.175    1.5587
   38.190    1.4850
   38.205    1.8747
   38.220    1.9484
   38.235    1.6219
   38.250    1.3270
   38.265    1.6114
   38.280    1.6008
   38.295    1.5166
   38.310    1.6535
   38.325    1.5798
   38.340    1.7799
   38.355    1.4323
   38.370    1.4955
   38.385    1.5482
   38.400    1.6956
   38.415    1.5903
   38.430    1.5377
   38.445    1.6219
   38.460    1.6746
   38.475    1.5166
   38.490    1.6219
   38.505    1.7167
   38.520    1.7483
   38.535    1.7167
   38.550    1.6851
   38.565    1.6219
   38.580    1.7062
   38.595    1.5061
   38.610    1.4323
   38.625    1.4534
   38.640    1.6640
   38.655    1.5482
   38.670    1.6746
   38.685    1.4850
   38.700    1.5587
   38.715    1.4534
   38.730    1.4850
   38.745    1.4850
   38.760    1.5166
   38.775    1.6219
   38.790    1.5587
   38.805    1.6640
   38.820    1.5166
   38.835    1.5271
   38.850    1.4323
   38.865    1.4323
   38.880    1.5061
   38.895    1.5166
   38.910    1.6746
   38.925    1.5587
   38.940    1.6008
   38.955    1.6746
   38.970    1.6851
   38.985    1.5692
   39.000    1.5903
   39.015    1.5377
   39.030    1.7483
   39.045    1.6851
   39.060    1.5798
   39.075    1.7588
   39.090    1.5798
   39.105    1.6008
   39.120    1.4850
   39.135    1.7483
   39.150    1.6219
   39.165    1.7062
   39.180    1.4745
   39.195    1.5798
   39.210    1.4113
   39.225    1.5377
   39.240    1.6535
   39.255    1.4955
   39.270    1.5903
   39.285    1.5166
   39.300    1.7378
   39.315    1.4323
   39.330    1.5061
   39.345    1.3902
   39.360    1.4113
   39.375    1.7167
   39.390    1.6746
   39.405    1.6008
   39.420    1.4850
   39.435    1.5903
   39.450    1.4639
   39.465    1.5271
   39.480    1.6008
   39.495    1.6746
   39.510    1.5903
   39.525    1.8747
   39.540    1.6219
   39.555    1.6956
   39.570    1.5061
   39.585    1.5903
   39.600    1.5061
   39.615    1.6640
   39.630    1.6219
   39.645    1.4218
   39.660    1.4955
   39.675    1.8431
   39.690    1.6114
   39.705    1.5903
   39.720    1.7062
   39.735    1.5061
   39.750    1.7483
   39.765    1.6219
   39.780    1.5587
   39.795    1.5166
   39.810    1.5798
   39.825    1.5798
   39.840    1.5377
   39.855    1.5692
   39.870    1.3691
   39.885    1.5271
   39.900    1.5692
   39.915    1.7062
   39.930    1.6640
   39.945    1.5798
   39.960    1.3165
   39.975    1.5061
   39.990    1.6008
