    1.500   33.9442
    1.515   34.4286
    1.530   33.4702
    1.545   32.6593
    1.560   31.8799
    1.575   31.9537
    1.590   30.9005
    1.605   30.6477
    1.620   30.3739
    1.635   29.4787
    1.650   29.0995
    1.665   28.8362
    1.680   28.6993
    1.695   27.7199
    1.710   27.2038
    1.725   26.8668
    1.740   26.9932
    1.755   25.9821
    1.770   25.1606
    1.785   25.0237
    1.800   25.0764
    1.815   24.5182
    1.830   24.6867
    1.845   24.0337
    1.860   23.9600
    1.875   23.3175
    1.890   22.9595
    1.905   22.1064
    1.920   22.2433
    1.935   23.0226
    1.950   22.4539
    1.965   21.9379
    1.980   21.3691
    1.995   20.7056
    2.010   20.8741
    2.025   20.7688
    2.040   20.1264
    2.055   20.0527
    2.070   19.5471
    2.085   18.9995
    2.100   19.7472
    2.115   18.7783
    2.130   18.5361
    2.145   18.6414
    2.160   18.1991
    2.175   17.6725
    2.190   17.7988
    2.205   17.9463
    2.220   17.1669
    2.235   17.4724
    2.250   17.2301
    2.265   16.8088
    2.280   17.2828
    2.295   16.9352
    2.310   16.5666
    2.325   16.0611
    2.340   16.4192
    2.355   16.3454
    2.370   15.9663
    2.385   16.0084
    2.400   16.3665
    2.415   16.2612
    2.430   15.0184
    2.445   14.9868
    2.460   14.8815
    2.475   14.7025
    2.490   15.5450
    2.505   15.0711
    2.520   14.3233
    2.535   14.4497
    2.550   14.2812
    2.565   14.0074
    2.580   14.2285
    2.595   13.9652
    2.610   13.7546
    2.625   13.7862
    2.640   13.7651
    2.655   13.7019
    2.670   13.2701
    2.685   13.4176
    2.700   13.1543
    2.715   12.9647
    2.730   13.0068
    2.745   13.3439
    2.760   13.1122
    2.775   13.1859
    2.790   12.8383
    2.805   13.3860
    2.820   13.1754
    2.835   12.3328
    2.850   12.7330
    2.865   12.0695
    2.880   12.1222
    2.895   12.0379
    2.910   11.7852
    2.925   12.0274
    2.940   11.8273
    2.955   11.6798
    2.970   11.9642
    2.985   12.6172
    3.000   12.1643
    3.015   11.5850
    3.030   11.4060
    3.045   12.0274
    3.060   11.2691
    3.075   11.0900
    3.090   11.5008
    3.105   11.2586
    3.120   10.7320
    3.135   10.9847
    3.150   11.1322
    3.165   11.3323
    3.180   10.8057
    3.195   11.4165
    3.210   10.9110
    3.225   11.1427
    3.240   10.8478
    3.255   10.9005
    3.270   11.6482
    3.285   10.9742
    3.300   10.5845
    3.315   10.5845
    3.330   10.6477
    3.345   10.7109
    3.360   10.2686
    3.375   10.1738
    3.390   10.7320
    3.405   10.5951
    3.420   10.2264
    3.435   10.4687
    3.450   10.6056
    3.465    9.8578
    3.480    9.9947
    3.495    9.8999
    3.510   10.0263
    3.525    9.7841
    3.540    9.7630
    3.555   10.0579
    3.570   10.2580
    3.585   10.2159
    3.600   10.2159
    3.615    9.4365
    3.630    9.6577
    3.645    9.8578
    3.660    9.6261
    3.675    9.4787
    3.690    9.4997
    3.705    9.8052
    3.720    9.5945
    3.735    9.4155
    3.750    9.6051
    3.765    9.5629
    3.780    9.4681
    3.795    9.7209
    3.810    9.5313
    3.825    9.1943
    3.840    9.4892
    3.855    9.8052
    3.870    9.6577
    3.885    9.3839
    3.900    9.1627
    3.915    9.0469
    3.930    9.6367
    3.945    9.3102
    3.960    8.9731
    3.975    8.9415
    3.990    9.6367
    4.005    9.3102
    4.020    9.2470
    4.035    9.4260
    4.050    9.5313
    4.065    8.7204
    4.080    9.2680
    4.095    9.2470
    4.110    9.2786
    4.125    9.0363
    4.140    9.2786
    4.155    9.2259
    4.170    9.2470
    4.185    9.0258
    4.200    8.7941
    4.215    8.9310
    4.230    8.7414
    4.245    8.4360
    4.260    8.7098
    4.275    8.9731
    4.290    9.2364
    4.305    9.3418
    4.320    8.8362
    4.335    8.8573
    4.350    9.0258
    4.365    8.9521
    4.380    8.6993
    4.395    8.9942
    4.410    8.8784
    4.425    8.4992
    4.440    8.7520
    4.455    8.9731
    4.470    8.6256
    4.485    8.7309
    4.500    8.8889
    4.515    9.1943
    4.530    8.5835
    4.545    8.3939
    4.560    8.2991
    4.575    8.3202
    4.590    7.8568
    4.605    8.2780
    4.620    8.2570
    4.635    8.5413
    4.650    8.2570
    4.665    7.8252
    4.680    8.1201
    4.695    8.2149
    4.710    8.0779
    4.725    8.1095
    4.740    8.7836
    4.755    8.4571
    4.770    7.9831
    4.785    8.0885
    4.800    8.2464
    4.815    8.5308
    4.830    8.1411
    4.845    7.7093
    4.860    8.5097
    4.875    8.5308
    4.890    8.1833
    4.905    8.3623
    4.920    8.3939
    4.935    8.3307
    4.950    7.9726
    4.965    7.9305
    4.980    8.2149
    4.995    7.9621
    5.010    7.7514
    5.025    7.9726
    5.040    8.2254
    5.055    8.1411
    5.070    8.1095
    5.085    8.5203
    5.100    8.2570
    5.115    8.0042
    5.130    8.0674
    5.145    8.2149
    5.160    8.0569
    5.175    8.5835
    5.190    8.2254
    5.205    7.7936
    5.220    8.0463
    5.235    8.4044
    5.250    7.7093
    5.265    7.9410
    5.280    7.9621
    5.295    7.6672
    5.310    8.4255
    5.325    7.9516
    5.340    7.7199
    5.355    8.0674
    5.370    7.5935
    5.385    7.8462
    5.400    8.0779
    5.415    8.3202
    5.430    8.0779
    5.445    8.2254
    5.460    8.2254
    5.475    8.0253
    5.490    8.1095
    5.505    8.1306
    5.520    7.8778
    5.535    7.7725
    5.550    7.7936
    5.565    7.9726
    5.580    7.9410
    5.595    7.8989
    5.610    7.9831
    5.625    8.2254
    5.640    8.1727
    5.655    7.9937
    5.670    8.0990
    5.685    8.0147
    5.700    8.1411
    5.715    7.6988
    5.730    7.9410
    5.745    8.0042
    5.760    7.8041
    5.775    7.9937
    5.790    7.7093
    5.805    8.0042
    5.820    7.8146
    5.835    7.6145
    5.850    8.0253
    5.865    7.6672
    5.880    7.6883
    5.895    7.5724
    5.910    7.6461
    5.925    7.5935
    5.940    7.4144
    5.955    7.6567
    5.970    7.9621
    5.985    8.2359
    6.000    7.8884
    6.015    7.8884
    6.030    8.2359
    6.045    7.5724
    6.060    7.3407
    6.075    7.5303
    6.090    7.3196
    6.105    7.4250
    6.120    7.9516
    6.135    7.9305
    6.150    7.8252
    6.165    8.2675
    6.180    8.2254
    6.195    7.7514
    6.210    7.5724
    6.225    7.8568
    6.240    8.1306
    6.255    8.3096
    6.270    7.8989
    6.285    8.4781
    6.300    8.1622
    6.315    7.7830
    6.330    7.6040
    6.345    7.4460
    6.360    7.4882
    6.375    7.8673
    6.390    7.6251
    6.405    7.7304
    6.420    7.5408
    6.435    7.6251
    6.450    7.2249
    6.465    7.5513
    6.480    7.6567
    6.495    7.9726
    6.510    8.0358
    6.525    7.8041
    6.540    7.6777
    6.555    7.7936
    6.570    7.8252
    6.585    7.7304
    6.600    7.8041
    6.615    8.0463
    6.630    7.6777
    6.645    7.5829
    6.660    7.6356
    6.675    7.7830
    6.690    7.6040
    6.705    7.8462
    6.720    7.6251
    6.735    7.4355
    6.750    7.7514
    6.765    7.7725
    6.780    7.7304
    6.795    7.6145
    6.810    7.4882
    6.825    7.7936
    6.840    7.6567
    6.855    7.6040
    6.870    7.1617
    6.885    7.8357
    6.900    8.1517
    6.915    8.0779
    6.930    8.0147
    6.945    8.0358
    6.960    7.8673
    6.975    7.6883
    6.990    7.8462
    7.005    7.5513
    7.020    7.8252
    7.035    7.9516
    7.050    7.8252
    7.065    7.4987
    7.080    7.6672
    7.095    7.6988
    7.110    7.8357
    7.125    8.1095
    7.140    7.8041
    7.155    7.9831
    7.170    7.8568
    7.185    7.4671
    7.200    7.9094
    7.215    7.9726
    7.230    7.7304
    7.245    7.6988
    7.260    7.6567
    7.275    7.3407
    7.290    7.4039
    7.305    7.6567
    7.320    7.7830
    7.335    7.6672
    7.350    7.5619
    7.365    7.8357
    7.380    7.7936
    7.395    8.0569
    7.410    8.1938
    7.425    7.9621
    7.440    8.0253
    7.455    7.9621
    7.470    7.8252
    7.485    7.7409
    7.500    7.8462
    7.515    7.4671
    7.530    7.4039
    7.545    7.5408
    7.560    8.0253
    7.575    7.8357
    7.590    7.8673
    7.605    7.8673
    7.620    7.6883
    7.635    7.7304
    7.650    7.4987
    7.665    7.6988
    7.680    7.8989
    7.695    8.0990
    7.710    7.7199
    7.725    7.8778
    7.740    7.6145
    7.755    7.5619
    7.770    7.4882
    7.785    8.1727
    7.800    7.6461
    7.815    7.6145
    7.830    7.6988
    7.845    7.9726
    7.860    8.2043
    7.875    8.0253
    7.890    7.5197
    7.905    7.8462
    7.920    7.6251
    7.935    7.5724
    7.950    7.7199
    7.965    7.9937
    7.980    7.9621
    7.995    7.7830
    8.010    8.0569
    8.025    7.7093
    8.040    7.4987
    8.055    7.6672
    8.070    8.1833
    8.085    8.0779
    8.100    8.1517
    8.115    7.9094
    8.130    7.8568
    8.145    8.0885
    8.160    8.1727
    8.175    7.9937
    8.190    7.7409
    8.205    7.6672
    8.220    8.2675
    8.235    8.0674
    8.250    8.3728
    8.265    7.7830
    8.280    8.0463
    8.295    7.8884
    8.310    7.9305
    8.325    7.8778
    8.340    7.8568
    8.355    7.9831
    8.370    8.3834
    8.385    8.2359
    8.400    7.8989
    8.415    7.9937
    8.430    7.9726
    8.445    7.8462
    8.460    7.7514
    8.475    7.7093
    8.490    7.7620
    8.505    8.6361
    8.520    8.4466
    8.535    7.7620
    8.550    7.8357
    8.565    7.5935
    8.580    8.1517
    8.595    7.9621
    8.610    7.7620
    8.625    7.8884
    8.640    7.8252
    8.655    8.0358
    8.670    7.6356
    8.685    8.0042
    8.700    7.9726
    8.715    7.7409
    8.730    7.8673
    8.745    8.3412
    8.760    8.1938
    8.775    7.8673
    8.790    7.8884
    8.805    7.8146
    8.820    8.2675
    8.835    7.9516
    8.850    7.9516
    8.865    8.0147
    8.880    7.9305
    8.895    8.1517
    8.910    8.0674
    8.925    7.6567
    8.940    7.8568
    8.955    8.3834
    8.970    8.2780
    8.985    8.2359
    9.000    7.9621
    9.015    8.0042
    9.030    8.2149
    9.045    7.9200
    9.060    8.1622
    9.075    7.5935
    9.090    7.7936
    9.105    7.8673
    9.120    8.0253
    9.135    7.8673
    9.150    8.0569
    9.165    8.0042
    9.180    8.2254
    9.195    8.4571
    9.210    8.4044
    9.225    7.6883
    9.240    8.1306
    9.255    7.9305
    9.270    7.9516
    9.285    8.2043
    9.300    8.3307
    9.315    8.0147
    9.330    8.0463
    9.345    7.8884
    9.360    7.9937
    9.375    7.7725
    9.390    8.0358
    9.405    7.9621
    9.420    7.8146
    9.435    8.2359
    9.450    8.0253
    9.465    8.1938
    9.480    8.4255
    9.495    8.0463
    9.510    8.2149
    9.525    7.3618
    9.540    7.8989
    9.555    8.2886
    9.570    7.8357
    9.585    7.9726
    9.600    8.3096
    9.615    8.4781
    9.630    7.8673
    9.645    7.6777
    9.660    8.2991
    9.675    8.1411
    9.690    8.0674
    9.705    7.4776
    9.720    7.4776
    9.735    7.5513
    9.750    7.9831
    9.765    8.1727
    9.780    8.2254
    9.795    7.9831
    9.810    8.2886
    9.825    7.9831
    9.840    7.7093
    9.855    8.1938
    9.870    8.1201
    9.885    7.7830
    9.900    7.9937
    9.915    7.8357
    9.930    8.2149
    9.945    8.1833
    9.960    8.2043
    9.975    8.2780
    9.990    7.5829
   10.005    8.0253
   10.020    8.1411
   10.035    7.9094
   10.050    8.2359
   10.065    8.2675
   10.080    8.1306
   10.095    8.1727
   10.110    8.4571
   10.125    8.0463
   10.140    8.2780
   10.155    8.0569
   10.170    8.2570
   10.185    8.4781
   10.200    8.1833
   10.215    8.3096
   10.230    7.7304
   10.245    8.0463
   10.260    8.0885
   10.275    8.2254
   10.290    8.0253
   10.305    7.9621
   10.320    8.1095
   10.335    8.2570
   10.350    8.1727
   10.365    7.9937
   10.380    7.9516
   10.395    8.0042
   10.410    7.5829
   10.425    8.1833
   10.440    8.6045
   10.455    8.2464
   10.470    8.3096
   10.485    8.3518
   10.500    8.1411
   10.515    7.7093
   10.530    8.2886
   10.545    8.3939
   10.560    7.7936
   10.575    7.7409
   10.590    8.2886
   10.605    8.2675
   10.620    7.8041
   10.635    7.6251
   10.650    8.0147
   10.665    7.5829
   10.680    7.4250
   10.695    7.5303
   10.710    8.1201
   10.725    7.8146
   10.740    8.2149
   10.755    7.8146
   10.770    7.8884
   10.785    8.0147
   10.800    8.0463
   10.815    7.7830
   10.830    7.9094
   10.845    7.7093
   10.860    7.3828
   10.875    7.9516
   10.890    7.8252
   10.905    7.7725
   10.920    7.6356
   10.935    7.8778
   10.950    7.8989
   10.965    7.6777
   10.980    7.4987
   10.995    7.2459
   11.010    7.7830
   11.025    7.7514
   11.040    7.6461
   11.055    7.5935
   11.070    7.6461
   11.085    7.9305
   11.100    7.9831
   11.115    7.9200
   11.130    7.9094
   11.145    7.6777
   11.160    7.4566
   11.175    7.3512
   11.190    7.6356
   11.205    7.5724
   11.220    7.5513
   11.235    7.5303
   11.250    7.9831
   11.265    7.4882
   11.280    7.6461
   11.295    8.1201
   11.310    7.7514
   11.325    7.7093
   11.340    7.9200
   11.355    7.9726
   11.370    7.7093
   11.385    7.6777
   11.400    7.5935
   11.415    7.6356
   11.430    7.6040
   11.445    7.3196
   11.460    7.7409
   11.475    7.9516
   11.490    7.4776
   11.505    7.5619
   11.520    7.4566
   11.535    7.5829
   11.550    7.6988
   11.565    7.4776
   11.580    7.7725
   11.595    7.7409
   11.610    7.6672
   11.625    7.7304
   11.640    7.9726
   11.655    7.6040
   11.670    7.6988
   11.685    7.3302
   11.700    7.3196
   11.715    7.3723
   11.730    7.6777
   11.745    7.5408
   11.760    7.4671
   11.775    7.6251
   11.790    7.6356
   11.805    7.5724
   11.820    7.4144
   11.835    7.8252
   11.850    7.9621
   11.865    7.3934
   11.880    7.4250
   11.895    7.1195
   11.910    7.5092
   11.925    7.5935
   11.940    7.5303
   11.955    7.4882
   11.970    7.4566
   11.985    7.5935
   12.000    6.9932
   12.015    7.1617
   12.030    6.7825
   12.045    7.4250
   12.060    7.3407
   12.075    7.5724
   12.090    7.4776
   12.105    7.5724
   12.120    7.2038
   12.135    7.4039
   12.150    6.8773
   12.165    7.0353
   12.180    7.2670
   12.195    7.2143
   12.210    7.1933
   12.225    7.0669
   12.240    7.2565
   12.255    7.2249
   12.270    7.2986
   12.285    7.2775
   12.300    7.2038
   12.315    7.1933
   12.330    6.9616
   12.345    6.9826
   12.360    7.3196
   12.375    7.3934
   12.390    7.2986
   12.405    7.0037
   12.420    7.3618
   12.435    7.1301
   12.450    6.8773
   12.465    7.3512
   12.480    6.9510
   12.495    7.2038
   12.510    7.1301
   12.525    7.1406
   12.540    7.4039
   12.555    7.4566
   12.570    7.5197
   12.585    7.1090
   12.600    6.9616
   12.615    7.4355
   12.630    6.9510
   12.645    6.9616
   12.660    6.8773
   12.675    7.3302
   12.690    7.0563
   12.705    7.3302
   12.720    7.2775
   12.735    7.2354
   12.750    6.9616
   12.765    7.1933
   12.780    7.1722
   12.795    6.9300
   12.810    6.9826
   12.825    7.0037
   12.840    7.2880
   12.855    7.2038
   12.870    7.1617
   12.885    7.1617
   12.900    7.2880
   12.915    7.7936
   12.930    7.0985
   12.945    7.5303
   12.960    7.1406
   12.975    7.2775
   12.990    7.0774
   13.005    7.2670
   13.020    7.2880
   13.035    7.2459
   13.050    7.2038
   13.065    7.1933
   13.080    7.1406
   13.095    6.9089
   13.110    7.2670
   13.125    7.1301
   13.140    7.0563
   13.155    7.0669
   13.170    7.2459
   13.185    7.1301
   13.200    6.9300
   13.215    7.2775
   13.230    7.2565
   13.245    6.8246
   13.260    6.9721
   13.275    7.0458
   13.290    7.0774
   13.305    6.9300
   13.320    7.2775
   13.335    7.5513
   13.350    7.1617
   13.365    7.0458
   13.380    7.3828
   13.395    7.3196
   13.410    7.0458
   13.425    7.3934
   13.440    7.0037
   13.455    7.0142
   13.470    7.0985
   13.485    7.3091
   13.500    7.2143
   13.515    6.7930
   13.530    7.0985
   13.545    7.2038
   13.560    7.1195
   13.575    6.7615
   13.590    6.8141
   13.605    7.1301
   13.620    6.8984
   13.635    6.6561
   13.650    7.2775
   13.665    7.1195
   13.680    6.2243
   13.695    6.5403
   13.710    6.5929
   13.725    6.9405
   13.740    7.2143
   13.755    6.9721
   13.770    6.9616
   13.785    7.2143
   13.800    6.8668
   13.815    7.0353
   13.830    7.1406
   13.845    6.8141
   13.860    7.2143
   13.875    6.8141
   13.890    6.9194
   13.905    7.1090
   13.920    6.8246
   13.935    6.9300
   13.950    6.6983
   13.965    6.7193
   13.980    6.7088
   13.995    6.4982
   14.010    7.1195
   14.025    7.2354
   14.040    7.3407
   14.055    7.0563
   14.070    7.1301
   14.085    7.1933
   14.100    7.1195
   14.115    7.1090
   14.130    7.0774
   14.145    7.1511
   14.160    6.9194
   14.175    6.9089
   14.190    6.9194
   14.205    6.7404
   14.220    6.8878
   14.235    7.0458
   14.250    6.8036
   14.265    7.0037
   14.280    7.0037
   14.295    6.9616
   14.310    6.5824
   14.325    6.8668
   14.340    7.0037
   14.355    6.9300
   14.370    7.1511
   14.385    6.9616
   14.400    6.9405
   14.415    6.8878
   14.430    7.0248
   14.445    7.4776
   14.460    7.4460
   14.475    7.3407
   14.490    7.1617
   14.505    7.0563
   14.520    6.6035
   14.535    6.7615
   14.550    7.4250
   14.565    6.9932
   14.580    6.9405
   14.595    7.0248
   14.610    6.5087
   14.625    6.6351
   14.640    6.8352
   14.655    6.9826
   14.670    6.7193
   14.685    6.9932
   14.700    7.0774
   14.715    7.0774
   14.730    6.9826
   14.745    6.6140
   14.760    6.8773
   14.775    6.9405
   14.790    6.9721
   14.805    6.9300
   14.820    7.1827
   14.835    6.9405
   14.850    6.7404
   14.865    6.5719
   14.880    6.4244
   14.895    6.6877
   14.910    6.5613
   14.925    6.9300
   14.940    7.1301
   14.955    7.1195
   14.970    6.8352
   14.985    6.9826
   15.000    6.9510
   15.015    7.1827
   15.030    6.8773
   15.045    6.6983
   15.060    7.0458
   15.075    6.8562
   15.090    6.6456
   15.105    7.2880
   15.120    6.8878
   15.135    6.7825
   15.150    6.8984
   15.165    6.8668
   15.180    6.6667
   15.195    7.2143
   15.210    7.2143
   15.225    6.8668
   15.240    7.2986
   15.255    7.1301
   15.270    7.4882
   15.285    6.7615
   15.300    6.7088
   15.315    6.6351
   15.330    7.1617
   15.345    6.9616
   15.360    6.9721
   15.375    6.7615
   15.390    6.8562
   15.405    6.7930
   15.420    7.0879
   15.435    6.7615
   15.450    6.6667
   15.465    6.8562
   15.480    6.7720
   15.495    6.4771
   15.510    6.6772
   15.525    6.6667
   15.540    6.5087
   15.555    7.0563
   15.570    6.7930
   15.585    6.9405
   15.600    6.9405
   15.615    7.3196
   15.630    6.9616
   15.645    7.0353
   15.660    7.1301
   15.675    7.1722
   15.690    7.3196
   15.705    6.9300
   15.720    7.0985
   15.735    7.0669
   15.750    7.2038
   15.765    6.8036
   15.780    6.9405
   15.795    6.6456
   15.810    7.2038
   15.825    7.1722
   15.840    6.8668
   15.855    7.0669
   15.870    7.0774
   15.885    6.5824
   15.900    6.7299
   15.915    6.6456
   15.930    6.9089
   15.945    7.5513
   15.960    7.0353
   15.975    6.8668
   15.990    7.1195
   16.005    7.0353
   16.020    7.2775
   16.035    7.3618
   16.050    6.7193
   16.065    6.8984
   16.080    7.0248
   16.095    6.9721
   16.110    6.6983
   16.125    7.2775
   16.140    7.4250
   16.155    6.5087
   16.170    6.8036
   16.185    6.7193
   16.200    6.9405
   16.215    7.0563
   16.230    6.9932
   16.245    6.8668
   16.260    6.4666
   16.275    7.0248
   16.290    6.8878
   16.305    7.0879
   16.320    6.7509
   16.335    6.9405
   16.350    7.0563
   16.365    6.8246
   16.380    6.9616
   16.395    7.2880
   16.410    7.0774
   16.425    7.1090
   16.440    6.9826
   16.455    7.0563
   16.470    7.2565
   16.485    7.2038
   16.500    6.6667
   16.515    6.2770
   16.530    6.7299
   16.545    6.9405
   16.560    7.0037
   16.575    7.0353
   16.590    6.6245
   16.605    6.8457
   16.620    7.0142
   16.635    6.6561
   16.650    7.1827
   16.665    7.5408
   16.680    7.2249
   16.695    7.0248
   16.710    6.7930
   16.725    7.0458
   16.740    6.6667
   16.755    6.6035
   16.770    7.0985
   16.785    7.0142
   16.800    7.0669
   16.815    6.9826
   16.830    6.8984
   16.845    7.4144
   16.860    7.4039
   16.875    7.1090
   16.890    6.9405
   16.905    7.3618
   16.920    7.3512
   16.935    6.9616
   16.950    6.7720
   16.965    7.2880
   16.980    6.8984
   16.995    7.0037
   17.010    6.7299
   17.025    6.7404
   17.040    6.8984
   17.055    6.9405
   17.070    6.8878
   17.085    6.7615
   17.100    7.1511
   17.115    6.8668
   17.130    6.7825
   17.145    6.4666
   17.160    6.7404
   17.175    6.7825
   17.190    7.0985
   17.205    6.8352
   17.220    7.1195
   17.235    6.8668
   17.250    7.1933
   17.265    7.0037
   17.280    6.9616
   17.295    6.8562
   17.310    7.4460
   17.325    7.0248
   17.340    7.3196
   17.355    6.9510
   17.370    6.9194
   17.385    7.0774
   17.400    7.2249
   17.415    6.9194
   17.430    7.0458
   17.445    7.0774
   17.460    7.0669
   17.475    7.0037
   17.490    6.6877
   17.505    7.1195
   17.520    6.8878
   17.535    6.7930
   17.550    7.3934
   17.565    7.1617
   17.580    7.1511
   17.595    6.9510
   17.610    7.3091
   17.625    6.6245
   17.640    7.1090
   17.655    7.2775
   17.670    7.4144
   17.685    6.6983
   17.700    6.8246
   17.715    7.2986
   17.730    7.1617
   17.745    6.8878
   17.760    6.7720
   17.775    7.0248
   17.790    7.0669
   17.805    7.0563
   17.820    7.1617
   17.835    7.1301
   17.850    7.1722
   17.865    7.1511
   17.880    6.9300
   17.895    6.9194
   17.910    7.0669
   17.925    6.6772
   17.940    7.0142
   17.955    7.3302
   17.970    6.8668
   17.985    6.8773
   18.000    7.1090
   18.015    6.9089
   18.030    6.8984
   18.045    7.1406
   18.060    7.2565
   18.075    7.1406
   18.090    6.7720
   18.105    6.7615
   18.120    7.0142
   18.135    6.4560
   18.150    6.4244
   18.165    6.7825
   18.180    6.9405
   18.195    6.7299
   18.210    7.1511
   18.225    6.9405
   18.240    7.3091
   18.255    6.8668
   18.270    6.9194
   18.285    7.0774
   18.300    6.9932
   18.315    7.0037
   18.330    7.2459
   18.345    6.9510
   18.360    6.9405
   18.375    7.3407
   18.390    6.8246
   18.405    6.8457
   18.420    7.1195
   18.435    7.0669
   18.450    7.5197
   18.465    7.2880
   18.480    7.1511
   18.495    6.9194
   18.510    7.2249
   18.525    7.2565
   18.540    7.0037
   18.555    7.0774
   18.570    7.0248
   18.585    7.0037
   18.600    7.0879
   18.615    6.5929
   18.630    7.0774
   18.645    7.0879
   18.660    7.2249
   18.675    7.2249
   18.690    7.3828
   18.705    6.7720
   18.720    6.9194
   18.735    6.7720
   18.750    7.4566
   18.765    7.2143
   18.780    7.3512
   18.795    6.7404
   18.810    6.9721
   18.825    7.0669
   18.840    6.8773
   18.855    7.3091
   18.870    7.1195
   18.885    7.2354
   18.900    7.2354
   18.915    7.4460
   18.930    7.2775
   18.945    6.9405
   18.960    6.8773
   18.975    6.7930
   18.990    6.6772
   19.005    6.8562
   19.020    7.2775
   19.035    7.0879
   19.050    6.6140
   19.065    7.0879
   19.080    7.1301
   19.095    6.9932
   19.110    7.2143
   19.125    7.2670
   19.140    6.9616
   19.155    7.0879
   19.170    7.1090
   19.185    6.9721
   19.200    7.2565
   19.215    7.2986
   19.230    7.2354
   19.245    7.0248
   19.260    6.6561
   19.275    7.4460
   19.290    7.3512
   19.305    7.2459
   19.320    7.4250
   19.335    7.7093
   19.350    7.6988
   19.365    7.1511
   19.380    6.7615
   19.395    7.0142
   19.410    6.8562
   19.425    6.6983
   19.440    7.0563
   19.455    7.0142
   19.470    7.0669
   19.485    6.8668
   19.500    7.0879
   19.515    6.9510
   19.530    7.1617
   19.545    7.2354
   19.560    6.7299
   19.575    6.9194
   19.590    7.0774
   19.605    6.6667
   19.620    7.2038
   19.635    7.1090
   19.650    7.0563
   19.665    7.0142
   19.680    7.2670
   19.695    7.3828
   19.710    7.2775
   19.725    6.5929
   19.740    7.0353
   19.755    7.6145
   19.770    7.3618
   19.785    7.2354
   19.800    7.1195
   19.815    6.9405
   19.830    7.2354
   19.845    7.1933
   19.860    6.8352
   19.875    7.0248
   19.890    7.3512
   19.905    7.1195
   19.920    7.5197
   19.935    6.9089
   19.950    7.3934
   19.965    7.1406
   19.980    7.0669
   19.995    7.2249
   20.010    6.7615
   20.025    6.8773
   20.040    7.4039
   20.055    7.4987
   20.070    7.6672
   20.085    7.4671
   20.100    7.6883
   20.115    7.2986
   20.130    6.9826
   20.145    7.1511
   20.160    7.2354
   20.175    7.4460
   20.190    7.5303
   20.205    7.1090
   20.220    7.3618
   20.235    7.4987
   20.250    7.2354
   20.265    7.4039
   20.280    6.9721
   20.295    7.4039
   20.310    6.9510
   20.325    7.3091
   20.340    7.3407
   20.355    7.5197
   20.370    7.1195
   20.385    7.5408
   20.400    7.1722
   20.415    7.0985
   20.430    7.1617
   20.445    7.2880
   20.460    7.4987
   20.475    7.2354
   20.490    7.4987
   20.505    6.8878
   20.520    7.2459
   20.535    6.9194
   20.550    7.4776
   20.565    7.4987
   20.580    7.3196
   20.595    6.9405
   20.610    7.2143
   20.625    7.2249
   20.640    7.3828
   20.655    7.5724
   20.670    7.5935
   20.685    7.4250
   20.700    7.2670
   20.715    7.1933
   20.730    7.7620
   20.745    7.2880
   20.760    6.9510
   20.775    7.1195
   20.790    7.2249
   20.805    7.4039
   20.820    7.2775
   20.835    6.8246
   20.850    6.9721
   20.865    7.4250
   20.880    7.1827
   20.895    7.2354
   20.910    7.2143
   20.925    7.1406
   20.940    7.2775
   20.955    7.8568
   20.970    7.3302
   20.985    7.3302
   21.000    7.0985
   21.015    7.0985
   21.030    7.2459
   21.045    7.5724
   21.060    7.3407
   21.075    7.0774
   21.090    6.8668
   21.105    7.4250
   21.120    7.2670
   21.135    6.8984
   21.150    7.0774
   21.165    7.1195
   21.180    7.2670
   21.195    7.0669
   21.210    7.3302
   21.225    7.3618
   21.240    7.4355
   21.255    7.3618
   21.270    7.2986
   21.285    7.5935
   21.300    6.8668
   21.315    7.0985
   21.330    6.8878
   21.345    7.1301
   21.360    7.0142
   21.375    6.8878
   21.390    7.3723
   21.405    7.5935
   21.420    7.3512
   21.435    7.7725
   21.450    7.4355
   21.465    7.3407
   21.480    7.3302
   21.495    7.0563
   21.510    7.1406
   21.525    7.2880
   21.540    6.9826
   21.555    7.5513
   21.570    7.6356
   21.585    7.4250
   21.600    7.5092
   21.615    7.4460
   21.630    7.6356
   21.645    7.3723
   21.660    7.2565
   21.675    7.6040
   21.690    7.4144
   21.705    7.4039
   21.720    7.2143
   21.735    7.5303
   21.750    7.1406
   21.765    7.5408
   21.780    7.3302
   21.795    6.8668
   21.810    7.2459
   21.825    7.1617
   21.840    7.2038
   21.855    7.1301
   21.870    7.2143
   21.885    7.0563
   21.900    7.3196
   21.915    7.1617
   21.930    7.2459
   21.945    7.2565
   21.960    7.1933
   21.975    7.1195
   21.990    6.9721
   22.005    7.1406
   22.020    7.7620
   22.035    7.6251
   22.050    7.3512
   22.065    7.0774
   22.080    7.2249
   22.095    7.4882
   22.110    7.4566
   22.125    6.8246
   22.140    7.0774
   22.155    6.9616
   22.170    7.3723
   22.185    7.6777
   22.200    7.6040
   22.215    7.2038
   22.230    7.5303
   22.245    7.2565
   22.260    7.3618
   22.275    7.2670
   22.290    7.5513
   22.305    7.0458
   22.320    7.2986
   22.335    7.3091
   22.350    7.2143
   22.365    7.6567
   22.380    7.5092
   22.395    7.4987
   22.410    7.2880
   22.425    7.1406
   22.440    7.1406
   22.455    7.0248
   22.470    7.0774
   22.485    7.7409
   22.500    7.2670
   22.515    7.0774
   22.530    7.1406
   22.545    7.7409
   22.560    7.5829
   22.575    7.6988
   22.590    7.5724
   22.605    7.3407
   22.620    7.2986
   22.635    7.4566
   22.650    7.4776
   22.665    7.4250
   22.680    7.0458
   22.695    6.9932
   22.710    7.2038
   22.725    7.8146
   22.740    7.1406
   22.755    7.4144
   22.770    7.6356
   22.785    6.6983
   22.800    7.4250
   22.815    7.2775
   22.830    7.1195
   22.845    7.3091
   22.860    6.9510
   22.875    6.9826
   22.890    6.5298
   22.905    7.2880
   22.920    7.2038
   22.935    7.0669
   22.950    7.4355
   22.965    6.8773
   22.980    7.5513
   22.995    7.1090
   23.010    7.1827
   23.025    7.2038
   23.040    7.2880
   23.055    7.3512
   23.070    7.2354
   23.085    7.1827
   23.100    7.4460
   23.115    7.1617
   23.130    7.3091
   23.145    7.0037
   23.160    7.2354
   23.175    7.1617
   23.190    6.9932
   23.205    7.6672
   23.220    7.1406
   23.235    7.4460
   23.250    7.2565
   23.265    7.5829
   23.280    7.8884
   23.295    7.3196
   23.310    7.0142
   23.325    7.1511
   23.340    7.1827
   23.355    7.3407
   23.370    7.0563
   23.385    7.0669
   23.400    7.0353
   23.415    7.1722
   23.430    7.0037
   23.445    7.3512
   23.460    7.2354
   23.475    7.1933
   23.490    7.4882
   23.505    7.0563
   23.520    6.8246
   23.535    7.0985
   23.550    7.2986
   23.565    7.1722
   23.580    6.6035
   23.595    6.7615
   23.610    6.8457
   23.625    7.1827
   23.640    7.4882
   23.655    7.4776
   23.670    6.7404
   23.685    7.2775
   23.700    7.1827
   23.715    7.0669
   23.730    6.9932
   23.745    7.1827
   23.760    6.9300
   23.775    7.1301
   23.790    6.8141
   23.805    7.0879
   23.820    7.0985
   23.835    7.3196
   23.850    7.3302
   23.865    7.3618
   23.880    7.1195
   23.895    7.0563
   23.910    6.8773
   23.925    7.7093
   23.940    7.6145
   23.955    7.4671
   23.970    7.3723
   23.985    7.2459
   24.000    6.9510
   24.015    6.8878
   24.030    7.1090
   24.045    7.0142
   24.060    7.5408
   24.075    7.5724
   24.090    7.4039
   24.105    6.9826
   24.120    7.2986
   24.135    7.2775
   24.150    7.2143
   24.165    7.0563
   24.180    7.0879
   24.195    7.2459
   24.210    7.0879
   24.225    6.9721
   24.240    7.1301
   24.255    7.2143
   24.270    7.2038
   24.285    7.0669
   24.300    7.2565
   24.315    6.6561
   24.330    6.6667
   24.345    7.1511
   24.360    7.2880
   24.375    6.9932
   24.390    7.2249
   24.405    6.9510
   24.420    7.3723
   24.435    7.2670
   24.450    7.0774
   24.465    6.9721
   24.480    6.8668
   24.495    7.1301
   24.510    6.9510
   24.525    6.8036
   24.540    7.1827
   24.555    7.1090
   24.570    6.9826
   24.585    6.8036
   24.600    7.3091
   24.615    7.2670
   24.630    7.1406
   24.645    7.0985
   24.660    7.2354
   24.675    7.3302
   24.690    7.2038
   24.705    6.9510
   24.720    6.9826
   24.735    7.2670
   24.750    7.1722
   24.765    7.0879
   24.780    7.0774
   24.795    6.5403
   24.810    6.7720
   24.825    6.9721
   24.840    7.0037
   24.855    7.3091
   24.870    6.9300
   24.885    7.0037
   24.900    6.7404
   24.915    6.6667
   24.930    6.6456
   24.945    6.9089
   24.960    6.9616
   24.975    6.9826
   24.990    6.9089
   25.005    7.2249
   25.020    7.0142
   25.035    6.6456
   25.050    6.7509
   25.065    7.0879
   25.080    6.5613
   25.095    6.8457
   25.110    6.9932
   25.125    7.1827
   25.140    7.0669
   25.155    6.9194
   25.170    6.9089
   25.185    6.7720
   25.200    6.8668
   25.215    7.2249
   25.230    6.9826
   25.245    6.8036
   25.260    6.7720
   25.275    6.9194
   25.290    7.0142
   25.305    7.3302
   25.320    6.8773
   25.335    7.0037
   25.350    7.0142
   25.365    6.6245
   25.380    6.9932
   25.395    7.3934
   25.410    7.3407
   25.425    6.6772
   25.440    6.4350
   25.455    6.6351
   25.470    7.1301
   25.485    6.6245
   25.500    6.2349
   25.515    6.5192
   25.530    6.9194
   25.545    7.1090
   25.560    6.8246
   25.575    6.6561
   25.590    6.9194
   25.605    7.0669
   25.620    6.9616
   25.635    6.7509
   25.650    6.8036
   25.665    6.5508
   25.680    6.8141
   25.695    6.9932
   25.710    6.8562
   25.725    6.9300
   25.740    7.0037
   25.755    6.5719
   25.770    6.3823
   25.785    6.3296
   25.800    6.9089
   25.815    6.7825
   25.830    6.8562
   25.845    6.5508
   25.860    6.8668
   25.875    7.0248
   25.890    6.7404
   25.905    7.1090
   25.920    6.8352
   25.935    6.8246
   25.950    6.5087
   25.965    6.5298
   25.980    6.5403
   25.995    6.5613
   26.010    6.6561
   26.025    6.6140
   26.040    6.7720
   26.055    6.4876
   26.070    6.6561
   26.085    6.6983
   26.100    6.6351
   26.115    6.9616
   26.130    6.9721
   26.145    6.3823
   26.160    6.4982
   26.175    6.8246
   26.190    7.0353
   26.205    7.1406
   26.220    6.5929
   26.235    6.6772
   26.250    6.8773
   26.265    6.5298
   26.280    6.7299
   26.295    6.3507
   26.310    6.8141
   26.325    6.4876
   26.340    6.8457
   26.355    6.4560
   26.370    6.8352
   26.385    6.4139
   26.400    6.5403
   26.415    6.5824
   26.430    6.8141
   26.445    6.8457
   26.460    6.2454
   26.475    6.7720
   26.490    6.4560
   26.505    6.7299
   26.520    6.8562
   26.535    6.3507
   26.550    6.4560
   26.565    6.0874
   26.580    6.7088
   26.595    6.5298
   26.610    6.8141
   26.625    6.7088
   26.640    7.0458
   26.655    6.4771
   26.670    6.9089
   26.685    6.9300
   26.700    6.9932
   26.715    6.6877
   26.730    6.4771
   26.745    6.3928
   26.760    6.7720
   26.775    6.4982
   26.790    6.4139
   26.805    6.5508
   26.820    6.6561
   26.835    6.8562
   26.850    6.6667
   26.865    6.3928
   26.880    6.7615
   26.895    6.2559
   26.910    6.4455
   26.925    6.6667
   26.940    6.5613
   26.955    6.6456
   26.970    7.0774
   26.985    7.1090
   27.000    6.9300
   27.015    6.2454
   27.030    6.4455
   27.045    6.8457
   27.060    6.9826
   27.075    6.1927
   27.090    6.5298
   27.105    6.6456
   27.120    6.3928
   27.135    6.2665
   27.150    6.2033
   27.165    6.6351
   27.180    6.5929
   27.195    6.5087
   27.210    6.5087
   27.225    6.6667
   27.240    6.6983
   27.255    6.6667
   27.270    6.3928
   27.285    6.3823
   27.300    6.3191
   27.315    6.1822
   27.330    6.4876
   27.345    6.7720
   27.360    6.4350
   27.375    6.6035
   27.390    6.1190
   27.405    6.0979
   27.420    6.2559
   27.435    6.3823
   27.450    6.5613
   27.465    6.3612
   27.480    6.2454
   27.495    6.5298
   27.510    6.3718
   27.525    6.4139
   27.540    6.4876
   27.555    6.2875
   27.570    6.7299
   27.585    6.5298
   27.600    6.2349
   27.615    6.4350
   27.630    6.6140
   27.645    6.6877
   27.660    6.3823
   27.675    6.6561
   27.690    6.3191
   27.705    6.2138
   27.720    6.5508
   27.735    6.9932
   27.750    6.5298
   27.765    6.3086
   27.780    6.6561
   27.795    6.2243
   27.810    6.2033
   27.825    6.1190
   27.840    6.2665
   27.855    6.4139
   27.870    6.3823
   27.885    6.2138
   27.900    6.4455
   27.915    6.2033
   27.930    6.5087
   27.945    6.1085
   27.960    6.1717
   27.975    6.3086
   27.990    6.3191
   28.005    6.4350
   28.020    6.0137
   28.035    6.5508
   28.050    6.7615
   28.065    6.3718
   28.080    6.0242
   28.095    6.2349
   28.110    6.2875
   28.125    6.2981
   28.140    6.5613
   28.155    6.4876
   28.170    6.4034
   28.185    6.3507
   28.200    5.9716
   28.215    6.3402
   28.230    6.6140
   28.245    6.5613
   28.260    6.3086
   28.275    6.1717
   28.290    6.4771
   28.305    6.2138
   28.320    6.2981
   28.335    6.4139
   28.350    6.4455
   28.365    6.1401
   28.380    6.2138
   28.395    6.2243
   28.410    6.6351
   28.425    6.1927
   28.440    6.0769
   28.455    6.1717
   28.470    6.2875
   28.485    5.8452
   28.500    5.9821
   28.515    5.9716
   28.530    5.6556
   28.545    6.0242
   28.560    6.2665
   28.575    6.0769
   28.590    6.4139
   28.605    6.0558
   28.620    5.9821
   28.635    6.2770
   28.650    6.4666
   28.665    6.0769
   28.680    6.2138
   28.695    6.4560
   28.710    5.7820
   28.725    5.7399
   28.740    6.0558
   28.755    6.1506
   28.770    6.4455
   28.785    6.2454
   28.800    6.0979
   28.815    6.1085
   28.830    5.9294
   28.845    6.2875
   28.860    5.9189
   28.875    6.0242
   28.890    6.3296
   28.905    6.1506
   28.920    6.2665
   28.935    6.1295
   28.950    5.9926
   28.965    6.1190
   28.980    6.1190
   28.995    6.1717
   29.010    6.0137
   29.025    5.8662
   29.040    6.0874
   29.055    6.2454
   29.070    6.1401
   29.085    6.2665
   29.100    6.3086
   29.115    6.2033
   29.130    6.0874
   29.145    6.3296
   29.160    6.2243
   29.175    6.2138
   29.190    6.1085
   29.205    5.9926
   29.220    5.7504
   29.235    6.1190
   29.250    6.4139
   29.265    6.0453
   29.280    6.3718
   29.295    6.0979
   29.310    6.2665
   29.325    5.7925
   29.340    6.0979
   29.355    6.1822
   29.370    5.8978
   29.385    5.8241
   29.400    5.9716
   29.415    6.2559
   29.430    6.1190
   29.445    6.2981
   29.460    5.8768
   29.475    6.1190
   29.490    6.0874
   29.505    6.0558
   29.520    6.2033
   29.535    6.2349
   29.550    6.0348
   29.565    5.7188
   29.580    5.7293
   29.595    6.3402
   29.610    6.2033
   29.625    6.1190
   29.640    5.9400
   29.655    5.9821
   29.670    5.9189
   29.685    5.9610
   29.700    6.2349
   29.715    6.1506
   29.730    6.0032
   29.745    6.2770
   29.760    6.1927
   29.775    6.1611
   29.790    6.1401
   29.805    5.9821
   29.820    5.7083
   29.835    5.8662
   29.850    5.7293
   29.865    5.8978
   29.880    6.1611
   29.895    6.0769
   29.910    6.0664
   29.925    6.0032
   29.940    5.8873
   29.955    6.0664
   29.970    6.1401
   29.985    5.9189
   30.000    5.7399
   30.015    5.9294
   30.030    5.7188
   30.045    6.0874
   30.060    5.8241
   30.075    5.7820
   30.090    5.9084
   30.105    5.9821
   30.120    6.0558
   30.135    5.9505
   30.150    5.8347
   30.165    5.6872
   30.180    5.9505
   30.195    5.6029
   30.210    5.6451
   30.225    5.7293
   30.240    5.9505
   30.255    5.6767
   30.270    5.8768
   30.285    5.5608
   30.300    5.9610
   30.315    5.9189
   30.330    6.0558
   30.345    5.9610
   30.360    6.2454
   30.375    6.1611
   30.390    5.6661
   30.405    6.0453
   30.420    5.7083
   30.435    5.5924
   30.450    5.8873
   30.465    5.7504
   30.480    5.9294
   30.495    5.4344
   30.510    5.5714
   30.525    5.9189
   30.540    6.0242
   30.555    5.8031
   30.570    5.7293
   30.585    5.8978
   30.600    5.6029
   30.615    5.6345
   30.630    5.6661
   30.645    5.8347
   30.660    5.7925
   30.675    5.9505
   30.690    5.5714
   30.705    5.6556
   30.720    5.8452
   30.735    5.9084
   30.750    5.6240
   30.765    5.6661
   30.780    5.6872
   30.795    5.7504
   30.810    6.1822
   30.825    5.6872
   30.840    5.4871
   30.855    5.5924
   30.870    5.7188
   30.885    5.6240
   30.900    5.8136
   30.915    5.9716
   30.930    5.6872
   30.945    5.6451
   30.960    5.9084
   30.975    5.9505
   30.990    5.8031
   31.005    6.3402
   31.020    6.0558
   31.035    5.7293
   31.050    5.6029
   31.065    5.7504
   31.080    5.8662
   31.095    5.6872
   31.110    5.6029
   31.125    5.5398
   31.140    5.7715
   31.155    5.4976
   31.170    5.8031
   31.185    5.7820
   31.200    6.1822
   31.215    5.8873
   31.230    5.8557
   31.245    5.5819
   31.260    5.8031
   31.275    5.6872
   31.290    5.3502
   31.305    5.5187
   31.320    5.8768
   31.335    6.0242
   31.350    5.8768
   31.365    5.4028
   31.380    5.2975
   31.395    5.6451
   31.410    5.3923
   31.425    5.7293
   31.440    5.9084
   31.455    5.9610
   31.470    5.8557
   31.485    5.5714
   31.500    5.8241
   31.515    5.5503
   31.530    5.5714
   31.545    6.0242
   31.560    5.5819
   31.575    5.7293
   31.590    5.6135
   31.605    5.9400
   31.620    5.9400
   31.635    5.8347
   31.650    5.6029
   31.665    6.1190
   31.680    5.6135
   31.695    5.8136
   31.710    5.4660
   31.725    5.9610
   31.740    5.4766
   31.755    5.5398
   31.770    5.8347
   31.785    5.8347
   31.800    5.4134
   31.815    5.6977
   31.830    5.9084
   31.845    5.3186
   31.860    5.3607
   31.875    5.6029
   31.890    5.6872
   31.905    5.5819
   31.920    5.5082
   31.935    5.4239
   31.950    5.7083
   31.965    5.5503
   31.980    5.7399
   31.995    5.7609
   32.010    5.7293
   32.025    5.8873
   32.040    5.5292
   32.055    5.4871
   32.070    5.5608
   32.085    5.2554
   32.100    5.3186
   32.115    5.8136
   32.130    5.8347
   32.145    5.8136
   32.160    5.4555
   32.175    5.4450
   32.190    5.6240
   32.205    5.5924
   32.220    5.7293
   32.235    5.8452
   32.250    5.7504
   32.265    5.5819
   32.280    5.5292
   32.295    5.4871
   32.310    5.4028
   32.325    5.5292
   32.340    5.2238
   32.355    5.0237
   32.370    5.3397
   32.385    5.6767
   32.400    5.4660
   32.415    5.2449
   32.430    5.0342
   32.445    5.2238
   32.460    5.6767
   32.475    5.6556
   32.490    5.2449
   32.505    5.3502
   32.520    5.3397
   32.535    5.6661
   32.550    5.2975
   32.565    5.7820
   32.580    5.5819
   32.595    5.2343
   32.610    5.4871
   32.625    5.2554
   32.640    5.4028
   32.655    5.8347
   32.670    5.3607
   32.685    5.5924
   32.700    5.6872
   32.715    5.2870
   32.730    5.3818
   32.745    5.3818
   32.760    5.6872
   32.775    5.3081
   32.790    5.1501
   32.805    5.4344
   32.820    5.4028
   32.835    5.4555
   32.850    5.3712
   32.865    5.6661
   32.880    5.2975
   32.895    5.1817
   32.910    5.2449
   32.925    5.3607
   32.940    5.3291
   32.955    5.2870
   32.970    5.1711
   32.985    5.3081
   33.000    5.1922
   33.015    5.4766
   33.030    5.3607
   33.045    5.4660
   33.060    5.2133
   33.075    5.1817
   33.090    4.9816
   33.105    5.1290
   33.120    5.1711
   33.135    5.1501
   33.150    5.1501
   33.165    5.4555
   33.180    5.2870
   33.195    5.2765
   33.210    5.0553
   33.225    5.2238
   33.240    5.3397
   33.255    5.3186
   33.270    5.2449
   33.285    5.4450
   33.300    5.6135
   33.315    5.7293
   33.330    5.2449
   33.345    4.9921
   33.360    5.3923
   33.375    5.4660
   33.390    5.5187
   33.405    5.6135
   33.420    5.5292
   33.435    5.1185
   33.450    5.0658
   33.465    5.2027
   33.480    5.0342
   33.495    5.1290
   33.510    5.4766
   33.525    5.5608
   33.540    5.1290
   33.555    5.1395
   33.570    5.2975
   33.585    5.3081
   33.600    5.3923
   33.615    5.4028
   33.630    5.2765
   33.645    5.3186
   33.660    5.3923
   33.675    5.1711
   33.690    5.4450
   33.705    5.4660
   33.720    5.3923
   33.735    5.0764
   33.750    5.2870
   33.765    5.1501
   33.780    5.2027
   33.795    5.2343
   33.810    5.0658
   33.825    5.1501
   33.840    4.8973
   33.855    5.3291
   33.870    5.1922
   33.885    5.2133
   33.900    4.8763
   33.915    5.2870
   33.930    5.3607
   33.945    4.9710
   33.960    5.1395
   33.975    5.3923
   33.990    5.5608
   34.005    5.2554
   34.020    5.2343
   34.035    4.9605
   34.050    5.2027
   34.065    5.2554
   34.080    5.2870
   34.095    5.2765
   34.110    5.2343
   34.125    5.2449
   34.140    5.1501
   34.155    5.1395
   34.170    5.2870
   34.185    5.2238
   34.200    5.2659
   34.215    5.4344
   34.230    5.0869
   34.245    5.4766
   34.260    5.3397
   34.275    5.1817
   34.290    5.0974
   34.305    5.3607
   34.320    5.4766
   34.335    5.1290
   34.350    5.0448
   34.365    4.8763
   34.380    5.1080
   34.395    5.4134
   34.410    5.1185
   34.425    5.1395
   34.440    4.9605
   34.455    5.2765
   34.470    4.9078
   34.485    5.2027
   34.500    5.2449
   34.515    4.9921
   34.530    4.8236
   34.545    5.0764
   34.560    5.1080
   34.575    5.2133
   34.590    5.1922
   34.605    5.2870
   34.620    5.0026
   34.635    5.3607
   34.650    5.2659
   34.665    5.5608
   34.680    5.4028
   34.695    5.2870
   34.710    5.4766
   34.725    5.2554
   34.740    5.2449
   34.755    5.2765
   34.770    4.8657
   34.785    5.0658
   34.800    5.2343
   34.815    5.0869
   34.830    5.0974
   34.845    5.0764
   34.860    4.8763
   34.875    4.6867
   34.890    4.7077
   34.905    4.9289
   34.920    4.8763
   34.935    4.7604
   34.950    4.8552
   34.965    5.0869
   34.980    5.1606
   34.995    5.4239
   35.010    5.1501
   35.025    4.8868
   35.040    4.8973
   35.055    4.9394
   35.070    4.7815
   35.085    4.9289
   35.100    4.8763
   35.115    4.9289
   35.130    4.9921
   35.145    4.7393
   35.160    4.8552
   35.175    4.8447
   35.190    5.3081
   35.205    5.1395
   35.220    5.1290
   35.235    4.7288
   35.250    5.0237
   35.265    5.0974
   35.280    4.8236
   35.295    4.9710
   35.310    5.0764
   35.325    5.1080
   35.340    4.9184
   35.355    4.8341
   35.370    5.0869
   35.385    4.5182
   35.400    4.8552
   35.415    5.4976
   35.430    5.0342
   35.445    5.0553
   35.460    4.8131
   35.475    4.9289
   35.490    5.1501
   35.505    4.9921
   35.520    5.1817
   35.535    4.8552
   35.550    4.8341
   35.565    4.8973
   35.580    4.7604
   35.595    4.9289
   35.610    4.9710
   35.625    5.1501
   35.640    5.1501
   35.655    5.1922
   35.670    4.8973
   35.685    5.1501
   35.700    5.1501
   35.715    4.9710
   35.730    5.1080
   35.745    5.1080
   35.760    4.8447
   35.775    5.2659
   35.790    4.9605
   35.805    4.6130
   35.820    4.9500
   35.835    4.7920
   35.850    4.8236
   35.865    5.1080
   35.880    4.9605
   35.895    5.3186
   35.910    4.5919
   35.925    4.7077
   35.940    5.2659
   35.955    5.0132
   35.970    4.9921
   35.985    4.7920
   36.000    4.9605
   36.015    5.0553
   36.030    5.1606
   36.045    5.0026
   36.060    4.8552
   36.075    5.1080
   36.090    5.1711
   36.105    4.7920
   36.120    5.3923
   36.135    5.1080
   36.150    4.6761
   36.165    4.5392
   36.180    4.7709
   36.195    4.7077
   36.210    4.7077
   36.225    4.9289
   36.240    4.8657
   36.255    5.2343
   36.270    5.0974
   36.285    4.9078
   36.300    5.2133
   36.315    5.0974
   36.330    4.7604
   36.345    4.6024
   36.360    4.7604
   36.375    5.1185
   36.390    5.0764
   36.405    5.0342
   36.420    5.0237
   36.435    5.0553
   36.450    5.0342
   36.465    5.0342
   36.480    4.9184
   36.495    4.8131
   36.510    4.7604
   36.525    4.8025
   36.540    4.6445
   36.555    5.1606
   36.570    5.1080
   36.585    4.7815
   36.600    4.9605
   36.615    5.0132
   36.630    4.3813
   36.645    4.6867
   36.660    5.0553
   36.675    4.8552
   36.690    5.0026
   36.705    4.8868
   36.720    4.9394
   36.735    5.0658
   36.750    5.0342
   36.765    4.8025
   36.780    4.8868
   36.795    4.9394
   36.810    4.8552
   36.825    4.4550
   36.840    4.6445
   36.855    5.2238
   36.870    4.7183
   36.885    4.7499
   36.900    4.9078
   36.915    4.7604
   36.930    4.4866
   36.945    4.8025
   36.960    4.9078
   36.975    4.8236
   36.990    4.8763
   37.005    4.7604
   37.020    5.0764
   37.035    4.7393
   37.050    4.8341
   37.065    4.4760
   37.080    4.8341
   37.095    4.5498
   37.110    4.5287
   37.125    4.7815
   37.140    4.4550
   37.155    4.9500
   37.170    4.8025
   37.185    4.6972
   37.200    4.8236
   37.215    4.8973
   37.230    4.5076
   37.245    4.7604
   37.260    4.7393
   37.275    4.6972
   37.290    4.5076
   37.305    4.8552
   37.320    4.6130
   37.335    4.6130
   37.350    4.9500
   37.365    4.6445
   37.380    4.7604
   37.395    4.9078
   37.410    5.0974
   37.425    4.6761
   37.440    4.5708
   37.455    4.8447
   37.470    4.6972
   37.485    4.7709
   37.500    4.7499
   37.515    4.7393
   37.530    4.7920
   37.545    4.2022
   37.560    4.6445
   37.575    4.6551
   37.590    4.4339
   37.605    5.1185
   37.620    4.8025
   37.635    4.8868
   37.650    4.7077
   37.665    4.8552
   37.680    5.1501
   37.695    4.6972
   37.710    4.8131
   37.725    4.7393
   37.740    4.6761
   37.755    4.8131
   37.770    4.6130
   37.785    4.8868
   37.800    5.0026
   37.815    4.8552
   37.830    4.7077
   37.845    4.7920
   37.860    4.7499
   37.875    4.7815
   37.890    4.6445
   37.905    4.7393
   37.920    4.6445
   37.935    4.5076
   37.950    4.6656
   37.965    4.6445
   37.980    4.7499
   37.995    4.6445
   38.010    4.6761
   38.025    4.4023
   38.040    4.5919
   38.055    4.5919
   38.070    4.6656
   38.085    4.6340
   38.100    4.6235
   38.115    4.5919
   38.130    4.6656
   38.145    4.5287
   38.160    4.5076
   38.175    4.7920
   38.190    4.4866
   38.205    4.4234
   38.220    4.5919
   38.235    4.8236
   38.250    4.9605
   38.265    4.5498
   38.280    4.4760
   38.295    4.6024
   38.310    4.6867
   38.325    4.5708
   38.340    4.8447
   38.355    4.6445
   38.370    4.7077
   38.385    4.8763
   38.400    4.5814
   38.415    4.7183
   38.430    5.2133
   38.445    4.7499
   38.460    4.9921
   38.475    4.6445
   38.490    4.4866
   38.505    4.8025
   38.520    4.5076
   38.535    4.6340
   38.550    4.4128
   38.565    4.6551
   38.580    4.6551
   38.595    4.8025
   38.610    4.5814
   38.625    4.3075
   38.640    4.6235
   38.655    4.8025
   38.670    4.3707
   38.685    4.3918
   38.700    4.5182
   38.715    4.3813
   38.730    4.4655
   38.745    4.6551
   38.760    4.3497
   38.775    4.6972
   38.790    4.6340
   38.805    4.4444
   38.820    4.7077
   38.835    4.4971
   38.850    4.7604
   38.865    4.5814
   38.880    4.4444
   38.895    4.5603
   38.910    4.5603
   38.925    4.4760
   38.940    4.7077
   38.955    4.9605
   38.970    4.8657
   38.985    4.8763
   39.000    4.5603
   39.015    4.6340
   39.030    4.4128
   39.045    4.4234
   39.060    4.4550
   39.075    4.4866
   39.090    4.8131
   39.105    4.5392
   39.120    4.2970
   39.135    4.7183
   39.150    4.7288
   39.165    4.6445
   39.180    4.4866
   39.195    4.4234
   39.210    4.7499
   39.225    4.5603
   39.240    4.4550
   39.255    4.8341
   39.270    4.7499
   39.285    5.0132
   39.300    4.8763
   39.315    4.7709
   39.330    4.3918
   39.345    4.6656
   39.360    4.7920
   39.375    4.5498
   39.390    4.5182
   39.405    4.6445
   39.420    4.8341
   39.435    4.6972
   39.450    4.4550
   39.465    4.5708
   39.480    4.5287
   39.495    4.5498
   39.510    4.5814
   39.525    4.8763
   39.540    4.8131
   39.555    4.7815
   39.570    4.9078
   39.585    4.4971
   39.600    4.1811
   39.615    4.8763
   39.630    4.7077
   39.645    4.5498
   39.660    4.7288
   39.675    4.8552
   39.690    4.5919
   39.705    4.7499
   39.720    4.7709
   39.735    4.6551
   39.750    4.6761
   39.765    4.7920
   39.780    4.8657
   39.795    4.7815
   39.810    4.3075
   39.825    4.6656
   39.840    4.8025
   39.855    4.5498
   39.870    4.3707
   39.885    4.7709
   39.900    4.7077
   39.915    4.4971
   39.930    4.5182
   39.945    4.5814
   39.960    4.5814
   39.975    4.7499
   39.990    4.6551
