    1.500   22.4013
    1.515   22.2538
    1.530   22.5487
    1.545   21.7062
    1.560   21.0005
    1.575   21.0532
    1.590   21.4429
    1.605   20.5161
    1.620   21.3481
    1.635   19.8736
    1.650   20.1053
    1.665   20.1896
    1.680   19.7788
    1.695   19.6209
    1.710   18.9995
    1.725   18.8415
    1.740   18.9258
    1.755   18.8310
    1.770   18.0095
    1.785   17.4513
    1.800   17.0300
    1.815   16.8615
    1.830   16.5877
    1.845   17.1037
    1.860   17.4408
    1.875   16.0927
    1.890   16.3665
    1.905   15.9663
    1.920   16.5350
    1.935   15.9874
    1.950   16.3560
    1.965   16.1980
    1.980   15.3660
    1.995   15.9242
    2.010   15.2923
    2.025   15.3870
    2.040   15.4292
    2.055   15.5766
    2.070   15.6187
    2.085   15.3765
    2.100   14.8815
    2.115   14.9763
    2.130   14.6919
    2.145   14.2285
    2.160   13.8494
    2.175   14.4076
    2.190   14.1443
    2.205   14.0495
    2.220   13.9652
    2.235   13.7546
    2.250   13.9652
    2.265   13.9863
    2.280   13.9231
    2.295   13.6177
    2.310   13.4387
    2.325   13.0174
    2.340   12.8910
    2.355   13.0806
    2.370   12.9121
    2.385   12.9331
    2.400   12.5961
    2.415   12.5645
    2.430   13.2596
    2.445   12.8805
    2.460   13.3333
    2.475   12.9858
    2.490   13.3544
    2.505   12.9121
    2.520   12.8910
    2.535   12.6066
    2.550   13.4387
    2.565   13.3860
    2.580   13.7441
    2.595   13.3439
    2.610   13.4913
    2.625   13.5018
    2.640   13.5756
    2.655   13.8178
    2.670   14.3128
    2.685   14.7025
    2.700   14.3128
    2.715   14.1338
    2.730   14.3549
    2.745   14.7762
    2.760   14.5234
    2.775   15.5029
    2.790   15.7135
    2.805   16.1243
    2.820   16.4508
    2.835   15.7767
    2.850   16.2085
    2.865   17.0300
    2.880   17.3986
    2.895   18.3570
    2.910   18.8626
    2.925   18.9047
    2.940   19.2733
    2.955   20.4739
    2.970   20.2949
    2.985   22.3591
    3.000   22.6962
    3.015   23.0753
    3.030   24.1601
    3.045   24.7077
    3.060   26.2349
    3.075   27.7304
    3.090   28.5308
    3.105   29.7314
    3.120   31.2796
    3.135   33.5018
    3.150   34.1969
    3.165   36.1664
    3.180   39.5998
    3.195   41.5166
    3.210   43.2649
    3.225   45.6451
    3.240   48.9310
    3.255   52.0800
    3.270   56.5034
    3.285   60.8531
    3.300   64.6551
    3.315   70.6898
    3.330   74.8078
    3.345   80.1475
    3.360   87.6145
    3.375   95.6819
    3.390  102.2012
    3.405  109.2365
    3.420  113.5018
    3.435  115.6504
    3.450  115.0606
    3.465  109.8262
    3.480   99.8631
    3.495   88.7941
    3.510   74.8921
    3.525   63.2122
    3.540   54.8078
    3.555   46.6983
    3.570   41.6535
    3.585   36.7878
    3.600   34.7446
    3.615   32.5961
    3.630   30.8689
    3.645   30.0790
    3.660   29.4681
    3.675   29.0363
    3.690   29.2575
    3.705   28.7520
    3.720   29.8999
    3.735   30.1843
    3.750   29.8262
    3.765   30.6161
    3.780   31.8799
    3.795   32.7646
    3.810   33.7125
    3.825   35.1238
    3.840   35.5977
    3.855   37.0406
    3.870   37.7357
    3.885   39.8210
    3.900   41.2638
    3.915   42.2959
    3.930   44.7077
    3.945   45.4660
    3.960   45.4239
    3.975   47.0985
    3.990   48.0463
    4.005   50.0158
    4.020   49.7209
    4.035   48.9310
    4.050   49.6156
    4.065   48.7204
    4.080   48.3202
    4.095   47.8252
    4.110   46.6140
    4.125   44.8447
    4.140   44.0653
    4.155   41.8220
    4.170   40.0948
    4.185   38.9679
    4.200   36.3349
    4.215   33.4281
    4.230   32.2696
    4.245   30.1422
    4.260   28.0779
    4.275   26.1611
    4.290   24.1917
    4.305   22.4434
    4.320   21.3481
    4.335   20.3160
    4.350   18.8942
    4.365   17.9463
    4.380   17.4618
    4.395   16.5456
    4.410   14.8710
    4.425   14.0916
    4.440   13.6704
    4.455   13.3123
    4.470   12.8699
    4.485   11.9747
    4.500   12.0063
    4.515   11.6693
    4.530   11.4587
    4.545   11.3955
    4.560   10.7952
    4.575   10.8268
    4.590   10.3844
    4.605    9.9421
    4.620   10.2159
    4.635    9.8052
    4.650    9.9526
    4.665    9.5313
    4.680    9.3207
    4.695    9.2154
    4.710    9.2575
    4.725    9.2996
    4.740    9.2891
    4.755    9.1522
    4.770    9.2786
    4.785    8.4887
    4.800    9.0363
    4.815    8.8046
    4.830    8.9415
    4.845    8.6888
    4.860    8.6467
    4.875    8.5203
    4.890    8.2570
    4.905    8.5097
    4.920    8.5835
    4.935    8.6256
    4.950    8.7520
    4.965    8.5097
    4.980    8.8257
    4.995    8.3939
    5.010    8.4150
    5.025    8.4781
    5.040    8.2254
    5.055    8.6256
    5.070    8.1622
    5.085    8.0779
    5.100    8.1622
    5.115    8.0463
    5.130    8.3412
    5.145    8.1095
    5.160    8.4360
    5.175    8.7625
    5.190    8.5413
    5.205    8.3834
    5.220    8.1517
    5.235    8.4781
    5.250    8.2254
    5.265    8.3623
    5.280    8.3096
    5.295    8.7204
    5.310    9.3312
    5.325    8.4781
    5.340    8.5519
    5.355    8.4255
    5.370    8.2780
    5.385    8.6467
    5.400    8.8362
    5.415    8.7836
    5.430    8.3939
    5.445    8.5203
    5.460    8.6677
    5.475    8.4255
    5.490    8.3412
    5.505    8.7625
    5.520    8.7730
    5.535    8.5519
    5.550    8.4150
    5.565    8.7204
    5.580    8.6677
    5.595    7.9726
    5.610    8.2149
    5.625    8.1201
    5.640    8.4992
    5.655    8.5308
    5.670    8.2675
    5.685    8.1833
    5.700    8.6256
    5.715    8.8573
    5.730    8.2043
    5.745    7.9410
    5.760    7.9305
    5.775    8.3834
    5.790    8.0147
    5.805    8.0042
    5.820    7.8673
    5.835    8.0885
    5.850    7.8041
    5.865    7.5935
    5.880    7.8884
    5.895    7.7620
    5.910    7.6251
    5.925    7.6883
    5.940    7.0458
    5.955    7.2880
    5.970    7.2143
    5.985    6.8984
    6.000    7.0458
    6.015    7.1195
    6.030    7.4039
    6.045    7.0879
    6.060    7.0458
    6.075    7.1301
    6.090    6.8562
    6.105    7.1617
    6.120    7.0563
    6.135    7.5829
    6.150    6.8036
    6.165    7.0985
    6.180    7.0879
    6.195    6.8457
    6.210    6.8352
    6.225    6.6667
    6.240    6.6456
    6.255    6.7299
    6.270    7.3196
    6.285    6.8668
    6.300    6.9826
    6.315    7.1933
    6.330    6.8562
    6.345    7.0248
    6.360    6.9194
    6.375    6.2981
    6.390    6.4244
    6.405    6.4666
    6.420    6.8352
    6.435    6.9089
    6.450    7.0142
    6.465    6.6561
    6.480    6.7088
    6.495    6.7193
    6.510    6.6351
    6.525    6.7825
    6.540    6.8457
    6.555    6.5403
    6.570    6.8773
    6.585    6.8036
    6.600    7.4987
    6.615    7.0774
    6.630    7.0563
    6.645    7.4250
    6.660    7.4566
    6.675    7.8568
    6.690    7.7725
    6.705    8.0253
    6.720    8.3623
    6.735    8.9205
    6.750    8.6993
    6.765    9.2680
    6.780    9.4260
    6.795   10.2370
    6.810   10.2896
    6.825   11.5324
    6.840   12.0063
    6.855   12.2275
    6.870   12.8805
    6.885   14.0179
    6.900   14.5024
    6.915   14.9868
    6.930   15.4397
    6.945   15.8504
    6.960   15.9874
    6.975   14.9131
    6.990   14.6603
    7.005   13.7967
    7.020   12.3223
    7.035   10.9742
    7.050    9.5103
    7.065    9.5208
    7.080    8.6888
    7.095    8.5835
    7.110    7.9621
    7.125    7.6567
    7.140    7.2459
    7.155    7.2038
    7.170    7.2880
    7.185    6.8352
    7.200    7.0353
    7.215    6.8457
    7.230    6.8562
    7.245    7.0879
    7.260    6.4771
    7.275    6.7509
    7.290    6.4666
    7.305    6.8141
    7.320    6.4455
    7.335    6.3086
    7.350    6.1506
    7.365    6.0664
    7.380    6.2243
    7.395    6.3296
    7.410    6.5824
    7.425    6.7509
    7.440    6.0348
    7.455    6.2875
    7.470    6.4034
    7.485    6.3823
    7.500    6.2243
    7.515    6.2454
    7.530    5.9926
    7.545    6.4771
    7.560    6.6140
    7.575    6.3612
    7.590    6.5298
    7.605    6.3823
    7.620    6.2033
    7.635    6.1927
    7.650    6.7299
    7.665    6.6140
    7.680    6.7088
    7.695    6.3823
    7.710    6.6877
    7.725    6.6667
    7.740    6.4034
    7.755    6.4560
    7.770    6.4034
    7.785    7.0669
    7.800    6.8878
    7.815    7.3512
    7.830    7.2565
    7.845    6.9826
    7.860    6.9405
    7.875    7.0142
    7.890    7.1722
    7.905    7.6777
    7.920    7.0458
    7.935    7.2459
    7.950    7.8146
    7.965    7.7199
    7.980    7.4776
    7.995    7.8884
    8.010    7.4776
    8.025    7.6988
    8.040    7.8884
    8.055    7.9726
    8.070    7.9937
    8.085    7.7620
    8.100    8.0463
    8.115    8.2043
    8.130    8.5413
    8.145    8.1095
    8.160    8.2570
    8.175    8.4255
    8.190    8.5519
    8.205    8.3412
    8.220    7.9726
    8.235    8.2675
    8.250    8.0885
    8.265    8.0674
    8.280    8.4887
    8.295    8.4044
    8.310    8.4255
    8.325    8.2149
    8.340    8.0885
    8.355    7.9410
    8.370    8.0253
    8.385    8.1622
    8.400    8.0463
    8.415    7.7199
    8.430    7.4671
    8.445    8.0990
    8.460    7.8146
    8.475    7.2880
    8.490    7.2775
    8.505    7.1722
    8.520    6.8352
    8.535    6.8773
    8.550    7.2986
    8.565    7.0774
    8.580    6.9089
    8.595    6.6667
    8.610    6.9194
    8.625    7.0458
    8.640    6.3191
    8.655    6.3612
    8.670    6.2770
    8.685    6.2243
    8.700    6.2981
    8.715    6.3191
    8.730    6.4350
    8.745    5.8978
    8.760    6.0348
    8.775    6.1295
    8.790    5.9084
    8.805    5.4871
    8.820    5.3923
    8.835    5.6556
    8.850    5.9505
    8.865    5.7820
    8.880    5.4450
    8.895    5.5608
    8.910    5.7504
    8.925    5.4660
    8.940    5.3712
    8.955    5.6661
    8.970    5.7504
    8.985    5.9821
    9.000    5.6872
    9.015    5.4134
    9.030    5.3502
    9.045    5.3397
    9.060    5.4344
    9.075    5.2027
    9.090    5.2238
    9.105    5.2765
    9.120    5.1922
    9.135    5.2027
    9.150    5.3502
    9.165    5.4555
    9.180    5.3818
    9.195    5.2133
    9.210    5.1711
    9.225    5.3923
    9.240    5.5714
    9.255    5.4450
    9.270    5.1817
    9.285    5.0026
    9.300    5.0132
    9.315    4.9605
    9.330    4.8973
    9.345    5.1711
    9.360    5.2765
    9.375    5.2554
    9.390    5.3818
    9.405    5.1395
    9.420    5.1606
    9.435    5.1817
    9.450    5.2554
    9.465    4.8131
    9.480    4.7499
    9.495    4.9605
    9.510    5.1080
    9.525    4.8341
    9.540    4.7183
    9.555    4.6340
    9.570    4.9921
    9.585    5.2027
    9.600    4.9605
    9.615    5.1185
    9.630    4.8657
    9.645    5.2343
    9.660    4.8341
    9.675    5.1185
    9.690    4.9184
    9.705    5.0026
    9.720    5.1922
    9.735    5.1606
    9.750    5.5503
    9.765    5.0448
    9.780    5.0132
    9.795    4.7393
    9.810    5.2238
    9.825    5.1711
    9.840    5.1817
    9.855    5.0553
    9.870    5.1606
    9.885    5.0974
    9.900    5.0342
    9.915    4.8131
    9.930    4.9500
    9.945    4.9605
    9.960    4.9078
    9.975    5.2133
    9.990    5.0448
   10.005    5.0658
   10.020    5.1080
   10.035    5.1185
   10.050    5.4344
   10.065    5.2765
   10.080    5.0237
   10.095    5.1501
   10.110    5.0764
   10.125    5.4239
   10.140    4.8763
   10.155    5.1817
   10.170    5.1922
   10.185    4.9710
   10.200    5.3291
   10.215    5.0026
   10.230    4.7920
   10.245    4.9078
   10.260    5.1080
   10.275    5.0553
   10.290    4.9289
   10.305    5.2870
   10.320    5.6135
   10.335    5.4239
   10.350    5.4344
   10.365    5.5398
   10.380    5.6556
   10.395    5.9821
   10.410    5.6977
   10.425    5.4660
   10.440    5.3502
   10.455    5.6661
   10.470    5.7715
   10.485    5.4766
   10.500    5.4871
   10.515    5.3502
   10.530    5.5187
   10.545    5.4450
   10.560    5.3397
   10.575    5.2765
   10.590    5.0658
   10.605    5.1606
   10.620    5.1185
   10.635    5.0764
   10.650    4.9710
   10.665    4.9394
   10.680    4.7077
   10.695    4.8763
   10.710    5.0869
   10.725    5.6135
   10.740    5.3923
   10.755    4.9921
   10.770    5.2238
   10.785    5.3081
   10.800    4.9921
   10.815    4.9921
   10.830    4.9500
   10.845    5.1501
   10.860    5.1501
   10.875    5.1922
   10.890    5.1501
   10.905    5.3397
   10.920    5.4555
   10.935    4.9921
   10.950    4.7288
   10.965    5.4555
   10.980    5.4344
   10.995    5.4871
   11.010    5.1606
   11.025    5.2133
   11.040    5.3291
   11.055    4.8552
   11.070    5.1185
   11.085    4.7604
   11.100    5.1922
   11.115    5.3923
   11.130    5.0869
   11.145    5.0764
   11.160    5.1711
   11.175    5.0132
   11.190    5.3081
   11.205    5.1185
   11.220    5.1080
   11.235    4.8552
   11.250    4.8025
   11.265    5.0448
   11.280    5.2343
   11.295    5.4134
   11.310    5.3923
   11.325    5.4450
   11.340    5.3607
   11.355    5.2133
   11.370    5.3607
   11.385    5.2659
   11.400    5.0658
   11.415    5.2554
   11.430    5.2975
   11.445    5.0553
   11.460    5.1606
   11.475    5.2133
   11.490    5.0764
   11.505    5.1290
   11.520    5.0764
   11.535    5.1606
   11.550    5.0342
   11.565    4.9184
   11.580    5.4028
   11.595    5.0553
   11.610    5.3081
   11.625    4.7920
   11.640    5.2238
   11.655    5.1080
   11.670    5.3081
   11.685    5.5082
   11.700    5.3502
   11.715    5.0448
   11.730    5.2659
   11.745    5.2238
   11.760    5.2870
   11.775    5.7715
   11.790    5.9189
   11.805    5.2975
   11.820    5.0869
   11.835    5.3291
   11.850    5.1080
   11.865    5.1606
   11.880    5.3291
   11.895    5.4976
   11.910    5.3397
   11.925    5.1606
   11.940    5.3186
   11.955    5.6029
   11.970    5.0658
   11.985    5.0237
   12.000    5.5608
   12.015    5.1185
   12.030    5.0132
   12.045    5.0658
   12.060    5.7504
   12.075    5.4976
   12.090    5.2659
   12.105    4.9500
   12.120    5.1711
   12.135    5.4660
   12.150    5.5398
   12.165    5.5608
   12.180    5.5608
   12.195    5.3712
   12.210    5.4450
   12.225    5.5608
   12.240    5.0869
   12.255    5.5924
   12.270    5.3502
   12.285    5.1185
   12.300    5.4976
   12.315    5.0974
   12.330    5.4555
   12.345    5.4450
   12.360    5.4450
   12.375    5.4555
   12.390    5.5187
   12.405    5.2659
   12.420    5.4450
   12.435    5.1080
   12.450    5.3607
   12.465    5.2027
   12.480    5.2343
   12.495    5.7399
   12.510    5.8031
   12.525    5.4660
   12.540    5.3818
   12.555    5.2343
   12.570    5.3923
   12.585    5.5398
   12.600    5.7820
   12.615    5.7293
   12.630    5.4450
   12.645    5.0869
   12.660    5.4134
   12.675    5.4450
   12.690    5.1290
   12.705    5.4028
   12.720    5.6240
   12.735    5.5398
   12.750    4.8341
   12.765    5.1501
   12.780    5.3397
   12.795    5.4871
   12.810    5.3923
   12.825    5.3502
   12.840    5.2554
   12.855    5.1080
   12.870    5.0237
   12.885    5.0869
   12.900    5.1290
   12.915    4.9394
   12.930    4.9921
   12.945    5.1817
   12.960    5.2238
   12.975    5.2659
   12.990    4.9605
   13.005    4.9394
   13.020    5.1080
   13.035    5.0658
   13.050    5.0658
   13.065    5.1501
   13.080    4.9078
   13.095    5.3397
   13.110    5.1290
   13.125    5.3186
   13.140    5.1290
   13.155    5.2765
   13.170    5.3291
   13.185    5.2343
   13.200    4.8973
   13.215    4.7920
   13.230    5.1290
   13.245    5.1606
   13.260    5.0869
   13.275    5.5714
   13.290    5.2449
   13.305    5.2554
   13.320    5.2554
   13.335    5.0869
   13.350    5.2554
   13.365    4.8341
   13.380    4.8025
   13.395    5.4555
   13.410    5.3712
   13.425    5.3502
   13.440    5.2554
   13.455    5.2027
   13.470    5.3712
   13.485    4.8657
   13.500    5.3712
   13.515    5.2449
   13.530    5.3291
   13.545    5.0764
   13.560    4.7815
   13.575    4.8552
   13.590    5.0342
   13.605    5.1606
   13.620    4.8973
   13.635    4.9710
   13.650    5.0764
   13.665    5.2449
   13.680    5.1606
   13.695    4.7709
   13.710    5.1501
   13.725    4.9605
   13.740    4.9394
   13.755    4.9184
   13.770    4.8868
   13.785    5.2133
   13.800    4.8868
   13.815    5.3923
   13.830    5.0869
   13.845    5.1711
   13.860    5.0974
   13.875    5.0764
   13.890    5.4766
   13.905    5.3186
   13.920    5.2870
   13.935    4.9710
   13.950    5.1290
   13.965    5.1501
   13.980    5.4450
   13.995    4.8868
   14.010    4.9184
   14.025    5.1185
   14.040    5.3818
   14.055    5.1395
   14.070    5.0974
   14.085    5.4028
   14.100    4.8868
   14.115    5.0658
   14.130    5.3607
   14.145    5.3818
   14.160    5.0553
   14.175    5.0026
   14.190    5.2238
   14.205    4.9500
   14.220    5.4239
   14.235    5.4555
   14.250    5.0869
   14.265    4.7815
   14.280    5.0553
   14.295    5.1817
   14.310    4.9394
   14.325    5.0974
   14.340    5.1185
   14.355    5.1922
   14.370    5.0026
   14.385    5.3291
   14.400    5.2554
   14.415    5.0448
   14.430    5.1395
   14.445    5.1290
   14.460    5.0658
   14.475    5.0342
   14.490    5.0553
   14.505    4.8763
   14.520    5.1817
   14.535    5.0237
   14.550    5.3923
   14.565    5.2027
   14.580    5.1185
   14.595    5.1501
   14.610    5.1080
   14.625    5.3081
   14.640    4.9184
   14.655    5.2659
   14.670    4.9184
   14.685    4.8341
   14.700    5.3502
   14.715    5.2027
   14.730    5.0448
   14.745    5.0974
   14.760    5.1395
   14.775    4.9921
   14.790    5.3712
   14.805    4.7183
   14.820    4.7499
   14.835    5.0132
   14.850    4.6235
   14.865    4.9921
   14.880    5.1080
   14.895    5.0026
   14.910    4.6656
   14.925    5.0764
   14.940    5.0448
   14.955    4.7815
   14.970    4.7183
   14.985    4.8868
   15.000    5.1606
   15.015    5.0026
   15.030    4.9394
   15.045    4.6972
   15.060    4.5603
   15.075    4.8025
   15.090    4.7288
   15.105    4.8973
   15.120    4.9605
   15.135    5.0237
   15.150    5.0448
   15.165    5.2870
   15.180    5.2659
   15.195    4.9184
   15.210    4.8341
   15.225    4.9184
   15.240    5.1501
   15.255    4.9816
   15.270    4.6024
   15.285    4.7288
   15.300    5.1080
   15.315    4.5919
   15.330    4.7499
   15.345    5.2554
   15.360    4.8868
   15.375    4.8025
   15.390    4.7920
   15.405    4.8341
   15.420    4.8973
   15.435    5.0658
   15.450    5.0553
   15.465    5.1395
   15.480    4.5498
   15.495    5.1711
   15.510    5.0974
   15.525    4.7920
   15.540    5.1185
   15.555    5.0974
   15.570    5.0026
   15.585    5.1080
   15.600    5.1290
   15.615    4.9816
   15.630    4.6761
   15.645    4.6972
   15.660    4.7920
   15.675    4.8552
   15.690    4.7288
   15.705    5.0553
   15.720    5.3397
   15.735    5.1080
   15.750    5.2133
   15.765    4.9289
   15.780    5.1290
   15.795    5.2870
   15.810    5.0342
   15.825    5.1501
   15.840    4.7815
   15.855    5.0237
   15.870    4.8341
   15.885    4.9921
   15.900    5.2343
   15.915    5.1606
   15.930    5.2238
   15.945    4.8763
   15.960    5.0237
   15.975    4.8236
   15.990    4.9289
   16.005    5.0237
   16.020    5.3923
   16.035    5.2133
   16.050    5.1080
   16.065    5.0869
   16.080    4.7499
   16.095    4.7077
   16.110    5.0974
   16.125    5.2343
   16.140    4.9289
   16.155    4.9710
   16.170    4.6867
   16.185    5.0553
   16.200    4.9394
   16.215    4.6972
   16.230    4.7499
   16.245    5.0869
   16.260    4.9394
   16.275    4.9500
   16.290    4.9394
   16.305    4.6972
   16.320    4.6761
   16.335    4.8868
   16.350    4.6551
   16.365    4.7183
   16.380    4.8025
   16.395    4.7499
   16.410    5.1606
   16.425    5.1711
   16.440    4.9500
   16.455    4.9184
   16.470    4.8447
   16.485    4.9184
   16.500    4.8236
   16.515    4.7288
   16.530    4.9078
   16.545    4.9184
   16.560    4.6972
   16.575    4.9605
   16.590    4.7499
   16.605    4.9710
   16.620    4.8657
   16.635    4.7920
   16.650    4.7183
   16.665    4.6761
   16.680    4.7499
   16.695    4.7920
   16.710    4.8131
   16.725    4.7815
   16.740    4.6130
   16.755    4.4339
   16.770    4.6024
   16.785    4.8341
   16.800    4.8657
   16.815    4.7920
   16.830    4.9184
   16.845    4.9500
   16.860    4.5603
   16.875    4.7815
   16.890    4.6235
   16.905    4.8341
   16.920    5.0869
   16.935    4.8131
   16.950    4.6340
   16.965    4.5603
   16.980    4.6867
   16.995    4.6972
   17.010    4.6761
   17.025    4.8868
   17.040    4.8657
   17.055    4.7393
   17.070    5.0132
   17.085    4.6551
   17.100    4.8657
   17.115    4.7499
   17.130    5.0448
   17.145    4.9605
   17.160    4.3286
   17.175    4.5603
   17.190    5.0342
   17.205    4.8868
   17.220    5.0132
   17.235    5.0342
   17.250    4.8341
   17.265    4.8763
   17.280    4.5919
   17.295    4.5919
   17.310    4.8763
   17.325    4.8868
   17.340    4.8341
   17.355    4.8025
   17.370    4.8447
   17.385    4.6972
   17.400    4.5076
   17.415    4.7604
   17.430    4.9500
   17.445    4.7288
   17.460    4.7815
   17.475    4.9816
   17.490    4.8025
   17.505    5.0553
   17.520    4.9184
   17.535    4.9184
   17.550    4.8973
   17.565    4.8657
   17.580    4.7920
   17.595    4.6867
   17.610    4.6445
   17.625    4.6761
   17.640    4.8341
   17.655    5.0026
   17.670    4.5919
   17.685    4.9500
   17.700    4.9289
   17.715    4.7920
   17.730    4.9394
   17.745    4.7288
   17.760    4.7815
   17.775    5.1501
   17.790    4.9710
   17.805    4.8973
   17.820    4.8341
   17.835    4.9921
   17.850    4.8341
   17.865    4.8341
   17.880    4.7499
   17.895    4.6130
   17.910    4.7288
   17.925    4.7815
   17.940    4.7077
   17.955    4.7393
   17.970    4.7077
   17.985    4.7920
   18.000    4.7920
   18.015    5.0026
   18.030    5.1080
   18.045    5.0026
   18.060    4.9394
   18.075    5.0553
   18.090    4.8973
   18.105    4.7709
   18.120    4.8657
   18.135    4.7183
   18.150    4.4128
   18.165    4.6340
   18.180    4.8552
   18.195    4.7393
   18.210    4.9289
   18.225    5.0026
   18.240    4.9078
   18.255    4.9394
   18.270    4.6656
   18.285    4.8973
   18.300    5.1711
   18.315    4.9184
   18.330    4.7604
   18.345    4.4339
   18.360    4.5182
   18.375    4.6445
   18.390    4.9710
   18.405    4.9184
   18.420    5.1185
   18.435    4.9078
   18.450    4.6656
   18.465    4.7815
   18.480    4.7288
   18.495    4.9816
   18.510    5.1290
   18.525    4.7077
   18.540    4.3918
   18.555    4.7920
   18.570    4.9289
   18.585    4.9184
   18.600    4.8657
   18.615    4.4760
   18.630    4.6972
   18.645    4.7499
   18.660    4.7815
   18.675    4.8868
   18.690    4.7709
   18.705    4.6235
   18.720    4.6235
   18.735    4.7709
   18.750    4.7604
   18.765    4.8868
   18.780    4.9394
   18.795    4.7815
   18.810    4.7815
   18.825    4.6024
   18.840    4.7077
   18.855    4.9605
   18.870    4.6761
   18.885    4.9500
   18.900    4.6130
   18.915    4.7077
   18.930    4.6445
   18.945    5.0764
   18.960    4.8868
   18.975    4.7920
   18.990    5.0237
   19.005    4.8236
   19.020    4.9394
   19.035    4.8552
   19.050    4.6445
   19.065    4.8025
   19.080    4.9921
   19.095    4.7288
   19.110    4.7183
   19.125    4.8131
   19.140    4.5182
   19.155    4.7815
   19.170    4.5603
   19.185    4.4023
   19.200    4.7815
   19.215    4.9500
   19.230    4.9500
   19.245    4.8657
   19.260    4.8447
   19.275    4.8868
   19.290    4.8763
   19.305    4.3918
   19.320    4.8447
   19.335    5.0342
   19.350    5.2027
   19.365    5.0026
   19.380    5.0764
   19.395    5.3081
   19.410    5.1606
   19.425    4.9184
   19.440    4.7077
   19.455    4.6551
   19.470    5.3186
   19.485    5.0237
   19.500    5.2133
   19.515    5.2765
   19.530    4.7815
   19.545    5.0237
   19.560    5.0132
   19.575    4.7393
   19.590    5.1922
   19.605    5.2343
   19.620    5.2449
   19.635    5.0764
   19.650    5.0869
   19.665    4.7393
   19.680    5.0974
   19.695    4.6340
   19.710    4.7077
   19.725    5.2554
   19.740    5.3923
   19.755    4.8341
   19.770    4.8552
   19.785    5.1080
   19.800    4.8763
   19.815    4.6867
   19.830    4.9394
   19.845    5.0658
   19.860    4.9710
   19.875    5.1080
   19.890    5.3291
   19.905    4.7183
   19.920    4.8341
   19.935    4.9289
   19.950    4.8763
   19.965    4.7709
   19.980    5.0448
   19.995    5.0448
   20.010    5.1080
   20.025    5.1501
   20.040    5.0553
   20.055    4.9289
   20.070    4.8447
   20.085    4.9184
   20.100    4.6761
   20.115    5.0026
   20.130    5.2449
   20.145    5.2659
   20.160    5.2554
   20.175    5.2975
   20.190    5.2765
   20.205    5.0869
   20.220    4.9500
   20.235    4.7077
   20.250    4.8973
   20.265    5.2975
   20.280    4.8447
   20.295    4.9184
   20.310    5.0026
   20.325    4.8973
   20.340    4.9921
   20.355    4.9921
   20.370    4.6867
   20.385    4.7920
   20.400    5.0132
   20.415    5.0237
   20.430    4.7499
   20.445    4.7499
   20.460    5.3818
   20.475    5.0237
   20.490    4.9921
   20.505    4.6130
   20.520    4.9710
   20.535    4.6235
   20.550    4.7499
   20.565    5.4344
   20.580    4.9710
   20.595    4.9289
   20.610    4.8131
   20.625    4.4655
   20.640    4.7288
   20.655    4.9816
   20.670    5.2765
   20.685    5.1817
   20.700    5.0658
   20.715    5.1290
   20.730    4.8131
   20.745    4.8552
   20.760    4.8868
   20.775    5.0448
   20.790    5.2343
   20.805    4.7604
   20.820    5.0658
   20.835    5.0448
   20.850    4.7709
   20.865    4.7920
   20.880    4.7920
   20.895    4.8763
   20.910    4.7815
   20.925    4.9710
   20.940    4.7393
   20.955    4.9078
   20.970    5.2449
   20.985    4.7709
   21.000    4.8025
   21.015    5.0869
   21.030    4.9710
   21.045    5.0764
   21.060    5.3186
   21.075    5.2659
   21.090    4.8657
   21.105    5.4344
   21.120    5.0342
   21.135    4.7288
   21.150    4.8447
   21.165    5.1501
   21.180    5.1290
   21.195    4.7709
   21.210    4.5814
   21.225    4.7815
   21.240    4.8236
   21.255    4.8025
   21.270    5.0342
   21.285    4.9500
   21.300    5.1501
   21.315    4.9921
   21.330    4.6235
   21.345    4.7604
   21.360    5.0974
   21.375    4.9816
   21.390    4.8973
   21.405    4.9078
   21.420    4.8341
   21.435    4.7183
   21.450    4.8552
   21.465    4.8763
   21.480    4.5076
   21.495    4.7288
   21.510    5.0448
   21.525    4.9394
   21.540    4.9289
   21.555    4.7077
   21.570    4.9500
   21.585    4.7604
   21.600    4.6024
   21.615    4.6972
   21.630    5.1395
   21.645    4.9394
   21.660    4.7920
   21.675    4.6445
   21.690    4.9394
   21.705    4.9184
   21.720    4.8763
   21.735    4.7709
   21.750    4.9500
   21.765    4.6130
   21.780    4.6445
   21.795    5.1606
   21.810    4.8868
   21.825    4.9921
   21.840    4.9394
   21.855    4.8341
   21.870    4.4866
   21.885    4.8868
   21.900    5.0974
   21.915    4.9500
   21.930    4.9078
   21.945    4.8341
   21.960    5.0237
   21.975    4.7393
   21.990    4.9184
   22.005    4.8973
   22.020    4.8868
   22.035    5.3186
   22.050    4.8763
   22.065    4.6024
   22.080    4.7288
   22.095    4.9078
   22.110    4.9184
   22.125    4.8657
   22.140    4.7920
   22.155    4.7604
   22.170    4.6656
   22.185    4.9184
   22.200    4.8131
   22.215    4.6235
   22.230    4.6340
   22.245    4.7183
   22.260    4.8447
   22.275    4.8236
   22.290    4.8868
   22.305    4.8341
   22.320    4.7077
   22.335    4.6235
   22.350    4.5814
   22.365    4.6867
   22.380    4.9289
   22.395    5.0237
   22.410    4.7604
   22.425    4.6867
   22.440    4.6024
   22.455    4.5708
   22.470    4.9184
   22.485    4.8447
   22.500    4.7077
   22.515    4.7709
   22.530    4.9816
   22.545    4.7709
   22.560    4.7393
   22.575    4.8341
   22.590    5.0132
   22.605    4.5392
   22.620    4.8447
   22.635    4.9816
   22.650    4.7815
   22.665    4.6024
   22.680    4.5392
   22.695    4.4866
   22.710    4.6445
   22.725    4.7920
   22.740    4.8341
   22.755    4.3497
   22.770    4.7604
   22.785    4.8025
   22.800    4.5392
   22.815    4.5182
   22.830    4.4234
   22.845    4.8236
   22.860    4.7288
   22.875    4.8025
   22.890    4.7077
   22.905    4.6972
   22.920    4.6024
   22.935    4.4655
   22.950    4.4550
   22.965    4.5814
   22.980    4.6551
   22.995    4.4971
   23.010    4.6656
   23.025    4.6867
   23.040    4.4655
   23.055    4.8236
   23.070    4.8657
   23.085    4.3391
   23.100    4.7499
   23.115    4.6972
   23.130    4.6340
   23.145    4.6130
   23.160    4.8341
   23.175    4.6024
   23.190    4.2022
   23.205    4.4866
   23.220    4.3707
   23.235    4.2127
   23.250    4.5814
   23.265    4.6340
   23.280    4.4655
   23.295    4.3707
   23.310    4.3391
   23.325    4.5182
   23.340    4.9078
   23.355    4.4655
   23.370    4.1917
   23.385    4.8131
   23.400    4.4655
   23.415    4.2759
   23.430    4.4128
   23.445    4.2865
   23.460    4.5392
   23.475    4.6551
   23.490    4.6867
   23.505    4.4128
   23.520    4.2127
   23.535    4.7183
   23.550    4.5919
   23.565    4.4655
   23.580    4.4023
   23.595    4.5287
   23.610    4.4234
   23.625    4.5708
   23.640    4.3707
   23.655    4.2443
   23.670    4.1390
   23.685    4.5814
   23.700    4.4866
   23.715    4.6340
   23.730    4.6656
   23.745    4.5498
   23.760    4.4971
   23.775    4.4339
   23.790    4.5814
   23.805    4.4550
   23.820    4.8868
   23.835    4.5287
   23.850    4.2759
   23.865    4.4234
   23.880    4.3181
   23.895    4.3181
   23.910    4.3181
   23.925    4.1811
   23.940    4.3813
   23.955    4.5603
   23.970    4.4339
   23.985    4.2865
   24.000    4.3181
   24.015    4.4550
   24.030    4.5392
   24.045    4.3286
   24.060    4.3813
   24.075    4.5498
   24.090    4.3602
   24.105    4.3918
   24.120    4.5708
   24.135    4.2443
   24.150    4.3181
   24.165    4.4023
   24.180    4.5498
   24.195    4.3497
   24.210    4.3813
   24.225    4.4655
   24.240    4.5498
   24.255    4.6340
   24.270    4.6972
   24.285    4.5603
   24.300    4.3602
   24.315    4.4866
   24.330    4.5708
   24.345    4.4760
   24.360    3.9916
   24.375    4.0758
   24.390    4.6340
   24.405    4.4339
   24.420    4.2338
   24.435    4.4128
   24.450    4.1917
   24.465    4.0969
   24.480    4.4339
   24.495    4.3075
   24.510    4.5814
   24.525    4.5498
   24.540    4.4128
   24.555    4.1496
   24.570    4.2233
   24.585    4.3075
   24.600    4.6445
   24.615    4.2549
   24.630    4.2654
   24.645    4.2549
   24.660    4.3181
   24.675    4.1706
   24.690    4.1074
   24.705    4.4234
   24.720    4.0232
   24.735    4.2759
   24.750    4.3707
   24.765    4.2233
   24.780    4.3391
   24.795    4.3286
   24.810    4.3075
   24.825    4.4339
   24.840    4.0969
   24.855    4.3813
   24.870    4.2443
   24.885    4.1601
   24.900    4.3497
   24.915    4.2127
   24.930    4.3286
   24.945    4.2022
   24.960    4.3497
   24.975    4.1917
   24.990    4.2233
   25.005    4.1285
   25.020    4.1180
   25.035    4.0126
   25.050    4.5603
   25.065    4.4760
   25.080    4.6867
   25.095    4.3497
   25.110    4.2338
   25.125    4.1917
   25.140    4.1285
   25.155    4.2654
   25.170    3.9916
   25.185    4.3497
   25.200    4.5076
   25.215    4.1601
   25.230    4.0442
   25.245    4.1496
   25.260    4.0969
   25.275    4.2022
   25.290    4.2022
   25.305    4.2970
   25.320    4.4866
   25.335    4.0337
   25.350    4.3075
   25.365    4.1180
   25.380    3.9179
   25.395    4.0337
   25.410    4.0969
   25.425    4.2443
   25.440    4.4444
   25.455    4.3391
   25.470    4.3075
   25.485    4.2022
   25.500    4.1285
   25.515    4.3075
   25.530    4.0442
   25.545    3.9705
   25.560    3.9494
   25.575    4.0126
   25.590    4.1917
   25.605    3.8125
   25.620    4.1811
   25.635    4.5392
   25.650    4.1706
   25.665    4.2759
   25.680    4.5919
   25.695    3.9810
   25.710    3.8125
   25.725    3.7072
   25.740    3.7915
   25.755    3.8968
   25.770    4.0126
   25.785    4.0232
   25.800    4.2549
   25.815    4.3286
   25.830    4.0442
   25.845    3.9916
   25.860    3.6440
   25.875    4.0548
   25.890    4.1706
   25.905    4.3181
   25.920    3.8547
   25.935    3.6967
   25.950    4.1285
   25.965    3.9389
   25.980    3.9916
   25.995    3.9494
   26.010    4.1601
   26.025    4.1917
   26.040    4.4234
   26.055    4.2233
   26.070    4.0442
   26.085    3.7915
   26.100    4.0653
   26.115    4.0548
   26.130    4.2549
   26.145    3.8547
   26.160    3.9284
   26.175    3.9705
   26.190    3.9389
   26.205    3.9810
   26.220    4.0758
   26.235    3.9916
   26.250    4.0126
   26.265    3.8863
   26.280    4.0337
   26.295    4.2654
   26.310    3.6967
   26.325    3.8441
   26.340    3.9705
   26.355    3.6862
   26.370    3.8125
   26.385    4.2338
   26.400    3.9073
   26.415    3.8020
   26.430    4.1496
   26.445    4.0864
   26.460    4.0548
   26.475    3.9073
   26.490    4.1811
   26.505    4.1390
   26.520    4.2233
   26.535    4.3075
   26.550    3.9389
   26.565    4.1811
   26.580    4.0758
   26.595    3.6335
   26.610    3.9494
   26.625    3.7493
   26.640    4.0548
   26.655    4.2865
   26.670    4.1074
   26.685    4.0021
   26.700    3.8020
   26.715    4.0864
   26.730    3.8125
   26.745    4.1390
   26.760    3.9810
   26.775    4.0126
   26.790    3.9073
   26.805    4.2549
   26.820    3.6651
   26.835    3.6230
   26.850    3.8441
   26.865    4.0442
   26.880    4.1180
   26.895    3.9389
   26.910    4.1601
   26.925    3.4123
   26.940    3.8652
   26.955    4.0653
   26.970    3.9494
   26.985    3.7177
   27.000    3.7177
   27.015    3.6335
   27.030    3.7704
   27.045    4.0548
   27.060    3.6651
   27.075    3.7072
   27.090    3.8231
   27.105    4.0337
   27.120    3.8020
   27.135    3.5176
   27.150    3.8547
   27.165    3.7599
   27.180    3.9916
   27.195    3.7704
   27.210    3.8547
   27.225    3.8652
   27.240    3.8125
   27.255    4.0232
   27.270    3.6440
   27.285    3.6440
   27.300    3.9705
   27.315    3.8336
   27.330    3.9073
   27.345    3.7072
   27.360    3.7599
   27.375    4.1706
   27.390    3.7599
   27.405    3.5598
   27.420    3.5914
   27.435    3.8125
   27.450    4.2233
   27.465    4.0442
   27.480    3.8336
   27.495    3.6651
   27.510    3.5703
   27.525    3.6967
   27.540    3.7283
   27.555    3.6967
   27.570    4.0442
   27.585    3.8336
   27.600    3.6756
   27.615    3.6440
   27.630    3.8863
   27.645    3.9810
   27.660    3.5598
   27.675    3.6019
   27.690    3.6335
   27.705    3.6967
   27.720    3.7283
   27.735    3.8020
   27.750    3.5914
   27.765    3.4544
   27.780    3.7177
   27.795    3.6440
   27.810    3.6019
   27.825    3.7072
   27.840    3.8125
   27.855    3.5282
   27.870    3.6230
   27.885    4.0021
   27.900    3.8125
   27.915    3.8125
   27.930    3.7599
   27.945    3.6019
   27.960    3.5914
   27.975    3.9073
   27.990    3.8652
   28.005    3.6756
   28.020    3.8231
   28.035    3.7493
   28.050    3.7704
   28.065    3.9494
   28.080    3.9179
   28.095    3.7809
   28.110    4.2654
   28.125    4.0969
   28.140    3.4544
   28.155    3.6124
   28.170    3.7283
   28.185    3.6967
   28.200    3.5387
   28.215    4.0126
   28.230    4.1390
   28.245    3.5703
   28.260    3.6335
   28.275    4.0969
   28.290    4.0337
   28.305    3.6967
   28.320    4.2759
   28.335    4.2338
   28.350    4.0969
   28.365    4.1074
   28.380    4.0232
   28.395    3.8757
   28.410    4.0969
   28.425    3.9705
   28.440    3.9073
   28.455    3.7915
   28.470    4.0021
   28.485    4.0653
   28.500    3.6967
   28.515    3.6756
   28.530    3.6546
   28.545    3.7177
   28.560    3.5808
   28.575    3.6230
   28.590    3.8125
   28.605    3.6230
   28.620    3.6019
   28.635    4.0548
   28.650    3.8968
   28.665    3.8547
   28.680    3.6756
   28.695    3.7599
   28.710    3.8231
   28.725    3.7072
   28.740    3.7809
   28.755    3.9073
   28.770    3.8231
   28.785    3.7072
   28.800    4.0232
   28.815    3.8652
   28.830    3.7493
   28.845    3.8652
   28.860    3.9810
   28.875    3.5914
   28.890    3.8336
   28.905    3.8441
   28.920    3.9179
   28.935    4.0442
   28.950    3.6651
   28.965    3.7072
   28.980    3.8547
   28.995    3.8336
   29.010    3.7704
   29.025    3.6124
   29.040    3.6230
   29.055    3.7177
   29.070    3.7493
   29.085    3.9494
   29.100    3.6230
   29.115    3.8336
   29.130    3.5703
   29.145    3.6967
   29.160    4.1180
   29.175    3.5071
   29.190    3.4860
   29.205    3.6440
   29.220    3.6019
   29.235    3.4860
   29.250    3.7388
   29.265    3.7388
   29.280    3.9916
   29.295    3.9705
   29.310    3.9284
   29.325    3.6651
   29.340    3.8336
   29.355    3.4650
   29.370    3.5282
   29.385    3.6335
   29.400    3.8231
   29.415    3.5598
   29.430    3.4334
   29.445    3.4755
   29.460    3.5492
   29.475    3.5492
   29.490    3.6335
   29.505    3.4018
   29.520    3.4860
   29.535    3.4334
   29.550    3.6124
   29.565    3.7809
   29.580    3.4650
   29.595    3.6546
   29.610    3.8231
   29.625    3.6967
   29.640    3.5176
   29.655    3.6230
   29.670    3.3281
   29.685    3.5808
   29.700    3.5598
   29.715    3.1280
   29.730    3.4755
   29.745    3.7388
   29.760    3.6651
   29.775    3.5176
   29.790    3.4966
   29.805    3.5387
   29.820    3.3070
   29.835    3.6546
   29.850    3.6440
   29.865    3.4755
   29.880    3.4860
   29.895    3.9600
   29.910    3.6756
   29.925    3.7177
   29.940    3.5703
   29.955    3.3491
   29.970    3.2122
   29.985    3.4229
   30.000    3.7599
   30.015    3.6124
   30.030    3.6124
   30.045    3.2122
   30.060    3.6967
   30.075    3.2227
   30.090    3.3807
   30.105    3.5282
   30.120    3.6124
   30.135    3.6967
   30.150    3.7283
   30.165    3.7915
   30.180    3.6019
   30.195    3.6124
   30.210    3.4018
   30.225    3.6230
   30.240    3.6440
   30.255    3.2859
   30.270    3.1806
   30.285    3.4123
   30.300    3.4334
   30.315    3.4018
   30.330    3.4860
   30.345    3.3807
   30.360    3.4439
   30.375    3.4334
   30.390    3.7283
   30.405    3.5176
   30.420    3.6124
   30.435    3.6019
   30.450    3.5598
   30.465    3.3807
   30.480    3.4439
   30.495    3.4966
   30.510    3.6230
   30.525    3.6230
   30.540    3.7704
   30.555    3.4755
   30.570    3.4966
   30.585    3.5176
   30.600    3.4860
   30.615    3.5071
   30.630    3.2438
   30.645    3.3597
   30.660    3.6019
   30.675    3.4018
   30.690    3.4860
   30.705    3.8757
   30.720    3.5598
   30.735    3.5176
   30.750    3.4123
   30.765    3.6019
   30.780    3.6230
   30.795    3.4650
   30.810    3.0964
   30.825    3.2859
   30.840    3.3386
   30.855    3.4018
   30.870    3.3070
   30.885    3.3281
   30.900    3.5387
   30.915    3.5492
   30.930    3.4860
   30.945    3.5598
   30.960    3.5387
   30.975    3.4650
   30.990    3.5176
   31.005    3.4860
   31.020    3.4860
   31.035    3.3702
   31.050    3.3597
   31.065    3.2333
   31.080    3.3491
   31.095    3.4123
   31.110    3.7072
   31.125    3.5598
   31.140    3.4650
   31.155    3.6230
   31.170    3.4439
   31.185    3.4860
   31.200    3.4755
   31.215    3.6335
   31.230    3.6124
   31.245    3.2859
   31.260    3.4018
   31.275    3.4334
   31.290    3.5071
   31.305    3.5703
   31.320    3.6651
   31.335    3.4755
   31.350    3.3807
   31.365    3.5071
   31.380    3.1806
   31.395    3.4544
   31.410    3.5808
   31.425    3.5914
   31.440    3.3175
   31.455    3.2543
   31.470    3.2859
   31.485    3.2017
   31.500    3.3386
   31.515    3.2754
   31.530    3.4229
   31.545    3.4650
   31.560    3.5071
   31.575    3.3281
   31.590    3.2122
   31.605    3.4966
   31.620    3.5703
   31.635    3.4018
   31.650    3.3281
   31.665    3.4123
   31.680    3.5703
   31.695    3.4123
   31.710    3.4229
   31.725    3.3386
   31.740    3.4544
   31.755    3.6546
   31.770    3.5176
   31.785    3.5387
   31.800    3.6124
   31.815    3.5703
   31.830    3.6230
   31.845    3.5914
   31.860    3.5176
   31.875    3.4544
   31.890    3.5176
   31.905    3.4439
   31.920    3.8020
   31.935    3.7809
   31.950    3.5282
   31.965    3.4755
   31.980    3.3070
   31.995    3.5492
   32.010    3.5176
   32.025    3.5703
   32.040    3.4018
   32.055    3.4755
   32.070    3.4439
   32.085    3.4018
   32.100    3.2122
   32.115    3.2754
   32.130    3.3070
   32.145    3.3281
   32.160    3.3175
   32.175    3.3702
   32.190    3.4966
   32.205    3.4966
   32.220    3.3491
   32.235    3.3913
   32.250    3.4755
   32.265    3.5598
   32.280    3.5282
   32.295    3.2859
   32.310    3.3597
   32.325    3.6967
   32.340    3.5282
   32.355    3.6651
   32.370    3.4755
   32.385    3.4334
   32.400    3.2543
   32.415    3.1385
   32.430    3.2543
   32.445    3.1701
   32.460    3.2543
   32.475    3.4439
   32.490    3.3807
   32.505    3.3281
   32.520    3.5071
   32.535    3.2754
   32.550    3.4229
   32.565    3.4860
   32.580    3.3491
   32.595    3.1912
   32.610    3.0542
   32.625    3.3491
   32.640    3.3070
   32.655    3.1490
   32.670    3.2965
   32.685    3.2649
   32.700    3.1806
   32.715    3.1912
   32.730    3.0542
   32.745    3.1174
   32.760    3.3070
   32.775    3.1701
   32.790    3.2227
   32.805    3.4860
   32.820    3.5703
   32.835    3.5387
   32.850    3.0332
   32.865    3.4860
   32.880    3.2859
   32.895    3.1069
   32.910    3.1596
   32.925    3.3702
   32.940    3.0648
   32.955    3.1701
   32.970    3.2859
   32.985    3.2859
   33.000    3.2227
   33.015    3.2649
   33.030    3.4229
   33.045    3.2543
   33.060    3.4229
   33.075    2.9805
   33.090    2.9489
   33.105    3.3386
   33.120    3.2754
   33.135    3.2859
   33.150    3.3491
   33.165    3.2017
   33.180    3.0753
   33.195    3.6019
   33.210    3.3386
   33.225    3.2543
   33.240    3.4018
   33.255    3.3702
   33.270    3.4755
   33.285    3.3070
   33.300    3.1385
   33.315    3.4544
   33.330    3.4229
   33.345    3.1912
   33.360    3.2227
   33.375    3.4755
   33.390    3.2859
   33.405    3.1806
   33.420    3.2859
   33.435    3.3386
   33.450    3.1912
   33.465    3.2543
   33.480    3.1385
   33.495    3.4018
   33.510    3.2122
   33.525    3.4334
   33.540    3.3281
   33.555    3.2965
   33.570    3.2543
   33.585    3.1596
   33.600    3.2754
   33.615    3.4229
   33.630    3.3070
   33.645    3.0332
   33.660    3.3491
   33.675    3.1174
   33.690    3.1385
   33.705    3.3702
   33.720    3.3597
   33.735    3.3386
   33.750    3.2754
   33.765    3.3175
   33.780    3.2017
   33.795    3.3491
   33.810    3.0858
   33.825    3.1490
   33.840    3.3491
   33.855    3.3386
   33.870    3.1280
   33.885    3.2965
   33.900    3.4229
   33.915    3.2649
   33.930    3.3807
   33.945    3.2227
   33.960    3.1806
   33.975    3.1701
   33.990    3.2333
   34.005    3.2859
   34.020    3.1806
   34.035    3.3702
   34.050    3.3702
   34.065    3.3070
   34.080    3.0964
   34.095    3.1490
   34.110    3.4018
   34.125    3.1280
   34.140    3.1174
   34.155    3.2543
   34.170    3.3070
   34.185    3.4123
   34.200    2.9805
   34.215    3.1069
   34.230    3.4860
   34.245    3.3175
   34.260    3.1490
   34.275    3.3913
   34.290    3.1069
   34.305    3.0964
   34.320    3.1174
   34.335    2.8752
   34.350    3.0121
   34.365    3.3597
   34.380    3.3070
   34.395    3.4334
   34.410    3.5071
   34.425    3.5071
   34.440    3.2649
   34.455    3.0121
   34.470    3.2649
   34.485    3.1490
   34.500    3.0437
   34.515    3.0858
   34.530    2.9173
   34.545    3.0858
   34.560    3.2754
   34.575    3.3913
   34.590    3.1701
   34.605    3.3491
   34.620    3.2543
   34.635    3.2965
   34.650    3.3702
   34.665    3.4334
   34.680    2.9910
   34.695    3.3491
   34.710    3.2333
   34.725    3.4229
   34.740    3.0648
   34.755    3.1490
   34.770    3.2333
   34.785    3.4334
   34.800    3.3597
   34.815    2.9805
   34.830    3.3386
   34.845    3.2859
   34.860    3.2649
   34.875    3.4439
   34.890    3.2965
   34.905    3.2965
   34.920    3.2859
   34.935    3.1069
   34.950    3.4439
   34.965    3.0648
   34.980    3.1174
   34.995    2.9700
   35.010    3.0648
   35.025    3.1912
   35.040    3.2649
   35.055    3.0858
   35.070    3.3807
   35.085    3.0858
   35.100    3.2754
   35.115    3.3175
   35.130    3.0542
   35.145    3.2965
   35.160    3.0858
   35.175    3.3702
   35.190    3.0542
   35.205    3.0964
   35.220    3.2754
   35.235    3.1069
   35.250    3.0648
   35.265    3.1280
   35.280    3.3281
   35.295    3.2122
   35.310    3.3281
   35.325    3.1912
   35.340    3.5914
   35.355    3.3702
   35.370    3.1912
   35.385    3.1596
   35.400    3.3491
   35.415    3.2227
   35.430    3.1069
   35.445    3.1806
   35.460    2.9805
   35.475    3.0542
   35.490    3.1490
   35.505    3.0542
   35.520    3.1806
   35.535    3.2227
   35.550    3.1069
   35.565    3.2017
   35.580    3.3597
   35.595    3.3281
   35.610    3.2017
   35.625    3.1806
   35.640    3.3281
   35.655    3.3702
   35.670    3.1385
   35.685    3.2227
   35.700    2.9910
   35.715    3.2438
   35.730    3.1701
   35.745    3.1385
   35.760    3.4018
   35.775    3.1490
   35.790    3.1069
   35.805    2.9489
   35.820    3.0332
   35.835    3.5176
   35.850    3.6019
   35.865    3.4018
   35.880    3.3807
   35.895    3.3597
   35.910    3.0437
   35.925    3.2649
   35.940    3.2859
   35.955    3.1912
   35.970    3.2227
   35.985    3.2122
   36.000    3.1596
   36.015    3.2543
   36.030    3.2649
   36.045    3.2122
   36.060    3.0016
   36.075    3.0858
   36.090    3.3386
   36.105    3.1596
   36.120    2.9173
   36.135    3.2017
   36.150    3.2543
   36.165    3.1069
   36.180    3.1596
   36.195    3.2965
   36.210    3.0121
   36.225    3.2859
   36.240    3.1069
   36.255    3.1701
   36.270    3.0964
   36.285    3.1174
   36.300    3.2227
   36.315    3.2333
   36.330    3.1806
   36.345    2.9279
   36.360    3.0753
   36.375    2.9805
   36.390    3.4755
   36.405    3.2017
   36.420    2.9910
   36.435    3.1806
   36.450    2.7067
   36.465    3.0542
   36.480    3.3070
   36.495    3.0226
   36.510    2.9384
   36.525    3.1596
   36.540    3.1806
   36.555    3.1490
   36.570    3.0542
   36.585    3.2122
   36.600    3.4018
   36.615    3.3386
   36.630    3.2227
   36.645    3.0542
   36.660    3.1806
   36.675    2.9068
   36.690    2.9173
   36.705    3.0121
   36.720    3.1912
   36.735    3.0332
   36.750    3.0226
   36.765    3.2438
   36.780    3.1912
   36.795    3.0858
   36.810    3.0542
   36.825    3.0016
   36.840    3.3702
   36.855    3.0332
   36.870    3.0753
   36.885    3.2333
   36.900    3.4123
   36.915    3.2122
   36.930    2.9595
   36.945    3.2017
   36.960    3.5071
   36.975    3.1912
   36.990    3.0016
   37.005    3.1069
   37.020    2.8541
   37.035    2.9279
   37.050    3.0542
   37.065    3.0016
   37.080    3.1385
   37.095    3.0332
   37.110    2.9068
   37.125    3.1385
   37.140    3.1912
   37.155    3.2122
   37.170    3.3070
   37.185    3.2754
   37.200    3.3281
   37.215    3.0542
   37.230    3.1280
   37.245    2.9700
   37.260    3.1912
   37.275    3.2543
   37.290    3.2017
   37.305    3.2227
   37.320    3.0753
   37.335    2.9384
   37.350    2.9910
   37.365    2.9279
   37.380    3.0753
   37.395    3.2333
   37.410    3.1701
   37.425    3.0121
   37.440    2.9910
   37.455    3.1806
   37.470    3.1806
   37.485    2.9910
   37.500    3.2122
   37.515    3.0858
   37.530    2.8541
   37.545    3.2227
   37.560    2.9805
   37.575    3.0226
   37.590    2.9910
   37.605    3.0542
   37.620    3.0964
   37.635    3.1490
   37.650    3.5387
   37.665    3.3597
   37.680    3.4018
   37.695    3.0753
   37.710    3.2438
   37.725    2.9173
   37.740    2.8436
   37.755    2.8541
   37.770    3.0121
   37.785    3.0964
   37.800    3.1912
   37.815    3.0437
   37.830    2.8963
   37.845    3.3597
   37.860    3.2859
   37.875    2.9384
   37.890    3.1385
   37.905    2.9700
   37.920    3.1174
   37.935    3.1596
   37.950    3.2649
   37.965    2.8963
   37.980    3.0016
   37.995    3.0226
   38.010    3.2965
   38.025    3.0226
   38.040    3.0753
   38.055    3.1174
   38.070    3.2333
   38.085    3.1806
   38.100    3.0648
   38.115    3.1490
   38.130    3.2227
   38.145    3.1069
   38.160    3.3597
   38.175    3.1490
   38.190    3.4439
   38.205    3.1174
   38.220    3.0964
   38.235    2.8752
   38.250    2.8541
   38.265    3.1280
   38.280    2.8752
   38.295    2.9279
   38.310    3.0964
   38.325    2.8015
   38.340    3.0121
   38.355    3.1385
   38.370    3.2122
   38.385    3.2438
   38.400    2.9279
   38.415    3.0016
   38.430    3.0753
   38.445    3.0964
   38.460    3.0753
   38.475    3.3491
   38.490    3.2227
   38.505    3.1069
   38.520    3.0648
   38.535    3.3597
   38.550    3.0332
   38.565    3.1385
   38.580    2.9595
   38.595    3.1490
   38.610    3.1069
   38.625    3.2649
   38.640    3.3491
   38.655    3.2859
   38.670    3.0226
   38.685    3.0648
   38.700    3.0121
   38.715    2.9068
   38.730    2.9384
   38.745    3.1385
   38.760    3.0648
   38.775    3.2017
   38.790    3.2227
   38.805    2.8963
   38.820    2.9068
   38.835    3.4650
   38.850    3.3491
   38.865    2.8857
   38.880    3.0437
   38.895    3.1280
   38.910    3.2649
   38.925    2.9805
   38.940    2.9489
   38.955    2.8120
   38.970    3.0437
   38.985    2.9173
   39.000    2.9910
   39.015    3.0121
   39.030    3.1385
   39.045    2.9068
   39.060    3.1596
   39.075    3.2227
   39.090    3.3281
   39.105    3.0332
   39.120    2.9068
   39.135    2.9700
   39.150    3.1174
   39.165    3.1174
   39.180    3.1701
   39.195    3.3386
   39.210    3.1174
   39.225    3.0542
   39.240    3.0016
   39.255    2.9173
   39.270    2.8752
   39.285    3.1596
   39.300    2.9700
   39.315    3.0332
   39.330    2.9068
   39.345    3.0016
   39.360    3.2333
   39.375    3.2333
   39.390    3.1280
   39.405    3.1596
   39.420    2.9805
   39.435    3.2965
   39.450    3.1490
   39.465    3.0858
   39.480    3.0121
   39.495    3.0437
   39.510    3.2543
   39.525    3.1701
   39.540    3.6440
   39.555    3.4860
   39.570    3.1596
   39.585    2.9595
   39.600    3.1701
   39.615    3.4229
   39.630    3.2649
   39.645    3.2017
   39.660    3.1701
   39.675    3.1806
   39.690    3.3281
   39.705    3.2227
   39.720    2.7804
   39.735    2.7909
   39.750    2.8541
   39.765    2.9700
   39.780    3.0332
   39.795    3.2649
   39.810    3.1912
   39.825    3.2017
   39.840    3.2649
   39.855    3.0964
   39.870    3.0542
   39.885    2.9700
   39.900    2.9068
   39.915    3.1069
   39.930    2.8225
   39.945    2.8963
   39.960    3.0121
   39.975    2.8225
   39.990    3.1596
