    1.500    4.9500
    1.515    5.0553
    1.530    4.8411
    1.545    4.7955
    1.560    4.7885
    1.575    4.7850
    1.590    4.8447
    1.605    4.7007
    1.620    4.4725
    1.635    4.6340
    1.650    4.5041
    1.665    4.6516
    1.680    4.6586
    1.695    4.6937
    1.710    4.3953
    1.725    4.2584
    1.740    4.0653
    1.755    4.3005
    1.770    4.3040
    1.785    4.1215
    1.800    3.7634
    1.815    4.0618
    1.830    4.2163
    1.845    4.1952
    1.860    4.0232
    1.875    3.9600
    1.890    3.8547
    1.905    3.8757
    1.920    3.8898
    1.935    3.8476
    1.950    3.6826
    1.965    3.9494
    1.980    3.7318
    1.995    3.7704
    2.010    3.7283
    2.025    3.8511
    2.040    3.8441
    2.055    3.6405
    2.070    3.7213
    2.085    3.5984
    2.100    3.4931
    2.115    3.4369
    2.130    3.5352
    2.145    3.3597
    2.160    3.3351
    2.175    3.5527
    2.190    3.3000
    2.205    3.5282
    2.220    3.7669
    2.235    3.5457
    2.250    3.4860
    2.265    3.5247
    2.280    3.4860
    2.295    3.4544
    2.310    3.4439
    2.325    3.4790
    2.340    3.3281
    2.355    3.3948
    2.370    3.2649
    2.385    3.3140
    2.400    3.3281
    2.415    3.2930
    2.430    3.5457
    2.445    3.5282
    2.460    3.3246
    2.475    3.3667
    2.490    3.5212
    2.505    3.4580
    2.520    3.2684
    2.535    3.2122
    2.550    3.2087
    2.565    3.2965
    2.580    3.2333
    2.595    3.2719
    2.610    3.4615
    2.625    3.4439
    2.640    3.3035
    2.655    3.3281
    2.670    3.3386
    2.685    3.5071
    2.700    3.2649
    2.715    3.4229
    2.730    3.6370
    2.745    3.4790
    2.760    3.4053
    2.775    3.3807
    2.790    3.5106
    2.805    3.4369
    2.820    3.5808
    2.835    3.5949
    2.850    3.5282
    2.865    3.5949
    2.880    3.3877
    2.895    3.5176
    2.910    3.5563
    2.925    3.5422
    2.940    3.4685
    2.955    3.6686
    2.970    3.6932
    2.985    3.6054
    3.000    3.7493
    3.015    3.8547
    3.030    3.8196
    3.045    3.8827
    3.060    3.7915
    3.075    3.8652
    3.090    3.8722
    3.105    3.9214
    3.120    3.9846
    3.135    4.1109
    3.150    4.1039
    3.165    4.3426
    3.180    4.4093
    3.195    4.3988
    3.210    4.4971
    3.225    4.6130
    3.240    4.4831
    3.255    4.3637
    3.270    4.6270
    3.285    4.5954
    3.300    4.7113
    3.315    4.8306
    3.330    4.9465
    3.345    5.0167
    3.360    5.3607
    3.375    5.5152
    3.390    5.3888
    3.405    5.6275
    3.420    5.8276
    3.435    5.8557
    3.450    6.1998
    3.465    6.1752
    3.480    6.3542
    3.495    6.3016
    3.510    6.5227
    3.525    6.5543
    3.540    6.5403
    3.555    6.5122
    3.570    6.6175
    3.585    6.3296
    3.600    6.3332
    3.615    6.2419
    3.630    6.2594
    3.645    6.1717
    3.660    5.8908
    3.675    5.7890
    3.690    5.7048
    3.705    5.6767
    3.720    5.5468
    3.735    5.3361
    3.750    5.2659
    3.765    5.0272
    3.780    4.8798
    3.795    4.9570
    3.810    4.9816
    3.825    4.6832
    3.840    4.7183
    3.855    4.6305
    3.870    4.6481
    3.885    4.6445
    3.900    4.4128
    3.915    4.6235
    3.930    4.3848
    3.945    4.3532
    3.960    4.3707
    3.975    4.2865
    3.990    4.2689
    4.005    4.1320
    4.020    4.1671
    4.035    4.3040
    4.050    4.0477
    4.065    4.1180
    4.080    4.0899
    4.095    4.0899
    4.110    4.3181
    4.125    4.0969
    4.140    4.1109
    4.155    4.0793
    4.170    3.9670
    4.185    3.9600
    4.200    3.9670
    4.215    3.9810
    4.230    3.9249
    4.245    3.8090
    4.260    3.9284
    4.275    3.7880
    4.290    3.8020
    4.305    3.9319
    4.320    3.8617
    4.335    3.7809
    4.350    3.9459
    4.365    3.8757
    4.380    4.0126
    4.395    3.9565
    4.410    3.9108
    4.425    3.8827
    4.440    3.7669
    4.455    3.8231
    4.470    3.7107
    4.485    3.8757
    4.500    3.5738
    4.515    3.5633
    4.530    3.7177
    4.545    3.6826
    4.560    3.7458
    4.575    3.9319
    4.590    3.8547
    4.605    3.7072
    4.620    3.8160
    4.635    3.7809
    4.650    3.8231
    4.665    3.8652
    4.680    3.8476
    4.695    3.8055
    4.710    3.6791
    4.725    3.8231
    4.740    3.7213
    4.755    3.6124
    4.770    3.8336
    4.785    3.9810
    4.800    3.8160
    4.815    3.8266
    4.830    3.8511
    4.845    3.8933
    4.860    3.7844
    4.875    3.8231
    4.890    3.7915
    4.905    3.7072
    4.920    3.8582
    4.935    3.8441
    4.950    3.7880
    4.965    3.7599
    4.980    3.9143
    4.995    4.0126
    5.010    3.9143
    5.025    3.9354
    5.040    3.7950
    5.055    3.7213
    5.070    3.6791
    5.085    3.7809
    5.100    3.7177
    5.115    3.7950
    5.130    3.9284
    5.145    3.8441
    5.160    3.8792
    5.175    3.6616
    5.190    3.7423
    5.205    3.8020
    5.220    3.8547
    5.235    3.6897
    5.250    3.7739
    5.265    3.7739
    5.280    3.8687
    5.295    3.7142
    5.310    3.8371
    5.325    3.7599
    5.340    3.8792
    5.355    3.7037
    5.370    3.6546
    5.385    3.5843
    5.400    3.7248
    5.415    3.6826
    5.430    3.6440
    5.445    3.6826
    5.460    3.7809
    5.475    3.8090
    5.490    3.8090
    5.505    3.7037
    5.520    3.7107
    5.535    3.6510
    5.550    3.5282
    5.565    3.6510
    5.580    3.6826
    5.595    3.8933
    5.610    3.7809
    5.625    3.7599
    5.640    3.6616
    5.655    3.6791
    5.670    3.4790
    5.685    3.5633
    5.700    3.6335
    5.715    3.6897
    5.730    3.4720
    5.745    3.5668
    5.760    3.6230
    5.775    3.5563
    5.790    3.6230
    5.805    3.4966
    5.820    3.4685
    5.835    3.4931
    5.850    3.4580
    5.865    3.4264
    5.880    3.4474
    5.895    3.3913
    5.910    3.3562
    5.925    3.4580
    5.940    3.2579
    5.955    3.4053
    5.970    3.4018
    5.985    3.1385
    6.000    3.3421
    6.015    3.4544
    6.030    3.2368
    6.045    3.3877
    6.060    3.2614
    6.075    3.2227
    6.090    3.3737
    6.105    3.4018
    6.120    3.3386
    6.135    3.3983
    6.150    3.2789
    6.165    3.4229
    6.180    3.4369
    6.195    3.1631
    6.210    3.3386
    6.225    3.3140
    6.240    3.1350
    6.255    3.3491
    6.270    3.2614
    6.285    3.2579
    6.300    3.2649
    6.315    3.3105
    6.330    3.2508
    6.345    3.3772
    6.360    3.2017
    6.375    3.2438
    6.390    3.2368
    6.405    3.2122
    6.420    3.2859
    6.435    3.1771
    6.450    3.1525
    6.465    3.2508
    6.480    3.2579
    6.495    3.2824
    6.510    3.3105
    6.525    3.3175
    6.540    3.2649
    6.555    3.2403
    6.570    3.4053
    6.585    3.4123
    6.600    3.2930
    6.615    3.3948
    6.630    3.3702
    6.645    3.3210
    6.660    3.3105
    6.675    3.2649
    6.690    3.2579
    6.705    3.4088
    6.720    3.5879
    6.735    3.5492
    6.750    3.4299
    6.765    3.3948
    6.780    3.3140
    6.795    3.3456
    6.810    3.3526
    6.825    3.4334
    6.840    3.4334
    6.855    3.5387
    6.870    3.6546
    6.885    3.5914
    6.900    3.6089
    6.915    3.7739
    6.930    3.6651
    6.945    3.5984
    6.960    3.7844
    6.975    3.9319
    6.990    3.8652
    7.005    3.9846
    7.020    3.9459
    7.035    3.9108
    7.050    3.8757
    7.065    3.8757
    7.080    3.9284
    7.095    3.9003
    7.110    4.0302
    7.125    4.1074
    7.140    3.9600
    7.155    3.8125
    7.170    3.8827
    7.185    4.0302
    7.200    3.9284
    7.215    3.8582
    7.230    3.7493
    7.245    3.6405
    7.260    3.7142
    7.275    3.7493
    7.290    3.6265
    7.305    3.6370
    7.320    3.4685
    7.335    3.4755
    7.350    3.4018
    7.365    3.5036
    7.380    3.4825
    7.395    3.4264
    7.410    3.3000
    7.425    3.2087
    7.440    3.1666
    7.455    3.2543
    7.470    3.1245
    7.485    3.0929
    7.500    3.4264
    7.515    3.3281
    7.530    3.3000
    7.545    3.2298
    7.560    3.0999
    7.575    3.0086
    7.590    3.2192
    7.605    3.0613
    7.620    3.1034
    7.635    3.1525
    7.650    3.1315
    7.665    3.1069
    7.680    3.0858
    7.695    2.9454
    7.710    2.8928
    7.725    2.9630
    7.740    2.9910
    7.755    2.8752
    7.770    3.0121
    7.785    2.9805
    7.800    2.9735
    7.815    3.0367
    7.830    2.9735
    7.845    2.9068
    7.860    2.8752
    7.875    2.8717
    7.890    2.7664
    7.905    2.8576
    7.920    2.8541
    7.935    2.8998
    7.950    2.9875
    7.965    2.9735
    7.980    2.9419
    7.995    2.7699
    8.010    2.7067
    8.025    2.7769
    8.040    2.8260
    8.055    2.8822
    8.070    2.8506
    8.085    2.8506
    8.100    2.8331
    8.115    2.6681
    8.130    2.7523
    8.145    2.7734
    8.160    2.9946
    8.175    2.8576
    8.190    2.9524
    8.205    2.8857
    8.220    2.8506
    8.235    2.7945
    8.250    2.6926
    8.265    2.6891
    8.280    2.8506
    8.295    2.7804
    8.310    2.8085
    8.325    2.8717
    8.340    2.7067
    8.355    2.8401
    8.370    2.7945
    8.385    2.7313
    8.400    2.7383
    8.415    2.6821
    8.430    2.5768
    8.445    2.6224
    8.460    2.7980
    8.475    2.8682
    8.490    2.7278
    8.505    2.6540
    8.520    2.7593
    8.535    2.6681
    8.550    2.6926
    8.565    2.7945
    8.580    2.7523
    8.595    2.7804
    8.610    2.7980
    8.625    2.7804
    8.640    2.4645
    8.655    2.5663
    8.670    2.6400
    8.685    2.5592
    8.700    2.6716
    8.715    2.7172
    8.730    2.7383
    8.745    2.5241
    8.760    2.6365
    8.775    2.7172
    8.790    2.7488
    8.805    2.6751
    8.820    2.5698
    8.835    2.7418
    8.850    2.7664
    8.865    2.6681
    8.880    2.5347
    8.895    2.6119
    8.910    2.6610
    8.925    2.6295
    8.940    2.6926
    8.955    2.7313
    8.970    2.7909
    8.985    2.7734
    9.000    2.6786
    9.015    2.5908
    9.030    2.5873
    9.045    2.7699
    9.060    2.8015
    9.075    2.6330
    9.090    2.7102
    9.105    2.6786
    9.120    2.6295
    9.135    2.7593
    9.150    2.6365
    9.165    2.6295
    9.180    2.7102
    9.195    2.6681
    9.210    2.4469
    9.225    2.6049
    9.240    2.6681
    9.255    2.6751
    9.270    2.4855
    9.285    2.5487
    9.300    2.6751
    9.315    2.6575
    9.330    2.6224
    9.345    2.5733
    9.360    2.7032
    9.375    2.6997
    9.390    2.6014
    9.405    2.5101
    9.420    2.6154
    9.435    2.5382
    9.450    2.7102
    9.465    2.6330
    9.480    2.7453
    9.495    2.5943
    9.510    2.6224
    9.525    2.5592
    9.540    2.6189
    9.555    2.7945
    9.570    2.7137
    9.585    2.5628
    9.600    2.5276
    9.615    2.5803
    9.630    2.7348
    9.645    2.5908
    9.660    2.5838
    9.675    2.8225
    9.690    2.7032
    9.705    2.5557
    9.720    2.7242
    9.735    2.7067
    9.750    2.7137
    9.765    2.8436
    9.780    2.6610
    9.795    2.4925
    9.810    2.6330
    9.825    2.6891
    9.840    2.6049
    9.855    2.6224
    9.870    2.6084
    9.885    2.6997
    9.900    2.5452
    9.915    2.5557
    9.930    2.6224
    9.945    2.6014
    9.960    2.6365
    9.975    2.6259
    9.990    2.7418
   10.005    2.7032
   10.020    2.6997
   10.035    2.6681
   10.050    2.6014
   10.065    2.7734
   10.080    2.6505
   10.095    2.6435
   10.110    2.7523
   10.125    2.6962
   10.140    2.6189
   10.155    2.6330
   10.170    2.7453
   10.185    2.5979
   10.200    2.6646
   10.215    2.6470
   10.230    2.6821
   10.245    2.6540
   10.260    2.6926
   10.275    2.7488
   10.290    2.6365
   10.305    2.5838
   10.320    2.6014
   10.335    2.6470
   10.350    2.6154
   10.365    2.6751
   10.380    2.6470
   10.395    2.5733
   10.410    2.6014
   10.425    2.5663
   10.440    2.5943
   10.455    2.6681
   10.470    2.7172
   10.485    2.6646
   10.500    2.6610
   10.515    2.6435
   10.530    2.5382
   10.545    2.6891
   10.560    2.8506
   10.575    2.5803
   10.590    2.6400
   10.605    2.6295
   10.620    2.6365
   10.635    2.7207
   10.650    2.6119
   10.665    2.7909
   10.680    2.7769
   10.695    2.7593
   10.710    2.7172
   10.725    2.6400
   10.740    2.7278
   10.755    2.5979
   10.770    2.7734
   10.785    2.6856
   10.800    2.7313
   10.815    2.9103
   10.830    2.7769
   10.845    2.7699
   10.860    2.7734
   10.875    2.7067
   10.890    2.6891
   10.905    2.7172
   10.920    2.8331
   10.935    2.7102
   10.950    2.7593
   10.965    2.6926
   10.980    2.6189
   10.995    2.7629
   11.010    2.6575
   11.025    2.7453
   11.040    2.8928
   11.055    2.8436
   11.070    2.7734
   11.085    2.7242
   11.100    2.7629
   11.115    2.7137
   11.130    2.8436
   11.145    2.8120
   11.160    2.8260
   11.175    2.7523
   11.190    2.6259
   11.205    2.7278
   11.220    2.7734
   11.235    2.7348
   11.250    2.9910
   11.265    2.8155
   11.280    2.8401
   11.295    2.7242
   11.310    2.7032
   11.325    2.8015
   11.340    2.5452
   11.355    2.7348
   11.370    2.7383
   11.385    2.6540
   11.400    2.7418
   11.415    2.7067
   11.430    2.6154
   11.445    2.7453
   11.460    2.6400
   11.475    2.6259
   11.490    2.6540
   11.505    2.7172
   11.520    2.7839
   11.535    2.6365
   11.550    2.7664
   11.565    2.7242
   11.580    2.7664
   11.595    2.7383
   11.610    2.6856
   11.625    2.5417
   11.640    2.7874
   11.655    2.6962
   11.670    2.6646
   11.685    2.7102
   11.700    2.7032
   11.715    2.6716
   11.730    2.6786
   11.745    2.6786
   11.760    2.6821
   11.775    2.7242
   11.790    2.5417
   11.805    2.7278
   11.820    2.8260
   11.835    2.7734
   11.850    2.5768
   11.865    2.7172
   11.880    2.4925
   11.895    2.5733
   11.910    2.5312
   11.925    2.6084
   11.940    2.7172
   11.955    2.5803
   11.970    2.6014
   11.985    2.7629
   12.000    2.6716
   12.015    2.7137
   12.030    2.6014
   12.045    2.6014
   12.060    2.5838
   12.075    2.7418
   12.090    2.7453
   12.105    2.5943
   12.120    2.6049
   12.135    2.8085
   12.150    2.6049
   12.165    2.5487
   12.180    2.6646
   12.195    2.6084
   12.210    2.7945
   12.225    2.7242
   12.240    2.5838
   12.255    2.9068
   12.270    2.6540
   12.285    2.5979
   12.300    2.6505
   12.315    2.7769
   12.330    2.7734
   12.345    2.6716
   12.360    2.6681
   12.375    2.5838
   12.390    2.7102
   12.405    2.7067
   12.420    2.5663
   12.435    2.6575
   12.450    2.6295
   12.465    2.7523
   12.480    2.8296
   12.495    2.7699
   12.510    2.7980
   12.525    2.6610
   12.540    2.6470
   12.555    2.7909
   12.570    2.7032
   12.585    2.7172
   12.600    2.6435
   12.615    2.7453
   12.630    2.6962
   12.645    2.6821
   12.660    2.6962
   12.675    2.6681
   12.690    2.6119
   12.705    2.7137
   12.720    2.8436
   12.735    2.6751
   12.750    2.6786
   12.765    2.6435
   12.780    2.7137
   12.795    2.6470
   12.810    2.5136
   12.825    2.6400
   12.840    2.5522
   12.855    2.5066
   12.870    2.5698
   12.885    2.6856
   12.900    2.6821
   12.915    2.6821
   12.930    2.6997
   12.945    2.7278
   12.960    2.6330
   12.975    2.5979
   12.990    2.4961
   13.005    2.5733
   13.020    2.5733
   13.035    2.5733
   13.050    2.7558
   13.065    2.6189
   13.080    2.6049
   13.095    2.6716
   13.110    2.6646
   13.125    2.6435
   13.140    2.6295
   13.155    2.6365
   13.170    2.5663
   13.185    2.5312
   13.200    2.7032
   13.215    2.7558
   13.230    2.5382
   13.245    2.6400
   13.260    2.5768
   13.275    2.5733
   13.290    2.6610
   13.305    2.5557
   13.320    2.4925
   13.335    2.5487
   13.350    2.6400
   13.365    2.5663
   13.380    2.6400
   13.395    2.4434
   13.410    2.5276
   13.425    2.5206
   13.440    2.6084
   13.455    2.5698
   13.470    2.6119
   13.485    2.6330
   13.500    2.6435
   13.515    2.7418
   13.530    2.5522
   13.545    2.7839
   13.560    2.5873
   13.575    2.6295
   13.590    2.5768
   13.605    2.7032
   13.620    2.8260
   13.635    2.6610
   13.650    2.5803
   13.665    2.6786
   13.680    2.6224
   13.695    2.5487
   13.710    2.6014
   13.725    2.3732
   13.740    2.6891
   13.755    2.7313
   13.770    2.7523
   13.785    2.6295
   13.800    2.6891
   13.815    2.5873
   13.830    2.6049
   13.845    2.5768
   13.860    2.6014
   13.875    2.6646
   13.890    2.5663
   13.905    2.5241
   13.920    2.6751
   13.935    2.7980
   13.950    2.7593
   13.965    2.7839
   13.980    2.5241
   13.995    2.6962
   14.010    2.6505
   14.025    2.7278
   14.040    2.8225
   14.055    2.6926
   14.070    2.6751
   14.085    2.5698
   14.100    2.6505
   14.115    2.7874
   14.130    2.8928
   14.145    2.6400
   14.160    2.5452
   14.175    2.6224
   14.190    2.7523
   14.205    2.7980
   14.220    2.5206
   14.235    2.7207
   14.250    2.6119
   14.265    2.5733
   14.280    2.7699
   14.295    2.7102
   14.310    2.7383
   14.325    2.7348
   14.340    2.7172
   14.355    2.6119
   14.370    2.5943
   14.385    2.6821
   14.400    2.6119
   14.415    2.8366
   14.430    2.7488
   14.445    2.7137
   14.460    2.7172
   14.475    2.8822
   14.490    2.7418
   14.505    2.8436
   14.520    2.7242
   14.535    2.6575
   14.550    2.7980
   14.565    2.7980
   14.580    2.6856
   14.595    2.6716
   14.610    2.8190
   14.625    2.8928
   14.640    2.8190
   14.655    2.8928
   14.670    2.7242
   14.685    2.7769
   14.700    2.7839
   14.715    2.6224
   14.730    2.6154
   14.745    2.6365
   14.760    2.7558
   14.775    2.8225
   14.790    2.6926
   14.805    2.8015
   14.820    2.7453
   14.835    2.7664
   14.850    2.7383
   14.865    2.6997
   14.880    2.6681
   14.895    2.6786
   14.910    2.7593
   14.925    2.7278
   14.940    2.7558
   14.955    2.9349
   14.970    2.7137
   14.985    2.6681
   15.000    2.8225
   15.015    2.8928
   15.030    2.7032
   15.045    2.6716
   15.060    2.7769
   15.075    2.7278
   15.090    2.7207
   15.105    2.7242
   15.120    2.5838
   15.135    2.6189
   15.150    2.8647
   15.165    2.8401
   15.180    2.7734
   15.195    2.7980
   15.210    2.7593
   15.225    2.6365
   15.240    2.6189
   15.255    2.7313
   15.270    2.6786
   15.285    2.6540
   15.300    2.6575
   15.315    2.6926
   15.330    2.6962
   15.345    2.7453
   15.360    2.6716
   15.375    2.8436
   15.390    2.7945
   15.405    2.8015
   15.420    2.7629
   15.435    2.7769
   15.450    2.7523
   15.465    2.7313
   15.480    2.7629
   15.495    2.7488
   15.510    2.6681
   15.525    2.6610
   15.540    2.8155
   15.555    2.7172
   15.570    2.6154
   15.585    2.7488
   15.600    2.8015
   15.615    2.8331
   15.630    2.9454
   15.645    2.8717
   15.660    2.9243
   15.675    2.7909
   15.690    2.7593
   15.705    2.7629
   15.720    2.9068
   15.735    2.8471
   15.750    2.8892
   15.765    2.7734
   15.780    2.8682
   15.795    2.8436
   15.810    2.7102
   15.825    2.7102
   15.840    2.8892
   15.855    2.7102
   15.870    2.8401
   15.885    2.8928
   15.900    2.8857
   15.915    2.8963
   15.930    2.8963
   15.945    2.8225
   15.960    2.7699
   15.975    3.0577
   15.990    2.9735
   16.005    2.9559
   16.020    2.7488
   16.035    2.8366
   16.050    2.8612
   16.065    2.8506
   16.080    2.9314
   16.095    2.9735
   16.110    2.8471
   16.125    2.8717
   16.140    2.9559
   16.155    2.9033
   16.170    2.9489
   16.185    3.0191
   16.200    2.8892
   16.215    2.8155
   16.230    2.9279
   16.245    3.1174
   16.260    2.9910
   16.275    3.0613
   16.290    3.0121
   16.305    3.0016
   16.320    2.8717
   16.335    2.9875
   16.350    2.8998
   16.365    2.8541
   16.380    2.7804
   16.395    3.0226
   16.410    2.9700
   16.425    3.0086
   16.440    3.0191
   16.455    2.9630
   16.470    3.0191
   16.485    3.0402
   16.500    2.9208
   16.515    2.8436
   16.530    2.9700
   16.545    2.8857
   16.560    2.7909
   16.575    2.8857
   16.590    2.9243
   16.605    2.9559
   16.620    2.8752
   16.635    2.9489
   16.650    2.8682
   16.665    2.8155
   16.680    2.8857
   16.695    2.9981
   16.710    3.0542
   16.725    2.9981
   16.740    3.0156
   16.755    2.9595
   16.770    2.8717
   16.785    2.9138
   16.800    2.8928
   16.815    2.9419
   16.830    2.9524
   16.845    2.9981
   16.860    2.8928
   16.875    2.9805
   16.890    2.8822
   16.905    2.9946
   16.920    2.7383
   16.935    2.7418
   16.950    2.8822
   16.965    2.9349
   16.980    2.9524
   16.995    3.0226
   17.010    2.9279
   17.025    2.9454
   17.040    3.0577
   17.055    3.0226
   17.070    2.8717
   17.085    2.9875
   17.100    2.8963
   17.115    2.8857
   17.130    2.8612
   17.145    2.8436
   17.160    2.9419
   17.175    3.0367
   17.190    2.9068
   17.205    3.0297
   17.220    2.8963
   17.235    2.9700
   17.250    3.1350
   17.265    3.0823
   17.280    3.0332
   17.295    3.0718
   17.310    3.0121
   17.325    3.0402
   17.340    2.9700
   17.355    3.0262
   17.370    3.0858
   17.385    2.9559
   17.400    3.0086
   17.415    3.0332
   17.430    3.1806
   17.445    3.1245
   17.460    2.9595
   17.475    3.0226
   17.490    3.0577
   17.505    3.0858
   17.520    3.0858
   17.535    3.0016
   17.550    3.0191
   17.565    3.1069
   17.580    3.1947
   17.595    3.1455
   17.610    3.1525
   17.625    3.1947
   17.640    3.0297
   17.655    3.1666
   17.670    3.0472
   17.685    3.0262
   17.700    3.1245
   17.715    3.2333
   17.730    3.2789
   17.745    3.0648
   17.760    3.1490
   17.775    3.1771
   17.790    3.2122
   17.805    3.2614
   17.820    3.1841
   17.835    3.3140
   17.850    3.3210
   17.865    3.1034
   17.880    3.1455
   17.895    3.2122
   17.910    3.1455
   17.925    3.2684
   17.940    3.3000
   17.955    3.2017
   17.970    3.3597
   17.985    3.4229
   18.000    3.3807
   18.015    3.2719
   18.030    3.3281
   18.045    3.2368
   18.060    3.0577
   18.075    3.3351
   18.090    3.3772
   18.105    3.2789
   18.120    3.2824
   18.135    3.3316
   18.150    3.2333
   18.165    3.2122
   18.180    3.3983
   18.195    3.1560
   18.210    3.3597
   18.225    3.2403
   18.240    3.3386
   18.255    3.3983
   18.270    3.1139
   18.285    3.3316
   18.300    3.3351
   18.315    3.1174
   18.330    3.3000
   18.345    3.1806
   18.360    3.2789
   18.375    3.2930
   18.390    3.3491
   18.405    3.3842
   18.420    3.1736
   18.435    3.2017
   18.450    3.3526
   18.465    3.3421
   18.480    3.3351
   18.495    3.2087
   18.510    3.2017
   18.525    3.1841
   18.540    3.2543
   18.555    3.4229
   18.570    3.3035
   18.585    3.2157
   18.600    3.4123
   18.615    3.2438
   18.630    3.2052
   18.645    3.2227
   18.660    3.2052
   18.675    3.3175
   18.690    3.2684
   18.705    3.2263
   18.720    3.2789
   18.735    3.4544
   18.750    3.3316
   18.765    3.4264
   18.780    3.3351
   18.795    3.3948
   18.810    3.4053
   18.825    3.3807
   18.840    3.2614
   18.855    3.5071
   18.870    3.3491
   18.885    3.4650
   18.900    3.4580
   18.915    3.2438
   18.930    3.2192
   18.945    3.3877
   18.960    3.4580
   18.975    3.1631
   18.990    3.3000
   19.005    3.2930
   19.020    3.3667
   19.035    3.1490
   19.050    3.2368
   19.065    3.4053
   19.080    3.5247
   19.095    3.3526
   19.110    3.2824
   19.125    3.3526
   19.140    3.2017
   19.155    3.2824
   19.170    3.4193
   19.185    3.3772
   19.200    3.3948
   19.215    3.4615
   19.230    3.4053
   19.245    3.4790
   19.260    3.5984
   19.275    3.4720
   19.290    3.4580
   19.305    3.4088
   19.320    3.3562
   19.335    3.3562
   19.350    3.2824
   19.365    3.2192
   19.380    3.3070
   19.395    3.3421
   19.410    3.3807
   19.425    3.3140
   19.440    3.2754
   19.455    3.4123
   19.470    3.2754
   19.485    3.2438
   19.500    3.2930
   19.515    3.3070
   19.530    3.4123
   19.545    3.3175
   19.560    3.4334
   19.575    3.3948
   19.590    3.2930
   19.605    3.0964
   19.620    3.2298
   19.635    3.3597
   19.650    3.4404
   19.665    3.4193
   19.680    3.3246
   19.695    3.2824
   19.710    3.1245
   19.725    3.3035
   19.740    3.2052
   19.755    3.1701
   19.770    3.2824
   19.785    3.2087
   19.800    3.3667
   19.815    3.2684
   19.830    3.5422
   19.845    3.4229
   19.860    3.2263
   19.875    3.3597
   19.890    3.2122
   19.905    3.3070
   19.920    3.2719
   19.935    3.2789
   19.950    3.2192
   19.965    3.3246
   19.980    3.3983
   19.995    3.3421
   20.010    3.3702
   20.025    3.2192
   20.040    3.2263
   20.055    3.1701
   20.070    3.2684
   20.085    3.2859
   20.100    3.3983
   20.115    3.3456
   20.130    3.3351
   20.145    3.2227
   20.160    3.1806
   20.175    3.3526
   20.190    3.3035
   20.205    3.3210
   20.220    3.2052
   20.235    3.2824
   20.250    3.3000
   20.265    3.2895
   20.280    3.3070
   20.295    3.3246
   20.310    3.5352
   20.325    3.3421
   20.340    3.3597
   20.355    3.3526
   20.370    3.3526
   20.385    3.3737
   20.400    3.3316
   20.415    3.4334
   20.430    3.3105
   20.445    3.5141
   20.460    3.4474
   20.475    3.3281
   20.490    3.2754
   20.505    3.3035
   20.520    3.3210
   20.535    3.2754
   20.550    3.1806
   20.565    3.3035
   20.580    3.2684
   20.595    3.1596
   20.610    3.2895
   20.625    3.3351
   20.640    3.4053
   20.655    3.2895
   20.670    3.3421
   20.685    3.3175
   20.700    3.5282
   20.715    3.4299
   20.730    3.2859
   20.745    3.4650
   20.760    3.2895
   20.775    3.1455
   20.790    3.3386
   20.805    3.3562
   20.820    3.3210
   20.835    3.3421
   20.850    3.3175
   20.865    3.3877
   20.880    3.2614
   20.895    3.3772
   20.910    3.4896
   20.925    3.4720
   20.940    3.5176
   20.955    3.2543
   20.970    3.3702
   20.985    3.4896
   21.000    3.4193
   21.015    3.4018
   21.030    3.4615
   21.045    3.2333
   21.060    3.2473
   21.075    3.3105
   21.090    3.3386
   21.105    3.3632
   21.120    3.4685
   21.135    3.2965
   21.150    3.3667
   21.165    3.4158
   21.180    3.3070
   21.195    3.4931
   21.210    3.3877
   21.225    3.2227
   21.240    3.4123
   21.255    3.4685
   21.270    3.5703
   21.285    3.4720
   21.300    3.5352
   21.315    3.3702
   21.330    3.5036
   21.345    3.3597
   21.360    3.3175
   21.375    3.4404
   21.390    3.5176
   21.405    3.4018
   21.420    3.5633
   21.435    3.5247
   21.450    3.5036
   21.465    3.4404
   21.480    3.5247
   21.495    3.3491
   21.510    3.2543
   21.525    3.3562
   21.540    3.5141
   21.555    3.4299
   21.570    3.5317
   21.585    3.4685
   21.600    3.4580
   21.615    3.5492
   21.630    3.4755
   21.645    3.3421
   21.660    3.4123
   21.675    3.3597
   21.690    3.4404
   21.705    3.3948
   21.720    3.5703
   21.735    3.5527
   21.750    3.4966
   21.765    3.6124
   21.780    3.6019
   21.795    3.3948
   21.810    3.4053
   21.825    3.5773
   21.840    3.4229
   21.855    3.2719
   21.870    3.4088
   21.885    3.4369
   21.900    3.4404
   21.915    3.5176
   21.930    3.4369
   21.945    3.3597
   21.960    3.5527
   21.975    3.6019
   21.990    3.5422
   22.005    3.5106
   22.020    3.5001
   22.035    3.3456
   22.050    3.5492
   22.065    3.4439
   22.080    3.4404
   22.095    3.4685
   22.110    3.4229
   22.125    3.5879
   22.140    3.5914
   22.155    3.5352
   22.170    3.4860
   22.185    3.4369
   22.200    3.3983
   22.215    3.4860
   22.230    3.4439
   22.245    3.4720
   22.260    3.5001
   22.275    3.5352
   22.290    3.5598
   22.305    3.6370
   22.320    3.5843
   22.335    3.3948
   22.350    3.4720
   22.365    3.4825
   22.380    3.5001
   22.395    3.4896
   22.410    3.4334
   22.425    3.3877
   22.440    3.5247
   22.455    3.4439
   22.470    3.4966
   22.485    3.5808
   22.500    3.5317
   22.515    3.5317
   22.530    3.5176
   22.545    3.3632
   22.560    3.3877
   22.575    3.5633
   22.590    3.7388
   22.605    3.3316
   22.620    3.3351
   22.635    3.5879
   22.650    3.5914
   22.665    3.6124
   22.680    3.5563
   22.695    3.5212
   22.710    3.3702
   22.725    3.3948
   22.740    3.4790
   22.755    3.4404
   22.770    3.4404
   22.785    3.4755
   22.800    3.5001
   22.815    3.5212
   22.830    3.6546
   22.845    3.5247
   22.860    3.4334
   22.875    3.4193
   22.890    3.4299
   22.905    3.3983
   22.920    3.2824
   22.935    3.4755
   22.950    3.5036
   22.965    3.4509
   22.980    3.5036
   22.995    3.3737
   23.010    3.5071
   23.025    3.4685
   23.040    3.5352
   23.055    3.5879
   23.070    3.4860
   23.085    3.6230
   23.100    3.5247
   23.115    3.6159
   23.130    3.4720
   23.145    3.3948
   23.160    3.6721
   23.175    3.4088
   23.190    3.3456
   23.205    3.4931
   23.220    3.3877
   23.235    3.5879
   23.250    3.5703
   23.265    3.5703
   23.280    3.4369
   23.295    3.4404
   23.310    3.6054
   23.325    3.4896
   23.340    3.4650
   23.355    3.5703
   23.370    3.4299
   23.385    3.4720
   23.400    3.5879
   23.415    3.4018
   23.430    3.4825
   23.445    3.4404
   23.460    3.5492
   23.475    3.3807
   23.490    3.4896
   23.505    3.5668
   23.520    3.5949
   23.535    3.6124
   23.550    3.5317
   23.565    3.5036
   23.580    3.7107
   23.595    3.5598
   23.610    3.3948
   23.625    3.3316
   23.640    3.4299
   23.655    3.4474
   23.670    3.4334
   23.685    3.6756
   23.700    3.4860
   23.715    3.4088
   23.730    3.6651
   23.745    3.5843
   23.760    3.6124
   23.775    3.5387
   23.790    3.3702
   23.805    3.3877
   23.820    3.2754
   23.835    3.4544
   23.850    3.5106
   23.865    3.3772
   23.880    3.3877
   23.895    3.4755
   23.910    3.3772
   23.925    3.4264
   23.940    3.4088
   23.955    3.3983
   23.970    3.4931
   23.985    3.6335
   24.000    3.4474
   24.015    3.4580
   24.030    3.5492
   24.045    3.3175
   24.060    3.5001
   24.075    3.4580
   24.090    3.4229
   24.105    3.4650
   24.120    3.5914
   24.135    3.6300
   24.150    3.6265
   24.165    3.4474
   24.180    3.3737
   24.195    3.3842
   24.210    3.5247
   24.225    3.4896
   24.240    3.4158
   24.255    3.4720
   24.270    3.3000
   24.285    3.4755
   24.300    3.3526
   24.315    3.4825
   24.330    3.5212
   24.345    3.4615
   24.360    3.3351
   24.375    3.5247
   24.390    3.4053
   24.405    3.4193
   24.420    3.4123
   24.435    3.4334
   24.450    3.3562
   24.465    3.3948
   24.480    3.2227
   24.495    3.2719
   24.510    3.3421
   24.525    3.3105
   24.540    3.3877
   24.555    3.3877
   24.570    3.3913
   24.585    3.4264
   24.600    3.3316
   24.615    3.3772
   24.630    3.3246
   24.645    3.4896
   24.660    3.4018
   24.675    3.4229
   24.690    3.4299
   24.705    3.3737
   24.720    3.3386
   24.735    3.3140
   24.750    3.2333
   24.765    3.2684
   24.780    3.4580
   24.795    3.4439
   24.810    3.5141
   24.825    3.4931
   24.840    3.5071
   24.855    3.3456
   24.870    3.3105
   24.885    3.4123
   24.900    3.5492
   24.915    3.1947
   24.930    3.2719
   24.945    3.3210
   24.960    3.2368
   24.975    3.3597
   24.990    3.2263
   25.005    3.3246
   25.020    3.3597
   25.035    3.1876
   25.050    3.2333
   25.065    3.4088
   25.080    3.4544
   25.095    3.3070
   25.110    3.3281
   25.125    3.3667
   25.140    3.3316
   25.155    3.5387
   25.170    3.3772
   25.185    3.2649
   25.200    3.3562
   25.215    3.3316
   25.230    3.3210
   25.245    3.4264
   25.260    3.3175
   25.275    3.3140
   25.290    3.2824
   25.305    3.2508
   25.320    3.1806
   25.335    3.3526
   25.350    3.2403
   25.365    3.1701
   25.380    3.2368
   25.395    3.3421
   25.410    3.3667
   25.425    3.3632
   25.440    3.2368
   25.455    3.2543
   25.470    3.2719
   25.485    3.3456
   25.500    3.3877
   25.515    3.2087
   25.530    3.2368
   25.545    3.4229
   25.560    3.3562
   25.575    3.1947
   25.590    3.3070
   25.605    3.2543
   25.620    3.2368
   25.635    3.1736
   25.650    3.2403
   25.665    3.4334
   25.680    3.2754
   25.695    3.2684
   25.710    3.2895
   25.725    3.2649
   25.740    3.2263
   25.755    3.2789
   25.770    3.1912
   25.785    3.1560
   25.800    3.1806
   25.815    3.2087
   25.830    3.1876
   25.845    3.2649
   25.860    3.2052
   25.875    3.1982
   25.890    3.0648
   25.905    3.2052
   25.920    3.1490
   25.935    3.2298
   25.950    3.2403
   25.965    3.0262
   25.980    3.3456
   25.995    3.3105
   26.010    3.2227
   26.025    3.2157
   26.040    3.3140
   26.055    3.1876
   26.070    3.0788
   26.085    3.1385
   26.100    3.2965
   26.115    3.1947
   26.130    3.1560
   26.145    3.2192
   26.160    3.1631
   26.175    3.0297
   26.190    2.9314
   26.205    3.1631
   26.220    3.2473
   26.235    3.1771
   26.250    3.1139
   26.265    3.1912
   26.280    3.1736
   26.295    3.2157
   26.310    3.1034
   26.325    3.1350
   26.340    3.0929
   26.355    3.2719
   26.370    3.0472
   26.385    3.2895
   26.400    3.3105
   26.415    3.1841
   26.430    3.0823
   26.445    3.0964
   26.460    3.1455
   26.475    3.1596
   26.490    2.9981
   26.505    2.9243
   26.520    3.0121
   26.535    3.1736
   26.550    3.1771
   26.565    3.1525
   26.580    3.1701
   26.595    3.1631
   26.610    3.0332
   26.625    3.1771
   26.640    3.1947
   26.655    2.9279
   26.670    3.0262
   26.685    3.1841
   26.700    3.1525
   26.715    3.2263
   26.730    3.1701
   26.745    3.1420
   26.760    3.1631
   26.775    3.2649
   26.790    3.0297
   26.805    3.0262
   26.820    2.9840
   26.835    3.0718
   26.850    3.1771
   26.865    3.1806
   26.880    3.0788
   26.895    3.0297
   26.910    3.1209
   26.925    3.1560
   26.940    3.0472
   26.955    2.9419
   26.970    3.0683
   26.985    2.9840
   27.000    3.0858
   27.015    3.1350
   27.030    3.0156
   27.045    3.0367
   27.060    2.9489
   27.075    3.0542
   27.090    3.0542
   27.105    3.0893
   27.120    3.0297
   27.135    3.0156
   27.150    3.0367
   27.165    3.0858
   27.180    2.8541
   27.195    2.9314
   27.210    2.9419
   27.225    2.9384
   27.240    3.0858
   27.255    3.1736
   27.270    3.2438
   27.285    3.0893
   27.300    3.0823
   27.315    3.0191
   27.330    3.0156
   27.345    3.0402
   27.360    2.8892
   27.375    2.9946
   27.390    3.0577
   27.405    3.0472
   27.420    2.9173
   27.435    3.0542
   27.450    2.9595
   27.465    3.1174
   27.480    3.1631
   27.495    3.1806
   27.510    2.9981
   27.525    2.9243
   27.540    2.9033
   27.555    3.0297
   27.570    2.9454
   27.585    2.8366
   27.600    2.9840
   27.615    3.0577
   27.630    3.0332
   27.645    3.0753
   27.660    2.8857
   27.675    2.9981
   27.690    3.0683
   27.705    3.0226
   27.720    3.0121
   27.735    3.0191
   27.750    2.9875
   27.765    2.8366
   27.780    2.9946
   27.795    2.8647
   27.810    2.8541
   27.825    2.9279
   27.840    3.0507
   27.855    2.9946
   27.870    3.0332
   27.885    2.9489
   27.900    2.9243
   27.915    2.9981
   27.930    3.2052
   27.945    3.0683
   27.960    2.9700
   27.975    2.9840
   27.990    3.0332
   28.005    2.9770
   28.020    2.9243
   28.035    3.1104
   28.050    2.9489
   28.065    2.9524
   28.080    2.8331
   28.095    2.8963
   28.110    2.8401
   28.125    3.0297
   28.140    3.0367
   28.155    3.1209
   28.170    2.8928
   28.185    2.9314
   28.200    2.7945
   28.215    2.8612
   28.230    2.9700
   28.245    3.0648
   28.260    2.9489
   28.275    2.8928
   28.290    2.8892
   28.305    3.0613
   28.320    2.9595
   28.335    2.8717
   28.350    2.8085
   28.365    3.0718
   28.380    2.9314
   28.395    2.9981
   28.410    2.8857
   28.425    2.8260
   28.440    3.0718
   28.455    2.9630
   28.470    2.8541
   28.485    2.9910
   28.500    2.8857
   28.515    2.8612
   28.530    2.7418
   28.545    2.9068
   28.560    3.0507
   28.575    2.9419
   28.590    2.8822
   28.605    2.9735
   28.620    2.8296
   28.635    2.7242
   28.650    2.8471
   28.665    2.8752
   28.680    2.8752
   28.695    2.9068
   28.710    2.9033
   28.725    2.7945
   28.740    2.7804
   28.755    2.9349
   28.770    2.8225
   28.785    2.8120
   28.800    2.9243
   28.815    2.7980
   28.830    2.7383
   28.845    2.7629
   28.860    2.7523
   28.875    2.7699
   28.890    2.8120
   28.905    2.8401
   28.920    2.9805
   28.935    3.0297
   28.950    2.9243
   28.965    2.8857
   28.980    2.8998
   28.995    2.8085
   29.010    2.7909
   29.025    2.9384
   29.040    2.8471
   29.055    2.8928
   29.070    2.8787
   29.085    2.7945
   29.100    2.8366
   29.115    2.8752
   29.130    2.7874
   29.145    2.8190
   29.160    2.7383
   29.175    2.8401
   29.190    2.7278
   29.205    2.8401
   29.220    2.8647
   29.235    2.8541
   29.250    2.8120
   29.265    2.8541
   29.280    2.7558
   29.295    2.9243
   29.310    2.8822
   29.325    2.7418
   29.340    2.6400
   29.355    2.8225
   29.370    2.8190
   29.385    2.7629
   29.400    2.7769
   29.415    2.7418
   29.430    2.8155
   29.445    2.9314
   29.460    2.7523
   29.475    2.6821
   29.490    2.8928
   29.505    2.8612
   29.520    2.8401
   29.535    2.8401
   29.550    2.7032
   29.565    2.6365
   29.580    2.7523
   29.595    2.6926
   29.610    2.6716
   29.625    2.7313
   29.640    2.6540
   29.655    2.6365
   29.670    2.7172
   29.685    2.7945
   29.700    2.7593
   29.715    2.7278
   29.730    2.7909
   29.745    2.6891
   29.760    2.6540
   29.775    2.6259
   29.790    2.6540
   29.805    2.6716
   29.820    2.7453
   29.835    2.5557
   29.850    2.6997
   29.865    2.7172
   29.880    2.6997
   29.895    2.8155
   29.910    2.7207
   29.925    2.8120
   29.940    2.6224
   29.955    2.6154
   29.970    2.7558
   29.985    2.7593
   30.000    2.7242
   30.015    2.7242
   30.030    2.6470
   30.045    2.5768
   30.060    2.6435
   30.075    2.8015
   30.090    2.8822
   30.105    2.7909
   30.120    2.7453
   30.135    2.7558
   30.150    2.6084
   30.165    2.6575
   30.180    2.6856
   30.195    2.7804
   30.210    2.6997
   30.225    2.8155
   30.240    2.7488
   30.255    2.7558
   30.270    2.6926
   30.285    2.6540
   30.300    2.6014
   30.315    2.6646
   30.330    2.5838
   30.345    2.6365
   30.360    2.6365
   30.375    2.6330
   30.390    2.6014
   30.405    2.6646
   30.420    2.6575
   30.435    2.6646
   30.450    2.6365
   30.465    2.7242
   30.480    2.7067
   30.495    2.5803
   30.510    2.6681
   30.525    2.8050
   30.540    2.7242
   30.555    2.5663
   30.570    2.5417
   30.585    2.5628
   30.600    2.6084
   30.615    2.7804
   30.630    2.6646
   30.645    2.5557
   30.660    2.6610
   30.675    2.4820
   30.690    2.6575
   30.705    2.6330
   30.720    2.5733
   30.735    2.6435
   30.750    2.6154
   30.765    2.5382
   30.780    2.6049
   30.795    2.5838
   30.810    2.4574
   30.825    2.6154
   30.840    2.6365
   30.855    2.5347
   30.870    2.7453
   30.885    2.6926
   30.900    2.5206
   30.915    2.4785
   30.930    2.3907
   30.945    2.4329
   30.960    2.6224
   30.975    2.6716
   30.990    2.6646
   31.005    2.4785
   31.020    2.4609
   31.035    2.6014
   31.050    2.6014
   31.065    2.4258
   31.080    2.6716
   31.095    2.4996
   31.110    2.4504
   31.125    2.5241
   31.140    2.5417
   31.155    2.5347
   31.170    2.5206
   31.185    2.5171
   31.200    2.4890
   31.215    2.6049
   31.230    2.5347
   31.245    2.6224
   31.260    2.5803
   31.275    2.4820
   31.290    2.5206
   31.305    2.4680
   31.320    2.4083
   31.335    2.4223
   31.350    2.4925
   31.365    2.2959
   31.380    2.4293
   31.395    2.4961
   31.410    2.4434
   31.425    2.4890
   31.440    2.5312
   31.455    2.4188
   31.470    2.6681
   31.485    2.4258
   31.500    2.5276
   31.515    2.4785
   31.530    2.4013
   31.545    2.5417
   31.560    2.5276
   31.575    2.5276
   31.590    2.6154
   31.605    2.4048
   31.620    2.6189
   31.635    2.5136
   31.650    2.4258
   31.665    2.6084
   31.680    2.4645
   31.695    2.6365
   31.710    2.5347
   31.725    2.6997
   31.740    2.6295
   31.755    2.4996
   31.770    2.5031
   31.785    2.4013
   31.800    2.4890
   31.815    2.4188
   31.830    2.4504
   31.845    2.3942
   31.860    2.4680
   31.875    2.4469
   31.890    2.3556
   31.905    2.3135
   31.920    2.4188
   31.935    2.2222
   31.950    2.3205
   31.965    2.3521
   31.980    2.3942
   31.995    2.3451
   32.010    2.2328
   32.025    2.2924
   32.040    2.3416
   32.055    2.4048
   32.070    2.4329
   32.085    2.2749
   32.100    2.4083
   32.115    2.4013
   32.130    2.2328
   32.145    2.3381
   32.160    2.4013
   32.175    2.3311
   32.190    2.2924
   32.205    2.3451
   32.220    2.3556
   32.235    2.4013
   32.250    2.2679
   32.265    2.3872
   32.280    2.3907
   32.295    2.2152
   32.310    2.2328
   32.325    2.4399
   32.340    2.4399
   32.355    2.2573
   32.370    2.3135
   32.385    2.3100
   32.400    2.2889
   32.415    2.2222
   32.430    2.3872
   32.445    2.2819
   32.460    2.3697
   32.475    2.3240
   32.490    2.3275
   32.505    2.1766
   32.520    2.2995
   32.535    2.2995
   32.550    2.3240
   32.565    2.2714
   32.580    2.3240
   32.595    2.2608
   32.610    2.3521
   32.625    2.1625
   32.640    2.1801
   32.655    2.2924
   32.670    2.1836
   32.685    2.1450
   32.700    2.1801
   32.715    2.2643
   32.730    2.2573
   32.745    2.3626
   32.760    2.2047
   32.775    2.1625
   32.790    2.3275
   32.805    2.1731
   32.820    2.1766
   32.835    2.1099
   32.850    2.1485
   32.865    2.2995
   32.880    2.1415
   32.895    2.1590
   32.910    2.2924
   32.925    2.2257
   32.940    2.2573
   32.955    2.1415
   32.970    2.1309
   32.985    2.1099
   33.000    2.1801
   33.015    2.3065
   33.030    2.2995
   33.045    2.1134
   33.060    2.1309
   33.075    2.1274
   33.090    2.2012
   33.105    2.1696
   33.120    2.0502
   33.135    2.1661
   33.150    2.1345
   33.165    2.1274
   33.180    2.0326
   33.195    2.0642
   33.210    2.0397
   33.225    2.2047
   33.240    2.1766
   33.255    2.3135
   33.270    2.1731
   33.285    2.1450
   33.300    2.1064
   33.315    2.0783
   33.330    2.1555
   33.345    2.1590
   33.360    2.1976
   33.375    2.0642
   33.390    2.0432
   33.405    1.9484
   33.420    2.1415
   33.435    2.1836
   33.450    2.1064
   33.465    2.0362
   33.480    2.1309
   33.495    2.2187
   33.510    2.1309
   33.525    2.1941
   33.540    2.0748
   33.555    2.0467
   33.570    2.0958
   33.585    2.0818
   33.600    2.0853
   33.615    2.0783
   33.630    2.1029
   33.645    1.9659
   33.660    2.0572
   33.675    2.1555
   33.690    2.0467
   33.705    2.0642
   33.720    2.1836
   33.735    2.1731
   33.750    2.0326
   33.765    2.0046
   33.780    1.9800
   33.795    1.9870
   33.810    1.9554
   33.825    2.0853
   33.840    1.9414
   33.855    2.0116
   33.870    1.9449
   33.885    1.9589
   33.900    2.0116
   33.915    2.0221
   33.930    1.8325
   33.945    1.9835
   33.960    2.0151
   33.975    1.9554
   33.990    1.9168
   34.005    2.0011
   34.020    1.9344
   34.035    1.9765
   34.050    2.0783
   34.065    1.9905
   34.080    1.9905
   34.095    1.9273
   34.110    1.8571
   34.125    1.8325
   34.140    1.8150
   34.155    1.8325
   34.170    1.9975
   34.185    1.9835
   34.200    1.9554
   34.215    2.0467
   34.230    1.8887
   34.245    1.8957
   34.260    2.0011
   34.275    2.0678
   34.290    1.8817
   34.305    1.9379
   34.320    2.0432
   34.335    1.9519
   34.350    1.9028
   34.365    1.9028
   34.380    1.8782
   34.395    1.9344
   34.410    1.9554
   34.425    1.9975
   34.440    1.9133
   34.455    1.9028
   34.470    1.8957
   34.485    1.8712
   34.500    1.9870
   34.515    1.9975
   34.530    1.9765
   34.545    1.9695
   34.560    1.9203
   34.575    1.8571
   34.590    1.8431
   34.605    1.8150
   34.620    1.8431
   34.635    1.8676
   34.650    1.8817
   34.665    1.8571
   34.680    1.9800
   34.695    1.8922
   34.710    1.8255
   34.725    1.8361
   34.740    1.8922
   34.755    1.8220
   34.770    1.9028
   34.785    1.9203
   34.800    1.8536
   34.815    1.8887
   34.830    1.8501
   34.845    1.8536
   34.860    1.8712
   34.875    1.9028
   34.890    1.8571
   34.905    1.9414
   34.920    1.9168
   34.935    1.8185
   34.950    1.7799
   34.965    1.7097
   34.980    1.7518
   34.995    1.8641
   35.010    1.8606
   35.025    1.8501
   35.040    1.8045
   35.055    1.6886
   35.070    1.8361
   35.085    1.8290
   35.100    1.8045
   35.115    1.8431
   35.130    1.7904
   35.145    1.7764
   35.160    1.8852
   35.175    1.8431
   35.190    1.8115
   35.205    1.6711
   35.220    1.7729
   35.235    1.8115
   35.250    1.7799
   35.265    1.8115
   35.280    1.7834
   35.295    1.6921
   35.310    1.7342
   35.325    1.6430
   35.340    1.6851
   35.355    1.8396
   35.370    1.7799
   35.385    1.7448
   35.400    1.6395
   35.415    1.6535
   35.430    1.7483
   35.445    1.6921
   35.460    1.8957
   35.475    1.7202
   35.490    1.7553
   35.505    1.7132
   35.520    1.6359
   35.535    1.7518
   35.550    1.8396
   35.565    1.7588
   35.580    1.8571
   35.595    1.7378
   35.610    1.6816
   35.625    1.6675
   35.640    1.6114
   35.655    1.6254
   35.670    1.7588
   35.685    1.7413
   35.700    1.7869
   35.715    1.7202
   35.730    1.6886
   35.745    1.6886
   35.760    1.7869
   35.775    1.7342
   35.790    1.6149
   35.805    1.6886
   35.820    1.7167
   35.835    1.7097
   35.850    1.6044
   35.865    1.6711
   35.880    1.7307
   35.895    1.6254
   35.910    1.6991
   35.925    1.7062
   35.940    1.6149
   35.955    1.6605
   35.970    1.5447
   35.985    1.7132
   36.000    1.6289
   36.015    1.7272
   36.030    1.6395
   36.045    1.6640
   36.060    1.6219
   36.075    1.6079
   36.090    1.6781
   36.105    1.6500
   36.120    1.5833
   36.135    1.6746
   36.150    1.6008
   36.165    1.5692
   36.180    1.6675
   36.195    1.6640
   36.210    1.6746
   36.225    1.5657
   36.240    1.6044
   36.255    1.6359
   36.270    1.6079
   36.285    1.6535
   36.300    1.6640
   36.315    1.5938
   36.330    1.5166
   36.345    1.6324
   36.360    1.5377
   36.375    1.5271
   36.390    1.5973
   36.405    1.5587
   36.420    1.5903
   36.435    1.5552
   36.450    1.6114
   36.465    1.6395
   36.480    1.6886
   36.495    1.6395
   36.510    1.5236
   36.525    1.6219
   36.540    1.5341
   36.555    1.5412
   36.570    1.6465
   36.585    1.6289
   36.600    1.7237
   36.615    1.5482
   36.630    1.5587
   36.645    1.6430
   36.660    1.6008
   36.675    1.5025
   36.690    1.4815
   36.705    1.4745
   36.720    1.5728
   36.735    1.6324
   36.750    1.5236
   36.765    1.5552
   36.780    1.4358
   36.795    1.5306
   36.810    1.5868
   36.825    1.5657
   36.840    1.5201
   36.855    1.5096
   36.870    1.5271
   36.885    1.4604
   36.900    1.5833
   36.915    1.5447
   36.930    1.4323
   36.945    1.4780
   36.960    1.5973
   36.975    1.6254
   36.990    1.5903
   37.005    1.5868
   37.020    1.5973
   37.035    1.5377
   37.050    1.5868
   37.065    1.5798
   37.080    1.5341
   37.095    1.5833
   37.110    1.4885
   37.125    1.4990
   37.140    1.4604
   37.155    1.5447
   37.170    1.5412
   37.185    1.5201
   37.200    1.4709
   37.215    1.4955
   37.230    1.4148
   37.245    1.6149
   37.260    1.5412
   37.275    1.4850
   37.290    1.4815
   37.305    1.5131
   37.320    1.4604
   37.335    1.4850
   37.350    1.5447
   37.365    1.4078
   37.380    1.5938
   37.395    1.5271
   37.410    1.5236
   37.425    1.4253
   37.440    1.4464
   37.455    1.4639
   37.470    1.4745
   37.485    1.4218
   37.500    1.4148
   37.515    1.4885
   37.530    1.4674
   37.545    1.3902
   37.560    1.4323
   37.575    1.3516
   37.590    1.2884
   37.605    1.3972
   37.620    1.5131
   37.635    1.5131
   37.650    1.4850
   37.665    1.4042
   37.680    1.4183
   37.695    1.4078
   37.710    1.3797
   37.725    1.4464
   37.740    1.4920
   37.755    1.4253
   37.770    1.4499
   37.785    1.4148
   37.800    1.4780
   37.815    1.4148
   37.830    1.4148
   37.845    1.3902
   37.860    1.3165
   37.875    1.3902
   37.890    1.4534
   37.905    1.4078
   37.920    1.5236
   37.935    1.3762
   37.950    1.3902
   37.965    1.4534
   37.980    1.4815
   37.995    1.4815
   38.010    1.4113
   38.025    1.4078
   38.040    1.4394
   38.055    1.5306
   38.070    1.4394
   38.085    1.4499
   38.100    1.4815
   38.115    1.4323
   38.130    1.4183
   38.145    1.4183
   38.160    1.4323
   38.175    1.4358
   38.190    1.5131
   38.205    1.4394
   38.220    1.4323
   38.235    1.4709
   38.250    1.4042
   38.265    1.3937
   38.280    1.3797
   38.295    1.3656
   38.310    1.4639
   38.325    1.4323
   38.340    1.4218
   38.355    1.4429
   38.370    1.4429
   38.385    1.3867
   38.400    1.3727
   38.415    1.4394
   38.430    1.4358
   38.445    1.4674
   38.460    1.4007
   38.475    1.3375
   38.490    1.4183
   38.505    1.3060
   38.520    1.4745
   38.535    1.4288
   38.550    1.4218
   38.565    1.3691
   38.580    1.3586
   38.595    1.3411
   38.610    1.4113
   38.625    1.3727
   38.640    1.3586
   38.655    1.4604
   38.670    1.4429
   38.685    1.3867
   38.700    1.3867
   38.715    1.5025
   38.730    1.3972
   38.745    1.4604
   38.760    1.4464
   38.775    1.4078
   38.790    1.3305
   38.805    1.4218
   38.820    1.4639
   38.835    1.4358
   38.850    1.3375
   38.865    1.4148
   38.880    1.3586
   38.895    1.3902
   38.910    1.3060
   38.925    1.2919
   38.940    1.3867
   38.955    1.4639
   38.970    1.5271
   38.985    1.4569
   39.000    1.4218
   39.015    1.3270
   39.030    1.3305
   39.045    1.3095
   39.060    1.3481
   39.075    1.4394
   39.090    1.4358
   39.105    1.3446
   39.120    1.2638
   39.135    1.4113
   39.150    1.4358
   39.165    1.2322
   39.180    1.2322
   39.195    1.2884
   39.210    1.3130
   39.225    1.3972
   39.240    1.3937
   39.255    1.4639
   39.270    1.3551
   39.285    1.3340
   39.300    1.2954
   39.315    1.3375
   39.330    1.3656
   39.345    1.2533
   39.360    1.3762
   39.375    1.3656
   39.390    1.3937
   39.405    1.3060
   39.420    1.4148
   39.435    1.4113
   39.450    1.4183
   39.465    1.3130
   39.480    1.2919
   39.495    1.3305
   39.510    1.3621
   39.525    1.3411
   39.540    1.3551
   39.555    1.3691
   39.570    1.4323
   39.585    1.3586
   39.600    1.2568
   39.615    1.2849
   39.630    1.2849
   39.645    1.3270
   39.660    1.3200
   39.675    1.3797
   39.690    1.3551
   39.705    1.3551
   39.720    1.4183
   39.735    1.3867
   39.750    1.2568
   39.765    1.3656
   39.780    1.4464
   39.795    1.3340
   39.810    1.3235
   39.825    1.3165
   39.840    1.3691
   39.855    1.3832
   39.870    1.4253
   39.885    1.2744
   39.900    1.3024
   39.915    1.2708
   39.930    1.3832
   39.945    1.2849
   39.960    1.3095
   39.975    1.2357
   39.990    1.1374
