    1.500   24.2127
    1.515   24.5287
    1.530   23.8968
    1.545   23.9284
    1.560   23.2754
    1.575   23.4123
    1.590   23.0332
    1.605   23.3597
    1.620   23.3913
    1.635   22.7172
    1.650   21.9800
    1.665   21.4639
    1.680   22.1801
    1.695   21.4113
    1.710   21.5061
    1.725   21.0427
    1.740   21.4323
    1.755   21.3165
    1.770   20.7372
    1.785   21.0111
    1.800   20.5898
    1.815   20.9373
    1.830   20.3476
    1.845   20.2317
    1.860   20.0948
    1.875   19.8631
    1.890   20.2001
    1.905   19.5471
    1.920   19.8420
    1.935   19.7894
    1.950   19.2312
    1.965   19.9684
    1.980   20.0105
    1.995   20.0000
    2.010   19.2206
    2.025   19.3681
    2.040   19.8526
    2.055   20.1159
    2.070   19.2733
    2.085   19.8736
    2.100   19.5366
    2.115   19.7367
    2.130   19.5471
    2.145   19.7788
    2.160   20.0421
    2.175   20.6319
    2.190   20.1685
    2.205   20.1264
    2.220   20.7056
    2.235   20.6635
    2.250   19.6314
    2.265   20.6530
    2.280   21.0532
    2.295   21.0427
    2.310   20.5055
    2.325   21.2533
    2.340   21.7167
    2.355   21.2638
    2.370   21.6746
    2.385   21.9905
    2.400   21.9273
    2.415   22.6646
    2.430   22.1380
    2.445   22.7383
    2.460   23.6230
    2.475   23.5808
    2.490   24.4866
    2.505   24.2127
    2.520   24.0232
    2.535   24.6024
    2.550   24.5919
    2.565   25.2238
    2.580   26.1190
    2.595   26.5087
    2.610   25.9716
    2.625   27.0985
    2.640   27.2354
    2.655   27.6567
    2.670   28.3412
    2.685   29.3418
    2.700   29.2680
    2.715   29.4050
    2.730   30.3107
    2.745   30.7109
    2.760   31.3744
    2.775   32.5434
    2.790   33.1227
    2.805   33.4492
    2.820   35.2396
    2.835   35.5661
    2.850   36.4297
    2.865   37.2512
    2.880   36.9142
    2.895   38.8626
    2.910   40.6424
    2.925   41.3375
    2.940   42.1485
    2.955   42.9068
    2.970   44.3813
    2.985   46.2770
    3.000   47.0774
    3.015   48.3939
    3.030   49.6261
    3.045   51.4692
    3.060   52.6488
    3.075   54.5972
    3.090   57.0090
    3.105   58.4939
    3.120   60.8426
    3.135   62.8752
    3.150   63.9495
    3.165   66.4350
    3.180   69.7841
    3.195   71.3955
    3.210   75.2817
    3.225   78.5255
    3.240   82.1590
    3.255   86.7720
    3.270   92.1854
    3.285   97.6409
    3.300  102.5803
    3.315  107.1301
    3.330  113.8599
    3.345  121.8747
    3.360  130.7004
    3.375  140.7478
    3.390  150.1527
    3.405  161.3586
    3.420  172.7014
    3.435  177.1248
    3.450  177.6303
    3.465  171.8589
    3.480  156.5982
    3.495  137.1248
    3.510  111.3323
    3.525   90.4476
    3.540   73.3017
    3.555   60.6214
    3.570   52.1748
    3.585   47.9094
    3.600   43.9179
    3.615   42.6962
    3.630   40.5582
    3.645   40.0843
    3.660   39.5787
    3.675   40.6214
    3.690   40.9163
    3.705   41.0321
    3.720   42.7278
    3.735   43.2965
    3.750   44.7709
    3.765   44.6235
    3.780   47.8357
    3.795   48.4466
    3.810   50.0158
    3.825   51.3323
    3.840   53.5124
    3.855   54.8078
    3.870   57.1775
    3.885   60.4107
    3.900   62.7909
    3.915   64.8025
    3.930   66.8562
    3.945   71.3007
    3.960   72.7857
    3.975   74.6604
    3.990   77.4934
    4.005   79.9052
    4.020   82.2538
    4.035   82.9911
    4.050   82.9173
    4.065   82.4961
    4.080   82.5276
    4.095   79.8631
    4.110   78.3254
    4.125   74.8710
    4.140   70.6688
    4.155   66.6351
    4.170   64.4971
    4.185   59.8947
    4.200   54.7130
    4.215   50.4687
    4.230   46.1611
    4.245   41.7062
    4.260   39.0627
    4.275   35.5661
    4.290   33.0806
    4.305   29.9526
    4.320   27.0879
    4.335   25.4450
    4.350   22.8752
    4.365   21.0532
    4.380   19.5577
    4.395   17.7251
    4.410   16.8088
    4.425   15.7135
    4.440   15.6714
    4.455   13.8073
    4.470   13.2175
    4.485   12.3960
    4.500   12.1748
    4.515   12.0800
    4.530   11.8589
    4.545   10.9215
    4.560   10.5951
    4.575   11.2902
    4.590   10.6898
    4.605   10.2791
    4.620    9.9526
    4.635    9.4365
    4.650    9.4365
    4.665    9.3628
    4.680    9.0995
    4.695    8.7309
    4.710    8.7098
    4.725    8.4887
    4.740    8.5835
    4.755    8.6572
    4.770    9.0153
    4.785    8.6677
    4.800    8.2991
    4.815    8.6572
    4.830    8.2149
    4.845    8.0569
    4.860    8.2043
    4.875    8.5519
    4.890    8.2043
    4.905    7.9726
    4.920    7.8884
    4.935    7.9621
    4.950    8.5940
    4.965    8.4150
    4.980    7.8146
    4.995    7.6356
    5.010    7.8462
    5.025    8.1727
    5.040    8.1306
    5.055    8.3096
    5.070    8.0253
    5.085    7.8673
    5.100    7.8778
    5.115    8.0463
    5.130    8.0358
    5.145    7.8146
    5.160    7.7304
    5.175    7.9305
    5.190    8.1411
    5.205    8.2043
    5.220    7.8989
    5.235    7.8778
    5.250    7.7936
    5.265    7.8989
    5.280    8.1622
    5.295    7.9410
    5.310    7.8989
    5.325    8.1201
    5.340    7.8884
    5.355    7.7093
    5.370    7.9094
    5.385    7.6672
    5.400    7.4987
    5.415    7.8989
    5.430    7.1827
    5.445    7.1722
    5.460    7.2249
    5.475    7.2459
    5.490    6.9300
    5.505    7.5619
    5.520    7.5303
    5.535    7.2459
    5.550    7.2459
    5.565    7.0985
    5.580    7.0879
    5.595    7.6672
    5.610    7.4039
    5.625    7.3196
    5.640    6.8457
    5.655    7.1933
    5.670    7.3196
    5.685    7.6461
    5.700    6.8773
    5.715    7.1933
    5.730    7.0037
    5.745    7.0037
    5.760    7.1827
    5.775    7.1722
    5.790    7.1406
    5.805    6.9826
    5.820    6.7404
    5.835    7.2354
    5.850    7.3934
    5.865    7.0458
    5.880    7.0037
    5.895    7.1195
    5.910    7.0353
    5.925    7.1195
    5.940    7.0563
    5.955    7.3196
    5.970    7.0353
    5.985    7.0985
    6.000    7.3302
    6.015    7.3828
    6.030    7.0669
    6.045    7.3828
    6.060    7.5092
    6.075    7.0248
    6.090    7.5619
    6.105    7.5303
    6.120    7.4987
    6.135    7.4039
    6.150    7.2775
    6.165    7.2038
    6.180    7.1406
    6.195    7.7093
    6.210    7.4355
    6.225    7.5829
    6.240    7.3407
    6.255    7.5829
    6.270    7.7409
    6.285    7.7725
    6.300    8.1622
    6.315    7.5092
    6.330    7.8146
    6.345    7.7304
    6.360    7.5619
    6.375    7.7620
    6.390    7.6461
    6.405    8.0569
    6.420    8.5203
    6.435    8.8678
    6.450    8.4992
    6.465    8.0358
    6.480    8.5729
    6.495    8.6677
    6.510    8.8784
    6.525    8.8889
    6.540    8.8889
    6.555    9.2680
    6.570    9.3734
    6.585    9.9315
    6.600    9.6367
    6.615    9.9315
    6.630   10.3423
    6.645   10.7214
    6.660   10.7425
    6.675   11.3744
    6.690   11.5745
    6.705   11.4692
    6.720   11.7114
    6.735   12.5434
    6.750   13.2701
    6.765   13.9442
    6.780   14.1759
    6.795   15.3660
    6.810   16.3876
    6.825   16.7035
    6.840   17.9884
    6.855   18.9889
    6.870   20.8110
    6.885   21.3165
    6.900   22.8120
    6.915   23.8652
    6.930   24.7499
    6.945   24.8236
    6.960   24.2549
    6.975   22.8331
    6.990   20.6740
    7.005   17.8515
    7.020   15.2291
    7.035   13.5229
    7.050   11.7220
    7.065   10.3212
    7.080   10.0053
    7.095    8.8784
    7.110    8.8573
    7.125    8.3518
    7.140    8.2570
    7.155    8.0569
    7.170    7.8146
    7.185    7.4987
    7.200    7.7304
    7.215    7.7514
    7.230    8.0674
    7.245    7.4039
    7.260    7.8146
    7.275    7.4987
    7.290    7.7199
    7.305    7.8884
    7.320    7.8357
    7.335    7.4355
    7.350    7.1827
    7.365    6.9826
    7.380    7.6777
    7.395    7.3091
    7.410    7.4355
    7.425    7.4460
    7.440    7.8357
    7.455    7.3196
    7.470    7.7620
    7.485    7.9726
    7.500    7.8252
    7.515    8.1517
    7.530    7.8041
    7.545    7.4882
    7.560    7.8041
    7.575    7.9410
    7.590    8.0253
    7.605    8.0463
    7.620    7.8778
    7.635    7.8884
    7.650    8.0674
    7.665    7.9831
    7.680    8.3096
    7.695    8.4992
    7.710    9.1627
    7.725    8.5519
    7.740    9.3839
    7.755    8.7098
    7.770    9.0469
    7.785    9.4155
    7.800    9.4997
    7.815    9.9315
    7.830    9.5735
    7.845    9.2575
    7.860    9.7525
    7.875    9.9105
    7.890   10.3739
    7.905   10.4265
    7.920   10.5635
    7.935   10.4581
    7.950   11.1006
    7.965   11.1532
    7.980   11.6377
    7.995   11.7957
    8.010   11.9221
    8.025   11.9431
    8.040   11.7114
    8.055   12.9015
    8.070   13.0595
    8.085   13.5124
    8.100   13.7862
    8.115   13.3123
    8.130   13.7862
    8.145   14.0811
    8.160   13.9442
    8.175   13.7230
    8.190   14.1548
    8.205   14.2391
    8.220   13.9126
    8.235   13.9231
    8.250   14.3233
    8.265   14.6498
    8.280   14.4918
    8.295   13.9547
    8.310   13.7125
    8.325   13.1016
    8.340   13.1648
    8.355   13.1543
    8.370   13.2280
    8.385   12.8699
    8.400   13.4281
    8.415   12.9226
    8.430   12.8489
    8.445   12.5118
    8.460   11.8589
    8.475   12.0063
    8.490   11.9010
    8.505   11.9747
    8.520   11.3849
    8.535   10.9110
    8.550   11.2902
    8.565   10.7109
    8.580   10.3528
    8.595   10.2580
    8.610   10.6688
    8.625    9.8999
    8.640    9.6577
    8.655    9.3102
    8.670    8.8573
    8.685    8.5519
    8.700    8.8994
    8.715    8.8678
    8.730    8.4781
    8.745    8.1201
    8.760    8.4360
    8.775    8.1095
    8.790    8.2570
    8.805    8.3412
    8.820    8.3202
    8.835    8.0885
    8.850    8.0885
    8.865    7.8568
    8.880    7.9094
    8.895    8.0779
    8.910    7.9200
    8.925    7.9726
    8.940    7.6461
    8.955    8.0569
    8.970    8.3202
    8.985    8.2780
    9.000    8.3412
    9.015    8.3307
    9.030    8.6151
    9.045    8.4255
    9.060    8.6045
    9.075    8.7204
    9.090    8.3096
    9.105    8.2780
    9.120    8.9626
    9.135    8.5729
    9.150    9.2891
    9.165    9.1522
    9.180    9.0679
    9.195    9.3312
    9.210    9.1101
    9.225    9.6682
    9.240    9.3523
    9.255    9.2048
    9.270    9.2891
    9.285    9.1838
    9.300    9.2259
    9.315    9.4787
    9.330    8.5308
    9.345    8.8889
    9.360    8.5203
    9.375    8.6361
    9.390    7.9516
    9.405    8.0990
    9.420    8.0569
    9.435    7.9305
    9.450    7.5197
    9.465    7.1511
    9.480    7.3407
    9.495    7.3618
    9.510    7.1301
    9.525    7.0879
    9.540    7.6777
    9.555    7.1090
    9.570    6.9405
    9.585    7.0985
    9.600    6.8141
    9.615    7.2565
    9.630    6.9089
    9.645    6.8036
    9.660    7.1511
    9.675    7.0985
    9.690    6.8668
    9.705    7.1195
    9.720    7.1933
    9.735    7.2565
    9.750    7.3091
    9.765    7.4250
    9.780    7.2143
    9.795    7.1827
    9.810    7.0774
    9.825    6.9510
    9.840    7.1722
    9.855    7.2565
    9.870    7.4355
    9.885    7.2880
    9.900    6.9510
    9.915    7.3828
    9.930    7.4776
    9.945    7.2775
    9.960    7.4566
    9.975    7.5197
    9.990    7.6567
   10.005    7.8673
   10.020    7.7304
   10.035    8.0147
   10.050    7.6567
   10.065    7.9094
   10.080    7.7093
   10.095    7.5724
   10.110    7.1722
   10.125    7.6777
   10.140    7.7093
   10.155    7.6356
   10.170    8.0463
   10.185    7.8673
   10.200    7.5724
   10.215    7.8357
   10.230    7.2143
   10.245    7.7199
   10.260    8.0779
   10.275    7.5829
   10.290    7.4987
   10.305    7.6672
   10.320    7.8146
   10.335    8.1306
   10.350    7.9305
   10.365    8.3202
   10.380    8.3096
   10.395    8.5624
   10.410    8.4150
   10.425    8.6467
   10.440    8.8152
   10.455    8.5203
   10.470    8.4676
   10.485    8.1833
   10.500    7.7830
   10.515    7.7199
   10.530    7.6567
   10.545    7.4566
   10.560    7.3091
   10.575    7.4776
   10.590    7.1933
   10.605    7.3934
   10.620    6.9194
   10.635    7.3091
   10.650    7.5092
   10.665    7.1617
   10.680    7.2143
   10.695    7.0879
   10.710    7.3302
   10.725    7.1722
   10.740    7.4355
   10.755    6.7404
   10.770    7.2775
   10.785    7.5303
   10.800    7.4355
   10.815    7.5829
   10.830    7.3407
   10.845    7.5619
   10.860    7.5724
   10.875    7.1617
   10.890    7.1511
   10.905    7.0879
   10.920    6.9194
   10.935    7.2459
   10.950    7.0458
   10.965    7.0879
   10.980    7.3723
   10.995    7.3196
   11.010    7.2459
   11.025    7.2880
   11.040    7.0879
   11.055    7.2459
   11.070    7.2565
   11.085    6.8457
   11.100    6.8562
   11.115    7.1827
   11.130    7.0985
   11.145    6.7404
   11.160    7.0879
   11.175    6.3823
   11.190    7.1301
   11.205    7.3934
   11.220    7.3091
   11.235    6.5824
   11.250    6.8668
   11.265    6.9616
   11.280    7.2038
   11.295    6.9616
   11.310    6.9194
   11.325    7.0879
   11.340    6.8668
   11.355    6.8457
   11.370    7.0458
   11.385    7.1722
   11.400    7.0037
   11.415    7.2249
   11.430    6.9510
   11.445    7.5197
   11.460    6.6667
   11.475    6.8668
   11.490    6.9721
   11.505    7.0353
   11.520    6.6561
   11.535    7.1195
   11.550    6.9194
   11.565    6.4455
   11.580    6.8036
   11.595    7.3407
   11.610    7.1511
   11.625    6.5508
   11.640    6.7088
   11.655    6.8668
   11.670    6.9089
   11.685    6.9932
   11.700    6.8562
   11.715    7.2986
   11.730    6.9616
   11.745    7.1511
   11.760    7.2249
   11.775    7.0037
   11.790    7.0037
   11.805    7.0248
   11.820    7.2143
   11.835    7.4144
   11.850    7.8146
   11.865    7.6672
   11.880    7.5092
   11.895    7.4776
   11.910    7.3828
   11.925    7.3934
   11.940    8.2043
   11.955    7.8778
   11.970    7.9200
   11.985    7.7409
   12.000    7.8884
   12.015    7.8778
   12.030    8.4255
   12.045    7.5408
   12.060    7.6672
   12.075    8.2675
   12.090    8.5097
   12.105    8.2464
   12.120    8.4571
   12.135    8.1411
   12.150    8.2254
   12.165    8.5203
   12.180    8.2043
   12.195    8.4676
   12.210    8.2359
   12.225    8.4044
   12.240    8.6361
   12.255    8.7204
   12.270    8.8152
   12.285    8.4571
   12.300    8.4887
   12.315    8.5835
   12.330    8.0885
   12.345    8.0147
   12.360    8.3728
   12.375    8.4255
   12.390    8.3834
   12.405    8.1201
   12.420    7.8357
   12.435    8.0779
   12.450    8.2991
   12.465    7.8357
   12.480    7.8673
   12.495    8.3518
   12.510    8.3412
   12.525    8.0885
   12.540    7.9410
   12.555    8.3307
   12.570    8.0885
   12.585    8.3623
   12.600    8.2991
   12.615    8.1411
   12.630    7.8673
   12.645    7.9410
   12.660    8.3412
   12.675    8.1833
   12.690    8.0358
   12.705    8.1938
   12.720    7.6040
   12.735    7.9621
   12.750    7.7093
   12.765    8.3096
   12.780    7.8568
   12.795    7.3934
   12.810    7.6145
   12.825    7.0669
   12.840    7.5303
   12.855    8.0463
   12.870    7.3512
   12.885    7.7304
   12.900    7.8989
   12.915    7.8146
   12.930    7.6567
   12.945    7.6461
   12.960    7.4566
   12.975    7.3091
   12.990    7.4671
   13.005    7.3934
   13.020    7.6040
   13.035    7.5408
   13.050    7.3302
   13.065    7.7199
   13.080    7.5724
   13.095    7.4039
   13.110    7.2986
   13.125    7.6567
   13.140    7.4671
   13.155    7.3196
   13.170    7.5513
   13.185    7.6883
   13.200    7.5092
   13.215    7.1827
   13.230    7.6356
   13.245    7.8357
   13.260    7.1933
   13.275    7.3407
   13.290    7.5619
   13.305    7.8041
   13.320    7.6567
   13.335    7.5513
   13.350    7.2775
   13.365    7.4882
   13.380    7.8252
   13.395    7.6567
   13.410    7.6145
   13.425    7.4776
   13.440    7.5197
   13.455    7.7830
   13.470    7.4460
   13.485    7.9305
   13.500    7.9831
   13.515    7.7514
   13.530    7.7304
   13.545    7.4566
   13.560    7.3196
   13.575    7.5935
   13.590    7.5935
   13.605    7.2565
   13.620    7.3828
   13.635    7.0563
   13.650    7.3196
   13.665    7.3512
   13.680    7.4776
   13.695    7.4776
   13.710    7.1827
   13.725    7.2986
   13.740    7.1195
   13.755    7.3091
   13.770    6.9616
   13.785    7.2459
   13.800    7.1090
   13.815    7.3196
   13.830    7.2670
   13.845    7.4144
   13.860    7.1511
   13.875    7.1195
   13.890    7.2986
   13.905    7.2249
   13.920    7.1827
   13.935    7.4144
   13.950    7.2249
   13.965    6.9932
   13.980    7.2880
   13.995    7.5829
   14.010    7.3512
   14.025    6.8352
   14.040    6.6456
   14.055    7.3618
   14.070    6.8668
   14.085    7.0142
   14.100    7.0248
   14.115    6.8246
   14.130    6.7720
   14.145    6.5824
   14.160    6.9826
   14.175    6.6983
   14.190    6.6877
   14.205    6.8668
   14.220    7.3618
   14.235    6.5719
   14.250    6.3296
   14.265    6.7088
   14.280    7.0879
   14.295    6.6245
   14.310    6.4666
   14.325    6.9616
   14.340    6.7299
   14.355    6.8878
   14.370    6.8457
   14.385    6.6561
   14.400    6.6456
   14.415    6.2243
   14.430    6.5508
   14.445    6.7720
   14.460    6.7299
   14.475    6.6983
   14.490    7.0248
   14.505    7.3407
   14.520    6.7509
   14.535    6.7404
   14.550    6.7509
   14.565    6.7825
   14.580    6.6245
   14.595    6.5403
   14.610    6.7509
   14.625    6.7509
   14.640    6.4982
   14.655    7.0669
   14.670    6.8141
   14.685    6.6772
   14.700    6.4350
   14.715    6.6140
   14.730    6.2770
   14.745    6.2875
   14.760    6.8036
   14.775    6.6456
   14.790    6.5824
   14.805    6.5719
   14.820    6.5824
   14.835    6.4560
   14.850    6.7720
   14.865    6.8141
   14.880    6.7825
   14.895    6.9721
   14.910    6.3718
   14.925    6.2665
   14.940    6.2981
   14.955    6.3612
   14.970    6.7299
   14.985    6.9616
   15.000    7.0142
   15.015    6.7088
   15.030    6.3296
   15.045    6.9932
   15.060    6.8246
   15.075    6.6035
   15.090    6.7404
   15.105    6.8668
   15.120    6.7088
   15.135    6.7299
   15.150    6.9194
   15.165    6.5192
   15.180    6.9510
   15.195    6.6035
   15.210    7.0142
   15.225    7.0037
   15.240    6.9194
   15.255    7.1827
   15.270    6.7720
   15.285    7.2565
   15.300    7.2038
   15.315    6.6983
   15.330    6.7615
   15.345    6.7193
   15.360    6.9510
   15.375    7.1406
   15.390    7.2038
   15.405    7.0985
   15.420    6.9089
   15.435    6.7299
   15.450    6.9300
   15.465    7.1722
   15.480    7.2670
   15.495    6.9721
   15.510    7.3196
   15.525    7.2459
   15.540    7.1827
   15.555    7.0669
   15.570    7.1090
   15.585    7.2986
   15.600    7.0248
   15.615    7.3196
   15.630    6.9721
   15.645    7.3512
   15.660    7.0985
   15.675    7.2565
   15.690    7.3618
   15.705    6.6772
   15.720    6.8668
   15.735    7.3828
   15.750    6.8562
   15.765    6.9826
   15.780    6.9300
   15.795    6.8141
   15.810    6.8246
   15.825    7.0774
   15.840    7.0879
   15.855    6.9405
   15.870    7.0142
   15.885    7.1195
   15.900    6.6351
   15.915    7.1301
   15.930    7.0037
   15.945    6.9616
   15.960    7.1301
   15.975    6.9616
   15.990    6.9300
   16.005    7.2249
   16.020    6.9194
   16.035    6.9721
   16.050    7.1617
   16.065    6.7193
   16.080    6.7193
   16.095    6.8773
   16.110    7.2880
   16.125    6.7615
   16.140    6.4876
   16.155    6.6667
   16.170    6.6667
   16.185    6.7088
   16.200    6.6561
   16.215    6.7404
   16.230    6.7720
   16.245    7.0458
   16.260    6.8457
   16.275    6.5929
   16.290    6.4982
   16.305    6.4771
   16.320    6.3718
   16.335    6.4771
   16.350    7.0142
   16.365    6.6983
   16.380    6.3718
   16.395    6.9300
   16.410    6.9826
   16.425    6.7193
   16.440    6.6772
   16.455    6.8352
   16.470    7.1827
   16.485    7.0142
   16.500    6.6877
   16.515    6.4876
   16.530    6.5087
   16.545    7.1511
   16.560    6.8562
   16.575    6.9510
   16.590    6.7509
   16.605    6.6983
   16.620    6.7299
   16.635    6.6772
   16.650    6.7509
   16.665    6.8984
   16.680    6.6561
   16.695    6.7509
   16.710    6.5613
   16.725    6.7509
   16.740    6.8352
   16.755    6.7720
   16.770    6.5719
   16.785    6.8036
   16.800    6.8878
   16.815    7.0774
   16.830    7.1722
   16.845    7.2038
   16.860    7.0142
   16.875    7.0142
   16.890    6.5824
   16.905    6.7088
   16.920    6.6245
   16.935    6.8457
   16.950    6.7930
   16.965    6.8352
   16.980    6.9510
   16.995    6.7930
   17.010    6.6667
   17.025    6.8773
   17.040    7.0985
   17.055    7.0248
   17.070    7.3723
   17.085    6.8141
   17.100    7.1090
   17.115    6.8878
   17.130    6.8773
   17.145    6.6035
   17.160    7.0563
   17.175    7.0142
   17.190    6.5192
   17.205    6.9721
   17.220    6.8141
   17.235    6.6245
   17.250    6.6772
   17.265    6.6772
   17.280    6.7509
   17.295    6.8246
   17.310    6.4560
   17.325    6.4876
   17.340    6.8457
   17.355    6.7720
   17.370    7.1827
   17.385    7.2354
   17.400    7.0037
   17.415    7.2880
   17.430    7.1090
   17.445    6.7720
   17.460    6.8984
   17.475    6.8878
   17.490    6.7193
   17.505    7.0037
   17.520    6.5403
   17.535    7.0669
   17.550    7.1195
   17.565    6.9405
   17.580    6.7930
   17.595    7.0353
   17.610    7.0669
   17.625    6.9616
   17.640    7.2038
   17.655    7.0353
   17.670    6.9510
   17.685    6.9721
   17.700    7.2249
   17.715    7.0142
   17.730    7.0774
   17.745    6.7615
   17.760    6.6456
   17.775    6.9510
   17.790    6.7930
   17.805    6.6667
   17.820    7.1195
   17.835    6.9721
   17.850    7.2565
   17.865    7.2249
   17.880    7.5092
   17.895    7.3196
   17.910    6.7299
   17.925    7.0563
   17.940    7.2143
   17.955    7.2986
   17.970    6.9089
   17.985    7.4460
   18.000    7.3407
   18.015    7.2038
   18.030    6.7509
   18.045    7.1933
   18.060    6.9510
   18.075    7.1090
   18.090    6.9405
   18.105    6.9510
   18.120    6.9089
   18.135    7.1722
   18.150    6.9194
   18.165    6.7930
   18.180    7.2354
   18.195    7.1301
   18.210    7.0669
   18.225    7.3828
   18.240    6.8984
   18.255    7.0669
   18.270    6.7404
   18.285    7.2670
   18.300    7.0458
   18.315    7.0985
   18.330    7.1933
   18.345    6.8984
   18.360    6.9194
   18.375    7.2038
   18.390    7.1827
   18.405    7.3934
   18.420    6.9510
   18.435    7.2038
   18.450    7.0142
   18.465    6.9405
   18.480    7.2670
   18.495    7.1722
   18.510    7.4460
   18.525    7.2143
   18.540    7.1827
   18.555    6.9826
   18.570    6.9616
   18.585    6.6245
   18.600    6.9932
   18.615    6.6667
   18.630    6.3507
   18.645    6.9194
   18.660    6.4876
   18.675    6.5719
   18.690    6.8036
   18.705    7.0669
   18.720    6.9616
   18.735    6.5508
   18.750    6.9089
   18.765    6.8141
   18.780    6.8773
   18.795    6.5192
   18.810    6.5508
   18.825    6.6456
   18.840    6.6772
   18.855    7.0458
   18.870    7.0879
   18.885    6.6035
   18.900    6.8562
   18.915    7.0142
   18.930    6.7509
   18.945    6.8668
   18.960    6.7404
   18.975    7.0458
   18.990    6.7299
   19.005    6.9405
   19.020    7.0458
   19.035    6.8773
   19.050    6.6983
   19.065    6.5508
   19.080    7.1195
   19.095    6.8562
   19.110    7.1090
   19.125    7.2459
   19.140    6.7509
   19.155    6.7615
   19.170    6.9826
   19.185    6.6877
   19.200    6.8668
   19.215    7.1827
   19.230    7.0248
   19.245    6.7615
   19.260    6.6561
   19.275    6.7825
   19.290    7.0774
   19.305    6.9721
   19.320    7.4144
   19.335    7.1511
   19.350    7.1722
   19.365    7.2670
   19.380    7.2249
   19.395    7.6988
   19.410    7.5619
   19.425    7.6251
   19.440    7.7936
   19.455    7.8673
   19.470    7.4671
   19.485    7.2459
   19.500    7.3407
   19.515    7.2986
   19.530    7.4355
   19.545    7.6145
   19.560    7.2249
   19.575    7.5935
   19.590    7.7199
   19.605    7.7725
   19.620    7.6145
   19.635    7.8252
   19.650    7.9305
   19.665    7.3407
   19.680    7.6567
   19.695    7.9937
   19.710    7.9621
   19.725    8.0147
   19.740    7.6672
   19.755    7.8146
   19.770    7.7936
   19.785    7.7725
   19.800    7.7199
   19.815    7.8673
   19.830    8.1833
   19.845    7.4566
   19.860    7.6883
   19.875    7.9516
   19.890    8.2780
   19.905    7.8884
   19.920    8.0253
   19.935    7.8673
   19.950    7.4144
   19.965    7.3618
   19.980    7.6251
   19.995    8.0463
   20.010    7.8146
   20.025    7.7304
   20.040    8.1727
   20.055    7.3196
   20.070    7.7936
   20.085    7.6883
   20.100    8.0147
   20.115    8.2675
   20.130    7.7620
   20.145    7.5829
   20.160    7.9621
   20.175    7.9094
   20.190    7.7093
   20.205    7.4566
   20.220    7.5829
   20.235    7.5513
   20.250    7.5724
   20.265    7.5724
   20.280    7.6883
   20.295    7.5092
   20.310    7.6356
   20.325    7.4144
   20.340    7.6988
   20.355    7.5935
   20.370    7.4355
   20.385    7.6672
   20.400    7.9200
   20.415    7.4460
   20.430    7.5303
   20.445    7.4355
   20.460    7.7936
   20.475    7.6461
   20.490    7.9831
   20.505    7.9831
   20.520    7.8462
   20.535    7.7830
   20.550    7.7409
   20.565    7.4355
   20.580    7.7514
   20.595    7.3618
   20.610    7.3302
   20.625    7.1827
   20.640    7.5724
   20.655    7.4882
   20.670    7.2775
   20.685    7.3934
   20.700    8.0674
   20.715    7.9831
   20.730    7.5619
   20.745    7.6251
   20.760    7.6672
   20.775    7.8568
   20.790    7.9094
   20.805    7.6777
   20.820    7.7514
   20.835    7.6567
   20.850    8.1306
   20.865    7.5092
   20.880    7.5408
   20.895    7.8989
   20.910    7.7199
   20.925    8.0042
   20.940    8.1622
   20.955    8.0569
   20.970    8.2675
   20.985    8.2464
   21.000    7.8568
   21.015    8.3728
   21.030    8.4044
   21.045    8.0253
   21.060    7.8252
   21.075    7.9410
   21.090    8.0358
   21.105    8.1833
   21.120    8.0042
   21.135    7.8778
   21.150    7.7304
   21.165    7.3407
   21.180    7.6251
   21.195    7.5935
   21.210    7.8673
   21.225    8.2886
   21.240    8.2570
   21.255    7.4671
   21.270    7.9410
   21.285    8.1306
   21.300    8.2886
   21.315    7.6883
   21.330    7.7514
   21.345    8.3307
   21.360    7.6356
   21.375    7.5935
   21.390    7.6883
   21.405    7.9621
   21.420    7.7093
   21.435    7.8673
   21.450    7.8673
   21.465    7.9726
   21.480    7.8357
   21.495    7.7304
   21.510    7.8778
   21.525    8.0990
   21.540    8.2991
   21.555    7.9726
   21.570    7.9200
   21.585    7.8568
   21.600    7.5619
   21.615    7.6356
   21.630    7.7936
   21.645    7.7936
   21.660    7.5197
   21.675    7.9200
   21.690    8.1201
   21.705    8.2991
   21.720    8.0042
   21.735    8.0147
   21.750    7.5724
   21.765    7.7199
   21.780    7.6567
   21.795    7.9410
   21.810    7.8041
   21.825    8.0147
   21.840    7.9305
   21.855    7.5408
   21.870    7.3828
   21.885    7.2038
   21.900    7.8884
   21.915    8.2359
   21.930    8.0147
   21.945    7.7304
   21.960    7.4460
   21.975    7.5619
   21.990    7.6356
   22.005    7.5092
   22.020    7.8252
   22.035    7.9094
   22.050    7.4671
   22.065    7.6040
   22.080    7.6777
   22.095    7.7620
   22.110    7.8357
   22.125    7.6672
   22.140    7.3407
   22.155    7.7409
   22.170    7.4355
   22.185    7.6672
   22.200    7.8778
   22.215    7.3302
   22.230    7.5513
   22.245    7.7199
   22.260    7.9831
   22.275    7.7304
   22.290    7.7936
   22.305    7.5197
   22.320    7.1933
   22.335    7.7514
   22.350    7.1301
   22.365    7.7514
   22.380    7.6251
   22.395    7.7199
   22.410    7.6567
   22.425    7.8252
   22.440    7.1406
   22.455    6.9194
   22.470    7.3512
   22.485    7.4355
   22.500    8.1938
   22.515    7.6883
   22.530    7.3618
   22.545    7.0879
   22.560    7.7304
   22.575    7.7936
   22.590    7.6040
   22.605    7.7936
   22.620    7.5303
   22.635    7.4566
   22.650    7.4776
   22.665    7.5197
   22.680    7.4987
   22.695    7.9094
   22.710    7.3934
   22.725    7.3091
   22.740    7.3407
   22.755    7.1406
   22.770    7.4460
   22.785    7.1406
   22.800    7.2775
   22.815    7.8568
   22.830    7.1511
   22.845    7.5829
   22.860    7.5197
   22.875    7.7409
   22.890    7.5829
   22.905    7.7304
   22.920    7.2775
   22.935    7.6040
   22.950    7.6145
   22.965    7.7199
   22.980    7.5619
   22.995    7.9937
   23.010    7.9621
   23.025    7.3302
   23.040    7.4776
   23.055    7.6672
   23.070    7.5724
   23.085    7.2565
   23.100    7.7514
   23.115    7.8462
   23.130    7.5197
   23.145    7.6672
   23.160    7.3723
   23.175    7.2565
   23.190    7.3828
   23.205    7.2670
   23.220    7.2880
   23.235    7.2565
   23.250    7.8146
   23.265    7.4460
   23.280    7.1511
   23.295    7.2775
   23.310    7.4355
   23.325    7.5408
   23.340    7.7093
   23.355    7.6777
   23.370    7.2038
   23.385    7.2670
   23.400    7.4144
   23.415    7.3618
   23.430    7.6251
   23.445    7.1406
   23.460    7.3407
   23.475    7.7514
   23.490    7.2565
   23.505    7.5724
   23.520    7.7093
   23.535    7.9621
   23.550    7.6567
   23.565    7.7304
   23.580    7.2459
   23.595    7.1827
   23.610    7.2038
   23.625    7.4776
   23.640    7.5619
   23.655    7.4671
   23.670    7.5303
   23.685    7.5408
   23.700    7.4671
   23.715    7.6356
   23.730    7.6356
   23.745    7.4882
   23.760    7.2143
   23.775    7.0774
   23.790    7.2986
   23.805    7.5829
   23.820    7.4671
   23.835    7.7514
   23.850    7.5619
   23.865    7.5408
   23.880    7.0248
   23.895    7.4144
   23.910    6.7615
   23.925    7.1511
   23.940    7.1406
   23.955    7.2775
   23.970    7.4882
   23.985    7.0774
   24.000    6.9932
   24.015    7.4882
   24.030    7.1195
   24.045    7.4566
   24.060    6.9826
   24.075    7.0774
   24.090    7.4355
   24.105    6.9300
   24.120    6.9932
   24.135    7.3723
   24.150    7.6251
   24.165    7.1722
   24.180    7.1511
   24.195    7.2459
   24.210    7.1090
   24.225    7.2986
   24.240    6.9932
   24.255    6.8562
   24.270    6.9826
   24.285    6.8878
   24.300    7.0248
   24.315    7.3828
   24.330    7.3302
   24.345    6.9510
   24.360    7.1090
   24.375    7.7304
   24.390    7.3723
   24.405    7.1301
   24.420    7.6145
   24.435    7.4671
   24.450    7.0985
   24.465    8.0779
   24.480    7.9094
   24.495    7.4566
   24.510    7.4144
   24.525    7.5303
   24.540    7.1617
   24.555    7.6356
   24.570    7.5724
   24.585    7.6461
   24.600    7.3512
   24.615    7.8778
   24.630    7.4144
   24.645    7.6672
   24.660    7.4566
   24.675    6.9721
   24.690    7.1301
   24.705    7.4987
   24.720    7.6883
   24.735    7.3618
   24.750    6.8984
   24.765    7.3302
   24.780    7.0774
   24.795    7.2880
   24.810    7.3723
   24.825    7.1722
   24.840    7.0248
   24.855    7.3091
   24.870    6.9405
   24.885    6.7509
   24.900    6.8457
   24.915    7.2354
   24.930    7.2038
   24.945    7.0248
   24.960    7.4355
   24.975    7.3091
   24.990    7.4039
   25.005    7.1617
   25.020    6.9932
   25.035    6.7088
   25.050    6.4771
   25.065    7.0774
   25.080    7.3723
   25.095    7.0879
   25.110    7.0248
   25.125    7.0985
   25.140    6.9300
   25.155    7.1406
   25.170    7.2880
   25.185    7.1722
   25.200    7.2880
   25.215    7.2986
   25.230    6.9932
   25.245    6.8878
   25.260    6.9405
   25.275    7.2143
   25.290    7.1933
   25.305    7.1301
   25.320    7.4039
   25.335    7.2670
   25.350    6.8141
   25.365    7.1301
   25.380    7.4144
   25.395    7.2670
   25.410    7.0353
   25.425    7.1933
   25.440    7.3196
   25.455    7.2038
   25.470    7.3618
   25.485    7.1722
   25.500    7.2565
   25.515    7.0142
   25.530    7.0353
   25.545    6.9932
   25.560    7.1195
   25.575    7.2354
   25.590    6.7930
   25.605    6.5719
   25.620    7.0353
   25.635    7.0774
   25.650    6.7193
   25.665    6.7404
   25.680    6.8878
   25.695    7.3618
   25.710    6.7825
   25.725    6.8246
   25.740    6.8773
   25.755    7.0248
   25.770    7.0563
   25.785    7.0458
   25.800    7.0774
   25.815    6.6877
   25.830    6.6561
   25.845    6.7930
   25.860    7.0669
   25.875    6.9300
   25.890    6.8457
   25.905    6.6351
   25.920    6.8246
   25.935    6.5824
   25.950    6.8773
   25.965    6.7720
   25.980    6.6245
   25.995    7.0774
   26.010    7.1722
   26.025    6.9616
   26.040    6.8457
   26.055    6.9826
   26.070    6.8562
   26.085    6.9194
   26.100    7.0774
   26.115    6.7299
   26.130    6.8773
   26.145    6.7930
   26.160    6.7615
   26.175    6.4771
   26.190    6.8352
   26.205    6.5719
   26.220    6.3928
   26.235    6.4560
   26.250    6.7299
   26.265    6.9826
   26.280    6.6140
   26.295    6.6772
   26.310    6.6983
   26.325    6.4771
   26.340    6.5508
   26.355    6.8246
   26.370    6.7615
   26.385    6.6877
   26.400    6.9405
   26.415    7.0142
   26.430    6.3718
   26.445    6.6351
   26.460    6.8352
   26.475    6.7615
   26.490    6.8141
   26.505    6.7825
   26.520    6.9826
   26.535    6.6245
   26.550    6.9932
   26.565    6.2665
   26.580    6.7088
   26.595    6.9194
   26.610    6.9721
   26.625    6.9826
   26.640    6.7088
   26.655    6.5192
   26.670    6.9300
   26.685    6.5508
   26.700    6.6772
   26.715    6.9405
   26.730    6.9721
   26.745    6.5298
   26.760    6.5613
   26.775    6.6245
   26.790    6.6245
   26.805    6.6140
   26.820    6.8878
   26.835    6.9194
   26.850    6.8878
   26.865    6.8562
   26.880    6.6772
   26.895    6.8984
   26.910    7.0985
   26.925    6.6667
   26.940    6.6035
   26.955    6.8984
   26.970    6.5403
   26.985    6.6456
   27.000    6.4876
   27.015    7.0774
   27.030    6.6667
   27.045    6.9089
   27.060    6.8984
   27.075    6.7720
   27.090    6.8562
   27.105    6.6140
   27.120    6.4876
   27.135    6.6667
   27.150    6.5298
   27.165    6.6561
   27.180    6.8141
   27.195    7.0037
   27.210    6.8457
   27.225    7.0353
   27.240    6.3612
   27.255    6.6351
   27.270    6.7930
   27.285    6.8457
   27.300    7.0037
   27.315    6.8352
   27.330    6.7404
   27.345    6.7299
   27.360    6.7404
   27.375    6.5298
   27.390    6.5508
   27.405    6.6772
   27.420    6.5719
   27.435    6.2454
   27.450    6.2559
   27.465    6.8141
   27.480    6.7615
   27.495    6.5613
   27.510    6.6351
   27.525    6.5613
   27.540    6.5087
   27.555    6.4244
   27.570    6.7404
   27.585    7.0142
   27.600    6.8668
   27.615    6.3402
   27.630    6.2559
   27.645    6.7088
   27.660    6.2454
   27.675    6.8562
   27.690    6.7299
   27.705    6.7615
   27.720    6.1927
   27.735    6.2138
   27.750    6.6667
   27.765    6.5719
   27.780    6.3191
   27.795    6.3191
   27.810    6.4771
   27.825    6.4771
   27.840    6.4560
   27.855    6.6351
   27.870    6.4244
   27.885    6.0032
   27.900    6.6561
   27.915    6.9616
   27.930    6.4139
   27.945    6.2875
   27.960    6.6035
   27.975    6.6983
   27.990    6.6877
   28.005    6.4560
   28.020    6.7299
   28.035    7.0563
   28.050    6.5192
   28.065    6.7404
   28.080    6.3402
   28.095    6.7404
   28.110    6.9932
   28.125    6.4350
   28.140    6.7088
   28.155    6.8562
   28.170    6.9932
   28.185    7.0985
   28.200    6.8352
   28.215    6.6983
   28.230    6.8562
   28.245    6.9405
   28.260    6.6351
   28.275    6.6456
   28.290    6.6667
   28.305    6.2138
   28.320    6.6983
   28.335    6.9089
   28.350    6.6456
   28.365    6.7930
   28.380    6.8773
   28.395    6.7299
   28.410    6.9089
   28.425    6.9300
   28.440    6.6140
   28.455    6.4139
   28.470    6.5824
   28.485    6.5719
   28.500    6.4244
   28.515    6.4034
   28.530    6.7825
   28.545    6.6667
   28.560    6.5192
   28.575    6.2349
   28.590    6.6456
   28.605    6.3296
   28.620    6.2770
   28.635    6.2981
   28.650    6.4455
   28.665    6.2875
   28.680    6.2243
   28.695    6.2349
   28.710    6.7930
   28.725    6.4982
   28.740    6.3402
   28.755    6.3823
   28.770    5.9400
   28.785    6.5613
   28.800    6.4350
   28.815    6.4350
   28.830    6.1611
   28.845    6.3928
   28.860    6.3507
   28.875    6.6035
   28.890    6.6140
   28.905    6.2559
   28.920    6.3507
   28.935    6.1190
   28.950    5.6556
   28.965    6.5192
   28.980    6.5929
   28.995    6.2770
   29.010    6.5403
   29.025    6.4876
   29.040    6.1927
   29.055    6.4666
   29.070    6.3718
   29.085    5.9926
   29.100    6.1611
   29.115    6.5087
   29.130    6.2138
   29.145    5.9926
   29.160    6.0664
   29.175    6.7825
   29.190    5.9610
   29.205    6.2559
   29.220    6.3086
   29.235    6.3507
   29.250    6.6561
   29.265    6.4666
   29.280    6.1506
   29.295    6.2033
   29.310    6.5929
   29.325    6.2243
   29.340    6.2665
   29.355    6.2243
   29.370    6.5824
   29.385    6.3823
   29.400    6.6245
   29.415    6.2243
   29.430    6.4771
   29.445    6.3507
   29.460    6.2770
   29.475    6.2875
   29.490    6.4982
   29.505    6.6351
   29.520    6.3191
   29.535    6.4034
   29.550    6.5403
   29.565    6.0874
   29.580    6.1717
   29.595    6.9510
   29.610    6.4982
   29.625    6.3507
   29.640    6.5929
   29.655    6.3928
   29.670    6.0032
   29.685    6.2243
   29.700    5.8662
   29.715    6.1085
   29.730    6.4560
   29.745    6.0137
   29.760    6.2981
   29.775    6.2243
   29.790    6.4034
   29.805    6.5929
   29.820    6.2665
   29.835    6.2981
   29.850    6.4876
   29.865    6.5403
   29.880    6.2770
   29.895    6.3507
   29.910    5.9926
   29.925    6.2559
   29.940    5.9926
   29.955    6.2349
   29.970    6.2349
   29.985    6.2875
   30.000    6.5192
   30.015    6.1822
   30.030    6.2875
   30.045    5.8557
   30.060    6.1190
   30.075    6.3402
   30.090    6.5719
   30.105    6.3718
   30.120    6.1190
   30.135    6.2559
   30.150    6.1190
   30.165    6.4139
   30.180    6.3612
   30.195    6.1927
   30.210    5.9926
   30.225    6.1611
   30.240    5.9505
   30.255    6.1506
   30.270    6.1506
   30.285    5.9400
   30.300    6.4034
   30.315    6.2981
   30.330    6.3823
   30.345    6.2349
   30.360    6.3191
   30.375    6.0769
   30.390    6.4244
   30.405    6.4982
   30.420    6.2665
   30.435    5.9821
   30.450    6.4666
   30.465    6.3612
   30.480    6.4139
   30.495    6.2349
   30.510    6.2981
   30.525    6.0558
   30.540    6.0558
   30.555    5.9189
   30.570    5.9821
   30.585    6.3718
   30.600    6.2770
   30.615    6.0242
   30.630    6.2454
   30.645    6.1717
   30.660    5.9716
   30.675    6.1401
   30.690    6.2665
   30.705    6.0032
   30.720    6.2875
   30.735    6.1717
   30.750    6.4244
   30.765    6.3402
   30.780    6.1506
   30.795    5.6767
   30.810    6.0242
   30.825    5.5503
   30.840    5.9821
   30.855    6.0137
   30.870    6.5087
   30.885    6.3928
   30.900    6.2243
   30.915    5.8452
   30.930    6.2033
   30.945    6.1611
   30.960    6.0348
   30.975    5.9926
   30.990    5.6345
   31.005    5.7715
   31.020    6.1295
   31.035    6.6140
   31.050    6.1927
   31.065    6.2559
   31.080    6.2875
   31.095    6.4034
   31.110    5.8347
   31.125    5.8768
   31.140    5.8241
   31.155    6.0979
   31.170    6.1822
   31.185    5.9505
   31.200    6.1717
   31.215    6.1927
   31.230    5.8241
   31.245    5.7609
   31.260    6.4455
   31.275    6.3612
   31.290    6.0453
   31.305    5.9610
   31.320    6.1822
   31.335    6.2349
   31.350    6.1611
   31.365    6.2033
   31.380    5.8452
   31.395    5.9926
   31.410    5.8136
   31.425    6.5929
   31.440    6.1085
   31.455    5.9716
   31.470    6.3718
   31.485    6.1717
   31.500    6.0558
   31.515    6.0348
   31.530    6.0979
   31.545    6.2770
   31.560    6.2243
   31.575    6.1085
   31.590    6.2138
   31.605    6.3402
   31.620    6.0032
   31.635    6.1717
   31.650    6.4771
   31.665    6.4982
   31.680    6.3612
   31.695    6.3507
   31.710    6.4244
   31.725    6.1190
   31.740    6.5087
   31.755    6.3086
   31.770    6.1611
   31.785    6.5929
   31.800    6.5087
   31.815    6.3612
   31.830    6.4244
   31.845    6.2665
   31.860    6.1506
   31.875    5.9610
   31.890    6.3086
   31.905    5.9294
   31.920    6.1822
   31.935    6.0769
   31.950    6.1717
   31.965    6.1611
   31.980    6.0558
   31.995    6.0664
   32.010    6.3191
   32.025    5.8978
   32.040    6.1085
   32.055    5.9821
   32.070    5.7293
   32.085    6.0769
   32.100    6.0664
   32.115    5.9821
   32.130    5.9189
   32.145    6.1190
   32.160    5.8136
   32.175    6.0137
   32.190    5.7609
   32.205    6.0664
   32.220    5.9505
   32.235    5.8873
   32.250    5.7293
   32.265    6.0453
   32.280    6.0348
   32.295    5.8031
   32.310    6.0453
   32.325    5.9505
   32.340    5.9189
   32.355    5.6977
   32.370    6.0137
   32.385    5.7609
   32.400    5.6977
   32.415    5.9821
   32.430    5.9400
   32.445    5.7925
   32.460    5.6029
   32.475    5.4766
   32.490    5.9084
   32.505    5.8873
   32.520    5.6661
   32.535    5.6556
   32.550    5.6451
   32.565    5.7188
   32.580    5.6451
   32.595    5.6977
   32.610    5.6767
   32.625    5.8557
   32.640    5.8873
   32.655    5.7820
   32.670    5.8241
   32.685    6.0453
   32.700    6.3086
   32.715    6.1401
   32.730    5.4344
   32.745    5.9294
   32.760    5.8662
   32.775    5.7399
   32.790    5.9505
   32.805    5.6872
   32.820    5.5082
   32.835    5.7399
   32.850    6.1190
   32.865    6.0348
   32.880    5.9400
   32.895    5.9400
   32.910    6.0242
   32.925    5.9610
   32.940    5.4028
   32.955    5.5924
   32.970    5.0869
   32.985    5.4555
   33.000    5.9189
   33.015    5.9926
   33.030    6.0874
   33.045    5.4976
   33.060    5.5292
   33.075    5.8768
   33.090    6.0558
   33.105    5.7715
   33.120    5.8557
   33.135    5.9294
   33.150    5.6872
   33.165    5.6556
   33.180    5.6556
   33.195    5.4134
   33.210    5.4976
   33.225    5.8557
   33.240    5.8557
   33.255    5.6029
   33.270    5.6556
   33.285    5.9610
   33.300    5.6345
   33.315    5.7293
   33.330    5.9084
   33.345    5.7293
   33.360    5.8452
   33.375    5.8978
   33.390    5.9084
   33.405    5.9610
   33.420    5.7820
   33.435    5.8978
   33.450    5.9189
   33.465    6.0558
   33.480    6.1401
   33.495    5.7715
   33.510    5.2870
   33.525    5.8768
   33.540    6.0453
   33.555    5.5924
   33.570    5.6029
   33.585    5.8031
   33.600    5.7715
   33.615    5.7925
   33.630    6.2349
   33.645    5.7293
   33.660    5.8347
   33.675    5.7293
   33.690    5.4766
   33.705    5.4976
   33.720    5.6029
   33.735    5.7609
   33.750    5.6240
   33.765    5.4239
   33.780    5.8136
   33.795    5.5292
   33.810    5.4555
   33.825    5.8978
   33.840    5.4450
   33.855    5.7293
   33.870    5.9189
   33.885    5.5503
   33.900    5.3607
   33.915    5.0132
   33.930    5.8347
   33.945    5.6556
   33.960    5.7715
   33.975    5.6240
   33.990    5.7925
   34.005    5.6977
   34.020    5.4976
   34.035    5.4134
   34.050    6.0242
   34.065    5.8241
   34.080    5.6240
   34.095    5.7820
   34.110    5.5819
   34.125    5.1606
   34.140    5.4976
   34.155    5.6029
   34.170    5.6767
   34.185    5.6345
   34.200    5.5082
   34.215    5.8347
   34.230    5.7293
   34.245    5.6135
   34.260    5.3923
   34.275    5.8031
   34.290    5.7925
   34.305    6.1506
   34.320    6.1085
   34.335    5.8031
   34.350    5.7293
   34.365    5.6977
   34.380    5.9821
   34.395    6.0032
   34.410    5.6451
   34.425    5.8347
   34.440    5.7820
   34.455    5.7504
   34.470    5.8978
   34.485    5.9189
   34.500    5.1080
   34.515    5.3607
   34.530    5.6767
   34.545    5.9294
   34.560    5.8136
   34.575    5.7925
   34.590    5.8557
   34.605    5.5819
   34.620    5.1395
   34.635    5.2449
   34.650    5.6451
   34.665    5.4450
   34.680    5.6661
   34.695    5.6029
   34.710    5.5187
   34.725    5.6977
   34.740    5.7715
   34.755    5.5503
   34.770    5.7715
   34.785    5.7083
   34.800    5.5503
   34.815    5.4976
   34.830    5.6556
   34.845    5.3291
   34.860    5.4239
   34.875    5.4871
   34.890    5.5082
   34.905    5.2975
   34.920    5.8452
   34.935    5.7504
   34.950    5.6661
   34.965    5.2343
   34.980    5.1817
   34.995    5.4450
   35.010    5.6872
   35.025    5.8241
   35.040    5.5714
   35.055    5.5187
   35.070    5.2870
   35.085    5.1395
   35.100    5.4344
   35.115    5.8031
   35.130    5.5924
   35.145    5.3818
   35.160    5.5292
   35.175    5.4766
   35.190    5.3502
   35.205    5.6135
   35.220    5.6135
   35.235    5.3712
   35.250    5.3397
   35.265    5.7609
   35.280    5.6029
   35.295    5.5503
   35.310    5.4660
   35.325    5.3607
   35.340    5.3186
   35.355    5.6029
   35.370    5.4134
   35.385    5.5924
   35.400    5.7925
   35.415    5.4766
   35.430    5.5187
   35.445    5.7399
   35.460    6.0137
   35.475    5.8662
   35.490    5.6977
   35.505    5.1395
   35.520    5.3397
   35.535    5.4028
   35.550    5.4555
   35.565    5.6556
   35.580    5.6767
   35.595    5.3712
   35.610    5.0869
   35.625    5.0869
   35.640    5.7715
   35.655    5.5292
   35.670    5.3607
   35.685    5.6345
   35.700    5.4660
   35.715    5.2975
   35.730    5.3923
   35.745    5.3607
   35.760    5.4450
   35.775    5.2975
   35.790    5.5082
   35.805    5.5819
   35.820    5.2765
   35.835    5.4450
   35.850    5.3186
   35.865    5.0342
   35.880    5.5187
   35.895    5.5292
   35.910    5.2449
   35.925    5.5187
   35.940    5.7293
   35.955    5.3923
   35.970    5.4134
   35.985    5.6345
   36.000    5.7399
   36.015    5.3081
   36.030    5.2765
   36.045    5.2870
   36.060    5.5608
   36.075    5.6872
   36.090    5.5714
   36.105    5.5187
   36.120    5.2765
   36.135    5.3818
   36.150    5.4028
   36.165    5.3186
   36.180    5.5924
   36.195    5.2238
   36.210    5.3712
   36.225    5.6977
   36.240    5.6451
   36.255    5.2870
   36.270    5.5292
   36.285    5.3397
   36.300    5.3397
   36.315    5.5082
   36.330    5.2870
   36.345    5.2554
   36.360    5.3712
   36.375    5.2975
   36.390    5.6240
   36.405    5.4028
   36.420    5.2133
   36.435    5.1395
   36.450    5.0658
   36.465    4.9394
   36.480    4.9394
   36.495    5.1817
   36.510    5.4450
   36.525    5.3607
   36.540    5.3186
   36.555    5.5187
   36.570    5.5398
   36.585    5.1290
   36.600    5.2659
   36.615    5.5292
   36.630    5.4239
   36.645    5.2975
   36.660    5.3818
   36.675    5.7188
   36.690    5.5714
   36.705    5.4134
   36.720    5.2133
   36.735    5.6029
   36.750    5.2133
   36.765    5.6556
   36.780    5.4976
   36.795    5.6345
   36.810    5.3607
   36.825    5.2027
   36.840    5.4134
   36.855    5.4871
   36.870    5.4239
   36.885    5.5819
   36.900    5.0553
   36.915    5.6872
   36.930    5.9610
   36.945    5.5924
   36.960    5.6029
   36.975    5.3502
   36.990    5.2027
   37.005    5.7820
   37.020    5.4450
   37.035    5.4344
   37.050    5.2133
   37.065    5.0553
   37.080    4.9605
   37.095    5.0658
   37.110    5.3712
   37.125    5.6029
   37.140    5.5608
   37.155    5.4555
   37.170    5.4028
   37.185    5.4028
   37.200    5.5608
   37.215    5.4028
   37.230    5.3712
   37.245    5.2554
   37.260    5.4660
   37.275    5.3081
   37.290    5.2238
   37.305    5.2449
   37.320    5.4239
   37.335    5.5187
   37.350    5.1711
   37.365    5.1606
   37.380    5.3291
   37.395    5.2449
   37.410    5.0658
   37.425    5.4976
   37.440    5.1922
   37.455    5.2133
   37.470    5.0553
   37.485    5.5714
   37.500    5.3081
   37.515    5.1290
   37.530    5.2449
   37.545    5.2659
   37.560    5.4239
   37.575    5.5292
   37.590    5.6345
   37.605    5.2449
   37.620    4.9394
   37.635    5.5924
   37.650    5.7188
   37.665    5.4134
   37.680    5.1606
   37.695    5.0026
   37.710    5.3502
   37.725    5.2870
   37.740    5.3397
   37.755    5.0026
   37.770    5.4344
   37.785    5.3186
   37.800    5.1080
   37.815    5.2449
   37.830    5.1395
   37.845    5.2554
   37.860    5.2449
   37.875    5.3186
   37.890    5.1922
   37.905    5.2975
   37.920    5.1606
   37.935    5.0869
   37.950    5.6240
   37.965    5.9400
   37.980    5.4134
   37.995    4.9816
   38.010    5.3923
   38.025    5.3291
   38.040    5.4976
   38.055    5.1817
   38.070    5.2554
   38.085    5.0237
   38.100    5.4028
   38.115    5.3397
   38.130    5.1395
   38.145    5.2554
   38.160    5.3186
   38.175    5.2975
   38.190    5.3186
   38.205    5.4239
   38.220    5.4028
   38.235    5.2765
   38.250    5.3712
   38.265    5.3291
   38.280    5.4871
   38.295    5.1606
   38.310    5.3502
   38.325    5.4871
   38.340    5.1185
   38.355    5.3291
   38.370    5.3397
   38.385    5.3186
   38.400    5.2659
   38.415    5.5082
   38.430    5.2343
   38.445    5.5608
   38.460    5.2343
   38.475    5.1185
   38.490    4.9394
   38.505    5.4450
   38.520    5.6240
   38.535    5.3607
   38.550    5.1606
   38.565    5.5819
   38.580    5.2870
   38.595    5.4766
   38.610    5.3607
   38.625    5.3397
   38.640    5.3818
   38.655    5.1606
   38.670    5.2133
   38.685    5.2238
   38.700    5.1395
   38.715    5.0342
   38.730    5.5608
   38.745    5.2133
   38.760    5.3186
   38.775    5.2554
   38.790    5.1395
   38.805    5.5082
   38.820    5.3923
   38.835    5.2133
   38.850    5.4239
   38.865    5.2659
   38.880    4.9710
   38.895    5.0237
   38.910    4.9500
   38.925    5.0342
   38.940    5.4028
   38.955    5.3607
   38.970    5.4344
   38.985    5.1922
   39.000    5.2238
   39.015    5.6767
   39.030    5.2659
   39.045    5.0869
   39.060    5.0869
   39.075    5.1080
   39.090    5.1606
   39.105    5.1080
   39.120    5.3607
   39.135    5.4555
   39.150    5.3712
   39.165    5.0448
   39.180    5.3712
   39.195    5.4028
   39.210    5.4239
   39.225    5.6661
   39.240    5.4239
   39.255    5.4555
   39.270    5.4344
   39.285    4.9816
   39.300    5.0974
   39.315    5.4239
   39.330    5.3397
   39.345    4.9605
   39.360    5.3818
   39.375    5.0448
   39.390    4.7393
   39.405    5.1395
   39.420    5.5082
   39.435    5.4134
   39.450    5.1711
   39.465    5.2765
   39.480    4.8447
   39.495    5.3712
   39.510    5.3712
   39.525    5.4450
   39.540    5.0026
   39.555    5.4766
   39.570    5.4239
   39.585    5.2238
   39.600    5.3502
   39.615    5.3818
   39.630    5.3923
   39.645    5.4134
   39.660    5.4766
   39.675    5.2449
   39.690    5.2975
   39.705    5.3712
   39.720    5.4976
   39.735    5.2027
   39.750    4.9710
   39.765    5.3291
   39.780    5.2554
   39.795    5.1185
   39.810    5.2343
   39.825    5.1817
   39.840    5.0869
   39.855    5.1922
   39.870    5.4660
   39.885    5.3081
   39.900    5.0132
   39.915    5.1606
   39.930    5.2449
   39.945    5.2449
   39.960    4.7920
   39.975    5.0132
   39.990    5.0132
