    1.500    7.2845
    1.515    7.0212
    1.530    7.5478
    1.545    7.5303
    1.560    7.3547
    1.575    6.8282
    1.590    6.7755
    1.605    7.0563
    1.620    6.9510
    1.635    6.5824
    1.650    6.8457
    1.665    6.3718
    1.680    6.8457
    1.695    6.7404
    1.710    6.4946
    1.725    6.3191
    1.740    6.0207
    1.755    5.9154
    1.770    6.1611
    1.785    6.4420
    1.800    6.1260
    1.815    6.4244
    1.830    6.4771
    1.845    6.2665
    1.860    5.4239
    1.875    5.5643
    1.890    5.8627
    1.905    5.7399
    1.920    5.7750
    1.935    5.4941
    1.950    5.8978
    1.965    5.5819
    1.980    5.6697
    1.995    5.7399
    2.010    5.5819
    2.025    5.1431
    2.040    4.8973
    2.055    5.2484
    2.070    4.7744
    2.085    5.5117
    2.100    5.3010
    2.115    4.9500
    2.130    5.2133
    2.145    5.0202
    2.160    4.7393
    2.175    4.8447
    2.190    4.8622
    2.205    4.8447
    2.220    4.8973
    2.235    5.0904
    2.250    4.7744
    2.265    4.7569
    2.280    4.7920
    2.295    4.4760
    2.310    4.5989
    2.325    4.7569
    2.340    5.1255
    2.355    5.0377
    2.370    4.7920
    2.385    4.5287
    2.400    4.4234
    2.415    4.8271
    2.430    4.3707
    2.445    4.3707
    2.460    4.1425
    2.475    4.8095
    2.490    4.3707
    2.505    4.2303
    2.520    3.8968
    2.535    4.1952
    2.550    4.3532
    2.565    4.4585
    2.580    4.4409
    2.595    4.3532
    2.610    4.4409
    2.625    4.0548
    2.640    4.4409
    2.655    4.3005
    2.670    4.3181
    2.685    3.7213
    2.700    3.8617
    2.715    4.1952
    2.730    3.7915
    2.745    4.1601
    2.760    3.8617
    2.775    3.8792
    2.790    3.6335
    2.805    3.9143
    2.820    3.8792
    2.835    4.3005
    2.850    4.0372
    2.865    4.1601
    2.880    4.2478
    2.895    4.0372
    2.910    3.9846
    2.925    3.6686
    2.940    4.2654
    2.955    3.6510
    2.970    4.0899
    2.985    4.4585
    3.000    3.9143
    3.015    3.3351
    3.030    3.6510
    3.045    3.6686
    3.060    3.8617
    3.075    3.6510
    3.090    3.9319
    3.105    3.7388
    3.120    3.7739
    3.135    3.9846
    3.150    3.8441
    3.165    3.9846
    3.180    3.8266
    3.195    3.9319
    3.210    3.9319
    3.225    3.7213
    3.240    3.6335
    3.255    4.1250
    3.270    3.7915
    3.285    4.0723
    3.300    3.6159
    3.315    4.0723
    3.330    3.5984
    3.345    3.4755
    3.360    3.5633
    3.375    3.7213
    3.390    3.9319
    3.405    4.1601
    3.420    3.9670
    3.435    3.7564
    3.450    3.5984
    3.465    4.0372
    3.480    4.0723
    3.495    3.7213
    3.510    3.8792
    3.525    3.5633
    3.540    4.1074
    3.555    4.0372
    3.570    4.0548
    3.585    3.5106
    3.600    3.7213
    3.615    3.6159
    3.630    3.4053
    3.645    3.5106
    3.660    3.5106
    3.675    3.7915
    3.690    3.7739
    3.705    3.8266
    3.720    3.1947
    3.735    3.4931
    3.750    3.6686
    3.765    4.0021
    3.780    3.8266
    3.795    3.7739
    3.810    4.1776
    3.825    3.7915
    3.840    3.5457
    3.855    3.6335
    3.870    3.5808
    3.885    3.4053
    3.900    3.4931
    3.915    3.6686
    3.930    3.4229
    3.945    3.6862
    3.960    3.6862
    3.975    3.6159
    3.990    3.8617
    4.005    3.7037
    4.020    3.8617
    4.035    3.8441
    4.050    3.5984
    4.065    3.9846
    4.080    3.7213
    4.095    3.6159
    4.110    3.5633
    4.125    3.8090
    4.140    3.5808
    4.155    3.6862
    4.170    3.4404
    4.185    3.8441
    4.200    3.6510
    4.215    3.5984
    4.230    3.2298
    4.245    3.6862
    4.260    3.7564
    4.275    4.1425
    4.290    3.5106
    4.305    4.1250
    4.320    4.0723
    4.335    3.9494
    4.350    3.9494
    4.365    3.6686
    4.380    3.8617
    4.395    3.8792
    4.410    3.6862
    4.425    3.5106
    4.440    3.7915
    4.455    3.7739
    4.470    3.8968
    4.485    3.7037
    4.500    3.5282
    4.515    3.7037
    4.530    3.8968
    4.545    3.6862
    4.560    3.7564
    4.575    4.1425
    4.590    3.8792
    4.605    3.6862
    4.620    3.7564
    4.635    3.8968
    4.650    4.0197
    4.665    4.1425
    4.680    4.0197
    4.695    3.7213
    4.710    4.0548
    4.725    4.0021
    4.740    4.1952
    4.755    4.1952
    4.770    3.7388
    4.785    3.7915
    4.800    3.9143
    4.815    3.7739
    4.830    3.8968
    4.845    3.7915
    4.860    3.8266
    4.875    4.2303
    4.890    3.8792
    4.905    3.8266
    4.920    4.2830
    4.935    3.9670
    4.950    3.7915
    4.965    3.8792
    4.980    4.4936
    4.995    4.2127
    5.010    4.6867
    5.025    4.3707
    5.040    4.2303
    5.055    3.7388
    5.070    4.2303
    5.085    4.3356
    5.100    4.1776
    5.115    4.4760
    5.130    4.4058
    5.145    4.6867
    5.160    4.5463
    5.175    4.5111
    5.190    4.7569
    5.205    4.6691
    5.220    4.8095
    5.235    4.4760
    5.250    4.5814
    5.265    4.6516
    5.280    4.3707
    5.295    4.5463
    5.310    4.9324
    5.325    5.1606
    5.340    4.5989
    5.355    4.4058
    5.370    5.0202
    5.385    5.0377
    5.400    5.3010
    5.415    5.2835
    5.430    5.3361
    5.445    5.0202
    5.460    4.8622
    5.475    4.7920
    5.490    5.4239
    5.505    5.2308
    5.520    4.8798
    5.535    5.0026
    5.550    5.1782
    5.565    5.2659
    5.580    5.1255
    5.595    5.1957
    5.610    4.9149
    5.625    4.8798
    5.640    4.7920
    5.655    4.6516
    5.670    5.0728
    5.685    4.5463
    5.700    4.7218
    5.715    4.5989
    5.730    5.0904
    5.745    4.6340
    5.760    4.8271
    5.775    4.3356
    5.790    4.2127
    5.805    4.2478
    5.820    4.3707
    5.835    4.3356
    5.850    4.1601
    5.865    4.3005
    5.880    4.1250
    5.895    3.9670
    5.910    4.0372
    5.925    4.5638
    5.940    4.6340
    5.955    3.7388
    5.970    4.1425
    5.985    3.9494
    6.000    4.0723
    6.015    4.1074
    6.030    3.8266
    6.045    3.8266
    6.060    3.6159
    6.075    3.8792
    6.090    3.7213
    6.105    3.8617
    6.120    3.8968
    6.135    4.3181
    6.150    3.7213
    6.165    3.8792
    6.180    3.7213
    6.195    3.4580
    6.210    3.5808
    6.225    3.5633
    6.240    3.7213
    6.255    4.0372
    6.270    4.0723
    6.285    3.7388
    6.300    3.5106
    6.315    3.0718
    6.330    3.5106
    6.345    3.4404
    6.360    3.5106
    6.375    3.6159
    6.390    3.9846
    6.405    3.3526
    6.420    3.2473
    6.435    3.8441
    6.450    3.3175
    6.465    3.5106
    6.480    3.4580
    6.495    3.1245
    6.510    3.3175
    6.525    3.2298
    6.540    3.1596
    6.555    3.2824
    6.570    3.3351
    6.585    3.3000
    6.600    3.5457
    6.615    3.5633
    6.630    3.5808
    6.645    3.0367
    6.660    3.2824
    6.675    3.3351
    6.690    3.5282
    6.705    3.5457
    6.720    3.4755
    6.735    3.2122
    6.750    3.4053
    6.765    3.6862
    6.780    3.0367
    6.795    3.2122
    6.810    3.1596
    6.825    3.4931
    6.840    3.1596
    6.855    2.9665
    6.870    3.1947
    6.885    3.5808
    6.900    3.3877
    6.915    2.9665
    6.930    3.3526
    6.945    3.3175
    6.960    3.1245
    6.975    3.0016
    6.990    3.3000
    7.005    3.2824
    7.020    3.4053
    7.035    3.3000
    7.050    3.2122
    7.065    3.0367
    7.080    3.0542
    7.095    3.1771
    7.110    2.8436
    7.125    3.0191
    7.140    3.2824
    7.155    2.9314
    7.170    3.0542
    7.185    2.8436
    7.200    3.2298
    7.215    2.8612
    7.230    2.7383
    7.245    2.6856
    7.260    2.9489
    7.275    3.1596
    7.290    2.7734
    7.305    2.7909
    7.320    3.1947
    7.335    2.8963
    7.350    2.8436
    7.365    2.7909
    7.380    2.6330
    7.395    2.8085
    7.410    2.8436
    7.425    2.9489
    7.440    2.7734
    7.455    2.8436
    7.470    2.7032
    7.485    2.9314
    7.500    2.9138
    7.515    2.8787
    7.530    2.7383
    7.545    2.6505
    7.560    2.9489
    7.575    3.0718
    7.590    2.9665
    7.605    2.7558
    7.620    2.8787
    7.635    2.8085
    7.650    2.4223
    7.665    2.6330
    7.680    2.9840
    7.695    2.8787
    7.710    2.7558
    7.725    3.0191
    7.740    2.6154
    7.755    2.8260
    7.770    2.4750
    7.785    2.6330
    7.800    2.6681
    7.815    2.3346
    7.830    2.5803
    7.845    2.7909
    7.860    2.5803
    7.875    2.5452
    7.890    2.8085
    7.905    2.5803
    7.920    2.7558
    7.935    2.7734
    7.950    2.3346
    7.965    2.4574
    7.980    2.6856
    7.995    2.4925
    8.010    2.4048
    8.025    2.7207
    8.040    3.0191
    8.055    2.7558
    8.070    2.5803
    8.085    2.3697
    8.100    2.4399
    8.115    2.5452
    8.130    2.7734
    8.145    2.4223
    8.160    2.6154
    8.175    2.7558
    8.190    2.3872
    8.205    2.2995
    8.220    2.4750
    8.235    2.2995
    8.250    2.6330
    8.265    2.5803
    8.280    2.2995
    8.295    2.4399
    8.310    2.4925
    8.325    2.5276
    8.340    2.7734
    8.355    2.3346
    8.370    2.1590
    8.385    2.6505
    8.400    2.8085
    8.415    2.7207
    8.430    2.3521
    8.445    2.5276
    8.460    2.5979
    8.475    2.5628
    8.490    2.3346
    8.505    2.2468
    8.520    2.2643
    8.535    2.5101
    8.550    2.4223
    8.565    2.0537
    8.580    2.2643
    8.595    2.4223
    8.610    2.5101
    8.625    2.4574
    8.640    2.4048
    8.655    2.4574
    8.670    2.3521
    8.685    2.4574
    8.700    2.4048
    8.715    2.5276
    8.730    2.5276
    8.745    2.4925
    8.760    2.2292
    8.775    2.3170
    8.790    2.5276
    8.805    2.2117
    8.820    2.1766
    8.835    2.2995
    8.850    2.5101
    8.865    2.2468
    8.880    2.5101
    8.895    2.4399
    8.910    2.4223
    8.925    2.4399
    8.940    2.6681
    8.955    2.3346
    8.970    2.4048
    8.985    2.3346
    9.000    2.3872
    9.015    2.3697
    9.030    2.4574
    9.045    2.4399
    9.060    2.4399
    9.075    2.3697
    9.090    2.1064
    9.105    2.2643
    9.120    2.2468
    9.135    2.1590
    9.150    2.4925
    9.165    2.6505
    9.180    2.3170
    9.195    2.1590
    9.210    2.3346
    9.225    2.1239
    9.240    2.4574
    9.255    2.4223
    9.270    2.4574
    9.285    2.6330
    9.300    2.3170
    9.315    2.0888
    9.330    2.4223
    9.345    2.3697
    9.360    2.4399
    9.375    2.4750
    9.390    2.5101
    9.405    2.4048
    9.420    2.4750
    9.435    2.4750
    9.450    2.4574
    9.465    2.1415
    9.480    2.1239
    9.495    2.4574
    9.510    2.5803
    9.525    2.3872
    9.540    2.6856
    9.555    2.4750
    9.570    2.3872
    9.585    2.3697
    9.600    2.4048
    9.615    2.3872
    9.630    2.5276
    9.645    2.0362
    9.660    2.5101
    9.675    2.1941
    9.690    2.2468
    9.705    2.1415
    9.720    2.5803
    9.735    2.4223
    9.750    2.0713
    9.765    2.1239
    9.780    2.3872
    9.795    2.8787
    9.810    2.4399
    9.825    2.2117
    9.840    2.0713
    9.855    2.2819
    9.870    2.3697
    9.885    2.2468
    9.900    2.3521
    9.915    2.2468
    9.930    2.4750
    9.945    2.4925
    9.960    2.5452
    9.975    2.0713
    9.990    2.1766
   10.005    2.1239
   10.020    2.3346
   10.035    2.8436
   10.050    2.4925
   10.065    2.5803
   10.080    2.4574
   10.095    2.4399
   10.110    2.2292
   10.125    2.2117
   10.140    2.3170
   10.155    2.6154
   10.170    2.4223
   10.185    2.4574
   10.200    2.3170
   10.215    2.3872
   10.230    2.2117
   10.245    2.4574
   10.260    2.3697
   10.275    2.2995
   10.290    2.4925
   10.305    2.4223
   10.320    2.4399
   10.335    2.2995
   10.350    2.5628
   10.365    2.2995
   10.380    2.4048
   10.395    2.4399
   10.410    2.4048
   10.425    2.5803
   10.440    2.1064
   10.455    2.4574
   10.470    2.2643
   10.485    2.1941
   10.500    2.3697
   10.515    2.1590
   10.530    2.0888
   10.545    2.2819
   10.560    2.7032
   10.575    2.5452
   10.590    2.6856
   10.605    2.2819
   10.620    2.3521
   10.635    2.4574
   10.650    2.1941
   10.665    2.4574
   10.680    2.8787
   10.695    2.6154
   10.710    2.5276
   10.725    2.6330
   10.740    2.2995
   10.755    2.6681
   10.770    2.1064
   10.785    2.1415
   10.800    2.3872
   10.815    2.2292
   10.830    2.2468
   10.845    2.5101
   10.860    2.5803
   10.875    2.3697
   10.890    2.3872
   10.905    2.7734
   10.920    2.4223
   10.935    2.6330
   10.950    2.5979
   10.965    2.5101
   10.980    2.2819
   10.995    2.3697
   11.010    2.4399
   11.025    2.5452
   11.040    2.5452
   11.055    2.4223
   11.070    2.5628
   11.085    2.7558
   11.100    2.4399
   11.115    2.5979
   11.130    2.4750
   11.145    2.4750
   11.160    2.5803
   11.175    2.5276
   11.190    2.2117
   11.205    2.1415
   11.220    2.4574
   11.235    2.5276
   11.250    2.2995
   11.265    2.4750
   11.280    2.5101
   11.295    2.3872
   11.310    2.4750
   11.325    2.2995
   11.340    2.5452
   11.355    2.5628
   11.370    2.5276
   11.385    2.4223
   11.400    2.6681
   11.415    2.7032
   11.430    2.2292
   11.445    2.4574
   11.460    2.7207
   11.475    2.7734
   11.490    2.7383
   11.505    2.6154
   11.520    2.6681
   11.535    2.7383
   11.550    2.5979
   11.565    2.5803
   11.580    2.5803
   11.595    2.3872
   11.610    2.4750
   11.625    2.6505
   11.640    2.5803
   11.655    2.4925
   11.670    2.4048
   11.685    2.0537
   11.700    2.1239
   11.715    2.1239
   11.730    2.4574
   11.745    2.3346
   11.760    2.1941
   11.775    2.0713
   11.790    2.2468
   11.805    2.4925
   11.820    2.6856
   11.835    2.2468
   11.850    2.3872
   11.865    2.8612
   11.880    2.6330
   11.895    2.2292
   11.910    2.4399
   11.925    2.1766
   11.940    2.5276
   11.955    2.5803
   11.970    2.5276
   11.985    2.2643
   12.000    2.1766
   12.015    2.4925
   12.030    2.3170
   12.045    2.2643
   12.060    2.3872
   12.075    2.3697
   12.090    2.4399
   12.105    2.3346
   12.120    2.3697
   12.135    2.2643
   12.150    2.5803
   12.165    2.2117
   12.180    2.2292
   12.195    2.2292
   12.210    2.3346
   12.225    2.2643
   12.240    2.2292
   12.255    2.4399
   12.270    2.4925
   12.285    2.5452
   12.300    2.3521
   12.315    2.2117
   12.330    2.3697
   12.345    2.2995
   12.360    1.9659
   12.375    2.3346
   12.390    2.0186
   12.405    2.1766
   12.420    2.4048
   12.435    2.0713
   12.450    2.7734
   12.465    2.2819
   12.480    2.2292
   12.495    2.1766
   12.510    2.2117
   12.525    2.0537
   12.540    2.4399
   12.555    2.3697
   12.570    2.2117
   12.585    2.2819
   12.600    2.1766
   12.615    2.1941
   12.630    2.3170
   12.645    2.0186
   12.660    2.3521
   12.675    2.2468
   12.690    2.2292
   12.705    2.3170
   12.720    2.0362
   12.735    2.3346
   12.750    2.3170
   12.765    2.3170
   12.780    1.8957
   12.795    2.3170
   12.810    2.3697
   12.825    2.1415
   12.840    2.0011
   12.855    2.2117
   12.870    2.1415
   12.885    2.3170
   12.900    2.3521
   12.915    2.1941
   12.930    2.3521
   12.945    2.1941
   12.960    2.3697
   12.975    2.0011
   12.990    2.1941
   13.005    2.0537
   13.020    2.0362
   13.035    2.3170
   13.050    2.2292
   13.065    2.1941
   13.080    2.2468
   13.095    2.0888
   13.110    2.0888
   13.125    2.2292
   13.140    2.2819
   13.155    2.3170
   13.170    2.2995
   13.185    2.3346
   13.200    2.2292
   13.215    2.3697
   13.230    2.4048
   13.245    2.2468
   13.260    2.1239
   13.275    2.5452
   13.290    2.6330
   13.305    2.2117
   13.320    1.9133
   13.335    2.1239
   13.350    2.2643
   13.365    2.1415
   13.380    2.0537
   13.395    2.1239
   13.410    2.4223
   13.425    2.0713
   13.440    2.1766
   13.455    2.2819
   13.470    2.2995
   13.485    2.3521
   13.500    2.2819
   13.515    2.2995
   13.530    2.5803
   13.545    2.2819
   13.560    2.2468
   13.575    2.1590
   13.590    2.2468
   13.605    2.1590
   13.620    2.3346
   13.635    2.5276
   13.650    2.3521
   13.665    2.3521
   13.680    2.1239
   13.695    1.8957
   13.710    2.2995
   13.725    2.3346
   13.740    2.0011
   13.755    2.2643
   13.770    2.5101
   13.785    2.5452
   13.800    2.7207
   13.815    2.3697
   13.830    2.4750
   13.845    2.6154
   13.860    2.3346
   13.875    2.1941
   13.890    2.2643
   13.905    2.0011
   13.920    2.2995
   13.935    2.3346
   13.950    2.1590
   13.965    2.2819
   13.980    2.3170
   13.995    2.2819
   14.010    2.4574
   14.025    2.5276
   14.040    2.2995
   14.055    2.1064
   14.070    2.2117
   14.085    2.5452
   14.100    2.4399
   14.115    2.5101
   14.130    2.4399
   14.145    2.3872
   14.160    2.2292
   14.175    2.4048
   14.190    2.3697
   14.205    2.1239
   14.220    2.3697
   14.235    2.4925
   14.250    2.5979
   14.265    2.3170
   14.280    1.8782
   14.295    2.5628
   14.310    2.5628
   14.325    2.3697
   14.340    2.4048
   14.355    2.3872
   14.370    2.2117
   14.385    2.2819
   14.400    2.4223
   14.415    2.4750
   14.430    2.4399
   14.445    2.7558
   14.460    2.4925
   14.475    2.4048
   14.490    2.5979
   14.505    2.5101
   14.520    2.7207
   14.535    2.3697
   14.550    2.4925
   14.565    2.4750
   14.580    2.4574
   14.595    2.4048
   14.610    2.5276
   14.625    2.2819
   14.640    2.0888
   14.655    2.0537
   14.670    2.3697
   14.685    2.1590
   14.700    2.3521
   14.715    2.3521
   14.730    2.5452
   14.745    2.4223
   14.760    2.2643
   14.775    2.4750
   14.790    2.4574
   14.805    2.3346
   14.820    2.1590
   14.835    2.0537
   14.850    2.2117
   14.865    2.4223
   14.880    2.4399
   14.895    2.2643
   14.910    2.2117
   14.925    2.1590
   14.940    2.0537
   14.955    2.1590
   14.970    2.5803
   14.985    2.1941
   15.000    2.1590
   15.015    2.0713
   15.030    2.0011
   15.045    2.3346
   15.060    2.1064
   15.075    2.3872
   15.090    2.4574
   15.105    2.3346
   15.120    2.3170
   15.135    2.2468
   15.150    2.2292
   15.165    2.2995
   15.180    2.2819
   15.195    2.2643
   15.210    2.3346
   15.225    2.1766
   15.240    2.2117
   15.255    2.3872
   15.270    2.1941
   15.285    2.1415
   15.300    2.0888
   15.315    2.1239
   15.330    2.2292
   15.345    2.4574
   15.360    2.3521
   15.375    2.2819
   15.390    2.2292
   15.405    2.3521
   15.420    2.2468
   15.435    2.1239
   15.450    2.1941
   15.465    2.4925
   15.480    2.3872
   15.495    2.2292
   15.510    2.2117
   15.525    2.1941
   15.540    2.4223
   15.555    2.2468
   15.570    2.2643
   15.585    2.4750
   15.600    2.3346
   15.615    1.9659
   15.630    2.1766
   15.645    2.2643
   15.660    2.0011
   15.675    2.0888
   15.690    2.1415
   15.705    1.9133
   15.720    2.2819
   15.735    2.0888
   15.750    2.2468
   15.765    2.5628
   15.780    2.5979
   15.795    2.5101
   15.810    2.1941
   15.825    2.3170
   15.840    2.1766
   15.855    2.0888
   15.870    2.3697
   15.885    2.3346
   15.900    2.2643
   15.915    2.2643
   15.930    1.9659
   15.945    1.9308
   15.960    2.3170
   15.975    2.3346
   15.990    2.2468
   16.005    2.4223
   16.020    2.2468
   16.035    2.3346
   16.050    2.6856
   16.065    2.6681
   16.080    2.1590
   16.095    2.2117
   16.110    2.3521
   16.125    2.1766
   16.140    2.1239
   16.155    2.1239
   16.170    2.0362
   16.185    2.2292
   16.200    2.3872
   16.215    2.3346
   16.230    2.3872
   16.245    2.3697
   16.260    1.9659
   16.275    2.0186
   16.290    1.9484
   16.305    1.7553
   16.320    2.1766
   16.335    2.2117
   16.350    2.3346
   16.365    2.3872
   16.380    2.2643
   16.395    2.2117
   16.410    2.4223
   16.425    2.3521
   16.440    2.1239
   16.455    2.3170
   16.470    2.0186
   16.485    2.3170
   16.500    2.1064
   16.515    2.0888
   16.530    2.1941
   16.545    2.2468
   16.560    2.2117
   16.575    1.9308
   16.590    2.3521
   16.605    2.5101
   16.620    2.5628
   16.635    2.1415
   16.650    2.1064
   16.665    2.1941
   16.680    2.2117
   16.695    2.3346
   16.710    2.3521
   16.725    2.3697
   16.740    2.3872
   16.755    2.2643
   16.770    2.4048
   16.785    2.0011
   16.800    1.9835
   16.815    1.8957
   16.830    2.1590
   16.845    2.0888
   16.860    2.1239
   16.875    2.2819
   16.890    2.1941
   16.905    2.1415
   16.920    2.2995
   16.935    2.0713
   16.950    2.2292
   16.965    2.1590
   16.980    2.2819
   16.995    2.4048
   17.010    2.5276
   17.025    2.2117
   17.040    2.4574
   17.055    2.1941
   17.070    2.0713
   17.085    2.4048
   17.100    2.6505
   17.115    2.2643
   17.130    2.1415
   17.145    2.1239
   17.160    2.1766
   17.175    2.0362
   17.190    2.1239
   17.205    2.2292
   17.220    2.3346
   17.235    2.2995
   17.250    2.3346
   17.265    2.1766
   17.280    2.2117
   17.295    2.0186
   17.310    2.0537
   17.325    2.1766
   17.340    2.2117
   17.355    1.9659
   17.370    2.0362
   17.385    2.2117
   17.400    2.0713
   17.415    2.1064
   17.430    2.2995
   17.445    2.4223
   17.460    2.1766
   17.475    1.9835
   17.490    2.0186
   17.505    2.2117
   17.520    2.1941
   17.535    2.0537
   17.550    1.8782
   17.565    2.2468
   17.580    2.2643
   17.595    2.1766
   17.610    2.1766
   17.625    1.8957
   17.640    2.0888
   17.655    2.1415
   17.670    2.1239
   17.685    2.1766
   17.700    2.1064
   17.715    2.1590
   17.730    2.1590
   17.745    2.3521
   17.760    2.4048
   17.775    2.0713
   17.790    2.2995
   17.805    2.2468
   17.820    2.0888
   17.835    2.0011
   17.850    2.0713
   17.865    2.2292
   17.880    2.2292
   17.895    2.1941
   17.910    2.0362
   17.925    2.3521
   17.940    2.0537
   17.955    1.9308
   17.970    1.9484
   17.985    2.0186
   18.000    2.0537
   18.015    2.5979
   18.030    2.2819
   18.045    2.0888
   18.060    2.1239
   18.075    2.0537
   18.090    2.0713
   18.105    1.8080
   18.120    2.1590
   18.135    1.9308
   18.150    2.1590
   18.165    2.0713
   18.180    2.2643
   18.195    2.2819
   18.210    2.4223
   18.225    2.2117
   18.240    2.2292
   18.255    2.0888
   18.270    2.3697
   18.285    1.8255
   18.300    2.0537
   18.315    2.2819
   18.330    1.9835
   18.345    1.9835
   18.360    2.2819
   18.375    2.1239
   18.390    2.1766
   18.405    2.2995
   18.420    2.3697
   18.435    2.4399
   18.450    2.1766
   18.465    2.2643
   18.480    2.0186
   18.495    1.9659
   18.510    2.1766
   18.525    2.2995
   18.540    2.0888
   18.555    1.9308
   18.570    2.2819
   18.585    2.1064
   18.600    1.9308
   18.615    1.9308
   18.630    2.2468
   18.645    2.1941
   18.660    2.4750
   18.675    2.1941
   18.690    2.2819
   18.705    2.3346
   18.720    2.4925
   18.735    2.2995
   18.750    2.3170
   18.765    2.1064
   18.780    2.3697
   18.795    2.2468
   18.810    2.2643
   18.825    2.3170
   18.840    2.1064
   18.855    2.2643
   18.870    2.2117
   18.885    2.1415
   18.900    2.2819
   18.915    2.2643
   18.930    2.4750
   18.945    2.2819
   18.960    2.2995
   18.975    2.2117
   18.990    2.0186
   19.005    2.1239
   19.020    2.2643
   19.035    2.0011
   19.050    2.0713
   19.065    2.0186
   19.080    2.3697
   19.095    2.0537
   19.110    2.3170
   19.125    2.3872
   19.140    2.4048
   19.155    2.1590
   19.170    2.3346
   19.185    2.2292
   19.200    2.0537
   19.215    2.0362
   19.230    1.9659
   19.245    1.8606
   19.260    2.3170
   19.275    2.2292
   19.290    2.1415
   19.305    2.0362
   19.320    1.9484
   19.335    2.0537
   19.350    1.9308
   19.365    2.1064
   19.380    2.6330
   19.395    2.1239
   19.410    1.9659
   19.425    2.0537
   19.440    2.0011
   19.455    2.0011
   19.470    2.2995
   19.485    2.0713
   19.500    1.8782
   19.515    1.9835
   19.530    2.2117
   19.545    1.9308
   19.560    2.0011
   19.575    1.9659
   19.590    2.0713
   19.605    1.9308
   19.620    2.1766
   19.635    2.1064
   19.650    2.2995
   19.665    2.2468
   19.680    2.1590
   19.695    2.0537
   19.710    1.8431
   19.725    2.0186
   19.740    1.9659
   19.755    2.1064
   19.770    2.0888
   19.785    1.7904
   19.800    2.0713
   19.815    2.2819
   19.830    2.3521
   19.845    2.0713
   19.860    1.9835
   19.875    1.9484
   19.890    2.0011
   19.905    1.9484
   19.920    1.9484
   19.935    2.1415
   19.950    2.0011
   19.965    2.0888
   19.980    2.0011
   19.995    2.2292
   20.010    2.0888
   20.025    1.9835
   20.040    1.9308
   20.055    2.0186
   20.070    1.9308
   20.085    1.9484
   20.100    1.9484
   20.115    1.9835
   20.130    1.7553
   20.145    1.9659
   20.160    2.1941
   20.175    2.1064
   20.190    1.8080
   20.205    1.8431
   20.220    1.9835
   20.235    2.2292
   20.250    2.0362
   20.265    2.2292
   20.280    2.0537
   20.295    1.9659
   20.310    2.0186
   20.325    1.9308
   20.340    1.7729
   20.355    1.7202
   20.370    1.8431
   20.385    2.1239
   20.400    2.1590
   20.415    2.1941
   20.430    2.2468
   20.445    2.0537
   20.460    2.0713
   20.475    1.8255
   20.490    1.9308
   20.505    1.8255
   20.520    2.2995
   20.535    1.8782
   20.550    2.0186
   20.565    2.2643
   20.580    2.0888
   20.595    2.1064
   20.610    1.9659
   20.625    1.9308
   20.640    2.0537
   20.655    1.9835
   20.670    1.8957
   20.685    1.9835
   20.700    1.8606
   20.715    2.1941
   20.730    2.0888
   20.745    2.1064
   20.760    1.9484
   20.775    2.0186
   20.790    2.0888
   20.805    2.1239
   20.820    1.9133
   20.835    2.0186
   20.850    1.8957
   20.865    1.8606
   20.880    1.9659
   20.895    1.9659
   20.910    2.0713
   20.925    1.7553
   20.940    1.7202
   20.955    2.1766
   20.970    2.2995
   20.985    1.8782
   21.000    1.8255
   21.015    1.9133
   21.030    1.8255
   21.045    1.9484
   21.060    2.2468
   21.075    1.9659
   21.090    2.2819
   21.105    2.2819
   21.120    2.1766
   21.135    2.0186
   21.150    2.0888
   21.165    2.0537
   21.180    1.7729
   21.195    1.6675
   21.210    1.9133
   21.225    1.9308
   21.240    1.8431
   21.255    1.6851
   21.270    1.7027
   21.285    1.9659
   21.300    1.7904
   21.315    1.8782
   21.330    1.5798
   21.345    1.8080
   21.360    1.9308
   21.375    1.6851
   21.390    1.7904
   21.405    2.0011
   21.420    1.9484
   21.435    1.9133
   21.450    1.9659
   21.465    1.9133
   21.480    2.0537
   21.495    1.9659
   21.510    2.0186
   21.525    2.1415
   21.540    2.1415
   21.555    2.0186
   21.570    2.0186
   21.585    1.9484
   21.600    2.0186
   21.615    2.0186
   21.630    2.0186
   21.645    1.9659
   21.660    1.9835
   21.675    1.9484
   21.690    2.0713
   21.705    1.9484
   21.720    2.1239
   21.735    1.9308
   21.750    1.9133
   21.765    1.8957
   21.780    1.6851
   21.795    1.7202
   21.810    1.7378
   21.825    1.8255
   21.840    1.8957
   21.855    1.8782
   21.870    1.8606
   21.885    1.8255
   21.900    2.0362
   21.915    2.2117
   21.930    2.2117
   21.945    2.1590
   21.960    2.1064
   21.975    2.0011
   21.990    1.7027
   22.005    1.7729
   22.020    1.6149
   22.035    1.7202
   22.050    1.9133
   22.065    1.7729
   22.080    2.0011
   22.095    1.8606
   22.110    2.1239
   22.125    1.8606
   22.140    1.8606
   22.155    1.7904
   22.170    2.0537
   22.185    1.8957
   22.200    1.8606
   22.215    2.1239
   22.230    2.0362
   22.245    1.8431
   22.260    1.8957
   22.275    1.9484
   22.290    2.1941
   22.305    1.9484
   22.320    1.6851
   22.335    1.8431
   22.350    1.7904
   22.365    1.7378
   22.380    2.0011
   22.395    1.8606
   22.410    1.9133
   22.425    1.8431
   22.440    1.5798
   22.455    1.5271
   22.470    1.8255
   22.485    1.9835
   22.500    2.0186
   22.515    1.7553
   22.530    2.0186
   22.545    1.8782
   22.560    1.9133
   22.575    2.1064
   22.590    2.0537
   22.605    1.7378
   22.620    1.8080
   22.635    1.8606
   22.650    1.9659
   22.665    1.6324
   22.680    1.7553
   22.695    1.5622
   22.710    1.9659
   22.725    1.6149
   22.740    1.4920
   22.755    1.7904
   22.770    2.0186
   22.785    1.5973
   22.800    1.4042
   22.815    1.6851
   22.830    1.8782
   22.845    1.8080
   22.860    1.8080
   22.875    1.8255
   22.890    1.9484
   22.905    2.0186
   22.920    1.7027
   22.935    1.4920
   22.950    1.7378
   22.965    1.9133
   22.980    1.6149
   22.995    1.7904
   23.010    1.8255
   23.025    1.6675
   23.040    2.0186
   23.055    1.9484
   23.070    2.1239
   23.085    2.0888
   23.100    1.6851
   23.115    1.9308
   23.130    1.6851
   23.145    1.8431
   23.160    1.7378
   23.175    1.5447
   23.190    1.7904
   23.205    1.7202
   23.220    1.6324
   23.235    1.7202
   23.250    1.8606
   23.265    1.5798
   23.280    1.4920
   23.295    1.5447
   23.310    1.8782
   23.325    1.6500
   23.340    1.6149
   23.355    1.6851
   23.370    1.7378
   23.385    1.6851
   23.400    1.8080
   23.415    1.8431
   23.430    1.7904
   23.445    1.7027
   23.460    1.5622
   23.475    1.6851
   23.490    2.0011
   23.505    1.6675
   23.520    1.5973
   23.535    1.8080
   23.550    1.7904
   23.565    1.9835
   23.580    1.8957
   23.595    1.7378
   23.610    1.6149
   23.625    1.5973
   23.640    1.6324
   23.655    1.5798
   23.670    2.0011
   23.685    1.8957
   23.700    1.8957
   23.715    1.9308
   23.730    1.8957
   23.745    1.9835
   23.760    1.8255
   23.775    1.8080
   23.790    1.8080
   23.805    1.6324
   23.820    1.5973
   23.835    1.7729
   23.850    1.5973
   23.865    2.0537
   23.880    1.8606
   23.895    1.7027
   23.910    1.5973
   23.925    1.5096
   23.940    1.7378
   23.955    1.7553
   23.970    1.7027
   23.985    1.5973
   24.000    1.6500
   24.015    1.9484
   24.030    1.8255
   24.045    1.7202
   24.060    1.8782
   24.075    1.7904
   24.090    1.6149
   24.105    1.7027
   24.120    1.4745
   24.135    1.4042
   24.150    1.6500
   24.165    1.8957
   24.180    1.6149
   24.195    1.5447
   24.210    1.8080
   24.225    1.8255
   24.240    1.7027
   24.255    1.9308
   24.270    1.6149
   24.285    1.4218
   24.300    1.8255
   24.315    1.5973
   24.330    1.8255
   24.345    1.8255
   24.360    1.6500
   24.375    1.6851
   24.390    1.5447
   24.405    1.4569
   24.420    1.6675
   24.435    1.5798
   24.450    1.7027
   24.465    1.6149
   24.480    1.7553
   24.495    1.7553
   24.510    1.6324
   24.525    1.9659
   24.540    1.8255
   24.555    1.9133
   24.570    1.5096
   24.585    1.4218
   24.600    1.5447
   24.615    1.6675
   24.630    1.9133
   24.645    1.5271
   24.660    1.6675
   24.675    1.5622
   24.690    1.4745
   24.705    1.5096
   24.720    1.5096
   24.735    1.4920
   24.750    1.3867
   24.765    1.4745
   24.780    1.6851
   24.795    1.6851
   24.810    1.5271
   24.825    1.5447
   24.840    1.5447
   24.855    1.5973
   24.870    1.5622
   24.885    1.7027
   24.900    1.7553
   24.915    1.8431
   24.930    1.5622
   24.945    1.7378
   24.960    1.5622
   24.975    1.8255
   24.990    1.6324
   25.005    1.6851
   25.020    1.7378
   25.035    1.8606
   25.050    1.5798
   25.065    1.4569
   25.080    1.6324
   25.095    1.7202
   25.110    1.6324
   25.125    1.5622
   25.140    1.6500
   25.155    1.4042
   25.170    1.6851
   25.185    1.4569
   25.200    1.6324
   25.215    1.3516
   25.230    1.4394
   25.245    1.4394
   25.260    1.6324
   25.275    1.5447
   25.290    1.7553
   25.305    1.5447
   25.320    1.6324
   25.335    1.5447
   25.350    1.1585
   25.365    1.5271
   25.380    1.5271
   25.395    1.4920
   25.410    1.6324
   25.425    1.5798
   25.440    1.3340
   25.455    1.4394
   25.470    1.5271
   25.485    1.3691
   25.500    1.7378
   25.515    1.8255
   25.530    1.6675
   25.545    1.5622
   25.560    1.5447
   25.575    1.7378
   25.590    1.6500
   25.605    1.6675
   25.620    1.6851
   25.635    1.7027
   25.650    1.5447
   25.665    1.4745
   25.680    1.5096
   25.695    1.5622
   25.710    1.6324
   25.725    1.4218
   25.740    1.5798
   25.755    1.4042
   25.770    1.4394
   25.785    1.4745
   25.800    1.4394
   25.815    1.5798
   25.830    1.4569
   25.845    1.4218
   25.860    1.4745
   25.875    1.7904
   25.890    1.7729
   25.905    1.4920
   25.920    1.6500
   25.935    1.5798
   25.950    1.3165
   25.965    1.5271
   25.980    1.6324
   25.995    1.5973
   26.010    1.5447
   26.025    1.5447
   26.040    1.3516
   26.055    1.5096
   26.070    1.5798
   26.085    1.6500
   26.100    1.3867
   26.115    1.4920
   26.130    1.2814
   26.145    1.4394
   26.160    1.6324
   26.175    1.6851
   26.190    1.5973
   26.205    1.3165
   26.220    1.3691
   26.235    1.3165
   26.250    1.1410
   26.265    1.3340
   26.280    1.4745
   26.295    1.4394
   26.310    1.6149
   26.325    1.6500
   26.340    1.5271
   26.355    1.6324
   26.370    1.5271
   26.385    1.4218
   26.400    1.4394
   26.415    1.4394
   26.430    1.4042
   26.445    1.5447
   26.460    1.6149
   26.475    1.6324
   26.490    1.8255
   26.505    1.4569
   26.520    1.2814
   26.535    1.5622
   26.550    1.5622
   26.565    1.4042
   26.580    1.5271
   26.595    1.6149
   26.610    1.2112
   26.625    1.3340
   26.640    1.7027
   26.655    1.3867
   26.670    1.4569
   26.685    1.2463
   26.700    1.4920
   26.715    1.2638
   26.730    1.4042
   26.745    1.5798
   26.760    1.4218
   26.775    1.2112
   26.790    1.4218
   26.805    1.4394
   26.820    1.3867
   26.835    1.3691
   26.850    1.3516
   26.865    1.5271
   26.880    1.5271
   26.895    1.5973
   26.910    1.3691
   26.925    1.6149
   26.940    1.6149
   26.955    1.5447
   26.970    1.3691
   26.985    1.2463
   27.000    1.2989
   27.015    1.5096
   27.030    1.5096
   27.045    1.1585
   27.060    1.2287
   27.075    1.4218
   27.090    1.4920
   27.105    1.5798
   27.120    1.5271
   27.135    1.5096
   27.150    1.6500
   27.165    1.5096
   27.180    1.3340
   27.195    1.3165
   27.210    1.4042
   27.225    1.2463
   27.240    1.3516
   27.255    1.3691
   27.270    1.2989
   27.285    1.3867
   27.300    1.5622
   27.315    1.2989
   27.330    1.3516
   27.345    1.4920
   27.360    1.5271
   27.375    1.2989
   27.390    1.1761
   27.405    1.6149
   27.420    1.5447
   27.435    1.2287
   27.450    1.2814
   27.465    1.4920
   27.480    1.3867
   27.495    1.2814
   27.510    1.3340
   27.525    1.5096
   27.540    1.2989
   27.555    1.5271
   27.570    1.3867
   27.585    1.4042
   27.600    1.5096
   27.615    1.5798
   27.630    1.4042
   27.645    1.1761
   27.660    1.2989
   27.675    1.2989
   27.690    1.5622
   27.705    1.4042
   27.720    1.3165
   27.735    1.4569
   27.750    1.3516
   27.765    1.2989
   27.780    1.2814
   27.795    1.3691
   27.810    1.4920
   27.825    1.4218
   27.840    1.5622
   27.855    1.2287
   27.870    1.3691
   27.885    1.4920
   27.900    1.3516
   27.915    1.3691
   27.930    1.5798
   27.945    1.4569
   27.960    1.5973
   27.975    1.6675
   27.990    1.5447
   28.005    1.5622
   28.020    1.5096
   28.035    1.5271
   28.050    1.4920
   28.065    1.2638
   28.080    1.0707
   28.095    1.1585
   28.110    1.5447
   28.125    1.4394
   28.140    1.2989
   28.155    1.2814
   28.170    1.4394
   28.185    1.5096
   28.200    1.4042
   28.215    1.2287
   28.230    1.1761
   28.245    1.2463
   28.260    1.2989
   28.275    1.1410
   28.290    1.3165
   28.305    1.2463
   28.320    1.2814
   28.335    1.5798
   28.350    1.3516
   28.365    1.4042
   28.380    1.4042
   28.395    1.2814
   28.410    1.1585
   28.425    1.4042
   28.440    1.3165
   28.455    1.1761
   28.470    1.2463
   28.485    1.2638
   28.500    1.3691
   28.515    1.3165
   28.530    1.3516
   28.545    1.2814
   28.560    1.1936
   28.575    1.0707
   28.590    1.3867
   28.605    1.3165
   28.620    1.2989
   28.635    1.5096
   28.650    1.5622
   28.665    1.3340
   28.680    1.2638
   28.695    1.2463
   28.710    1.2989
   28.725    1.2287
   28.740    1.2287
   28.755    1.3340
   28.770    1.4569
   28.785    1.5271
   28.800    1.5622
   28.815    1.4218
   28.830    1.5798
   28.845    1.6324
   28.860    1.4218
   28.875    1.5798
   28.890    1.5096
   28.905    1.4569
   28.920    1.7378
   28.935    2.0537
   28.950    1.7553
   28.965    1.8255
   28.980    1.5973
   28.995    1.4569
   29.010    0.9830
   29.025    1.4745
   29.040    1.4218
   29.055    1.5271
   29.070    1.1936
   29.085    1.2112
   29.100    1.2287
   29.115    1.2989
   29.130    1.2989
   29.145    1.2463
   29.160    1.2814
   29.175    1.4218
   29.190    1.6324
   29.205    1.6324
   29.220    1.6500
   29.235    1.6149
   29.250    1.5096
   29.265    1.2463
   29.280    1.2989
   29.295    1.3691
   29.310    1.4569
   29.325    1.4042
   29.340    1.5271
   29.355    1.3516
   29.370    1.1585
   29.385    1.0883
   29.400    1.1936
   29.415    1.1585
   29.430    1.2638
   29.445    1.1761
   29.460    1.3165
   29.475    1.2287
   29.490    1.1585
   29.505    1.0883
   29.520    1.2112
   29.535    1.1936
   29.550    1.1585
   29.565    1.0532
   29.580    1.1058
   29.595    1.3165
   29.610    1.2814
   29.625    1.0532
   29.640    1.0181
   29.655    1.0356
   29.670    1.2463
   29.685    1.2814
   29.700    1.1410
   29.715    1.1585
   29.730    1.1936
   29.745    1.1936
   29.760    1.2989
   29.775    1.1585
   29.790    1.2112
   29.805    1.2463
   29.820    1.1936
   29.835    1.2287
   29.850    1.2112
   29.865    1.0181
   29.880    1.0181
   29.895    1.0356
   29.910    1.1585
   29.925    1.0005
   29.940    0.9654
   29.955    1.2814
   29.970    1.2989
   29.985    1.0532
   30.000    1.1936
   30.015    1.1234
   30.030    1.0883
   30.045    1.0181
   30.060    1.1936
   30.075    1.1936
   30.090    1.1761
   30.105    1.5096
   30.120    1.2112
   30.135    0.9830
   30.150    1.1058
   30.165    1.1761
   30.180    1.1936
   30.195    1.1410
   30.210    1.1410
   30.225    1.1410
   30.240    1.3691
   30.255    1.0532
   30.270    1.1058
   30.285    1.0181
   30.300    1.2463
   30.315    1.2638
   30.330    1.2989
   30.345    1.0883
   30.360    1.1234
   30.375    1.2112
   30.390    1.0707
   30.405    1.0707
   30.420    1.0005
   30.435    1.1234
   30.450    1.1936
   30.465    1.0707
   30.480    1.1936
   30.495    0.9654
   30.510    1.0005
   30.525    1.0356
   30.540    1.1058
   30.555    1.2638
   30.570    0.9479
   30.585    1.2112
   30.600    1.1761
   30.615    1.2287
   30.630    1.3340
   30.645    1.1234
   30.660    1.1058
   30.675    1.2638
   30.690    1.1761
   30.705    1.0356
   30.720    1.0532
   30.735    1.1936
   30.750    1.1058
   30.765    1.2638
   30.780    1.0532
   30.795    1.1058
   30.810    1.1585
   30.825    1.0707
   30.840    1.1936
   30.855    1.1936
   30.870    1.0532
   30.885    1.1585
   30.900    1.1234
   30.915    1.2638
   30.930    1.1585
   30.945    1.1234
   30.960    1.2638
   30.975    1.1058
   30.990    0.8601
   31.005    0.8777
   31.020    1.0532
   31.035    1.0707
   31.050    1.0356
   31.065    0.9830
   31.080    1.0707
   31.095    0.8777
   31.110    1.0883
   31.125    1.0707
   31.140    1.0883
   31.155    1.0005
   31.170    1.0707
   31.185    1.1058
   31.200    1.0532
   31.215    0.9479
   31.230    0.9128
   31.245    1.1234
   31.260    1.0883
   31.275    0.9479
   31.290    1.1234
   31.305    1.1761
   31.320    0.9479
   31.335    0.9479
   31.350    1.1234
   31.365    0.8777
   31.380    0.8952
   31.395    1.1234
   31.410    1.0532
   31.425    0.9303
   31.440    0.9479
   31.455    1.1058
   31.470    0.9303
   31.485    1.1410
   31.500    0.9830
   31.515    0.9830
   31.530    1.1058
   31.545    1.1761
   31.560    1.0883
   31.575    1.0181
   31.590    0.9128
   31.605    0.9830
   31.620    0.9830
   31.635    1.2814
   31.650    1.2287
   31.665    1.2638
   31.680    0.9479
   31.695    1.1234
   31.710    1.1761
   31.725    1.3867
   31.740    1.0532
   31.755    1.0181
   31.770    1.0181
   31.785    1.0707
   31.800    1.0005
   31.815    1.0707
   31.830    1.0883
   31.845    1.1410
   31.860    1.0883
   31.875    1.0532
   31.890    1.0707
   31.905    0.9654
   31.920    1.1936
   31.935    1.0883
   31.950    1.2287
   31.965    1.2463
   31.980    0.9128
   31.995    1.2989
   32.010    1.0707
   32.025    0.9830
   32.040    1.2287
   32.055    1.5973
   32.070    1.3867
   32.085    1.5271
   32.100    1.5271
   32.115    1.1936
   32.130    1.0532
   32.145    0.9303
   32.160    0.9830
   32.175    1.0005
   32.190    1.0356
   32.205    1.0707
   32.220    1.0181
   32.235    1.0883
   32.250    0.9830
   32.265    1.0883
   32.280    1.1234
   32.295    1.0883
   32.310    0.9303
   32.325    0.9128
   32.340    0.8425
   32.355    0.9654
   32.370    0.9128
   32.385    1.0181
   32.400    1.0707
   32.415    1.0707
   32.430    0.9303
   32.445    1.0532
   32.460    1.0532
   32.475    0.8952
   32.490    1.0181
   32.505    1.0181
   32.520    1.0532
   32.535    1.0181
   32.550    0.9830
   32.565    0.9128
   32.580    1.0005
   32.595    1.1410
   32.610    1.1585
   32.625    0.9830
   32.640    0.8074
   32.655    0.7723
   32.670    0.9303
   32.685    1.0005
   32.700    0.9830
   32.715    1.0005
   32.730    0.9479
   32.745    0.8952
   32.760    0.8777
   32.775    0.9303
   32.790    0.8777
   32.805    1.0005
   32.820    0.8952
   32.835    1.1058
   32.850    1.0883
   32.865    0.9654
   32.880    1.1585
   32.895    1.0356
   32.910    0.8425
   32.925    0.9654
   32.940    0.9128
   32.955    0.9303
   32.970    0.9479
   32.985    1.0707
   33.000    0.9479
   33.015    1.0356
   33.030    1.1410
   33.045    1.1058
   33.060    1.1936
   33.075    0.9654
   33.090    0.8952
   33.105    0.8601
   33.120    0.8250
   33.135    0.9654
   33.150    1.0883
   33.165    1.0532
   33.180    0.9830
   33.195    1.0883
   33.210    0.9479
   33.225    1.0181
   33.240    1.0005
   33.255    0.9128
   33.270    0.9830
   33.285    0.9830
   33.300    0.9479
   33.315    0.8074
   33.330    0.7197
   33.345    0.8952
   33.360    1.1058
   33.375    0.9830
   33.390    1.1058
   33.405    0.9128
   33.420    0.9654
   33.435    1.2463
   33.450    0.9654
   33.465    0.9479
   33.480    1.0005
   33.495    0.8074
   33.510    1.0707
   33.525    1.1058
   33.540    1.0532
   33.555    0.8952
   33.570    0.9479
   33.585    0.8250
   33.600    0.8952
   33.615    0.8250
   33.630    0.8425
   33.645    1.0707
   33.660    1.0707
   33.675    0.9128
   33.690    0.9830
   33.705    0.9128
   33.720    1.1410
   33.735    1.0707
   33.750    0.8425
   33.765    1.1585
   33.780    1.2112
   33.795    1.1936
   33.810    1.1234
   33.825    1.0707
   33.840    1.0883
   33.855    1.0883
   33.870    0.8777
   33.885    0.8952
   33.900    1.0181
   33.915    1.0181
   33.930    0.9830
   33.945    0.9830
   33.960    1.0181
   33.975    1.1410
   33.990    1.0883
   34.005    1.1410
   34.020    0.9303
   34.035    1.1058
   34.050    0.9479
   34.065    1.0883
   34.080    0.9479
   34.095    0.9654
   34.110    0.9128
   34.125    1.0005
   34.140    0.9128
   34.155    1.0005
   34.170    0.7723
   34.185    0.7723
   34.200    0.7899
   34.215    1.0532
   34.230    0.9303
   34.245    0.8952
   34.260    0.9654
   34.275    0.7723
   34.290    0.7372
   34.305    0.8601
   34.320    0.7548
   34.335    0.8425
   34.350    0.8250
   34.365    0.8425
   34.380    0.9128
   34.395    0.9654
   34.410    1.1585
   34.425    0.9830
   34.440    0.8601
   34.455    0.6319
   34.470    0.7723
   34.485    1.0181
   34.500    0.8074
   34.515    0.7197
   34.530    0.8425
   34.545    1.0181
   34.560    0.9830
   34.575    0.9479
   34.590    0.8250
   34.605    0.9654
   34.620    1.0883
   34.635    1.0532
   34.650    0.7548
   34.665    0.8250
   34.680    0.9479
   34.695    0.9303
   34.710    0.9303
   34.725    0.8074
   34.740    0.8601
   34.755    0.7548
   34.770    0.8777
   34.785    0.9830
   34.800    0.9479
   34.815    0.8074
   34.830    0.9303
   34.845    0.9830
   34.860    0.7899
   34.875    0.8425
   34.890    0.8250
   34.905    0.7899
   34.920    1.0181
   34.935    0.9128
   34.950    0.8250
   34.965    0.8601
   34.980    0.9654
   34.995    0.8425
   35.010    0.8777
   35.025    0.8952
   35.040    0.8777
   35.055    1.0707
   35.070    0.9830
   35.085    0.6846
   35.100    0.8425
   35.115    0.7197
   35.130    0.8074
   35.145    0.8601
   35.160    0.9303
   35.175    0.8952
   35.190    0.7548
   35.205    0.7548
   35.220    0.7548
   35.235    0.8074
   35.250    1.0356
   35.265    0.9654
   35.280    0.8601
   35.295    0.9303
   35.310    1.0005
   35.325    0.8952
   35.340    0.9128
   35.355    0.8074
   35.370    0.8952
   35.385    0.9830
   35.400    0.8952
   35.415    0.7021
   35.430    0.8777
   35.445    0.9654
   35.460    0.9654
   35.475    0.8777
   35.490    0.9303
   35.505    0.8952
   35.520    0.8425
   35.535    1.0005
   35.550    0.8777
   35.565    0.7548
   35.580    1.0532
   35.595    1.1234
   35.610    0.9128
   35.625    0.8250
   35.640    0.8601
   35.655    0.8250
   35.670    0.7021
   35.685    0.8777
   35.700    0.9830
   35.715    0.8074
   35.730    0.8777
   35.745    1.0181
   35.760    0.8425
   35.775    0.8074
   35.790    0.7021
   35.805    0.8250
   35.820    0.8074
   35.835    0.9479
   35.850    0.9654
   35.865    0.8250
   35.880    0.6144
   35.895    0.8250
   35.910    0.6670
   35.925    0.9303
   35.940    0.8601
   35.955    0.8601
   35.970    1.0532
   35.985    0.9654
   36.000    0.8074
   36.015    1.0181
   36.030    1.1585
   36.045    0.9128
   36.060    0.9303
   36.075    1.1234
   36.090    0.9654
   36.105    0.8074
   36.120    0.8952
   36.135    1.0181
   36.150    0.9830
   36.165    1.0356
   36.180    0.8777
   36.195    0.9128
   36.210    0.9479
   36.225    1.0532
   36.240    0.8074
   36.255    0.9830
   36.270    0.8952
   36.285    0.8777
   36.300    0.8601
   36.315    0.9128
   36.330    0.7372
   36.345    0.8425
   36.360    1.0181
   36.375    0.7899
   36.390    0.8425
   36.405    0.7197
   36.420    0.7723
   36.435    0.9128
   36.450    1.0532
   36.465    1.0181
   36.480    0.8250
   36.495    0.9128
   36.510    0.8777
   36.525    0.9479
   36.540    0.8425
   36.555    0.9830
   36.570    0.8250
   36.585    0.7548
   36.600    0.9479
   36.615    0.8952
   36.630    0.8074
   36.645    0.8074
   36.660    0.9830
   36.675    0.8250
   36.690    0.6144
   36.705    0.7723
   36.720    0.9479
   36.735    0.9654
   36.750    0.7723
   36.765    0.8601
   36.780    0.8601
   36.795    0.8777
   36.810    0.8250
   36.825    0.8777
   36.840    0.6319
   36.855    0.6670
   36.870    0.8777
   36.885    0.8601
   36.900    0.8601
   36.915    0.8425
   36.930    0.8074
   36.945    0.8777
   36.960    0.9830
   36.975    0.6495
   36.990    0.9654
   37.005    0.9128
   37.020    0.8250
   37.035    0.8250
   37.050    0.7899
   37.065    0.7548
   37.080    0.8250
   37.095    0.8425
   37.110    1.0181
   37.125    0.7723
   37.140    1.0005
   37.155    0.8250
   37.170    0.8601
   37.185    0.7372
   37.200    0.7372
   37.215    0.8601
   37.230    1.0356
   37.245    0.9128
   37.260    0.8777
   37.275    0.8952
   37.290    0.7021
   37.305    0.7197
   37.320    0.8074
   37.335    0.7548
   37.350    0.7021
   37.365    0.8425
   37.380    0.8425
   37.395    0.7899
   37.410    0.8952
   37.425    0.8425
   37.440    0.9303
   37.455    0.7899
   37.470    0.5968
   37.485    0.6495
   37.500    0.7548
   37.515    0.6846
   37.530    0.8425
   37.545    0.8777
   37.560    0.8425
   37.575    0.9128
   37.590    0.8601
   37.605    0.9128
   37.620    1.2463
   37.635    0.9128
   37.650    0.7899
   37.665    0.9303
   37.680    0.8074
   37.695    0.9128
   37.710    0.8952
   37.725    0.9654
   37.740    0.8601
   37.755    0.8777
   37.770    0.9128
   37.785    0.7899
   37.800    0.8425
   37.815    0.8250
   37.830    0.9830
   37.845    0.9128
   37.860    0.9303
   37.875    0.7548
   37.890    0.9654
   37.905    0.9830
   37.920    0.7372
   37.935    0.9479
   37.950    1.0005
   37.965    0.9479
   37.980    0.8601
   37.995    0.8777
   38.010    0.8777
   38.025    0.9654
   38.040    0.8601
   38.055    0.9830
   38.070    1.0005
   38.085    0.8250
   38.100    0.8952
   38.115    1.0181
   38.130    0.9303
   38.145    0.8601
   38.160    0.7723
   38.175    0.7197
   38.190    0.7723
   38.205    0.8952
   38.220    0.8074
   38.235    0.8952
   38.250    0.8425
   38.265    0.7548
   38.280    0.6846
   38.295    0.9303
   38.310    0.8074
   38.325    0.9303
   38.340    0.9479
   38.355    0.8777
   38.370    0.7723
   38.385    0.7899
   38.400    0.7197
   38.415    0.8777
   38.430    0.8250
   38.445    0.7372
   38.460    0.9303
   38.475    0.7372
   38.490    0.8425
   38.505    0.8074
   38.520    0.7899
   38.535    0.9128
   38.550    0.8952
   38.565    0.8601
   38.580    1.0005
   38.595    0.9479
   38.610    0.8952
   38.625    0.9303
   38.640    1.0356
   38.655    0.7723
   38.670    0.7021
   38.685    0.8777
   38.700    0.7723
   38.715    0.7372
   38.730    0.5617
   38.745    0.6670
   38.760    0.8250
   38.775    0.7021
   38.790    0.6670
   38.805    0.8425
   38.820    0.9128
   38.835    0.8601
   38.850    0.9479
   38.865    0.8952
   38.880    0.7021
   38.895    0.8250
   38.910    0.8952
   38.925    0.7723
   38.940    0.7372
   38.955    0.6846
   38.970    0.7372
   38.985    0.8601
   39.000    0.7021
   39.015    0.7899
   39.030    1.0005
   39.045    0.8952
   39.060    0.8425
   39.075    0.7723
   39.090    0.8250
   39.105    1.0005
   39.120    0.7723
   39.135    0.7723
   39.150    0.7197
   39.165    0.7899
   39.180    0.8952
   39.195    0.7723
   39.210    0.8952
   39.225    0.8250
   39.240    0.8074
   39.255    0.8601
   39.270    0.8952
   39.285    0.7723
   39.300    0.7197
   39.315    0.6495
   39.330    0.9128
   39.345    0.8952
   39.360    0.7372
   39.375    0.8425
   39.390    0.6846
   39.405    0.7723
   39.420    0.7197
   39.435    0.8250
   39.450    0.8601
   39.465    0.7723
   39.480    0.7372
   39.495    0.8250
   39.510    0.7372
   39.525    0.8425
   39.540    0.8777
   39.555    0.8601
   39.570    1.0532
   39.585    0.8425
   39.600    0.7197
   39.615    0.8074
   39.630    0.8425
   39.645    0.7548
   39.660    0.7899
   39.675    0.8250
   39.690    0.8425
   39.705    0.9830
   39.720    1.0532
   39.735    0.7548
   39.750    0.6670
   39.765    0.7723
   39.780    0.9654
   39.795    0.9654
   39.810    0.9303
   39.825    0.9479
   39.840    0.7197
   39.855    0.7899
   39.870    0.8250
   39.885    0.7548
   39.900    0.8250
   39.915    0.7899
   39.930    0.8425
   39.945    0.8250
   39.960    0.7548
   39.975    0.9303
   39.990    0.9303
   40.005    0.8250
   40.020    0.7021
   40.035    0.8777
   40.050    0.9303
   40.065    0.8425
   40.080    0.6319
   40.095    0.7548
   40.110    0.7548
   40.125    0.7021
   40.140    0.7899
   40.155    0.8601
   40.170    0.7372
   40.185    0.7899
   40.200    0.7723
   40.215    0.7723
   40.230    0.7899
   40.245    0.8777
   40.260    0.8074
   40.275    0.6846
   40.290    0.8425
   40.305    0.8601
   40.320    0.8601
   40.335    0.8425
   40.350    0.7723
   40.365    0.7021
   40.380    0.5793
   40.395    0.7899
   40.410    0.8601
   40.425    0.9128
   40.440    0.8250
   40.455    0.7197
   40.470    0.8250
   40.485    0.9830
   40.500    0.8777
   40.515    0.7021
   40.530    0.7197
   40.545    0.7723
   40.560    0.7372
   40.575    0.8250
   40.590    0.9128
   40.605    0.7723
   40.620    0.6670
   40.635    0.6319
   40.650    0.8250
   40.665    0.8425
   40.680    0.8250
   40.695    0.8952
   40.710    0.8074
   40.725    1.0005
   40.740    0.8425
   40.755    0.7197
   40.770    0.8074
   40.785    0.8074
   40.800    0.7548
   40.815    0.9830
   40.830    0.8074
   40.845    0.6846
   40.860    0.6319
   40.875    0.8777
   40.890    0.6846
   40.905    0.8425
   40.920    0.7021
   40.935    0.7372
   40.950    0.7723
   40.965    0.7548
   40.980    0.8250
   40.995    0.8425
   41.010    0.8601
   41.025    0.9128
   41.040    0.6846
   41.055    0.7723
   41.070    0.6846
   41.085    0.7548
   41.100    0.8425
   41.115    0.8952
   41.130    0.8250
   41.145    0.7197
   41.160    0.6670
   41.175    0.8777
   41.190    0.7723
   41.205    0.7021
   41.220    0.8074
   41.235    0.7372
   41.250    0.7021
   41.265    0.8777
   41.280    0.7899
   41.295    0.6846
   41.310    0.7899
   41.325    0.6495
   41.340    1.0532
   41.355    0.7548
   41.370    0.7723
   41.385    0.7021
   41.400    0.7372
   41.415    1.0181
   41.430    0.7723
   41.445    0.5266
   41.460    0.6670
   41.475    0.8074
   41.490    0.7723
   41.505    0.8074
   41.520    0.9654
   41.535    0.9479
   41.550    0.8777
   41.565    0.7723
   41.580    0.6495
   41.595    1.0005
   41.610    0.9654
   41.625    0.6846
   41.640    0.6670
   41.655    0.7723
   41.670    0.8952
   41.685    0.6495
   41.700    0.6846
   41.715    0.8250
   41.730    0.7197
   41.745    0.6319
   41.760    0.7197
   41.775    0.8250
   41.790    0.8425
   41.805    0.6846
   41.820    0.8250
   41.835    0.7723
   41.850    1.0005
   41.865    0.7372
   41.880    0.8425
   41.895    0.7548
   41.910    0.7372
   41.925    0.8601
   41.940    0.8425
   41.955    0.6846
   41.970    0.8074
   41.985    0.7899
   42.000    0.7723
   42.015    0.8250
   42.030    0.6670
   42.045    0.7372
   42.060    0.8074
   42.075    0.7723
   42.090    0.9303
   42.105    0.7197
   42.120    0.5968
   42.135    0.7197
   42.150    0.8250
   42.165    0.7548
   42.180    0.8601
   42.195    0.8250
   42.210    0.7197
   42.225    0.7197
   42.240    0.7372
   42.255    0.8250
   42.270    0.9128
   42.285    0.8074
   42.300    0.7723
   42.315    0.8777
   42.330    0.7548
   42.345    0.8952
   42.360    0.8074
   42.375    0.8074
   42.390    0.7372
   42.405    0.7197
   42.420    0.8074
   42.435    0.6495
   42.450    0.7723
   42.465    0.7021
   42.480    0.6144
   42.495    0.6495
   42.510    0.7197
   42.525    0.7021
   42.540    0.8074
   42.555    0.8601
   42.570    0.8952
   42.585    0.7021
   42.600    0.7548
   42.615    0.6495
   42.630    0.6670
   42.645    0.7899
   42.660    0.7899
   42.675    0.8952
   42.690    0.9303
   42.705    0.8952
   42.720    0.8952
   42.735    0.7197
   42.750    0.7899
   42.765    0.8074
   42.780    0.7197
   42.795    0.7021
   42.810    0.7723
   42.825    0.7372
   42.840    0.7899
   42.855    0.7021
   42.870    0.5793
   42.885    0.5968
   42.900    0.7899
   42.915    0.7197
   42.930    0.6495
   42.945    0.7723
   42.960    0.6670
   42.975    0.8952
   42.990    0.8250
   43.005    0.8074
   43.020    0.7021
   43.035    0.8601
   43.050    0.8425
   43.065    0.7723
   43.080    0.7899
   43.095    0.7899
   43.110    0.8425
   43.125    0.7723
   43.140    0.7548
   43.155    0.6495
   43.170    0.6846
   43.185    0.7197
   43.200    0.7723
   43.215    0.7197
   43.230    0.8601
   43.245    0.8777
   43.260    0.8425
   43.275    0.7899
   43.290    0.9128
   43.305    0.6319
   43.320    0.9128
   43.335    0.8952
   43.350    0.7372
   43.365    0.8777
   43.380    0.7723
   43.395    0.9830
   43.410    0.7723
   43.425    0.7899
   43.440    0.8777
   43.455    0.6670
   43.470    0.7021
   43.485    0.6670
   43.500    0.7548
   43.515    0.7548
   43.530    0.7723
   43.545    0.9128
   43.560    0.7723
   43.575    0.8425
   43.590    0.8074
   43.605    0.7548
   43.620    0.8250
   43.635    0.7548
   43.650    0.8074
   43.665    0.7723
   43.680    0.7899
   43.695    0.8425
   43.710    0.7899
   43.725    0.7548
   43.740    0.9303
   43.755    0.7723
   43.770    0.7372
   43.785    0.8425
   43.800    0.8074
   43.815    0.9303
   43.830    0.8601
   43.845    0.7899
   43.860    0.8952
   43.875    0.8425
   43.890    0.7723
   43.905    0.8777
   43.920    0.7548
   43.935    0.8425
   43.950    0.5968
   43.965    0.8601
   43.980    0.9830
   43.995    0.8777
   44.010    0.7372
   44.025    0.7723
   44.040    0.8952
   44.055    1.1234
   44.070    0.8074
   44.085    0.7372
   44.100    1.0707
   44.115    0.7723
   44.130    0.8250
   44.145    0.7899
   44.160    0.8074
   44.175    0.8250
   44.190    0.8250
   44.205    0.8777
   44.220    0.9128
   44.235    0.6670
   44.250    0.8777
   44.265    0.7372
   44.280    0.6495
   44.295    0.9128
   44.310    0.8425
   44.325    0.9654
   44.340    0.8777
   44.355    0.8777
   44.370    0.7197
   44.385    0.7899
   44.400    0.7723
   44.415    0.7548
   44.430    0.7021
   44.445    0.7372
   44.460    0.8777
   44.475    0.5968
   44.490    0.6846
   44.505    0.6144
   44.520    0.7197
   44.535    0.7723
   44.550    0.7899
   44.565    0.6495
   44.580    0.7899
   44.595    0.8425
   44.610    0.7197
   44.625    0.7899
   44.640    0.7197
   44.655    0.8250
   44.670    0.8250
   44.685    0.8074
   44.700    1.0181
   44.715    0.8952
   44.730    0.7021
   44.745    0.8074
   44.760    0.5617
   44.775    0.7197
   44.790    0.9479
   44.805    0.8601
   44.820    0.7372
   44.835    0.8074
   44.850    0.8777
   44.865    0.5968
   44.880    0.7899
   44.895    0.7021
   44.910    0.7021
   44.925    0.9479
   44.940    0.7723
   44.955    0.8250
   44.970    0.7548
   44.985    0.7548
   45.000    0.7899
   45.015    0.8425
   45.030    0.6495
   45.045    0.8425
   45.060    0.6495
   45.075    0.7372
   45.090    0.6670
   45.105    0.8601
   45.120    0.7548
   45.135    0.7548
   45.150    0.7723
   45.165    0.6846
   45.180    0.6846
   45.195    0.6670
   45.210    0.6495
   45.225    0.5968
   45.240    0.6670
   45.255    0.5441
   45.270    0.7197
   45.285    0.8425
   45.300    0.7723
   45.315    0.6495
   45.330    0.7372
   45.345    0.7548
   45.360    0.6495
   45.375    0.7899
   45.390    0.7548
   45.405    0.7723
   45.420    0.7723
   45.435    0.7548
   45.450    0.7372
   45.465    0.7899
   45.480    0.8777
   45.495    0.7899
   45.510    0.8777
   45.525    0.7899
   45.540    0.8425
   45.555    0.7021
   45.570    0.7899
   45.585    0.8074
   45.600    0.7899
   45.615    0.8952
   45.630    0.6846
   45.645    0.6846
   45.660    0.6144
   45.675    0.7197
   45.690    0.9479
   45.705    1.0707
   45.720    0.8952
   45.735    0.7372
   45.750    0.6670
   45.765    0.7021
   45.780    0.7548
   45.795    0.6495
   45.810    0.7021
   45.825    0.7021
   45.840    0.7723
   45.855    0.8074
   45.870    0.7548
   45.885    0.7723
   45.900    0.7899
   45.915    0.8074
   45.930    0.9303
   45.945    0.8952
   45.960    0.8777
   45.975    0.7197
   45.990    0.7197
   46.005    0.8250
   46.020    0.7723
   46.035    0.6144
   46.050    0.7548
   46.065    0.8425
   46.080    0.6144
   46.095    0.7021
   46.110    0.7021
   46.125    0.8250
   46.140    0.7723
   46.155    0.7899
   46.170    0.7197
   46.185    0.7899
   46.200    0.7548
   46.215    0.7197
   46.230    0.7021
   46.245    0.6670
   46.260    1.0532
   46.275    0.8250
   46.290    0.8777
   46.305    0.7899
   46.320    0.6319
   46.335    0.8601
   46.350    0.9128
   46.365    0.8952
   46.380    0.5968
   46.395    0.7372
   46.410    0.8074
   46.425    0.7021
   46.440    0.8777
   46.455    0.8250
   46.470    0.6495
   46.485    0.6670
   46.500    0.7372
   46.515    0.9128
   46.530    0.6846
   46.545    0.7372
   46.560    0.6495
   46.575    0.6495
   46.590    0.8250
   46.605    0.7723
   46.620    0.8074
   46.635    0.7548
   46.650    0.7372
   46.665    0.7899
   46.680    0.8601
   46.695    0.6670
   46.710    0.8425
   46.725    0.9128
   46.740    0.8250
   46.755    0.8250
   46.770    0.7197
   46.785    0.7548
   46.800    0.7899
   46.815    0.6846
   46.830    0.7021
   46.845    0.6144
   46.860    0.6319
   46.875    0.6670
   46.890    0.7372
   46.905    0.8425
   46.920    0.7723
   46.935    0.8777
   46.950    0.6495
   46.965    0.8777
   46.980    0.7723
   46.995    0.7899
   47.010    0.7548
   47.025    0.8601
   47.040    0.7197
   47.055    0.8601
   47.070    0.7021
   47.085    0.6846
   47.100    0.6846
   47.115    0.8777
   47.130    0.9303
   47.145    0.7899
   47.160    0.8250
   47.175    0.7197
   47.190    0.6495
   47.205    0.5968
   47.220    0.7197
   47.235    0.8601
   47.250    0.7899
   47.265    0.7021
   47.280    0.7899
   47.295    0.8777
   47.310    0.8777
   47.325    0.8601
   47.340    0.7899
   47.355    0.7021
   47.370    0.6846
   47.385    0.6495
   47.400    0.7723
   47.415    0.6846
   47.430    0.6495
   47.445    0.6670
   47.460    0.8074
   47.475    0.7197
   47.490    0.6319
   47.505    0.5793
   47.520    0.7021
   47.535    0.8777
   47.550    0.7899
   47.565    0.7372
   47.580    0.8250
   47.595    0.6144
   47.610    0.5266
   47.625    0.5793
   47.640    0.6670
   47.655    0.7021
   47.670    0.6670
   47.685    0.5793
   47.700    0.7723
   47.715    0.5441
   47.730    0.7197
   47.745    0.5617
   47.760    0.7372
   47.775    0.8074
   47.790    0.7723
   47.805    0.6670
   47.820    0.5968
   47.835    0.8250
   47.850    0.7723
   47.865    0.6846
   47.880    0.6495
   47.895    0.5793
   47.910    0.6846
   47.925    0.6319
   47.940    0.6846
   47.955    0.6144
   47.970    0.6670
   47.985    0.7021
   48.000    0.7723
   48.015    0.8601
   48.030    0.8601
   48.045    0.7197
   48.060    0.7021
   48.075    0.7899
   48.090    0.6670
   48.105    0.5793
   48.120    0.6319
   48.135    0.5793
   48.150    0.6144
   48.165    0.5968
   48.180    0.6144
   48.195    0.6846
   48.210    0.8074
   48.225    0.7197
   48.240    0.7197
   48.255    0.5266
   48.270    0.6495
   48.285    0.4915
   48.300    0.5968
   48.315    0.5090
   48.330    0.6495
   48.345    0.6495
   48.360    0.6319
   48.375    0.7197
   48.390    0.8425
   48.405    0.7548
   48.420    0.6495
   48.435    0.8250
   48.450    0.7723
   48.465    0.7548
   48.480    0.5617
   48.495    0.6846
   48.510    0.7197
   48.525    0.7197
   48.540    0.7723
   48.555    0.6670
   48.570    0.7197
   48.585    0.5793
   48.600    0.6846
   48.615    0.7021
   48.630    0.7548
   48.645    0.5441
   48.660    0.6144
   48.675    0.7548
   48.690    0.6846
   48.705    1.0181
   48.720    0.9479
   48.735    0.8601
   48.750    0.8425
   48.765    0.9303
   48.780    0.8777
   48.795    0.8250
   48.810    0.7723
   48.825    0.7021
   48.840    0.6670
   48.855    0.7548
   48.870    0.8425
   48.885    0.8952
   48.900    0.6495
   48.915    0.6846
   48.930    0.6670
   48.945    0.4388
   48.960    0.5441
   48.975    0.5793
   48.990    0.6670
   49.005    0.5266
   49.020    0.5617
   49.035    0.6846
   49.050    0.6144
   49.065    0.6670
   49.080    0.7372
   49.095    0.8425
   49.110    0.6846
   49.125    0.6670
   49.140    0.7723
   49.155    0.5793
   49.170    0.7021
   49.185    0.6846
   49.200    0.5793
   49.215    0.6319
   49.230    0.5441
   49.245    0.5968
   49.260    0.7197
   49.275    0.8074
   49.290    0.6495
   49.305    0.5968
   49.320    0.6670
   49.335    0.6670
   49.350    0.6846
   49.365    0.7021
   49.380    0.8601
   49.395    0.7021
   49.410    0.7723
   49.425    0.7548
   49.440    0.6495
   49.455    0.7548
   49.470    0.6846
   49.485    0.6670
   49.500    0.7197
   49.515    0.6144
   49.530    0.6495
   49.545    0.8074
   49.560    0.7372
   49.575    0.6670
   49.590    0.7723
   49.605    0.6846
   49.620    0.7372
   49.635    0.6144
   49.650    0.7548
   49.665    0.7197
   49.680    0.7899
   49.695    0.7899
   49.710    0.7723
   49.725    0.7021
   49.740    0.7372
   49.755    0.5793
   49.770    0.6319
   49.785    0.7548
   49.800    0.5617
   49.815    0.6846
   49.830    0.7197
   49.845    0.8250
   49.860    0.6495
   49.875    0.7372
   49.890    0.6846
   49.905    0.6319
   49.920    0.6846
   49.935    0.7372
   49.950    0.8425
   49.965    0.5266
   49.980    0.6670
