    1.500   20.4494
    1.515   20.6249
    1.530   20.2738
    1.545   19.9579
    1.560   18.8696
    1.575   18.7467
    1.590   17.6760
    1.605   17.4127
    1.620   17.1494
    1.635   17.1669
    1.650   17.6058
    1.665   17.0967
    1.680   16.5350
    1.695   16.6403
    1.710   16.5175
    1.725   16.3946
    1.740   15.6223
    1.755   14.9903
    1.770   15.6925
    1.785   14.6042
    1.800   14.4286
    1.815   14.7270
    1.830   13.8494
    1.845   13.9547
    1.860   14.4462
    1.875   14.5691
    1.890   14.0249
    1.905   13.5159
    1.920   12.9191
    1.935   13.3930
    1.950   12.3398
    1.965   12.4803
    1.980   12.6207
    1.995   12.2521
    2.010   12.7611
    2.025   12.7435
    2.040   12.0590
    2.055   11.7430
    2.070   11.7781
    2.085   11.3217
    2.100   11.8483
    2.115   11.8132
    2.130   11.9537
    2.145   11.7255
    2.160   11.3920
    2.175   11.6553
    2.190   11.3920
    2.205   11.1462
    2.220   11.2340
    2.235   10.8127
    2.250   10.9531
    2.265   11.2691
    2.280   11.1462
    2.295   11.1989
    2.310   10.4441
    2.325   11.1638
    2.340   10.7776
    2.355   10.7600
    2.370   10.7074
    2.385   10.2510
    2.400   10.3739
    2.415   10.3388
    2.430   10.3212
    2.445   10.0228
    2.460   10.0755
    2.475   10.1281
    2.490   10.1632
    2.505    9.7595
    2.520    9.8648
    2.535    9.2329
    2.550    9.7420
    2.565    9.7946
    2.580    9.3734
    2.595    9.6542
    2.610    9.8824
    2.625    9.6718
    2.640   10.1457
    2.655    9.5138
    2.670    9.6893
    2.685    9.4085
    2.700    9.4436
    2.715    9.8122
    2.730    9.0925
    2.745    8.9521
    2.760    8.8468
    2.775    9.3558
    2.790    8.7941
    2.805    8.7941
    2.820    8.6712
    2.835    8.5659
    2.850    8.8994
    2.865    8.7941
    2.880    9.3558
    2.895    8.4430
    2.910    9.0574
    2.925    9.1276
    2.940    8.8292
    2.955    8.6888
    2.970    8.7063
    2.985    8.6888
    3.000    8.2149
    3.015    8.6537
    3.030    8.5659
    3.045    7.9867
    3.060    8.1973
    3.075    8.9170
    3.090    8.4957
    3.105    8.3026
    3.120    8.4606
    3.135    8.9170
    3.150    8.3904
    3.165    8.4255
    3.180    7.9691
    3.195    8.4957
    3.210    8.5659
    3.225    7.7058
    3.240    7.9516
    3.255    8.3728
    3.270    8.3026
    3.285    8.6537
    3.300    8.7765
    3.315    8.0744
    3.330    7.7409
    3.345    8.2851
    3.360    7.7409
    3.375    8.3553
    3.390    8.6537
    3.405    7.8813
    3.420    8.3202
    3.435    8.3377
    3.450    8.3377
    3.465    8.7063
    3.480    8.5659
    3.495    7.6180
    3.510    7.4601
    3.525    8.2675
    3.540    7.7936
    3.555    7.9867
    3.570    8.6361
    3.585    8.8819
    3.600    7.8638
    3.615    7.8989
    3.630    8.5659
    3.645    7.7936
    3.660    7.9340
    3.675    8.0744
    3.690    8.3904
    3.705    8.3553
    3.720    8.5835
    3.735    7.8111
    3.750    8.0218
    3.765    8.3553
    3.780    8.4255
    3.795    8.4430
    3.810    8.5835
    3.825    8.4430
    3.840    8.4079
    3.855    8.4606
    3.870    8.1973
    3.885    7.7409
    3.900    7.5303
    3.915    8.3026
    3.930    8.4606
    3.945    8.1271
    3.960    7.6883
    3.975    7.8462
    3.990    8.0744
    4.005    7.7058
    4.020    7.8989
    4.035    8.0218
    4.050    8.2675
    4.065    7.7409
    4.080    7.7058
    4.095    7.2319
    4.110    8.1973
    4.125    8.5308
    4.140    7.6883
    4.155    7.9867
    4.170    8.6537
    4.185    7.9516
    4.200    7.7234
    4.215    7.9691
    4.230    8.0393
    4.245    8.2851
    4.260    8.2324
    4.275    7.9691
    4.290    7.9516
    4.305    7.7760
    4.320    7.8462
    4.335    8.3202
    4.350    7.9164
    4.365    8.1446
    4.380    8.1622
    4.395    7.8287
    4.410    8.0042
    4.425    8.6712
    4.440    8.7239
    4.455    8.2324
    4.470    8.1797
    4.485    7.9867
    4.500    7.9340
    4.515    8.6010
    4.530    8.5835
    4.545    8.2675
    4.560    8.0218
    4.575    7.7936
    4.590    8.0744
    4.605    8.3728
    4.620    8.5484
    4.635    8.0920
    4.650    7.7058
    4.665    7.9516
    4.680    8.3904
    4.695    8.6010
    4.710    9.0750
    4.725    8.6010
    4.740    8.3202
    4.755    7.9691
    4.770    8.3904
    4.785    8.6888
    4.800    8.5133
    4.815    9.0047
    4.830    8.7941
    4.845    8.7765
    4.860    8.6361
    4.875    8.3728
    4.890    8.2149
    4.905    8.1446
    4.920    8.5659
    4.935    8.1622
    4.950    8.4957
    4.965    8.8819
    4.980    8.7941
    4.995    8.9170
    5.010    8.5835
    5.025    8.8819
    5.040    9.4085
    5.055    9.6191
    5.070    9.3558
    5.085    9.9526
    5.100    9.6718
    5.115    9.3909
    5.130    8.6712
    5.145    9.3558
    5.160    9.6367
    5.175    9.3909
    5.190    9.7420
    5.205    9.8824
    5.220    9.9877
    5.235   10.1281
    5.250   10.4090
    5.265   11.3217
    5.280   10.2335
    5.295   10.9005
    5.310   11.3393
    5.325   10.5319
    5.340   10.5670
    5.355   10.6196
    5.370   10.2861
    5.385   10.8303
    5.400   10.1106
    5.415   10.7425
    5.430   11.3042
    5.445   10.9005
    5.460   11.2515
    5.475   10.4792
    5.490   10.9356
    5.505   10.7074
    5.520   10.8478
    5.535   11.3217
    5.550   10.9356
    5.565   11.0058
    5.580   10.3388
    5.595   10.6898
    5.610   10.3388
    5.625   10.7425
    5.640   10.6723
    5.655   10.0930
    5.670   10.2510
    5.685   10.2861
    5.700   10.6021
    5.715   10.4968
    5.730   10.2686
    5.745   10.1281
    5.760    9.5664
    5.775    9.7244
    5.790   10.1983
    5.805    9.7069
    5.820    9.9175
    5.835    9.3909
    5.850    9.0925
    5.865    9.0750
    5.880    9.7069
    5.895    9.3207
    5.910    8.7414
    5.925    8.9696
    5.940    8.9872
    5.955    8.4255
    5.970    8.5133
    5.985    8.0393
    6.000    9.0223
    6.015    8.6361
    6.030    8.4255
    6.045    8.4079
    6.060    8.5659
    6.075    8.1797
    6.090    8.1271
    6.105    8.8994
    6.120    7.8813
    6.135    8.2149
    6.150    7.9164
    6.165    7.9691
    6.180    7.7234
    6.195    7.8287
    6.210    7.8989
    6.225    8.3553
    6.240    7.6883
    6.255    8.4255
    6.270    7.1792
    6.285    7.9516
    6.300    7.8462
    6.315    7.3899
    6.330    7.9867
    6.345    7.7234
    6.360    8.3202
    6.375    7.7234
    6.390    7.8287
    6.405    7.1090
    6.420    7.3372
    6.435    7.6532
    6.450    7.7058
    6.465    7.9516
    6.480    7.4250
    6.495    7.4074
    6.510    7.6356
    6.525    7.3899
    6.540    7.2494
    6.555    8.1095
    6.570    7.3899
    6.585    7.0388
    6.600    7.2143
    6.615    7.1441
    6.630    7.1090
    6.645    7.0563
    6.660    6.4771
    6.675    6.8984
    6.690    6.9686
    6.705    7.7058
    6.720    7.2845
    6.735    7.5478
    6.750    6.9861
    6.765    7.3196
    6.780    6.6351
    6.795    6.6702
    6.810    7.0212
    6.825    7.4601
    6.840    6.9510
    6.855    6.8808
    6.870    6.5298
    6.885    7.1266
    6.900    6.3893
    6.915    6.3191
    6.930    6.8106
    6.945    6.8457
    6.960    7.2494
    6.975    6.7053
    6.990    6.5122
    7.005    6.6702
    7.020    6.4771
    7.035    6.2313
    7.050    6.8457
    7.065    7.3021
    7.080    6.6175
    7.095    6.8106
    7.110    6.2840
    7.125    6.5649
    7.140    6.5122
    7.155    6.4595
    7.170    6.4595
    7.185    6.7404
    7.200    6.3893
    7.215    6.1611
    7.230    6.1611
    7.245    6.2665
    7.260    6.5473
    7.275    6.2138
    7.290    6.3893
    7.305    6.2313
    7.320    6.3191
    7.335    6.5824
    7.350    6.0383
    7.365    5.9681
    7.380    6.2665
    7.395    6.4946
    7.410    6.1085
    7.425    6.0734
    7.440    5.9154
    7.455    6.0032
    7.470    6.7755
    7.485    6.1611
    7.500    6.3367
    7.515    6.3191
    7.530    5.7223
    7.545    5.7399
    7.560    6.3893
    7.575    5.9505
    7.590    6.3542
    7.605    5.7750
    7.620    5.3361
    7.635    5.8803
    7.650    6.0383
    7.665    5.7048
    7.680    6.1085
    7.695    5.4766
    7.710    6.0032
    7.725    6.0207
    7.740    5.8627
    7.755    5.7399
    7.770    5.9154
    7.785    5.5117
    7.800    5.8978
    7.815    5.8803
    7.830    5.2835
    7.845    5.4590
    7.860    5.9329
    7.875    5.7925
    7.890    5.7925
    7.905    5.8978
    7.920    5.7925
    7.935    5.6697
    7.950    5.3361
    7.965    5.6521
    7.980    5.4239
    7.995    5.5468
    8.010    5.4766
    8.025    5.3888
    8.040    5.5994
    8.055    5.5292
    8.070    5.5117
    8.085    5.7925
    8.100    5.5468
    8.115    5.6345
    8.130    5.0904
    8.145    5.8276
    8.160    5.7925
    8.175    6.0558
    8.190    5.6345
    8.205    5.1606
    8.220    4.9149
    8.235    5.6521
    8.250    5.3010
    8.265    5.5994
    8.280    5.4766
    8.295    5.6170
    8.310    5.3712
    8.325    5.3186
    8.340    5.8101
    8.355    5.8803
    8.370    5.3888
    8.385    4.9500
    8.400    5.0728
    8.415    5.7574
    8.430    5.5117
    8.445    5.2659
    8.460    5.3712
    8.475    5.1255
    8.490    4.7393
    8.505    5.0728
    8.520    4.8095
    8.535    4.7744
    8.550    5.4766
    8.565    5.2835
    8.580    5.3186
    8.595    5.1606
    8.610    5.4941
    8.625    4.9149
    8.640    5.0728
    8.655    5.0728
    8.670    5.0553
    8.685    5.0377
    8.700    5.1255
    8.715    5.1606
    8.730    5.7574
    8.745    5.1255
    8.760    4.7393
    8.775    5.1606
    8.790    5.2133
    8.805    5.3712
    8.820    4.8622
    8.835    4.8271
    8.850    5.2835
    8.865    5.4415
    8.880    5.5643
    8.895    5.2484
    8.910    5.1957
    8.925    5.0026
    8.940    4.9851
    8.955    5.1255
    8.970    5.0728
    8.985    5.0728
    9.000    5.2133
    9.015    4.9851
    9.030    5.1606
    9.045    4.7042
    9.060    4.9324
    9.075    5.2133
    9.090    5.1782
    9.105    5.3537
    9.120    5.4064
    9.135    5.0904
    9.150    5.2659
    9.165    4.9149
    9.180    4.9851
    9.195    5.5643
    9.210    4.4234
    9.225    4.9149
    9.240    5.2133
    9.255    5.0202
    9.270    5.4941
    9.285    5.4239
    9.300    4.9500
    9.315    5.1606
    9.330    4.7218
    9.345    4.9851
    9.360    4.9149
    9.375    4.9851
    9.390    5.3010
    9.405    5.0377
    9.420    4.9675
    9.435    4.9675
    9.450    4.6867
    9.465    4.5814
    9.480    5.1255
    9.495    4.8622
    9.510    5.1957
    9.525    5.3712
    9.540    5.1957
    9.555    5.0553
    9.570    4.9324
    9.585    5.1782
    9.600    5.0553
    9.615    5.2484
    9.630    5.3712
    9.645    4.9851
    9.660    5.1606
    9.675    4.8973
    9.690    5.0553
    9.705    5.1957
    9.720    4.7920
    9.735    4.9149
    9.750    5.0202
    9.765    5.1080
    9.780    5.0202
    9.795    5.1080
    9.810    5.1957
    9.825    5.0904
    9.840    5.1957
    9.855    5.2484
    9.870    5.1606
    9.885    4.7569
    9.900    4.6867
    9.915    4.9675
    9.930    5.1431
    9.945    4.8622
    9.960    4.9675
    9.975    5.1255
    9.990    5.0026
   10.005    5.3712
   10.020    5.0026
   10.035    5.1080
   10.050    4.7569
   10.065    5.2308
   10.080    5.0728
   10.095    5.2835
   10.110    4.7218
   10.125    5.0377
   10.140    5.3361
   10.155    5.3361
   10.170    4.9675
   10.185    5.2308
   10.200    5.3361
   10.215    5.1080
   10.230    4.8447
   10.245    4.6691
   10.260    4.9149
   10.275    5.0728
   10.290    5.6872
   10.305    5.0553
   10.320    5.4941
   10.335    5.5468
   10.350    5.2133
   10.365    4.9324
   10.380    4.8271
   10.395    5.0553
   10.410    4.8271
   10.425    4.8271
   10.440    5.2659
   10.455    5.4941
   10.470    5.3712
   10.485    5.1606
   10.500    5.0553
   10.515    5.1957
   10.530    4.8973
   10.545    4.8622
   10.560    5.1606
   10.575    5.7925
   10.590    5.7925
   10.605    5.2308
   10.620    4.6165
   10.635    5.2484
   10.650    5.5117
   10.665    4.8095
   10.680    5.1255
   10.695    5.4590
   10.710    5.0026
   10.725    5.5292
   10.740    4.9851
   10.755    5.2308
   10.770    5.3537
   10.785    5.1782
   10.800    5.2659
   10.815    5.4766
   10.830    5.1080
   10.845    5.3361
   10.860    5.6872
   10.875    5.1080
   10.890    5.3010
   10.905    5.3888
   10.920    5.1782
   10.935    5.6170
   10.950    5.1606
   10.965    5.2484
   10.980    5.0377
   10.995    5.0553
   11.010    5.0728
   11.025    5.5994
   11.040    5.3186
   11.055    5.0553
   11.070    5.3010
   11.085    5.5819
   11.100    5.6521
   11.115    5.8978
   11.130    5.4239
   11.145    5.4590
   11.160    4.7042
   11.175    4.9851
   11.190    5.4239
   11.205    5.4415
   11.220    4.7569
   11.235    4.7393
   11.250    5.0553
   11.265    5.1255
   11.280    5.2308
   11.295    5.2133
   11.310    5.2659
   11.325    5.1080
   11.340    4.9149
   11.355    5.0202
   11.370    5.4941
   11.385    5.4415
   11.400    5.1957
   11.415    4.9324
   11.430    5.0728
   11.445    5.5117
   11.460    5.4239
   11.475    5.2835
   11.490    5.1255
   11.505    5.0728
   11.520    5.1957
   11.535    4.9851
   11.550    5.1606
   11.565    5.3186
   11.580    5.1255
   11.595    4.9851
   11.610    5.1782
   11.625    5.4766
   11.640    5.4415
   11.655    5.2835
   11.670    5.2659
   11.685    4.8798
   11.700    4.7218
   11.715    5.0202
   11.730    5.0904
   11.745    5.3888
   11.760    5.4415
   11.775    5.0553
   11.790    5.0553
   11.805    5.2133
   11.820    5.4590
   11.835    5.3888
   11.850    5.1957
   11.865    4.7569
   11.880    4.9500
   11.895    4.7569
   11.910    5.0904
   11.925    4.8622
   11.940    5.0377
   11.955    5.0026
   11.970    5.1782
   11.985    5.4766
   12.000    5.5117
   12.015    5.4590
   12.030    5.1431
   12.045    4.7218
   12.060    5.0904
   12.075    5.2484
   12.090    5.0026
   12.105    4.9675
   12.120    5.1431
   12.135    5.5292
   12.150    5.0728
   12.165    4.8973
   12.180    5.3888
   12.195    5.1782
   12.210    5.2659
   12.225    4.7920
   12.240    4.9500
   12.255    5.1606
   12.270    5.2484
   12.285    5.0553
   12.300    4.9324
   12.315    5.0553
   12.330    4.8798
   12.345    4.9500
   12.360    5.1431
   12.375    5.2659
   12.390    4.8622
   12.405    4.7218
   12.420    4.9675
   12.435    5.3361
   12.450    5.2133
   12.465    5.1431
   12.480    4.8095
   12.495    4.6691
   12.510    5.1957
   12.525    5.2133
   12.540    4.7569
   12.555    4.5287
   12.570    4.5814
   12.585    5.3361
   12.600    5.5994
   12.615    5.6345
   12.630    5.3010
   12.645    5.1782
   12.660    5.0728
   12.675    4.5814
   12.690    4.5287
   12.705    4.8798
   12.720    4.9675
   12.735    5.1255
   12.750    4.7393
   12.765    5.0202
   12.780    4.7744
   12.795    4.5463
   12.810    4.6516
   12.825    4.3532
   12.840    4.7042
   12.855    4.8798
   12.870    5.0728
   12.885    4.3883
   12.900    4.5638
   12.915    5.1606
   12.930    5.0553
   12.945    4.7920
   12.960    4.7393
   12.975    4.9500
   12.990    5.1080
   13.005    4.8447
   13.020    4.8973
   13.035    5.1957
   13.050    5.0553
   13.065    4.8798
   13.080    4.7920
   13.095    5.0202
   13.110    4.7393
   13.125    4.8095
   13.140    4.5638
   13.155    4.6165
   13.170    4.6867
   13.185    5.0728
   13.200    4.6867
   13.215    4.4760
   13.230    4.5287
   13.245    4.8622
   13.260    5.1255
   13.275    4.9675
   13.290    4.6165
   13.305    5.0553
   13.320    4.5989
   13.335    4.9675
   13.350    4.7218
   13.365    5.1080
   13.380    4.6340
   13.395    4.9324
   13.410    5.0728
   13.425    4.4409
   13.440    5.0026
   13.455    4.8622
   13.470    4.7393
   13.485    4.7042
   13.500    4.4058
   13.515    4.5463
   13.530    5.0026
   13.545    5.0728
   13.560    5.2484
   13.575    5.3361
   13.590    5.0377
   13.605    4.8447
   13.620    5.1957
   13.635    4.8095
   13.650    4.4409
   13.665    4.5463
   13.680    4.7744
   13.695    4.9675
   13.710    4.8798
   13.725    5.0202
   13.740    5.1606
   13.755    5.3010
   13.770    4.6340
   13.785    4.9500
   13.800    5.2835
   13.815    5.0904
   13.830    5.1782
   13.845    5.3361
   13.860    5.3537
   13.875    5.0553
   13.890    4.5111
   13.905    4.8622
   13.920    4.7569
   13.935    5.2659
   13.950    5.6170
   13.965    4.8447
   13.980    5.2659
   13.995    5.0728
   14.010    5.1080
   14.025    4.6340
   14.040    5.1431
   14.055    5.1957
   14.070    5.0377
   14.085    4.7569
   14.100    5.4064
   14.115    5.2308
   14.130    4.9675
   14.145    4.8447
   14.160    5.1255
   14.175    5.3712
   14.190    5.1606
   14.205    5.0026
   14.220    5.0202
   14.235    5.1782
   14.250    5.2484
   14.265    5.5292
   14.280    5.0904
   14.295    5.3361
   14.310    5.4064
   14.325    5.3712
   14.340    5.0553
   14.355    5.4064
   14.370    5.6697
   14.385    5.4766
   14.400    5.3361
   14.415    5.2308
   14.430    5.5819
   14.445    5.1957
   14.460    5.2133
   14.475    5.4415
   14.490    5.2835
   14.505    5.3186
   14.520    5.6345
   14.535    5.0904
   14.550    5.3712
   14.565    5.4415
   14.580    5.4239
   14.595    5.3361
   14.610    5.3888
   14.625    4.9500
   14.640    5.2308
   14.655    5.3010
   14.670    4.9149
   14.685    4.5463
   14.700    5.0202
   14.715    4.7920
   14.730    4.7569
   14.745    4.9851
   14.760    5.2484
   14.775    4.8622
   14.790    5.0377
   14.805    5.1606
   14.820    5.2484
   14.835    5.0202
   14.850    4.8447
   14.865    5.3186
   14.880    5.3888
   14.895    4.9500
   14.910    5.1606
   14.925    4.8447
   14.940    4.9500
   14.955    4.9149
   14.970    4.4585
   14.985    4.5463
   15.000    4.8973
   15.015    4.6516
   15.030    4.7393
   15.045    4.7393
   15.060    4.7920
   15.075    5.0026
   15.090    4.8622
   15.105    5.0026
   15.120    4.9324
   15.135    4.9675
   15.150    5.0904
   15.165    4.7393
   15.180    4.8447
   15.195    4.6867
   15.210    4.9500
   15.225    4.9500
   15.240    4.8447
   15.255    5.0202
   15.270    5.0553
   15.285    4.8622
   15.300    4.7744
   15.315    5.2484
   15.330    5.2835
   15.345    5.3010
   15.360    4.7920
   15.375    4.5814
   15.390    4.4936
   15.405    4.5814
   15.420    5.1255
   15.435    4.4409
   15.450    4.3356
   15.465    4.7569
   15.480    4.8271
   15.495    4.8973
   15.510    4.9500
   15.525    5.0202
   15.540    4.7042
   15.555    4.3005
   15.570    4.8973
   15.585    4.8447
   15.600    4.6340
   15.615    5.1431
   15.630    4.9851
   15.645    4.6516
   15.660    4.9149
   15.675    4.3181
   15.690    4.7744
   15.705    4.6691
   15.720    4.8447
   15.735    4.8447
   15.750    4.8447
   15.765    4.7393
   15.780    4.8095
   15.795    4.5287
   15.810    5.0377
   15.825    4.9324
   15.840    4.6691
   15.855    4.5638
   15.870    4.8622
   15.885    4.6867
   15.900    4.9324
   15.915    4.6516
   15.930    4.8271
   15.945    4.7744
   15.960    4.6516
   15.975    4.5463
   15.990    4.8095
   16.005    4.8095
   16.020    5.0202
   16.035    4.9851
   16.050    4.8447
   16.065    4.8095
   16.080    4.7042
   16.095    5.0553
   16.110    4.7218
   16.125    4.9500
   16.140    4.8622
   16.155    4.5989
   16.170    4.4936
   16.185    4.7744
   16.200    4.4936
   16.215    4.6691
   16.230    5.2133
   16.245    5.1957
   16.260    4.6691
   16.275    4.5638
   16.290    4.8447
   16.305    5.1080
   16.320    4.9324
   16.335    4.4760
   16.350    4.7393
   16.365    4.6340
   16.380    4.7920
   16.395    4.6340
   16.410    5.0026
   16.425    4.6165
   16.440    4.5989
   16.455    4.5111
   16.470    4.8798
   16.485    4.6867
   16.500    4.7218
   16.515    4.8271
   16.530    4.9324
   16.545    4.5814
   16.560    4.2830
   16.575    4.3356
   16.590    4.5287
   16.605    4.8095
   16.620    5.0202
   16.635    4.6691
   16.650    4.5638
   16.665    4.8271
   16.680    5.0553
   16.695    4.8095
   16.710    4.4585
   16.725    4.5463
   16.740    4.8622
   16.755    4.7218
   16.770    4.3707
   16.785    4.7744
   16.800    4.8095
   16.815    4.9851
   16.830    4.7569
   16.845    4.5989
   16.860    4.7218
   16.875    4.6516
   16.890    4.9500
   16.905    4.9500
   16.920    5.0377
   16.935    4.8095
   16.950    4.8095
   16.965    4.5111
   16.980    4.6165
   16.995    4.4585
   17.010    5.0553
   17.025    4.8271
   17.040    4.4585
   17.055    4.4409
   17.070    4.8447
   17.085    4.7042
   17.100    4.7744
   17.115    4.9851
   17.130    4.6516
   17.145    4.3532
   17.160    4.3532
   17.175    4.0899
   17.190    4.5287
   17.205    4.5814
   17.220    4.6867
   17.235    4.7218
   17.250    4.5989
   17.265    4.9500
   17.280    4.6165
   17.295    4.7920
   17.310    4.6867
   17.325    5.0026
   17.340    4.7042
   17.355    4.5287
   17.370    4.7042
   17.385    4.9149
   17.400    5.2308
   17.415    4.7393
   17.430    4.7393
   17.445    4.8798
   17.460    4.5638
   17.475    5.0377
   17.490    5.0202
   17.505    5.0728
   17.520    5.0904
   17.535    4.5989
   17.550    4.5287
   17.565    4.3181
   17.580    4.7393
   17.595    5.0377
   17.610    4.9675
   17.625    4.6867
   17.640    4.5463
   17.655    4.3356
   17.670    4.8095
   17.685    4.7569
   17.700    4.8271
   17.715    4.6165
   17.730    4.7920
   17.745    5.0728
   17.760    4.9324
   17.775    4.8447
   17.790    4.5111
   17.805    4.6691
   17.820    4.7393
   17.835    5.0026
   17.850    4.7920
   17.865    4.4585
   17.880    4.3356
   17.895    4.4760
   17.910    4.2478
   17.925    4.4760
   17.940    4.5287
   17.955    4.6165
   17.970    4.5111
   17.985    4.5463
   18.000    4.7218
   18.015    4.4585
   18.030    4.8973
   18.045    4.6691
   18.060    4.4234
   18.075    4.2478
   18.090    4.6867
   18.105    4.5111
   18.120    4.6516
   18.135    4.2830
   18.150    4.7042
   18.165    4.5111
   18.180    4.6340
   18.195    5.1080
   18.210    4.7042
   18.225    4.3005
   18.240    4.5814
   18.255    4.9675
   18.270    4.7744
   18.285    4.3707
   18.300    4.7393
   18.315    4.6516
   18.330    4.6691
   18.345    4.8973
   18.360    4.4234
   18.375    5.0026
   18.390    4.6691
   18.405    4.6340
   18.420    4.4760
   18.435    4.6340
   18.450    4.5463
   18.465    4.5111
   18.480    4.5814
   18.495    4.6340
   18.510    4.3883
   18.525    4.2654
   18.540    4.7042
   18.555    4.5463
   18.570    4.6165
   18.585    4.3707
   18.600    4.8622
   18.615    4.6165
   18.630    4.6165
   18.645    4.8798
   18.660    4.4585
   18.675    4.4409
   18.690    5.0904
   18.705    4.8095
   18.720    5.0728
   18.735    4.5111
   18.750    4.5638
   18.765    4.5814
   18.780    4.8095
   18.795    4.5111
   18.810    4.0899
   18.825    5.0377
   18.840    4.8798
   18.855    4.5287
   18.870    4.4936
   18.885    4.4760
   18.900    4.7218
   18.915    4.9500
   18.930    4.0372
   18.945    4.6867
   18.960    4.9324
   18.975    5.0377
   18.990    4.8798
   19.005    4.5287
   19.020    5.0728
   19.035    4.9500
   19.050    4.8447
   19.065    4.6691
   19.080    4.7569
   19.095    4.4409
   19.110    4.2303
   19.125    4.2127
   19.140    4.6340
   19.155    4.4234
   19.170    4.5638
   19.185    4.3181
   19.200    4.1601
   19.215    4.7393
   19.230    4.8622
   19.245    4.8095
   19.260    4.4409
   19.275    4.2478
   19.290    4.5287
   19.305    4.4409
   19.320    4.4585
   19.335    4.4760
   19.350    4.3532
   19.365    4.5287
   19.380    4.5638
   19.395    4.6516
   19.410    4.2654
   19.425    4.3356
   19.440    4.1074
   19.455    4.3181
   19.470    4.7920
   19.485    4.6516
   19.500    4.5989
   19.515    4.6867
   19.530    4.4936
   19.545    4.6516
   19.560    4.0372
   19.575    4.0197
   19.590    4.6165
   19.605    4.2478
   19.620    4.1250
   19.635    4.4585
   19.650    4.5287
   19.665    4.4760
   19.680    4.4585
   19.695    4.5111
   19.710    4.0548
   19.725    4.4234
   19.740    4.4409
   19.755    4.3532
   19.770    4.4234
   19.785    4.1601
   19.800    4.2830
   19.815    4.2303
   19.830    4.1250
   19.845    4.0548
   19.860    4.5989
   19.875    4.2303
   19.890    4.3356
   19.905    4.4234
   19.920    4.1601
   19.935    4.5814
   19.950    4.2654
   19.965    4.1425
   19.980    4.2127
   19.995    4.4760
   20.010    4.9500
   20.025    5.0377
   20.040    4.4409
   20.055    4.8271
   20.070    4.3181
   20.085    3.9670
   20.100    4.3005
   20.115    4.3005
   20.130    4.3181
   20.145    4.0548
   20.160    4.3883
   20.175    4.2654
   20.190    4.2478
   20.205    4.3181
   20.220    4.3707
   20.235    4.3005
   20.250    3.8266
   20.265    4.3532
   20.280    3.9670
   20.295    4.2303
   20.310    4.3532
   20.325    4.3181
   20.340    4.5814
   20.355    4.6340
   20.370    4.3883
   20.385    4.6165
   20.400    4.4234
   20.415    4.0021
   20.430    4.1074
   20.445    4.5814
   20.460    4.2478
   20.475    4.5287
   20.490    4.2830
   20.505    4.0548
   20.520    4.3707
   20.535    4.3707
   20.550    4.2127
   20.565    4.3707
   20.580    4.2478
   20.595    4.3532
   20.610    3.8792
   20.625    4.2303
   20.640    3.9846
   20.655    3.9846
   20.670    3.8792
   20.685    3.9670
   20.700    4.1074
   20.715    4.2127
   20.730    4.0021
   20.745    4.2654
   20.760    4.3707
   20.775    4.3883
   20.790    4.4936
   20.805    4.2478
   20.820    4.8095
   20.835    4.6516
   20.850    3.9670
   20.865    4.0372
   20.880    3.9143
   20.895    4.0197
   20.910    4.1074
   20.925    4.0021
   20.940    4.1601
   20.955    4.5287
   20.970    4.3356
   20.985    4.2127
   21.000    4.3532
   21.015    4.1776
   21.030    3.9494
   21.045    3.9494
   21.060    4.0372
   21.075    4.4058
   21.090    4.4585
   21.105    4.3707
   21.120    4.3356
   21.135    4.4585
   21.150    4.5111
   21.165    4.1776
   21.180    4.4585
   21.195    4.1425
   21.210    4.4058
   21.225    4.3356
   21.240    4.2127
   21.255    4.2127
   21.270    4.1601
   21.285    4.2127
   21.300    4.4058
   21.315    4.0899
   21.330    4.2303
   21.345    4.2478
   21.360    3.7915
   21.375    3.8266
   21.390    4.0899
   21.405    4.6691
   21.420    4.5463
   21.435    3.7915
   21.450    3.9846
   21.465    3.9319
   21.480    3.7915
   21.495    3.8792
   21.510    3.9846
   21.525    3.9319
   21.540    3.4931
   21.555    4.3707
   21.570    4.0021
   21.585    4.0372
   21.600    4.1425
   21.615    4.1074
   21.630    4.0197
   21.645    3.9846
   21.660    4.2127
   21.675    4.4234
   21.690    4.0021
   21.705    4.3532
   21.720    4.4058
   21.735    4.2303
   21.750    4.2830
   21.765    4.2830
   21.780    3.7739
   21.795    4.2654
   21.810    4.1952
   21.825    4.1776
   21.840    4.3356
   21.855    4.5463
   21.870    4.4234
   21.885    4.0548
   21.900    4.2303
   21.915    4.5638
   21.930    4.3707
   21.945    4.1074
   21.960    4.2478
   21.975    4.3005
   21.990    4.1776
   22.005    4.1250
   22.020    4.3181
   22.035    4.3181
   22.050    4.1601
   22.065    4.3707
   22.080    4.0197
   22.095    4.4409
   22.110    4.1074
   22.125    4.2654
   22.140    4.0372
   22.155    3.8792
   22.170    3.6510
   22.185    4.3356
   22.200    4.0899
   22.215    3.7037
   22.230    3.6686
   22.245    3.9143
   22.260    3.7037
   22.275    3.4755
   22.290    4.0372
   22.305    4.3005
   22.320    3.9143
   22.335    3.8968
   22.350    4.1601
   22.365    3.9846
   22.380    3.9143
   22.395    3.9319
   22.410    4.1074
   22.425    4.1250
   22.440    3.7037
   22.455    3.4580
   22.470    3.7915
   22.485    3.8792
   22.500    4.2127
   22.515    3.7915
   22.530    4.0197
   22.545    3.7915
   22.560    4.0372
   22.575    4.0548
   22.590    3.9670
   22.605    3.7388
   22.620    4.1425
   22.635    3.8441
   22.650    3.7564
   22.665    4.0372
   22.680    3.8441
   22.695    3.7213
   22.710    4.0548
   22.725    3.9846
   22.740    4.1250
   22.755    3.9670
   22.770    3.8441
   22.785    3.7739
   22.800    3.7564
   22.815    4.3883
   22.830    3.6862
   22.845    3.8968
   22.860    4.0372
   22.875    3.9143
   22.890    4.0372
   22.905    4.1425
   22.920    3.7739
   22.935    4.0197
   22.950    3.8617
   22.965    3.7037
   22.980    3.6510
   22.995    3.7213
   23.010    3.8090
   23.025    3.6335
   23.040    3.9670
   23.055    4.1776
   23.070    3.5984
   23.085    3.6159
   23.100    4.1601
   23.115    4.1952
   23.130    3.9670
   23.145    3.5808
   23.160    3.7915
   23.175    4.1601
   23.190    4.0548
   23.205    4.0548
   23.220    3.8792
   23.235    3.6159
   23.250    3.7388
   23.265    3.8266
   23.280    4.1425
   23.295    3.6159
   23.310    3.7564
   23.325    3.7915
   23.340    3.8441
   23.355    3.8792
   23.370    3.5808
   23.385    3.5633
   23.400    3.5808
   23.415    3.7037
   23.430    4.3532
   23.445    4.1250
   23.460    4.0372
   23.475    3.5106
   23.490    3.4229
   23.505    3.8266
   23.520    3.9143
   23.535    3.6159
   23.550    3.4755
   23.565    3.6686
   23.580    3.5984
   23.595    3.8441
   23.610    3.7739
   23.625    3.5633
   23.640    3.6510
   23.655    3.4404
   23.670    3.8968
   23.685    3.8441
   23.700    3.5808
   23.715    3.5633
   23.730    3.3526
   23.745    3.3175
   23.760    3.8441
   23.775    3.5808
   23.790    3.7739
   23.805    4.0372
   23.820    3.8266
   23.835    3.7915
   23.850    3.5984
   23.865    3.4755
   23.880    3.3000
   23.895    3.7037
   23.910    3.6335
   23.925    3.7388
   23.940    4.0548
   23.955    3.5633
   23.970    3.7037
   23.985    3.8090
   24.000    3.6335
   24.015    3.6862
   24.030    3.4404
   24.045    3.6862
   24.060    3.9319
   24.075    3.8968
   24.090    3.9143
   24.105    3.8441
   24.120    3.8441
   24.135    3.7564
   24.150    3.7037
   24.165    3.6510
   24.180    3.5633
   24.195    3.3351
   24.210    3.8968
   24.225    3.8441
   24.240    3.7739
   24.255    3.3526
   24.270    3.9494
   24.285    3.7388
   24.300    3.5457
   24.315    3.4229
   24.330    3.3000
   24.345    3.6159
   24.360    3.7915
   24.375    3.7564
   24.390    3.4580
   24.405    3.7388
   24.420    3.7739
   24.435    3.3702
   24.450    3.4931
   24.465    3.5457
   24.480    3.7388
   24.495    3.4404
   24.510    3.6686
   24.525    3.7564
   24.540    3.4755
   24.555    3.4229
   24.570    3.7739
   24.585    3.7915
   24.600    3.4931
   24.615    3.4580
   24.630    3.7915
   24.645    3.8266
   24.660    3.6510
   24.675    3.5106
   24.690    3.4404
   24.705    3.6159
   24.720    3.4229
   24.735    3.5633
   24.750    3.4755
   24.765    3.6335
   24.780    3.8266
   24.795    3.6686
   24.810    3.3000
   24.825    3.2122
   24.840    3.2473
   24.855    3.5106
   24.870    3.5282
   24.885    3.4053
   24.900    3.5457
   24.915    3.5633
   24.930    3.6510
   24.945    3.3351
   24.960    3.6159
   24.975    3.2824
   24.990    3.2649
   25.005    3.2122
   25.020    3.4229
   25.035    3.5633
   25.050    3.3000
   25.065    3.4229
   25.080    3.3175
   25.095    3.6335
   25.110    3.3175
   25.125    3.6862
   25.140    3.6862
   25.155    3.1596
   25.170    4.0372
   25.185    3.4229
   25.200    3.3526
   25.215    3.2298
   25.230    3.6335
   25.245    3.5808
   25.260    3.5984
   25.275    3.2122
   25.290    3.2649
   25.305    3.6862
   25.320    3.1947
   25.335    3.4931
   25.350    3.4580
   25.365    3.2298
   25.380    3.5282
   25.395    3.4931
   25.410    3.4229
   25.425    3.4580
   25.440    3.5808
   25.455    3.6862
   25.470    3.6335
   25.485    3.5106
   25.500    3.4229
   25.515    3.7037
   25.530    3.6686
   25.545    3.5282
   25.560    3.6159
   25.575    3.4229
   25.590    3.4404
   25.605    3.4053
   25.620    3.5808
   25.635    3.5106
   25.650    3.7213
   25.665    3.7388
   25.680    3.3351
   25.695    3.5633
   25.710    3.6686
   25.725    3.2298
   25.740    3.5633
   25.755    3.4755
   25.770    3.4931
   25.785    3.4580
   25.800    3.7739
   25.815    3.4931
   25.830    3.6862
   25.845    3.3877
   25.860    3.5282
   25.875    3.2298
   25.890    3.4404
   25.905    3.3351
   25.920    3.2298
   25.935    3.3175
   25.950    3.4229
   25.965    3.2122
   25.980    3.1771
   25.995    3.3526
   26.010    3.5106
   26.025    3.5633
   26.040    3.5457
   26.055    3.2649
   26.070    3.6862
   26.085    3.6159
   26.100    3.2824
   26.115    3.0542
   26.130    3.0367
   26.145    3.3702
   26.160    3.2824
   26.175    3.2473
   26.190    3.4404
   26.205    3.5106
   26.220    3.2298
   26.235    3.6159
   26.250    3.4053
   26.265    3.1245
   26.280    3.3175
   26.295    3.3526
   26.310    3.5984
   26.325    3.1947
   26.340    3.2122
   26.355    3.2298
   26.370    3.0718
   26.385    3.2122
   26.400    3.3000
   26.415    2.8963
   26.430    3.2824
   26.445    3.2298
   26.460    3.2298
   26.475    3.3351
   26.490    3.4053
   26.505    3.4229
   26.520    3.4755
   26.535    3.3175
   26.550    3.0893
   26.565    3.2649
   26.580    3.1596
   26.595    3.3702
   26.610    3.6862
   26.625    3.1947
   26.640    2.9840
   26.655    3.3175
   26.670    3.4580
   26.685    3.1947
   26.700    3.2122
   26.715    3.1947
   26.730    3.2824
   26.745    3.1420
   26.760    3.0893
   26.775    2.9314
   26.790    2.8260
   26.805    3.1420
   26.820    3.2649
   26.835    3.2824
   26.850    3.1596
   26.865    2.8085
   26.880    2.9138
   26.895    3.4053
   26.910    3.2649
   26.925    3.1771
   26.940    3.4580
   26.955    3.0718
   26.970    3.1420
   26.985    3.3351
   27.000    3.3351
   27.015    3.0367
   27.030    3.1069
   27.045    3.0016
   27.060    3.0718
   27.075    3.2298
   27.090    2.9665
   27.105    3.0718
   27.120    3.0893
   27.135    2.9665
   27.150    3.2122
   27.165    3.2122
   27.180    3.2298
   27.195    2.8963
   27.210    3.2122
   27.225    3.3000
   27.240    3.1771
   27.255    3.0016
   27.270    3.1420
   27.285    3.2824
   27.300    3.0542
   27.315    3.1596
   27.330    3.0718
   27.345    2.6154
   27.360    2.8787
   27.375    3.1069
   27.390    3.5808
   27.405    3.0542
   27.420    3.1420
   27.435    3.1069
   27.450    3.1596
   27.465    3.0542
   27.480    3.2649
   27.495    3.3877
   27.510    2.7383
   27.525    2.8963
   27.540    2.9489
   27.555    2.9314
   27.570    2.7207
   27.585    3.0542
   27.600    3.0542
   27.615    2.7558
   27.630    2.8085
   27.645    2.8787
   27.660    2.8787
   27.675    2.9314
   27.690    3.0367
   27.705    3.0367
   27.720    3.2473
   27.735    2.9138
   27.750    3.3877
   27.765    3.0191
   27.780    2.8787
   27.795    2.6856
   27.810    2.9665
   27.825    2.9489
   27.840    2.8260
   27.855    2.9665
   27.870    2.9314
   27.885    2.7383
   27.900    2.9489
   27.915    2.7909
   27.930    2.7207
   27.945    3.1420
   27.960    3.1420
   27.975    3.2649
   27.990    3.0191
   28.005    2.7909
   28.020    2.9489
   28.035    2.7383
   28.050    2.7032
   28.065    3.0191
   28.080    2.9138
   28.095    2.7909
   28.110    2.8963
   28.125    2.9489
   28.140    3.0016
   28.155    3.0718
   28.170    2.6681
   28.185    3.0191
   28.200    2.9314
   28.215    2.8963
   28.230    3.0016
   28.245    2.7207
   28.260    2.6681
   28.275    3.0016
   28.290    2.8436
   28.305    2.8085
   28.320    2.7032
   28.335    2.9665
   28.350    3.1420
   28.365    2.9489
   28.380    2.6681
   28.395    2.8963
   28.410    3.1596
   28.425    2.8085
   28.440    2.9665
   28.455    2.9489
   28.470    2.6856
   28.485    2.5979
   28.500    2.6681
   28.515    2.7032
   28.530    2.7383
   28.545    3.3526
   28.560    3.2473
   28.575    3.1771
   28.590    3.3000
   28.605    2.7383
   28.620    3.0893
   28.635    2.9840
   28.650    2.8436
   28.665    2.9138
   28.680    2.5628
   28.695    2.8787
   28.710    2.7032
   28.725    2.9489
   28.740    3.0542
   28.755    2.8787
   28.770    2.7383
   28.785    2.6681
   28.800    2.7207
   28.815    2.9489
   28.830    2.9489
   28.845    2.9489
   28.860    2.6856
   28.875    2.6856
   28.890    2.9665
   28.905    3.1596
   28.920    3.5984
   28.935    3.4053
   28.950    3.0893
   28.965    3.2122
   28.980    3.0016
   28.995    2.9489
   29.010    3.1771
   29.025    2.8436
   29.040    2.9489
   29.055    2.9665
   29.070    2.6154
   29.085    3.1245
   29.100    2.8436
   29.115    3.1069
   29.130    2.9489
   29.145    2.9840
   29.160    2.7734
   29.175    2.8612
   29.190    2.9138
   29.205    2.7207
   29.220    2.8963
   29.235    2.9489
   29.250    2.9840
   29.265    2.7032
   29.280    2.7909
   29.295    2.5803
   29.310    2.8436
   29.325    2.7909
   29.340    2.7558
   29.355    2.5979
   29.370    2.7032
   29.385    2.5452
   29.400    2.6505
   29.415    3.0542
   29.430    2.9314
   29.445    2.7207
   29.460    2.5628
   29.475    2.5979
   29.490    2.8260
   29.505    2.8612
   29.520    2.5452
   29.535    2.7383
   29.550    2.9665
   29.565    2.7383
   29.580    2.4574
   29.595    2.8085
   29.610    2.5803
   29.625    2.7734
   29.640    2.3521
   29.655    2.5101
   29.670    2.5101
   29.685    2.5979
   29.700    2.7734
   29.715    2.5979
   29.730    2.5452
   29.745    2.5803
   29.760    2.5101
   29.775    2.4223
   29.790    2.6154
   29.805    2.4048
   29.820    2.3697
   29.835    2.7032
   29.850    2.7032
   29.865    2.7207
   29.880    2.2643
   29.895    2.5628
   29.910    2.5452
   29.925    2.4925
   29.940    2.7909
   29.955    2.4399
   29.970    2.2643
   29.985    2.4048
   30.000    2.6154
   30.015    2.2643
   30.030    2.4223
   30.045    2.3346
   30.060    2.5276
   30.075    2.5101
   30.090    2.4750
   30.105    2.5452
   30.120    2.4574
   30.135    2.3697
   30.150    2.5276
   30.165    2.4925
   30.180    2.5276
   30.195    2.5276
   30.210    2.4574
   30.225    2.4925
   30.240    2.4048
   30.255    2.3170
   30.270    2.2643
   30.285    2.8085
   30.300    2.6154
   30.315    2.7032
   30.330    2.6330
   30.345    2.2292
   30.360    2.3521
   30.375    2.4048
   30.390    2.4574
   30.405    2.4399
   30.420    2.6330
   30.435    2.3346
   30.450    2.5101
   30.465    2.2995
   30.480    2.4925
   30.495    2.6505
   30.510    2.7032
   30.525    2.5452
   30.540    2.6856
   30.555    2.6856
   30.570    2.4574
   30.585    2.5979
   30.600    2.3346
   30.615    2.3521
   30.630    2.5803
   30.645    2.3872
   30.660    2.2643
   30.675    2.4750
   30.690    2.4925
   30.705    2.2117
   30.720    2.1941
   30.735    2.2292
   30.750    2.4750
   30.765    2.6856
   30.780    2.6856
   30.795    2.5979
   30.810    2.5452
   30.825    2.4399
   30.840    2.3346
   30.855    2.2995
   30.870    2.6154
   30.885    2.4048
   30.900    2.4048
   30.915    2.5452
   30.930    2.4223
   30.945    2.3521
   30.960    2.1064
   30.975    2.3872
   30.990    2.2468
   31.005    2.2995
   31.020    2.1941
   31.035    2.1941
   31.050    2.0362
   31.065    2.3872
   31.080    2.3521
   31.095    2.0713
   31.110    2.1766
   31.125    2.4223
   31.140    2.3346
   31.155    2.5101
   31.170    2.2468
   31.185    2.2995
   31.200    2.4223
   31.215    2.0888
   31.230    2.0888
   31.245    2.4925
   31.260    2.5101
   31.275    2.4925
   31.290    2.1415
   31.305    2.2995
   31.320    2.2995
   31.335    2.4048
   31.350    2.2643
   31.365    2.2117
   31.380    2.1415
   31.395    2.5803
   31.410    2.2819
   31.425    2.1590
   31.440    2.3697
   31.455    2.4223
   31.470    2.5101
   31.485    2.1415
   31.500    2.1766
   31.515    2.3170
   31.530    2.0537
   31.545    2.0888
   31.560    2.3170
   31.575    2.2292
   31.590    2.5101
   31.605    2.2643
   31.620    2.3872
   31.635    2.1941
   31.650    2.1941
   31.665    2.0362
   31.680    1.9659
   31.695    2.1239
   31.710    2.1239
   31.725    2.1064
   31.740    2.1590
   31.755    2.2995
   31.770    2.3170
   31.785    2.5101
   31.800    2.4574
   31.815    2.5276
   31.830    2.1415
   31.845    2.3872
   31.860    2.1766
   31.875    2.1590
   31.890    2.1415
   31.905    2.1766
   31.920    2.1415
   31.935    2.2995
   31.950    2.4048
   31.965    2.1590
   31.980    2.1766
   31.995    2.2117
   32.010    2.2117
   32.025    2.5276
   32.040    2.8612
   32.055    2.8085
   32.070    2.6681
   32.085    2.7207
   32.100    2.7207
   32.115    2.7207
   32.130    2.2995
   32.145    2.2468
   32.160    2.4574
   32.175    2.3170
   32.190    2.3346
   32.205    2.3521
   32.220    2.2468
   32.235    2.2995
   32.250    1.9484
   32.265    1.7729
   32.280    1.9133
   32.295    2.2995
   32.310    2.3346
   32.325    2.1415
   32.340    2.0537
   32.355    2.1239
   32.370    2.2995
   32.385    2.1415
   32.400    2.4048
   32.415    2.1064
   32.430    2.0888
   32.445    2.1941
   32.460    2.3170
   32.475    2.2117
   32.490    1.9835
   32.505    2.3521
   32.520    2.4925
   32.535    2.2819
   32.550    2.4399
   32.565    2.1239
   32.580    2.4048
   32.595    2.1590
   32.610    2.0888
   32.625    1.8255
   32.640    1.7904
   32.655    2.0537
   32.670    2.1941
   32.685    2.2292
   32.700    2.1415
   32.715    1.9133
   32.730    2.0186
   32.745    2.1415
   32.760    2.1941
   32.775    2.1239
   32.790    2.4574
   32.805    2.0537
   32.820    2.1239
   32.835    2.2117
   32.850    2.1590
   32.865    2.0713
   32.880    2.1415
   32.895    2.1590
   32.910    1.9308
   32.925    1.7729
   32.940    1.9484
   32.955    1.8782
   32.970    2.0362
   32.985    2.3872
   33.000    2.1766
   33.015    2.1239
   33.030    1.8957
   33.045    1.8782
   33.060    2.2819
   33.075    2.5101
   33.090    2.3170
   33.105    2.4750
   33.120    2.2292
   33.135    2.1064
   33.150    2.0186
   33.165    2.0362
   33.180    1.8782
   33.195    2.0537
   33.210    2.2117
   33.225    1.8606
   33.240    2.0713
   33.255    2.1064
   33.270    2.4048
   33.285    2.1766
   33.300    2.1590
   33.315    2.0186
   33.330    2.3872
   33.345    2.1064
   33.360    2.3346
   33.375    2.0362
   33.390    2.0537
   33.405    2.1239
   33.420    2.1064
   33.435    1.9308
   33.450    2.1239
   33.465    1.8606
   33.480    1.9308
   33.495    1.9308
   33.510    2.0537
   33.525    2.2468
   33.540    2.2995
   33.555    2.0537
   33.570    1.9484
   33.585    1.9484
   33.600    1.9308
   33.615    2.2117
   33.630    2.0713
   33.645    1.7202
   33.660    1.9484
   33.675    1.9133
   33.690    2.0011
   33.705    2.0011
   33.720    1.8957
   33.735    2.1766
   33.750    2.2643
   33.765    2.2995
   33.780    2.0537
   33.795    2.0011
   33.810    2.0888
   33.825    2.0888
   33.840    1.8782
   33.855    1.7553
   33.870    1.8080
   33.885    1.9133
   33.900    1.9835
   33.915    1.8957
   33.930    1.7729
   33.945    1.7202
   33.960    1.7553
   33.975    1.9835
   33.990    1.9133
   34.005    1.9835
   34.020    1.9659
   34.035    2.2995
   34.050    2.0888
   34.065    1.8255
   34.080    1.9659
   34.095    1.9835
   34.110    2.1415
   34.125    2.0537
   34.140    1.9835
   34.155    2.1415
   34.170    2.4925
   34.185    1.9308
   34.200    2.1941
   34.215    1.7904
   34.230    2.1590
   34.245    2.1239
   34.260    2.1064
   34.275    1.9133
   34.290    1.8957
   34.305    2.1064
   34.320    1.7553
   34.335    2.0537
   34.350    2.0011
   34.365    2.2468
   34.380    2.0713
   34.395    1.9659
   34.410    2.0362
   34.425    1.8606
   34.440    1.8606
   34.455    1.8782
   34.470    2.0362
   34.485    2.0888
   34.500    1.9308
   34.515    1.8606
   34.530    2.1415
   34.545    1.8080
   34.560    1.9484
   34.575    1.9308
   34.590    2.1590
   34.605    2.1064
   34.620    2.1239
   34.635    2.2292
   34.650    2.0713
   34.665    2.0011
   34.680    2.0537
   34.695    2.1415
   34.710    1.8957
   34.725    1.7904
   34.740    1.7378
   34.755    1.9484
   34.770    1.9133
   34.785    1.8431
   34.800    1.8431
   34.815    1.9484
   34.830    1.9133
   34.845    2.0537
   34.860    1.9133
   34.875    1.8782
   34.890    1.7378
   34.905    1.9133
   34.920    1.8255
   34.935    2.0888
   34.950    2.2117
   34.965    1.8957
   34.980    1.9484
   34.995    1.9484
   35.010    1.8606
   35.025    2.1239
   35.040    2.0888
   35.055    2.1941
   35.070    1.8255
   35.085    1.8782
   35.100    1.8255
   35.115    2.0011
   35.130    2.0537
   35.145    1.7553
   35.160    2.0537
   35.175    2.2643
   35.190    1.8957
   35.205    2.0713
   35.220    2.2643
   35.235    2.1766
   35.250    1.7202
   35.265    2.0537
   35.280    1.7553
   35.295    2.2292
   35.310    2.1941
   35.325    2.1415
   35.340    2.1239
   35.355    1.7378
   35.370    1.9835
   35.385    1.9133
   35.400    2.0362
   35.415    2.1415
   35.430    1.7553
   35.445    1.8957
   35.460    2.0713
   35.475    2.0186
   35.490    2.1590
   35.505    2.0011
   35.520    2.0186
   35.535    1.9133
   35.550    1.9308
   35.565    2.1415
   35.580    1.8957
   35.595    1.8606
   35.610    2.1941
   35.625    2.0888
   35.640    1.7027
   35.655    1.7553
   35.670    2.1415
   35.685    2.2292
   35.700    2.1064
   35.715    2.0186
   35.730    2.0011
   35.745    2.1239
   35.760    1.9835
   35.775    1.9484
   35.790    1.7202
   35.805    1.8957
   35.820    1.8957
   35.835    1.9308
   35.850    2.0888
   35.865    2.0362
   35.880    2.1064
   35.895    1.7729
   35.910    1.8606
   35.925    2.0713
   35.940    2.0888
   35.955    1.7729
   35.970    1.9308
   35.985    2.0713
   36.000    2.0362
   36.015    1.8431
   36.030    1.8080
   36.045    1.8606
   36.060    2.0186
   36.075    1.9308
   36.090    1.7729
   36.105    1.8606
   36.120    1.7904
   36.135    2.2819
   36.150    2.0713
   36.165    1.9133
   36.180    1.9484
   36.195    1.9659
   36.210    1.7729
   36.225    1.9835
   36.240    1.9659
   36.255    1.7904
   36.270    1.8606
   36.285    2.1064
   36.300    1.8606
   36.315    1.8957
   36.330    1.9484
   36.345    1.9484
   36.360    1.8782
   36.375    1.8431
   36.390    1.5622
   36.405    1.7904
   36.420    1.9133
   36.435    2.1064
   36.450    2.1590
   36.465    2.1239
   36.480    1.8606
   36.495    1.9308
   36.510    1.8431
   36.525    1.9659
   36.540    2.0888
   36.555    2.0362
   36.570    2.0011
   36.585    1.7027
   36.600    2.1064
   36.615    1.8255
   36.630    1.7729
   36.645    2.0186
   36.660    1.8255
   36.675    2.0011
   36.690    1.6851
   36.705    1.7904
   36.720    2.0186
   36.735    1.8957
   36.750    1.8606
   36.765    1.8782
   36.780    1.7729
   36.795    1.9308
   36.810    1.6500
   36.825    1.8431
   36.840    1.8606
   36.855    1.9308
   36.870    1.7904
   36.885    2.0537
   36.900    1.6675
   36.915    1.7904
   36.930    1.9835
   36.945    1.7378
   36.960    1.8606
   36.975    1.8606
   36.990    1.7904
   37.005    1.9308
   37.020    2.0186
   37.035    1.9659
   37.050    1.6675
   37.065    2.0713
   37.080    2.0186
   37.095    1.9835
   37.110    2.1415
   37.125    1.8431
   37.140    1.7027
   37.155    1.4745
   37.170    1.7729
   37.185    1.7729
   37.200    2.0362
   37.215    1.9484
   37.230    1.5973
   37.245    1.8431
   37.260    1.7904
   37.275    1.9308
   37.290    1.8957
   37.305    1.7729
   37.320    1.9835
   37.335    1.5798
   37.350    1.7553
   37.365    1.7378
   37.380    1.8431
   37.395    1.8606
   37.410    1.9659
   37.425    2.0362
   37.440    1.8957
   37.455    1.8782
   37.470    1.6851
   37.485    1.7027
   37.500    1.8606
   37.515    2.0011
   37.530    1.7904
   37.545    1.8957
   37.560    1.7553
   37.575    1.7729
   37.590    1.8606
   37.605    1.8080
   37.620    1.8957
   37.635    1.6851
   37.650    1.9659
   37.665    2.0011
   37.680    1.9835
   37.695    1.7202
   37.710    1.6149
   37.725    1.7202
   37.740    1.6675
   37.755    1.9133
   37.770    1.7729
   37.785    1.9308
   37.800    1.5798
   37.815    1.7729
   37.830    1.7729
   37.845    1.7202
   37.860    1.8080
   37.875    2.0362
   37.890    1.5973
   37.905    1.6500
   37.920    2.1064
   37.935    1.9659
   37.950    1.6851
   37.965    1.8431
   37.980    1.7553
   37.995    1.6851
   38.010    1.7027
   38.025    1.6149
   38.040    1.7027
   38.055    1.6149
   38.070    1.8431
   38.085    1.8957
   38.100    1.8255
   38.115    1.8957
   38.130    1.8255
   38.145    1.5973
   38.160    1.7729
   38.175    1.5798
   38.190    1.6851
   38.205    1.7553
   38.220    1.6500
   38.235    1.8255
   38.250    2.1590
   38.265    2.0011
   38.280    1.7378
   38.295    1.8782
   38.310    1.9835
   38.325    1.6500
   38.340    1.7027
   38.355    1.8782
   38.370    1.9133
   38.385    1.7904
   38.400    1.8606
   38.415    2.0011
   38.430    1.9133
   38.445    2.0888
   38.460    2.1064
   38.475    1.8782
   38.490    1.8431
   38.505    2.0537
   38.520    2.1064
   38.535    1.9484
   38.550    1.8957
   38.565    2.0362
   38.580    1.8782
   38.595    1.8255
   38.610    1.5973
   38.625    1.8957
   38.640    1.7729
   38.655    1.7202
   38.670    1.7553
   38.685    1.8957
   38.700    2.0186
   38.715    1.7202
   38.730    1.6675
   38.745    1.7202
   38.760    2.0713
   38.775    2.0537
   38.790    1.7027
   38.805    2.0537
   38.820    1.8080
   38.835    1.8957
   38.850    1.8606
   38.865    1.9133
   38.880    1.7378
   38.895    1.8431
   38.910    1.8606
   38.925    1.7729
   38.940    1.5973
   38.955    1.7553
   38.970    1.6324
   38.985    1.5622
   39.000    1.7553
   39.015    1.6500
   39.030    1.8255
   39.045    1.3867
   39.060    1.5271
   39.075    1.7904
   39.090    1.7553
   39.105    1.5271
   39.120    1.5798
   39.135    1.6500
   39.150    1.5973
   39.165    1.9484
   39.180    1.5622
   39.195    1.9133
   39.210    2.0713
   39.225    1.9133
   39.240    2.0011
   39.255    1.7378
   39.270    1.7553
   39.285    1.6851
   39.300    1.6324
   39.315    1.7378
   39.330    1.6500
   39.345    1.4569
   39.360    1.6851
   39.375    1.4745
   39.390    1.3165
   39.405    1.7027
   39.420    1.8431
   39.435    1.7378
   39.450    1.7202
   39.465    1.9484
   39.480    1.8782
   39.495    1.8080
   39.510    1.8255
   39.525    1.8957
   39.540    1.6324
   39.555    1.9484
   39.570    1.6851
   39.585    1.6149
   39.600    1.7378
   39.615    1.6149
   39.630    1.6324
   39.645    1.8431
   39.660    1.7027
   39.675    1.8080
   39.690    1.7904
   39.705    1.7202
   39.720    1.7553
   39.735    1.6324
   39.750    1.9308
   39.765    1.8606
   39.780    1.8957
   39.795    1.7553
   39.810    1.7904
   39.825    1.7378
   39.840    1.6324
   39.855    1.7729
   39.870    1.8431
   39.885    1.7904
   39.900    1.6500
   39.915    1.7027
   39.930    1.7027
   39.945    1.7729
   39.960    1.8080
   39.975    1.7202
   39.990    1.7378
