    1.500   53.5440
    1.515   54.8605
    1.530   52.2275
    1.545   50.7741
    1.560   51.1427
    1.575   49.2154
    1.590   48.3307
    1.605   47.5513
    1.620   46.0874
    1.635   44.4444
    1.650   42.8225
    1.665   40.5898
    1.680   40.2106
    1.695   39.4418
    1.710   38.3992
    1.725   38.5361
    1.740   36.4297
    1.755   35.8399
    1.770   34.5866
    1.785   35.2080
    1.800   32.8805
    1.815   33.3123
    1.830   32.4276
    1.845   31.5535
    1.860   30.2580
    1.875   30.1527
    1.890   29.5840
    1.905   28.7941
    1.920   28.3412
    1.935   27.0563
    1.950   26.7720
    1.965   26.3507
    1.980   25.8662
    1.995   24.7183
    2.010   24.1496
    2.025   23.6335
    2.040   23.6440
    2.055   23.2754
    2.070   22.2222
    2.085   22.0853
    2.100   20.9584
    2.115   21.4007
    2.130   20.1580
    2.145   20.2001
    2.160   19.6314
    2.175   19.2628
    2.190   18.6940
    2.205   18.4729
    2.220   18.5361
    2.235   17.9568
    2.250   18.1148
    2.265   17.9463
    2.280   17.3249
    2.295   16.5350
    2.310   17.2091
    2.325   16.9563
    2.340   15.8294
    2.355   15.8504
    2.370   16.4824
    2.385   15.3870
    2.400   15.3133
    2.415   14.5024
    2.430   14.3128
    2.445   14.1864
    2.460   13.9968
    2.475   14.2812
    2.490   13.6493
    2.505   13.5124
    2.520   13.6282
    2.535   13.2912
    2.550   13.0806
    2.565   12.8594
    2.580   12.6593
    2.595   12.3117
    2.610   12.6277
    2.625   11.7957
    2.640   11.6482
    2.655   12.0169
    2.670   11.6693
    2.685   11.1006
    2.700   10.8583
    2.715   10.7214
    2.730   11.0900
    2.745   10.6898
    2.760   10.8583
    2.775   10.4687
    2.790   10.1738
    2.805    9.9210
    2.820    9.8052
    2.835    9.8999
    2.850    9.7420
    2.865   10.0158
    2.880    9.8473
    2.895    9.3523
    2.910    8.7730
    2.925    9.1732
    2.940    8.8257
    2.955    9.4892
    2.970    9.4997
    2.985    8.9731
    3.000    9.0890
    3.015    8.5308
    3.030    8.9310
    3.045    8.7941
    3.060    8.6045
    3.075    8.5203
    3.090    8.7204
    3.105    8.4781
    3.120    8.3412
    3.135    7.8462
    3.150    8.1727
    3.165    8.1095
    3.180    8.3202
    3.195    7.8357
    3.210    7.7620
    3.225    7.5724
    3.240    7.3302
    3.255    7.9410
    3.270    7.2986
    3.285    7.3512
    3.300    7.3302
    3.315    7.6672
    3.330    7.2459
    3.345    7.3934
    3.360    7.2249
    3.375    7.0669
    3.390    7.0669
    3.405    7.5303
    3.420    7.2565
    3.435    6.9089
    3.450    6.5298
    3.465    6.4666
    3.480    6.9405
    3.495    6.7299
    3.510    6.6772
    3.525    6.7825
    3.540    6.5719
    3.555    6.5719
    3.570    6.3086
    3.585    6.5298
    3.600    6.7930
    3.615    6.9194
    3.630    6.2875
    3.645    6.2033
    3.660    6.3086
    3.675    6.3296
    3.690    6.1295
    3.705    5.9821
    3.720    5.6451
    3.735    6.0874
    3.750    5.9716
    3.765    5.8873
    3.780    5.9400
    3.795    6.3507
    3.810    5.8136
    3.825    5.6661
    3.840    5.8557
    3.855    5.7820
    3.870    5.9821
    3.885    6.1190
    3.900    6.0242
    3.915    5.4344
    3.930    5.4766
    3.945    5.5608
    3.960    5.8873
    3.975    5.7293
    3.990    5.8557
    4.005    5.4134
    4.020    5.5292
    4.035    5.6556
    4.050    5.2554
    4.065    5.7293
    4.080    5.7188
    4.095    5.4660
    4.110    5.6451
    4.125    5.4239
    4.140    5.1395
    4.155    5.4344
    4.170    5.3607
    4.185    5.5187
    4.200    5.7820
    4.215    5.1080
    4.230    5.0764
    4.245    5.4134
    4.260    5.3291
    4.275    5.0869
    4.290    5.2343
    4.305    5.1290
    4.320    5.1711
    4.335    5.6029
    4.350    5.1290
    4.365    5.2449
    4.380    4.9710
    4.395    4.9605
    4.410    4.9394
    4.425    4.8341
    4.440    4.9289
    4.455    5.1080
    4.470    4.9921
    4.485    5.0237
    4.500    4.9816
    4.515    4.7920
    4.530    4.8447
    4.545    4.8447
    4.560    5.4766
    4.575    4.9816
    4.590    4.9921
    4.605    5.0132
    4.620    5.0869
    4.635    4.8763
    4.650    4.8973
    4.665    4.8657
    4.680    4.8447
    4.695    4.8236
    4.710    4.9394
    4.725    4.9184
    4.740    4.3813
    4.755    4.5603
    4.770    4.5814
    4.785    4.5708
    4.800    4.7499
    4.815    4.8973
    4.830    4.6656
    4.845    4.6130
    4.860    4.8973
    4.875    4.8131
    4.890    4.7709
    4.905    4.5076
    4.920    4.5708
    4.935    4.4760
    4.950    4.8236
    4.965    4.6656
    4.980    4.4444
    4.995    4.5919
    5.010    4.6340
    5.025    4.3918
    5.040    4.7288
    5.055    4.8025
    5.070    4.8973
    5.085    4.5708
    5.100    4.3075
    5.115    4.0442
    5.130    4.2759
    5.145    4.7183
    5.160    4.5498
    5.175    4.4550
    5.190    4.6445
    5.205    4.5392
    5.220    4.5498
    5.235    4.0126
    5.250    4.3075
    5.265    4.6445
    5.280    4.2865
    5.295    4.1706
    5.310    4.6340
    5.325    4.2970
    5.340    4.3918
    5.355    4.4971
    5.370    4.3918
    5.385    4.2338
    5.400    4.3707
    5.415    4.6445
    5.430    4.5498
    5.445    4.4339
    5.460    4.1601
    5.475    4.3813
    5.490    4.4234
    5.505    4.3497
    5.520    4.5182
    5.535    4.5076
    5.550    4.3391
    5.565    4.7183
    5.580    4.3497
    5.595    4.2443
    5.610    4.7183
    5.625    4.7077
    5.640    4.0864
    5.655    4.2022
    5.670    4.2443
    5.685    4.2654
    5.700    3.8968
    5.715    4.1811
    5.730    4.0864
    5.745    4.1601
    5.760    4.0021
    5.775    4.1601
    5.790    4.3497
    5.805    4.2338
    5.820    4.2759
    5.835    4.3391
    5.850    4.3181
    5.865    4.1180
    5.880    4.2233
    5.895    4.3602
    5.910    4.5182
    5.925    4.4550
    5.940    4.4866
    5.955    4.4760
    5.970    4.3602
    5.985    4.2654
    6.000    4.4655
    6.015    4.3813
    6.030    4.1074
    6.045    4.1496
    6.060    4.0969
    6.075    4.2970
    6.090    4.5919
    6.105    4.3075
    6.120    4.3181
    6.135    4.4128
    6.150    4.4444
    6.165    4.2233
    6.180    4.0969
    6.195    4.4444
    6.210    4.1811
    6.225    4.2338
    6.240    3.9284
    6.255    3.9494
    6.270    4.0232
    6.285    4.4128
    6.300    4.0653
    6.315    4.1074
    6.330    4.3602
    6.345    4.3075
    6.360    4.4339
    6.375    4.5287
    6.390    4.2443
    6.405    3.9389
    6.420    4.1180
    6.435    4.0442
    6.450    4.0337
    6.465    4.1074
    6.480    3.9810
    6.495    4.1811
    6.510    4.0442
    6.525    4.0232
    6.540    4.0232
    6.555    4.0442
    6.570    3.7599
    6.585    4.1074
    6.600    4.1285
    6.615    3.9600
    6.630    3.9705
    6.645    3.8547
    6.660    3.9284
    6.675    4.0232
    6.690    3.9705
    6.705    3.9389
    6.720    4.1390
    6.735    4.0758
    6.750    4.0021
    6.765    4.1390
    6.780    4.0548
    6.795    4.1285
    6.810    3.9600
    6.825    3.8125
    6.840    4.0337
    6.855    3.8547
    6.870    3.5282
    6.885    3.6756
    6.900    3.8231
    6.915    3.9389
    6.930    4.0548
    6.945    3.8863
    6.960    4.1706
    6.975    4.1074
    6.990    4.0969
    7.005    3.8231
    7.020    4.0653
    7.035    4.0653
    7.050    4.1285
    7.065    4.0442
    7.080    4.0126
    7.095    3.9916
    7.110    4.0548
    7.125    3.8652
    7.140    3.8020
    7.155    4.0442
    7.170    4.1180
    7.185    4.2022
    7.200    3.8757
    7.215    3.8968
    7.230    3.9494
    7.245    4.1074
    7.260    4.0126
    7.275    3.9600
    7.290    4.1180
    7.305    4.1496
    7.320    3.9389
    7.335    3.6862
    7.350    3.9494
    7.365    3.8757
    7.380    4.4760
    7.395    4.2233
    7.410    3.9179
    7.425    4.0126
    7.440    4.0864
    7.455    3.8441
    7.470    4.0758
    7.485    4.1074
    7.500    4.0864
    7.515    3.9179
    7.530    4.0653
    7.545    3.9073
    7.560    4.2022
    7.575    3.9073
    7.590    3.9073
    7.605    3.9600
    7.620    3.8020
    7.635    3.7809
    7.650    4.0232
    7.665    3.6124
    7.680    4.1285
    7.695    3.9705
    7.710    3.7704
    7.725    4.0653
    7.740    4.0653
    7.755    4.1706
    7.770    3.9916
    7.785    3.7177
    7.800    4.1811
    7.815    4.1180
    7.830    4.0126
    7.845    4.2549
    7.860    3.8441
    7.875    3.8757
    7.890    4.3497
    7.905    4.0864
    7.920    4.0021
    7.935    3.9810
    7.950    4.1496
    7.965    4.0337
    7.980    4.0126
    7.995    4.0442
    8.010    3.9810
    8.025    4.1601
    8.040    4.4023
    8.055    3.7704
    8.070    3.7072
    8.085    3.9073
    8.100    3.8441
    8.115    3.7915
    8.130    3.6651
    8.145    3.7915
    8.160    4.1917
    8.175    3.9494
    8.190    3.8441
    8.205    3.8125
    8.220    3.8757
    8.235    4.0337
    8.250    4.0337
    8.265    3.9705
    8.280    4.0758
    8.295    4.0021
    8.310    4.3286
    8.325    4.4128
    8.340    4.2654
    8.355    4.0548
    8.370    4.0337
    8.385    4.0126
    8.400    4.2865
    8.415    4.1074
    8.430    3.8547
    8.445    3.7704
    8.460    4.2127
    8.475    4.0864
    8.490    4.0021
    8.505    3.9073
    8.520    3.8968
    8.535    3.8968
    8.550    4.0969
    8.565    3.9916
    8.580    4.2759
    8.595    3.8020
    8.610    4.1496
    8.625    4.0758
    8.640    4.1601
    8.655    4.2865
    8.670    3.9494
    8.685    3.8231
    8.700    4.1917
    8.715    3.9705
    8.730    4.2443
    8.745    4.2022
    8.760    4.1706
    8.775    4.0126
    8.790    4.1706
    8.805    4.2233
    8.820    4.3075
    8.835    4.1601
    8.850    3.9389
    8.865    4.1074
    8.880    4.0548
    8.895    4.0126
    8.910    4.0653
    8.925    4.2022
    8.940    4.2865
    8.955    4.0969
    8.970    4.1601
    8.985    4.1706
    9.000    4.0021
    9.015    3.8863
    9.030    4.1074
    9.045    4.1496
    9.060    3.8968
    9.075    4.2022
    9.090    4.3286
    9.105    4.1496
    9.120    3.9494
    9.135    4.0021
    9.150    4.2443
    9.165    3.7809
    9.180    4.0653
    9.195    4.0337
    9.210    4.3075
    9.225    4.3391
    9.240    4.2865
    9.255    4.2233
    9.270    4.1601
    9.285    4.2338
    9.300    3.8231
    9.315    4.1917
    9.330    3.8968
    9.345    4.1180
    9.360    4.3075
    9.375    3.8863
    9.390    4.0758
    9.405    4.1390
    9.420    4.2022
    9.435    3.9179
    9.450    4.0442
    9.465    4.2022
    9.480    4.1811
    9.495    4.2338
    9.510    4.0337
    9.525    4.2022
    9.540    4.1180
    9.555    4.3813
    9.570    3.8757
    9.585    4.0653
    9.600    4.0126
    9.615    4.1601
    9.630    4.2759
    9.645    4.0969
    9.660    4.4550
    9.675    4.1285
    9.690    4.0969
    9.705    4.2970
    9.720    4.4444
    9.735    4.3075
    9.750    4.2654
    9.765    4.0126
    9.780    3.9705
    9.795    4.6551
    9.810    4.1917
    9.825    4.1811
    9.840    4.2022
    9.855    4.4760
    9.870    4.2022
    9.885    3.9916
    9.900    4.0969
    9.915    4.1496
    9.930    4.2549
    9.945    4.4971
    9.960    4.5182
    9.975    4.3181
    9.990    4.0232
   10.005    4.0548
   10.020    3.9916
   10.035    4.0442
   10.050    4.3181
   10.065    4.3286
   10.080    4.1285
   10.095    4.4655
   10.110    4.1074
   10.125    3.7388
   10.140    4.1601
   10.155    4.3075
   10.170    4.2127
   10.185    4.3075
   10.200    4.2759
   10.215    4.0126
   10.230    4.5392
   10.245    4.3497
   10.260    4.3602
   10.275    3.9073
   10.290    3.9916
   10.305    4.1390
   10.320    4.2549
   10.335    4.2759
   10.350    4.2865
   10.365    4.2022
   10.380    4.0337
   10.395    4.0548
   10.410    3.9810
   10.425    3.9705
   10.440    4.2022
   10.455    4.0653
   10.470    4.0337
   10.485    4.0653
   10.500    4.3602
   10.515    4.2654
   10.530    4.2865
   10.545    4.0548
   10.560    4.5603
   10.575    4.4339
   10.590    4.0548
   10.605    4.2233
   10.620    4.2970
   10.635    4.1074
   10.650    4.0232
   10.665    3.7915
   10.680    4.0864
   10.695    4.2022
   10.710    4.1601
   10.725    4.0232
   10.740    4.0021
   10.755    4.1601
   10.770    4.1074
   10.785    4.3286
   10.800    4.1917
   10.815    4.3497
   10.830    4.2654
   10.845    4.1811
   10.860    4.2022
   10.875    4.1811
   10.890    3.9179
   10.905    4.1706
   10.920    4.3391
   10.935    4.2970
   10.950    3.9494
   10.965    4.0232
   10.980    4.0442
   10.995    4.1706
   11.010    4.1811
   11.025    4.0232
   11.040    3.9179
   11.055    3.9494
   11.070    4.1811
   11.085    4.0337
   11.100    4.2127
   11.115    3.8441
   11.130    3.8441
   11.145    4.1601
   11.160    4.1706
   11.175    4.1180
   11.190    3.8231
   11.205    3.9073
   11.220    3.9705
   11.235    4.1285
   11.250    3.8336
   11.265    3.9705
   11.280    4.0653
   11.295    4.2654
   11.310    4.3181
   11.325    4.3813
   11.340    3.9705
   11.355    3.8020
   11.370    4.1601
   11.385    3.9073
   11.400    3.9916
   11.415    4.1601
   11.430    3.8652
   11.445    4.0548
   11.460    3.9810
   11.475    3.8863
   11.490    3.9494
   11.505    3.9916
   11.520    3.8547
   11.535    4.0653
   11.550    3.8863
   11.565    4.0653
   11.580    4.1285
   11.595    3.8547
   11.610    3.8125
   11.625    4.2022
   11.640    4.0126
   11.655    3.8441
   11.670    3.8336
   11.685    3.9389
   11.700    3.6019
   11.715    3.8968
   11.730    4.0126
   11.745    3.8336
   11.760    3.9073
   11.775    3.7283
   11.790    3.7493
   11.805    3.8547
   11.820    3.7388
   11.835    3.8652
   11.850    3.8652
   11.865    4.0021
   11.880    3.8231
   11.895    3.8441
   11.910    3.8020
   11.925    3.9705
   11.940    3.5387
   11.955    3.8968
   11.970    3.9073
   11.985    3.6546
   12.000    3.5703
   12.015    3.9705
   12.030    3.9494
   12.045    3.5387
   12.060    3.5808
   12.075    3.6862
   12.090    3.8336
   12.105    3.8757
   12.120    3.7493
   12.135    3.6230
   12.150    3.6440
   12.165    3.6019
   12.180    3.6967
   12.195    3.9179
   12.210    3.5387
   12.225    3.8863
   12.240    3.7177
   12.255    3.7388
   12.270    3.5808
   12.285    3.7493
   12.300    3.7704
   12.315    3.6967
   12.330    3.7704
   12.345    3.5282
   12.360    4.0126
   12.375    3.7177
   12.390    3.7388
   12.405    4.0021
   12.420    4.0442
   12.435    3.8757
   12.450    3.9810
   12.465    3.7283
   12.480    3.4123
   12.495    3.6335
   12.510    3.4650
   12.525    3.6019
   12.540    3.7599
   12.555    3.9073
   12.570    3.9389
   12.585    3.7283
   12.600    3.4966
   12.615    3.6546
   12.630    3.6440
   12.645    3.4544
   12.660    3.7915
   12.675    3.6230
   12.690    3.2227
   12.705    3.4544
   12.720    3.7915
   12.735    3.6862
   12.750    3.8441
   12.765    4.1074
   12.780    3.5387
   12.795    3.5703
   12.810    3.6335
   12.825    3.6967
   12.840    3.7072
   12.855    3.6440
   12.870    3.8441
   12.885    3.5914
   12.900    3.3070
   12.915    3.3597
   12.930    3.3175
   12.945    3.5387
   12.960    3.8231
   12.975    3.4544
   12.990    3.4018
   13.005    3.8441
   13.020    3.7809
   13.035    3.8336
   13.050    3.6124
   13.065    3.5808
   13.080    3.6546
   13.095    3.6967
   13.110    3.6967
   13.125    3.6335
   13.140    3.5071
   13.155    3.6335
   13.170    3.6967
   13.185    3.8547
   13.200    3.2965
   13.215    3.5914
   13.230    3.6546
   13.245    3.5914
   13.260    3.4229
   13.275    3.3491
   13.290    3.8336
   13.305    3.6756
   13.320    3.2965
   13.335    3.5703
   13.350    3.5808
   13.365    3.5808
   13.380    3.7177
   13.395    3.8547
   13.410    3.5808
   13.425    3.8125
   13.440    3.5914
   13.455    3.4650
   13.470    3.6124
   13.485    3.4229
   13.500    3.8020
   13.515    3.6335
   13.530    3.6440
   13.545    3.7599
   13.560    3.7283
   13.575    3.6019
   13.590    3.7072
   13.605    3.6651
   13.620    3.3702
   13.635    3.3070
   13.650    3.5071
   13.665    3.6230
   13.680    3.4860
   13.695    3.3175
   13.710    3.4544
   13.725    3.5808
   13.740    3.7599
   13.755    3.2859
   13.770    3.5808
   13.785    3.5808
   13.800    3.6756
   13.815    3.6862
   13.830    3.6230
   13.845    3.4334
   13.860    3.7177
   13.875    3.9705
   13.890    3.6335
   13.905    3.3281
   13.920    3.5703
   13.935    3.6440
   13.950    3.5492
   13.965    3.5387
   13.980    3.7072
   13.995    3.8547
   14.010    3.5703
   14.025    3.7177
   14.040    3.5387
   14.055    3.4650
   14.070    3.5914
   14.085    3.6019
   14.100    3.8231
   14.115    3.7809
   14.130    3.7599
   14.145    3.4439
   14.160    3.7177
   14.175    3.5071
   14.190    3.8125
   14.205    3.7493
   14.220    3.4755
   14.235    3.6651
   14.250    3.6019
   14.265    3.5808
   14.280    3.2438
   14.295    3.7072
   14.310    3.6335
   14.325    3.7599
   14.340    3.4439
   14.355    3.2333
   14.370    3.3175
   14.385    3.5387
   14.400    3.8652
   14.415    3.7493
   14.430    3.6440
   14.445    3.4650
   14.460    3.4229
   14.475    3.6440
   14.490    3.4018
   14.505    3.4439
   14.520    3.6230
   14.535    3.4966
   14.550    3.6862
   14.565    3.4650
   14.580    3.4018
   14.595    3.1280
   14.610    3.4439
   14.625    3.6756
   14.640    3.5071
   14.655    3.5703
   14.670    3.5282
   14.685    3.7809
   14.700    3.5703
   14.715    3.5914
   14.730    3.5914
   14.745    3.5071
   14.760    3.6440
   14.775    3.3807
   14.790    3.5282
   14.805    3.5387
   14.820    3.5808
   14.835    3.3702
   14.850    3.2017
   14.865    3.4123
   14.880    3.4755
   14.895    3.5598
   14.910    3.2965
   14.925    3.4860
   14.940    3.5176
   14.955    3.6967
   14.970    3.4229
   14.985    3.5176
   15.000    3.6124
   15.015    3.4439
   15.030    3.5282
   15.045    3.4229
   15.060    3.1806
   15.075    3.4544
   15.090    3.7072
   15.105    3.7388
   15.120    3.6230
   15.135    3.6019
   15.150    3.7388
   15.165    3.7177
   15.180    3.5703
   15.195    3.6546
   15.210    3.6440
   15.225    3.7072
   15.240    3.4229
   15.255    3.3913
   15.270    3.4755
   15.285    3.5282
   15.300    3.5703
   15.315    3.5071
   15.330    3.2438
   15.345    3.7915
   15.360    3.6335
   15.375    3.7177
   15.390    3.4650
   15.405    3.6124
   15.420    3.8336
   15.435    3.9179
   15.450    3.4650
   15.465    3.7809
   15.480    3.6651
   15.495    3.6335
   15.510    3.4650
   15.525    3.6756
   15.540    3.3491
   15.555    3.9389
   15.570    3.3807
   15.585    3.5914
   15.600    3.8125
   15.615    3.7493
   15.630    3.3702
   15.645    3.5282
   15.660    3.5808
   15.675    3.7704
   15.690    3.5492
   15.705    3.3070
   15.720    3.3702
   15.735    3.5914
   15.750    3.5176
   15.765    3.7809
   15.780    3.5598
   15.795    3.7809
   15.810    3.6019
   15.825    3.4229
   15.840    3.5387
   15.855    3.9284
   15.870    3.4018
   15.885    3.6230
   15.900    3.4650
   15.915    3.5282
   15.930    3.4018
   15.945    3.4018
   15.960    3.3386
   15.975    3.2649
   15.990    3.3913
   16.005    3.5387
   16.020    3.5492
   16.035    3.7704
   16.050    3.4334
   16.065    3.2543
   16.080    3.4755
   16.095    3.6440
   16.110    3.7915
   16.125    3.6019
   16.140    3.8757
   16.155    3.6335
   16.170    3.4650
   16.185    3.5808
   16.200    3.7493
   16.215    3.7704
   16.230    3.3070
   16.245    3.7493
   16.260    3.6335
   16.275    3.5176
   16.290    3.5176
   16.305    3.4018
   16.320    3.6546
   16.335    3.3491
   16.350    3.5282
   16.365    3.4229
   16.380    3.6335
   16.395    3.5492
   16.410    3.5176
   16.425    3.5914
   16.440    3.6230
   16.455    3.7809
   16.470    3.8020
   16.485    3.5808
   16.500    3.7072
   16.515    3.5176
   16.530    3.2649
   16.545    3.2649
   16.560    3.3702
   16.575    3.3807
   16.590    3.5176
   16.605    3.4018
   16.620    3.3913
   16.635    3.3386
   16.650    3.5071
   16.665    3.4544
   16.680    3.3281
   16.695    3.4544
   16.710    3.8863
   16.725    3.8020
   16.740    3.6019
   16.755    3.5387
   16.770    3.6019
   16.785    3.5914
   16.800    3.5703
   16.815    3.4860
   16.830    3.7704
   16.845    3.7915
   16.860    3.5808
   16.875    3.8441
   16.890    3.6440
   16.905    3.3597
   16.920    3.4229
   16.935    3.6967
   16.950    3.9600
   16.965    3.8020
   16.980    3.6335
   16.995    3.5176
   17.010    3.4755
   17.025    3.4544
   17.040    3.3807
   17.055    3.5387
   17.070    3.6230
   17.085    3.6440
   17.100    3.4439
   17.115    3.5176
   17.130    3.6756
   17.145    3.5387
   17.160    3.6124
   17.175    3.6019
   17.190    3.7915
   17.205    3.7388
   17.220    3.8757
   17.235    3.6335
   17.250    3.7388
   17.265    3.7493
   17.280    3.8020
   17.295    3.6756
   17.310    3.5808
   17.325    3.7283
   17.340    3.5703
   17.355    3.4966
   17.370    3.6230
   17.385    3.5808
   17.400    3.6546
   17.415    3.6019
   17.430    3.5176
   17.445    3.4860
   17.460    3.6546
   17.475    3.3281
   17.490    3.5071
   17.505    3.6335
   17.520    3.6862
   17.535    3.7704
   17.550    3.5176
   17.565    3.4755
   17.580    3.6230
   17.595    3.5598
   17.610    3.5176
   17.625    3.6967
   17.640    3.7599
   17.655    3.3597
   17.670    3.8125
   17.685    4.0442
   17.700    3.9179
   17.715    3.6230
   17.730    3.5071
   17.745    3.4650
   17.760    3.6862
   17.775    3.5703
   17.790    3.6862
   17.805    3.8547
   17.820    3.8652
   17.835    3.6651
   17.850    3.6230
   17.865    3.7599
   17.880    3.7493
   17.895    3.4966
   17.910    3.5492
   17.925    3.7283
   17.940    3.7915
   17.955    3.4860
   17.970    3.6967
   17.985    3.8336
   18.000    4.1390
   18.015    4.0021
   18.030    3.6862
   18.045    3.8125
   18.060    3.6335
   18.075    3.5914
   18.090    3.6124
   18.105    3.6124
   18.120    3.4544
   18.135    3.6230
   18.150    4.0126
   18.165    3.8652
   18.180    3.9179
   18.195    4.0653
   18.210    3.7177
   18.225    3.5176
   18.240    3.7283
   18.255    3.6546
   18.270    3.7915
   18.285    3.8863
   18.300    3.7493
   18.315    3.8231
   18.330    3.8020
   18.345    3.5598
   18.360    3.6862
   18.375    3.8231
   18.390    3.8757
   18.405    3.8968
   18.420    3.7599
   18.435    3.8336
   18.450    3.7072
   18.465    3.7177
   18.480    3.8125
   18.495    3.7388
   18.510    3.7388
   18.525    3.4123
   18.540    3.7809
   18.555    3.7388
   18.570    4.0232
   18.585    3.9916
   18.600    3.8547
   18.615    3.4966
   18.630    3.6967
   18.645    3.7915
   18.660    3.9705
   18.675    3.8336
   18.690    3.8020
   18.705    3.6124
   18.720    3.6230
   18.735    3.8968
   18.750    3.4860
   18.765    3.5703
   18.780    3.4860
   18.795    3.6862
   18.810    3.8441
   18.825    3.6440
   18.840    3.9916
   18.855    3.8020
   18.870    3.4966
   18.885    3.7177
   18.900    3.8863
   18.915    3.8863
   18.930    3.7704
   18.945    3.9073
   18.960    3.9494
   18.975    3.5703
   18.990    3.5598
   19.005    3.5071
   19.020    3.4229
   19.035    3.6862
   19.050    3.5703
   19.065    3.6967
   19.080    3.6335
   19.095    3.4018
   19.110    3.7177
   19.125    3.9494
   19.140    3.8968
   19.155    3.6756
   19.170    3.6651
   19.185    3.4229
   19.200    3.6440
   19.215    3.6124
   19.230    3.7072
   19.245    3.8125
   19.260    4.1390
   19.275    3.5387
   19.290    3.7388
   19.305    3.5914
   19.320    3.5282
   19.335    3.7072
   19.350    3.5387
   19.365    3.6335
   19.380    3.8231
   19.395    3.6546
   19.410    3.9389
   19.425    3.9179
   19.440    3.6440
   19.455    3.6862
   19.470    3.5282
   19.485    3.7283
   19.500    3.7177
   19.515    3.7704
   19.530    3.9389
   19.545    3.7809
   19.560    4.0126
   19.575    3.9810
   19.590    4.1285
   19.605    3.7388
   19.620    3.6019
   19.635    3.7388
   19.650    3.9073
   19.665    3.6440
   19.680    3.9389
   19.695    3.8231
   19.710    3.8336
   19.725    3.8863
   19.740    3.9705
   19.755    4.0232
   19.770    4.0021
   19.785    3.8125
   19.800    3.7915
   19.815    3.7283
   19.830    3.7177
   19.845    3.6651
   19.860    3.8125
   19.875    3.7072
   19.890    3.5598
   19.905    3.7072
   19.920    3.6651
   19.935    3.8547
   19.950    3.8441
   19.965    4.0126
   19.980    3.8652
   19.995    3.8231
   20.010    3.8547
   20.025    4.2759
   20.040    3.8441
   20.055    3.6019
   20.070    3.7915
   20.085    3.7072
   20.100    4.0864
   20.115    3.6967
   20.130    3.8652
   20.145    3.6546
   20.160    3.9916
   20.175    3.7493
   20.190    3.8863
   20.205    4.0232
   20.220    3.7283
   20.235    3.8968
   20.250    3.6756
   20.265    3.8336
   20.280    3.9284
   20.295    3.8863
   20.310    4.1180
   20.325    3.9705
   20.340    3.9705
   20.355    4.0337
   20.370    3.8547
   20.385    3.7915
   20.400    3.9389
   20.415    3.6862
   20.430    3.9600
   20.445    4.1496
   20.460    3.6967
   20.475    4.0864
   20.490    3.9810
   20.505    3.4966
   20.520    3.9494
   20.535    3.9810
   20.550    3.9284
   20.565    4.0021
   20.580    3.9916
   20.595    4.0548
   20.610    3.7704
   20.625    3.9389
   20.640    3.7177
   20.655    3.7809
   20.670    3.7704
   20.685    4.0021
   20.700    3.8968
   20.715    4.0969
   20.730    4.3181
   20.745    3.8441
   20.760    4.0232
   20.775    3.9705
   20.790    3.8863
   20.805    3.9179
   20.820    3.9810
   20.835    3.9705
   20.850    4.0337
   20.865    4.0337
   20.880    3.8441
   20.895    3.8336
   20.910    3.7072
   20.925    4.0126
   20.940    4.0969
   20.955    4.0232
   20.970    4.3813
   20.985    4.2549
   21.000    3.9810
   21.015    3.7072
   21.030    3.9073
   21.045    4.1496
   21.060    4.0969
   21.075    3.9073
   21.090    4.1496
   21.105    3.8020
   21.120    3.9494
   21.135    4.1601
   21.150    4.2022
   21.165    3.9600
   21.180    3.9179
   21.195    3.9600
   21.210    4.1601
   21.225    3.8757
   21.240    3.8757
   21.255    3.8863
   21.270    4.0337
   21.285    3.9073
   21.300    3.6230
   21.315    3.8125
   21.330    4.0126
   21.345    4.0442
   21.360    4.0337
   21.375    3.8125
   21.390    3.9179
   21.405    4.1390
   21.420    3.8757
   21.435    3.8441
   21.450    3.9916
   21.465    3.5914
   21.480    3.8336
   21.495    3.9284
   21.510    4.0969
   21.525    4.0126
   21.540    4.0442
   21.555    4.1601
   21.570    3.8547
   21.585    4.0337
   21.600    4.0969
   21.615    3.9705
   21.630    3.8125
   21.645    3.6967
   21.660    3.6546
   21.675    3.7493
   21.690    3.8863
   21.705    4.3813
   21.720    4.3602
   21.735    4.1811
   21.750    4.5708
   21.765    4.2970
   21.780    4.1601
   21.795    4.0337
   21.810    4.0548
   21.825    3.9705
   21.840    3.6546
   21.855    3.4544
   21.870    4.0232
   21.885    3.9179
   21.900    4.0337
   21.915    4.0126
   21.930    3.7072
   21.945    4.0548
   21.960    3.8125
   21.975    3.9705
   21.990    4.2233
   22.005    4.2022
   22.020    4.1180
   22.035    4.2022
   22.050    4.1496
   22.065    3.9600
   22.080    3.9284
   22.095    4.1917
   22.110    4.3391
   22.125    4.1390
   22.140    3.8757
   22.155    3.7809
   22.170    3.7072
   22.185    4.0442
   22.200    3.8757
   22.215    3.9810
   22.230    4.2127
   22.245    4.1917
   22.260    4.1180
   22.275    4.0442
   22.290    4.0021
   22.305    4.0653
   22.320    4.0758
   22.335    3.9916
   22.350    4.2233
   22.365    3.8125
   22.380    3.9705
   22.395    4.0758
   22.410    4.0758
   22.425    4.1496
   22.440    3.7072
   22.455    3.9179
   22.470    4.0758
   22.485    3.8336
   22.500    4.0232
   22.515    4.0337
   22.530    3.8547
   22.545    4.0442
   22.560    4.1917
   22.575    4.0021
   22.590    4.2233
   22.605    4.3075
   22.620    4.0864
   22.635    4.1285
   22.650    3.8968
   22.665    3.6335
   22.680    4.1074
   22.695    3.8968
   22.710    4.0969
   22.725    4.0864
   22.740    3.6335
   22.755    4.2022
   22.770    4.2233
   22.785    4.1390
   22.800    4.2443
   22.815    3.9179
   22.830    4.2654
   22.845    4.1390
   22.860    3.8231
   22.875    4.0126
   22.890    3.8547
   22.905    3.6651
   22.920    3.7177
   22.935    4.0337
   22.950    4.0442
   22.965    3.9284
   22.980    3.9810
   22.995    3.8336
   23.010    3.8757
   23.025    3.8020
   23.040    3.8968
   23.055    3.8336
   23.070    3.9389
   23.085    4.2443
   23.100    4.1390
   23.115    3.8441
   23.130    4.1074
   23.145    3.9389
   23.160    3.8757
   23.175    4.1811
   23.190    4.2233
   23.205    3.9705
   23.220    4.1917
   23.235    4.1390
   23.250    4.4234
   23.265    4.0864
   23.280    3.9705
   23.295    4.0548
   23.310    3.9284
   23.325    3.8125
   23.340    3.9600
   23.355    4.2233
   23.370    3.9179
   23.385    3.9705
   23.400    3.8336
   23.415    4.2338
   23.430    4.0021
   23.445    3.7283
   23.460    3.8652
   23.475    4.3075
   23.490    4.2233
   23.505    3.8336
   23.520    3.7915
   23.535    3.8968
   23.550    3.7072
   23.565    4.0126
   23.580    3.8231
   23.595    4.0864
   23.610    4.3813
   23.625    4.1074
   23.640    4.0758
   23.655    4.1706
   23.670    4.2338
   23.685    4.0864
   23.700    4.1601
   23.715    3.9284
   23.730    3.9494
   23.745    4.1917
   23.760    4.0337
   23.775    3.9600
   23.790    3.8020
   23.805    3.9284
   23.820    3.8020
   23.835    3.9284
   23.850    3.9073
   23.865    4.2233
   23.880    4.2338
   23.895    4.1811
   23.910    3.9179
   23.925    3.9705
   23.940    4.0126
   23.955    3.8863
   23.970    3.8125
   23.985    3.7493
   24.000    4.0969
   24.015    4.1074
   24.030    3.9494
   24.045    3.8336
   24.060    3.8441
   24.075    3.7704
   24.090    3.9916
   24.105    3.7809
   24.120    3.8968
   24.135    4.2970
   24.150    4.1917
   24.165    4.0126
   24.180    4.1074
   24.195    4.0126
   24.210    3.8231
   24.225    3.7915
   24.240    4.0442
   24.255    3.9600
   24.270    3.7388
   24.285    3.8652
   24.300    3.9073
   24.315    3.9916
   24.330    3.8968
   24.345    3.7809
   24.360    4.1180
   24.375    3.9705
   24.390    3.6756
   24.405    3.6124
   24.420    3.7493
   24.435    4.0337
   24.450    4.0864
   24.465    3.8863
   24.480    4.0864
   24.495    3.6230
   24.510    3.7493
   24.525    3.5387
   24.540    3.7177
   24.555    3.8652
   24.570    3.7177
   24.585    4.1074
   24.600    3.9073
   24.615    3.9284
   24.630    4.0232
   24.645    3.8125
   24.660    4.1496
   24.675    3.8231
   24.690    3.7493
   24.705    3.9389
   24.720    3.7599
   24.735    4.1390
   24.750    4.0126
   24.765    3.9179
   24.780    3.7915
   24.795    4.1074
   24.810    4.0232
   24.825    4.1706
   24.840    4.0442
   24.855    3.9600
   24.870    3.7915
   24.885    3.9705
   24.900    3.9389
   24.915    4.3497
   24.930    3.8757
   24.945    3.9705
   24.960    3.9494
   24.975    3.8020
   24.990    3.8231
   25.005    3.8863
   25.020    4.0653
   25.035    3.9073
   25.050    3.7915
   25.065    3.7704
   25.080    3.8652
   25.095    3.8231
   25.110    3.8652
   25.125    3.8231
   25.140    3.9916
   25.155    3.8652
   25.170    3.9073
   25.185    4.0442
   25.200    3.9073
   25.215    3.9179
   25.230    3.8441
   25.245    3.8652
   25.260    3.7809
   25.275    3.8757
   25.290    4.0232
   25.305    3.9073
   25.320    3.6756
   25.335    4.0021
   25.350    3.9179
   25.365    3.9284
   25.380    3.6440
   25.395    3.7704
   25.410    3.7072
   25.425    3.8863
   25.440    3.7704
   25.455    3.8020
   25.470    3.7915
   25.485    3.8336
   25.500    3.7072
   25.515    3.7915
   25.530    3.7599
   25.545    3.7493
   25.560    3.9600
   25.575    3.7915
   25.590    3.8336
   25.605    3.9389
   25.620    3.3386
   25.635    3.7283
   25.650    3.6862
   25.665    3.6335
   25.680    3.9073
   25.695    3.6756
   25.710    3.9179
   25.725    4.3497
   25.740    4.1706
   25.755    3.8968
   25.770    3.8125
   25.785    3.8231
   25.800    3.8547
   25.815    3.7072
   25.830    3.6019
   25.845    3.7283
   25.860    3.8125
   25.875    3.7283
   25.890    3.6230
   25.905    3.6862
   25.920    3.7493
   25.935    3.5703
   25.950    3.8336
   25.965    3.9179
   25.980    3.6651
   25.995    3.8968
   26.010    3.9494
   26.025    3.8547
   26.040    3.7493
   26.055    3.6862
   26.070    3.6335
   26.085    3.6124
   26.100    3.8441
   26.115    3.8020
   26.130    3.8231
   26.145    3.9916
   26.160    4.0021
   26.175    3.8652
   26.190    3.7809
   26.205    3.8757
   26.220    3.9179
   26.235    3.7177
   26.250    4.0126
   26.265    3.6230
   26.280    3.7388
   26.295    3.6546
   26.310    3.6440
   26.325    3.7915
   26.340    3.9705
   26.355    3.7283
   26.370    3.6651
   26.385    3.5492
   26.400    3.6651
   26.415    3.6546
   26.430    3.8125
   26.445    3.9705
   26.460    4.0021
   26.475    3.8547
   26.490    3.6967
   26.505    4.1285
   26.520    4.0126
   26.535    3.6546
   26.550    3.4966
   26.565    3.6440
   26.580    3.6862
   26.595    3.7493
   26.610    3.6440
   26.625    3.7177
   26.640    3.9705
   26.655    3.8441
   26.670    3.7915
   26.685    3.7072
   26.700    3.6230
   26.715    3.5071
   26.730    3.8336
   26.745    3.6335
   26.760    3.7915
   26.775    3.8968
   26.790    3.4860
   26.805    3.4544
   26.820    3.8652
   26.835    3.7599
   26.850    3.7283
   26.865    3.5282
   26.880    3.5282
   26.895    3.5282
   26.910    3.4439
   26.925    3.6019
   26.940    3.6651
   26.955    3.4544
   26.970    3.4544
   26.985    3.6967
   27.000    3.4755
   27.015    3.5703
   27.030    3.6546
   27.045    3.8547
   27.060    3.4544
   27.075    3.6651
   27.090    3.7177
   27.105    3.4123
   27.120    3.3281
   27.135    3.1280
   27.150    3.7915
   27.165    3.5492
   27.180    3.5914
   27.195    3.4544
   27.210    3.7704
   27.225    3.8863
   27.240    3.6124
   27.255    3.6862
   27.270    3.8547
   27.285    3.6651
   27.300    3.7704
   27.315    3.6124
   27.330    3.5914
   27.345    3.6019
   27.360    3.5387
   27.375    3.6967
   27.390    3.8547
   27.405    3.7809
   27.420    3.6019
   27.435    3.5282
   27.450    3.8652
   27.465    4.0126
   27.480    3.7072
   27.495    3.6230
   27.510    3.8231
   27.525    3.8863
   27.540    3.8336
   27.555    3.3807
   27.570    3.6230
   27.585    3.6124
   27.600    3.7704
   27.615    3.7283
   27.630    3.4860
   27.645    3.6756
   27.660    3.6335
   27.675    3.6756
   27.690    3.7493
   27.705    3.5703
   27.720    3.4018
   27.735    3.5282
   27.750    3.6967
   27.765    3.2333
   27.780    3.5914
   27.795    3.5914
   27.810    3.4334
   27.825    3.3913
   27.840    3.6230
   27.855    3.5492
   27.870    3.2649
   27.885    3.5387
   27.900    3.7072
   27.915    3.2543
   27.930    3.4229
   27.945    3.4439
   27.960    3.8547
   27.975    3.5071
   27.990    3.4439
   28.005    3.3281
   28.020    3.6756
   28.035    3.7177
   28.050    3.4755
   28.065    3.5808
   28.080    3.6124
   28.095    3.9705
   28.110    3.8231
   28.125    3.5071
   28.140    3.6651
   28.155    3.3070
   28.170    3.4966
   28.185    3.7283
   28.200    3.6862
   28.215    3.6019
   28.230    3.6440
   28.245    3.5387
   28.260    3.7915
   28.275    3.5071
   28.290    3.4544
   28.305    3.5387
   28.320    3.3597
   28.335    3.2333
   28.350    3.5176
   28.365    3.5176
   28.380    3.6124
   28.395    3.8547
   28.410    3.4650
   28.425    3.6440
   28.440    3.4544
   28.455    3.4544
   28.470    3.3913
   28.485    3.2017
   28.500    3.3491
   28.515    3.3597
   28.530    3.4334
   28.545    3.4439
   28.560    3.4123
   28.575    3.3807
   28.590    3.4860
   28.605    3.6440
   28.620    3.7704
   28.635    3.5598
   28.650    3.5176
   28.665    3.6440
   28.680    3.5176
   28.695    3.6756
   28.710    3.3175
   28.725    3.4650
   28.740    3.6019
   28.755    3.6335
   28.770    3.4544
   28.785    3.2754
   28.800    3.4650
   28.815    3.5176
   28.830    3.1806
   28.845    3.4650
   28.860    3.6651
   28.875    3.4334
   28.890    3.1912
   28.905    3.5071
   28.920    3.6440
   28.935    3.2543
   28.950    3.4966
   28.965    3.8968
   28.980    3.3702
   28.995    3.2859
   29.010    3.3597
   29.025    3.5282
   29.040    3.6335
   29.055    3.7704
   29.070    3.5282
   29.085    3.3913
   29.100    3.4966
   29.115    3.2754
   29.130    3.3175
   29.145    3.4229
   29.160    3.5492
   29.175    3.4229
   29.190    3.4334
   29.205    3.3807
   29.220    3.2965
   29.235    3.2333
   29.250    3.6756
   29.265    3.6230
   29.280    3.5808
   29.295    3.3491
   29.310    3.2333
   29.325    3.4439
   29.340    3.0121
   29.355    3.1174
   29.370    3.2859
   29.385    3.1806
   29.400    3.2543
   29.415    3.2227
   29.430    3.4018
   29.445    3.4544
   29.460    3.5387
   29.475    3.0753
   29.490    3.2649
   29.505    3.3070
   29.520    3.3702
   29.535    3.6019
   29.550    3.4018
   29.565    3.0437
   29.580    3.3070
   29.595    3.5808
   29.610    3.3281
   29.625    3.1069
   29.640    3.3070
   29.655    3.4229
   29.670    3.2438
   29.685    3.6651
   29.700    3.5492
   29.715    3.3913
   29.730    3.4439
   29.745    3.3702
   29.760    3.4544
   29.775    3.4123
   29.790    3.3807
   29.805    2.9279
   29.820    3.2438
   29.835    3.2859
   29.850    3.4123
   29.865    3.3913
   29.880    3.4439
   29.895    3.1069
   29.910    3.0753
   29.925    3.2543
   29.940    3.3491
   29.955    3.4439
   29.970    3.4860
   29.985    3.3702
   30.000    3.5176
   30.015    3.1701
   30.030    3.2965
   30.045    3.2333
   30.060    3.3175
   30.075    3.4860
   30.090    3.3281
   30.105    3.4439
   30.120    3.3702
   30.135    3.2227
   30.150    3.4334
   30.165    3.4860
   30.180    3.7072
   30.195    3.4544
   30.210    3.3702
   30.225    3.4439
   30.240    3.3070
   30.255    3.1701
   30.270    3.3175
   30.285    3.4123
   30.300    3.0332
   30.315    3.0648
   30.330    3.2965
   30.345    3.4755
   30.360    3.4860
   30.375    3.4755
   30.390    3.3807
   30.405    3.3491
   30.420    3.3491
   30.435    3.2859
   30.450    3.1806
   30.465    3.2017
   30.480    3.3491
   30.495    3.2859
   30.510    2.9173
   30.525    3.2122
   30.540    3.2227
   30.555    3.1069
   30.570    3.2965
   30.585    3.4123
   30.600    3.3175
   30.615    3.2333
   30.630    3.1490
   30.645    3.0753
   30.660    3.4544
   30.675    3.1280
   30.690    2.9489
   30.705    3.2333
   30.720    3.2543
   30.735    3.1069
   30.750    3.2017
   30.765    3.3491
   30.780    2.9384
   30.795    3.0542
   30.810    3.1596
   30.825    3.4860
   30.840    3.4966
   30.855    3.2649
   30.870    3.3913
   30.885    3.2333
   30.900    3.0226
   30.915    3.1596
   30.930    3.3386
   30.945    3.2754
   30.960    3.5282
   30.975    2.9595
   30.990    3.0964
   31.005    3.0964
   31.020    3.2965
   31.035    3.1806
   31.050    2.9595
   31.065    3.0437
   31.080    3.3597
   31.095    3.3386
   31.110    3.3281
   31.125    3.6230
   31.140    2.9805
   31.155    3.1280
   31.170    3.2227
   31.185    2.8857
   31.200    2.8331
   31.215    3.1490
   31.230    3.4439
   31.245    2.9700
   31.260    3.2227
   31.275    3.0753
   31.290    3.2227
   31.305    3.0542
   31.320    2.9384
   31.335    3.1596
   31.350    3.0964
   31.365    2.9595
   31.380    3.1806
   31.395    3.2859
   31.410    3.3491
   31.425    3.2017
   31.440    3.0016
   31.455    3.0964
   31.470    3.2017
   31.485    3.2333
   31.500    3.3175
   31.515    3.3281
   31.530    2.8963
   31.545    3.1174
   31.560    2.9805
   31.575    3.1280
   31.590    2.9384
   31.605    3.1490
   31.620    3.1701
   31.635    3.3913
   31.650    3.1806
   31.665    3.1069
   31.680    3.1701
   31.695    3.2122
   31.710    3.1701
   31.725    3.2227
   31.740    3.1912
   31.755    3.0542
   31.770    3.0858
   31.785    3.2965
   31.800    3.0858
   31.815    2.9805
   31.830    2.7593
   31.845    3.2649
   31.860    3.0016
   31.875    3.0648
   31.890    3.0858
   31.905    2.9384
   31.920    3.0648
   31.935    2.9910
   31.950    3.0016
   31.965    2.8331
   31.980    2.8963
   31.995    2.6856
   32.010    3.0964
   32.025    2.9173
   32.040    3.0016
   32.055    3.0437
   32.070    3.0437
   32.085    3.1596
   32.100    3.1174
   32.115    2.9595
   32.130    2.9279
   32.145    2.9384
   32.160    2.7804
   32.175    3.1385
   32.190    2.9489
   32.205    2.9805
   32.220    3.1174
   32.235    3.0858
   32.250    2.8647
   32.265    2.9910
   32.280    2.9595
   32.295    3.0648
   32.310    3.0437
   32.325    3.2754
   32.340    2.9700
   32.355    2.8963
   32.370    3.2122
   32.385    3.0964
   32.400    3.0858
   32.415    3.0858
   32.430    3.2965
   32.445    2.7909
   32.460    3.0542
   32.475    3.1385
   32.490    2.9805
   32.505    2.9910
   32.520    2.7909
   32.535    2.7804
   32.550    2.9068
   32.565    2.8331
   32.580    2.9279
   32.595    3.1069
   32.610    3.0332
   32.625    2.8647
   32.640    2.8647
   32.655    2.9489
   32.670    2.8015
   32.685    2.8647
   32.700    2.7488
   32.715    2.8436
   32.730    2.8857
   32.745    2.8225
   32.760    2.8647
   32.775    2.9805
   32.790    3.0121
   32.805    2.8752
   32.820    2.9489
   32.835    2.8963
   32.850    2.9595
   32.865    2.9279
   32.880    2.8647
   32.895    2.8963
   32.910    2.8857
   32.925    2.9595
   32.940    3.0016
   32.955    2.8857
   32.970    2.9279
   32.985    2.8857
   33.000    2.7593
   33.015    3.1069
   33.030    2.6856
   33.045    3.1385
   33.060    3.0016
   33.075    3.1280
   33.090    2.8647
   33.105    2.8015
   33.120    2.7909
   33.135    2.9068
   33.150    3.0016
   33.165    3.0964
   33.180    2.8963
   33.195    2.8225
   33.210    2.9173
   33.225    2.6962
   33.240    2.6119
   33.255    2.8436
   33.270    3.1806
   33.285    2.8331
   33.300    2.8752
   33.315    2.7172
   33.330    2.5908
   33.345    3.0121
   33.360    2.8436
   33.375    3.0332
   33.390    2.9068
   33.405    2.9700
   33.420    2.9173
   33.435    2.7909
   33.450    2.6646
   33.465    2.8436
   33.480    2.6435
   33.495    2.8541
   33.510    3.2122
   33.525    3.0226
   33.540    2.8331
   33.555    2.7172
   33.570    2.8963
   33.585    2.8436
   33.600    2.7699
   33.615    2.7909
   33.630    2.7278
   33.645    2.7067
   33.660    2.7699
   33.675    2.6119
   33.690    2.8436
   33.705    2.9068
   33.720    2.7699
   33.735    2.8331
   33.750    2.9595
   33.765    3.0437
   33.780    2.9489
   33.795    2.9910
   33.810    3.0753
   33.825    2.6646
   33.840    2.6856
   33.855    2.5803
   33.870    2.9595
   33.885    3.0753
   33.900    2.7172
   33.915    2.6962
   33.930    2.8015
   33.945    2.7172
   33.960    2.7488
   33.975    2.8963
   33.990    2.7172
   34.005    2.9068
   34.020    3.0332
   34.035    2.8120
   34.050    2.7909
   34.065    2.8331
   34.080    2.8225
   34.095    2.9700
   34.110    2.5908
   34.125    2.5803
   34.140    2.7699
   34.155    2.9173
   34.170    2.9805
   34.185    2.6856
   34.200    2.3486
   34.215    2.5171
   34.230    2.3907
   34.245    2.6962
   34.260    2.7699
   34.275    2.8331
   34.290    2.6646
   34.305    2.6856
   34.320    2.4855
   34.335    2.4118
   34.350    2.5276
   34.365    2.4329
   34.380    2.8015
   34.395    2.8015
   34.410    2.6014
   34.425    2.5908
   34.440    2.5487
   34.455    2.8331
   34.470    2.9279
   34.485    2.6751
   34.500    2.5803
   34.515    2.6224
   34.530    2.6962
   34.545    2.7488
   34.560    3.0858
   34.575    2.6646
   34.590    2.7699
   34.605    2.9489
   34.620    2.8857
   34.635    2.8857
   34.650    2.7593
   34.665    2.7172
   34.680    2.4855
   34.695    2.7699
   34.710    2.8541
   34.725    2.7278
   34.740    2.5171
   34.755    2.4118
   34.770    2.6435
   34.785    2.6014
   34.800    2.6646
   34.815    2.3907
   34.830    2.6330
   34.845    2.5066
   34.860    2.6330
   34.875    2.4434
   34.890    2.5487
   34.905    2.7067
   34.920    2.4645
   34.935    2.4750
   34.950    2.5908
   34.965    2.8752
   34.980    2.7699
   34.995    2.6435
   35.010    2.5803
   35.025    2.4539
   35.040    2.4118
   35.055    2.5487
   35.070    2.7067
   35.085    2.6330
   35.100    2.5382
   35.115    2.7172
   35.130    2.8225
   35.145    2.5066
   35.160    2.6224
   35.175    2.6119
   35.190    2.5276
   35.205    2.4645
   35.220    2.5487
   35.235    2.8015
   35.250    2.6435
   35.265    2.6014
   35.280    2.6435
   35.295    2.4329
   35.310    2.5171
   35.325    2.3486
   35.340    2.7909
   35.355    2.5592
   35.370    2.6014
   35.385    2.5908
   35.400    2.4750
   35.415    2.5803
   35.430    2.6435
   35.445    2.6962
   35.460    2.6330
   35.475    2.2643
   35.490    2.5276
   35.505    2.5698
   35.520    2.6435
   35.535    2.5698
   35.550    2.4750
   35.565    2.5487
   35.580    2.5592
   35.595    2.5487
   35.610    2.6119
   35.625    2.5592
   35.640    2.4013
   35.655    2.5592
   35.670    2.5276
   35.685    2.4855
   35.700    2.6435
   35.715    2.7488
   35.730    2.6435
   35.745    2.5487
   35.760    2.5592
   35.775    2.6435
   35.790    2.7067
   35.805    2.6014
   35.820    2.5382
   35.835    2.5487
   35.850    2.6330
   35.865    2.5066
   35.880    2.4223
   35.895    2.5803
   35.910    2.3802
   35.925    2.2854
   35.940    2.4855
   35.955    2.5171
   35.970    2.5698
   35.985    2.6540
   36.000    2.4855
   36.015    2.5698
   36.030    2.4539
   36.045    2.4329
   36.060    2.5698
   36.075    2.4645
   36.090    2.3275
   36.105    2.5066
   36.120    2.6119
   36.135    2.2749
   36.150    2.5382
   36.165    2.5592
   36.180    2.4961
   36.195    2.4539
   36.210    2.4855
   36.225    2.5276
   36.240    2.4750
   36.255    2.5908
   36.270    2.4750
   36.285    2.5382
   36.300    2.5592
   36.315    2.7172
   36.330    2.4539
   36.345    2.4855
   36.360    2.4855
   36.375    2.2538
   36.390    2.4223
   36.405    2.4223
   36.420    2.5908
   36.435    2.4961
   36.450    2.4855
   36.465    2.5066
   36.480    2.2328
   36.495    2.2959
   36.510    2.5592
   36.525    2.3907
   36.540    2.3697
   36.555    2.3275
   36.570    2.5382
   36.585    2.4013
   36.600    2.4961
   36.615    2.8331
   36.630    2.6224
   36.645    2.3486
   36.660    2.4855
   36.675    2.2643
   36.690    2.4434
   36.705    2.3486
   36.720    2.2749
   36.735    2.5592
   36.750    2.4013
   36.765    2.6856
   36.780    2.6435
   36.795    2.4329
   36.810    2.3697
   36.825    2.4645
   36.840    2.3907
   36.855    2.4434
   36.870    2.4539
   36.885    2.4223
   36.900    2.4118
   36.915    2.6330
   36.930    2.7278
   36.945    2.4645
   36.960    2.3486
   36.975    2.4329
   36.990    2.7278
   37.005    2.5803
   37.020    2.3381
   37.035    2.3591
   37.050    2.2433
   37.065    2.7278
   37.080    2.3802
   37.095    2.2012
   37.110    2.5487
   37.125    2.4013
   37.140    2.3802
   37.155    2.5276
   37.170    2.3907
   37.185    2.2012
   37.200    2.0116
   37.215    2.4645
   37.230    2.3591
   37.245    2.5066
   37.260    2.3802
   37.275    2.1485
   37.290    2.2538
   37.305    2.4539
   37.320    2.5171
   37.335    2.7804
   37.350    2.5803
   37.365    2.4645
   37.380    2.3170
   37.395    2.3907
   37.410    2.2222
   37.425    2.4750
   37.440    2.5066
   37.455    2.2012
   37.470    2.2538
   37.485    2.4645
   37.500    2.3381
   37.515    2.4855
   37.530    2.5066
   37.545    2.3591
   37.560    2.4539
   37.575    2.2749
   37.590    2.2328
   37.605    2.5066
   37.620    2.2328
   37.635    2.5171
   37.650    2.3170
   37.665    2.3802
   37.680    2.4223
   37.695    2.3065
   37.710    2.2959
   37.725    2.3591
   37.740    2.4539
   37.755    2.3275
   37.770    2.3907
   37.785    2.4329
   37.800    2.4539
   37.815    2.2222
   37.830    2.3065
   37.845    2.3802
   37.860    2.2433
   37.875    2.4434
   37.890    2.4118
   37.905    2.3697
   37.920    2.2117
   37.935    2.3486
   37.950    2.3170
   37.965    2.4434
   37.980    2.2538
   37.995    2.3697
   38.010    2.4645
   38.025    2.3697
   38.040    2.2959
   38.055    2.2433
   38.070    2.3486
   38.085    2.3170
   38.100    2.3381
   38.115    2.3697
   38.130    2.4118
   38.145    2.3170
   38.160    2.3802
   38.175    2.3907
   38.190    2.3065
   38.205    2.4013
   38.220    2.4329
   38.235    2.6014
   38.250    2.4223
   38.265    2.4750
   38.280    2.5698
   38.295    2.3170
   38.310    2.3170
   38.325    2.1169
   38.340    2.2328
   38.355    2.2012
   38.370    2.5698
   38.385    2.5066
   38.400    2.2959
   38.415    2.3697
   38.430    2.2433
   38.445    2.2643
   38.460    2.3486
   38.475    2.3170
   38.490    2.5171
   38.505    2.3381
   38.520    2.3275
   38.535    2.3486
   38.550    2.2643
   38.565    2.2643
   38.580    2.3697
   38.595    2.0748
   38.610    2.1485
   38.625    2.3907
   38.640    2.5276
   38.655    2.4750
   38.670    2.3065
   38.685    2.4013
   38.700    2.3697
   38.715    2.2854
   38.730    2.3802
   38.745    2.6330
   38.760    2.2749
   38.775    2.3591
   38.790    2.2959
   38.805    2.1906
   38.820    2.1906
   38.835    2.2538
   38.850    2.3170
   38.865    2.4223
   38.880    2.3170
   38.895    2.3591
   38.910    2.3065
   38.925    2.2854
   38.940    2.3697
   38.955    2.3381
   38.970    2.2643
   38.985    2.1696
   39.000    2.4223
   39.015    2.3697
   39.030    2.4539
   39.045    2.3275
   39.060    2.2959
   39.075    2.3591
   39.090    2.2433
   39.105    2.5803
   39.120    2.3381
   39.135    2.2643
   39.150    2.3170
   39.165    2.2117
   39.180    2.0958
   39.195    2.3170
   39.210    2.3065
   39.225    2.4855
   39.240    2.5592
   39.255    2.1485
   39.270    2.2538
   39.285    2.3486
   39.300    2.2538
   39.315    2.1801
   39.330    2.2117
   39.345    2.1169
   39.360    2.3802
   39.375    2.1064
   39.390    2.2854
   39.405    1.9905
   39.420    2.3802
   39.435    2.5592
   39.450    2.2749
   39.465    2.0748
   39.480    2.1380
   39.495    2.1906
   39.510    2.2854
   39.525    2.2538
   39.540    2.3170
   39.555    2.5066
   39.570    2.3065
   39.585    2.3065
   39.600    2.1485
   39.615    2.2538
   39.630    2.2328
   39.645    2.2538
   39.660    2.1169
   39.675    2.3802
   39.690    2.3275
   39.705    2.4329
   39.720    2.1801
   39.735    2.2749
   39.750    2.4223
   39.765    2.1485
   39.780    1.9905
   39.795    2.2538
   39.810    2.5803
   39.825    2.3065
   39.840    2.2117
   39.855    2.1064
   39.870    2.1169
   39.885    2.1274
   39.900    2.3275
   39.915    2.2117
   39.930    2.1906
   39.945    2.3381
   39.960    2.4961
   39.975    2.2854
   39.990    2.3065
