    1.500   38.1991
    1.515   38.2938
    1.530   38.0937
    1.545   37.6409
    1.560   37.1037
    1.575   38.4729
    1.590   37.4934
    1.605   37.4092
    1.620   36.7878
    1.635   36.5140
    1.650   37.1459
    1.665   37.1880
    1.680   37.2301
    1.695   36.5561
    1.710   36.6825
    1.725   37.1564
    1.740   35.9242
    1.755   37.5145
    1.770   36.7457
    1.785   36.3033
    1.800   37.5355
    1.815   37.9674
    1.830   37.0616
    1.845   36.3665
    1.860   36.7773
    1.875   36.0295
    1.890   36.8931
    1.905   36.4086
    1.920   36.0295
    1.935   36.0611
    1.950   37.2723
    1.965   36.5034
    1.980   36.4297
    1.995   37.4513
    2.010   37.2512
    2.025   36.9774
    2.040   37.7988
    2.055   37.9358
    2.070   38.3149
    2.085   37.9779
    2.100   38.7783
    2.115   37.8410
    2.130   38.3465
    2.145   38.1464
    2.160   38.6098
    2.175   39.2206
    2.190   40.1474
    2.205   39.1048
    2.220   39.6946
    2.235   40.2949
    2.250   40.7372
    2.265   41.3691
    2.280   40.8952
    2.295   41.6219
    2.310   41.1164
    2.325   41.9905
    2.340   43.1806
    2.355   42.7067
    2.370   43.4229
    2.385   43.6019
    2.400   43.3597
    2.415   45.0974
    2.430   46.1085
    2.445   46.5192
    2.460   46.5087
    2.475   46.3086
    2.490   47.4460
    2.505   47.4039
    2.520   48.2886
    2.535   49.2680
    2.550   50.4055
    2.565   50.5213
    2.580   52.2802
    2.595   52.5119
    2.610   53.6598
    2.625   54.3339
    2.640   54.8710
    2.655   56.6403
    2.670   56.8931
    2.685   56.8299
    2.700   57.2512
    2.715   59.1680
    2.730   60.4423
    2.745   62.7488
    2.760   62.8963
    2.775   64.5287
    2.790   66.3612
    2.805   66.9510
    2.820   68.2886
    2.835   68.9731
    2.850   70.0579
    2.865   72.8278
    2.880   73.9442
    2.895   76.0190
    2.910   77.8620
    2.925   80.0948
    2.940   82.3907
    2.955   85.2870
    2.970   86.3507
    2.985   88.6572
    3.000   91.4692
    3.015   93.6598
    3.030   95.5661
    3.045   99.0100
    3.060  100.4423
    3.075  101.9800
    3.090  107.7620
    3.105  110.4476
    3.120  115.2396
    3.135  118.3254
    3.150  121.5377
    3.165  124.8236
    3.180  128.8994
    3.195  132.9437
    3.210  138.8520
    3.225  145.2238
    3.240  147.9621
    3.255  153.3439
    3.270  158.7046
    3.285  162.0327
    3.300  169.9526
    3.315  179.2101
    3.330  183.9389
    3.345  191.4587
    3.360  197.7357
    3.375  206.0558
    3.390  212.2064
    3.405  219.4629
    3.420  228.6256
    3.435  235.1027
    3.450  240.2106
    3.465  246.1611
    3.480  247.4355
    3.495  245.8347
    3.510  239.6419
    3.525  229.3839
    3.540  222.1485
    3.555  211.5851
    3.570  196.7667
    3.585  186.2770
    3.600  177.1669
    3.615  169.9948
    3.630  162.9068
    3.645  156.9458
    3.660  153.1122
    3.675  149.1522
    3.690  148.0569
    3.705  144.6024
    3.720  143.3176
    3.735  143.3386
    3.750  142.2960
    3.765  142.0432
    3.780  143.2754
    3.795  143.3281
    3.810  143.7493
    3.825  143.4439
    3.840  145.5924
    3.855  142.1485
    3.870  143.0542
    3.885  141.9484
    3.900  140.6530
    3.915  137.6935
    3.930  133.1438
    3.945  129.4366
    3.960  122.6962
    3.975  116.5666
    3.990  109.5419
    4.005  102.8015
    4.020   93.7230
    4.035   87.5724
    4.050   81.0005
    4.065   74.2917
    4.080   67.3512
    4.095   62.9173
    4.110   58.5571
    4.125   54.4392
    4.140   50.2264
    4.155   47.3723
    4.170   43.7178
    4.185   40.6319
    4.200   38.0832
    4.215   36.8088
    4.230   34.0495
    4.245   32.3960
    4.260   30.5635
    4.275   29.6051
    4.290   28.6045
    4.305   26.5087
    4.320   25.3291
    4.335   25.3291
    4.350   23.6967
    4.365   22.0748
    4.380   21.9905
    4.395   20.8847
    4.410   20.3791
    4.425   20.6214
    4.440   19.6103
    4.455   19.1048
    4.470   18.7256
    4.485   17.3670
    4.500   17.1353
    4.515   16.5561
    4.530   16.6087
    4.545   16.3454
    4.560   15.6398
    4.575   15.2712
    4.590   15.2185
    4.605   15.6609
    4.620   15.5029
    4.635   14.9236
    4.650   14.4392
    4.665   13.9863
    4.680   14.1232
    4.695   13.7546
    4.710   13.6598
    4.725   13.1543
    4.740   12.8489
    4.755   13.2807
    4.770   13.1648
    4.785   13.0384
    4.800   12.4065
    4.815   12.9015
    4.830   13.2385
    4.845   12.9331
    4.860   12.5434
    4.875   12.3433
    4.890   12.5645
    4.905   12.5645
    4.920   12.2591
    4.935   11.7957
    4.950   11.7536
    4.965   12.0169
    4.980   12.0484
    4.995   11.7220
    5.010   12.1116
    5.025   11.9221
    5.040   11.5745
    5.055   11.3744
    5.070   11.5429
    5.085   11.5113
    5.100   11.1638
    5.115   11.6272
    5.130   11.5113
    5.145   11.3323
    5.160   11.2796
    5.175   11.2059
    5.190   11.1848
    5.205   10.8583
    5.220   11.1006
    5.235   11.1111
    5.250   11.6482
    5.265   11.2270
    5.280   11.2586
    5.295   11.1848
    5.310   11.0900
    5.325   10.5635
    5.340   11.0690
    5.355   10.9637
    5.370   10.6688
    5.385   10.3423
    5.400   10.4897
    5.415   10.3528
    5.430   10.8162
    5.445   11.1743
    5.460   10.5424
    5.475   10.9005
    5.490   10.4160
    5.505   10.4265
    5.520   10.2791
    5.535   10.2370
    5.550   10.0579
    5.565   10.4687
    5.580    9.9315
    5.595    9.9631
    5.610   10.2370
    5.625    9.9842
    5.640    9.6367
    5.655    9.7209
    5.670    9.7314
    5.685    9.4471
    5.700   10.5108
    5.715   10.3633
    5.730    9.7104
    5.745    9.7420
    5.760    9.7314
    5.775    9.6682
    5.790    9.8157
    5.805    9.9210
    5.820    9.5313
    5.835    9.7104
    5.850    9.6788
    5.865    9.5735
    5.880    9.1943
    5.895    9.6367
    5.910   10.0790
    5.925    9.7525
    5.940    9.6998
    5.955    9.6261
    5.970    9.7314
    5.985    9.8368
    6.000    9.7104
    6.015    9.5945
    6.030    9.6472
    6.045    9.9315
    6.060   10.0685
    6.075    9.8052
    6.090    9.7841
    6.105   10.2264
    6.120   10.0369
    6.135   10.0369
    6.150   10.1106
    6.165   10.2370
    6.180   10.4792
    6.195   10.0579
    6.210   10.4160
    6.225   10.6372
    6.240   10.8162
    6.255   10.9847
    6.270   10.5529
    6.285   10.9321
    6.300   11.2375
    6.315   11.4376
    6.330   11.2796
    6.345   11.4903
    6.360   11.1954
    6.375   12.1011
    6.390   12.0695
    6.405   12.0063
    6.420   12.8278
    6.435   12.7541
    6.450   12.7857
    6.465   12.9331
    6.480   13.5334
    6.495   13.1648
    6.510   14.0074
    6.525   14.2285
    6.540   14.5445
    6.555   14.1864
    6.570   15.0500
    6.585   15.5977
    6.600   15.1237
    6.615   15.8715
    6.630   16.8088
    6.645   17.1459
    6.660   17.4934
    6.675   18.3360
    6.690   19.2628
    6.705   20.0000
    6.720   20.5793
    6.735   21.6535
    6.750   22.1169
    6.765   23.3491
    6.780   23.4650
    6.795   23.7493
    6.810   25.6767
    6.825   26.6245
    6.840   27.7514
    6.855   29.0890
    6.870   30.2264
    6.885   31.1743
    6.900   32.5750
    6.915   33.6914
    6.930   35.1238
    6.945   37.4302
    6.960   37.8094
    6.975   37.5987
    6.990   37.3144
    7.005   36.5561
    7.020   36.4508
    7.035   34.7973
    7.050   32.9963
    7.065   31.3218
    7.080   29.3312
    7.095   27.0669
    7.110   25.8241
    7.125   24.6340
    7.140   22.5487
    7.155   21.3270
    7.170   21.0743
    7.185   20.1053
    7.200   19.2733
    7.215   18.7783
    7.230   18.0411
    7.245   17.4513
    7.260   17.3038
    7.275   16.8720
    7.290   17.3776
    7.305   17.2828
    7.320   16.9879
    7.335   16.3876
    7.350   16.9879
    7.365   17.6093
    7.380   16.7667
    7.395   16.8826
    7.410   16.8299
    7.425   17.0511
    7.440   17.4934
    7.455   17.9463
    7.470   17.4302
    7.485   17.7672
    7.500   18.3886
    7.515   18.6835
    7.530   18.4729
    7.545   19.0311
    7.560   19.0521
    7.575   19.9157
    7.590   21.0216
    7.605   22.0221
    7.620   21.7062
    7.635   22.4329
    7.650   23.3702
    7.665   23.2438
    7.680   24.0969
    7.695   24.9605
    7.710   25.5714
    7.725   26.4034
    7.740   25.8557
    7.755   27.0458
    7.770   28.4466
    7.785   28.4887
    7.800   28.9100
    7.815   28.7414
    7.830   27.9937
    7.845   28.1201
    7.860   29.0574
    7.875   28.6361
    7.890   28.3096
    7.905   27.5513
    7.920   26.8562
    7.935   25.1922
    7.950   25.2870
    7.965   24.4128
    7.980   22.7172
    7.995   23.1912
    8.010   20.5898
    8.025   20.0211
    8.040   19.5366
    8.055   19.0521
    8.070   18.5887
    8.085   18.2412
    8.100   16.9036
    8.115   16.7141
    8.130   15.8504
    8.145   15.2185
    8.160   14.7973
    8.175   14.4392
    8.190   14.0706
    8.205   13.5966
    8.220   12.7857
    8.235   12.3117
    8.250   12.9015
    8.265   12.7014
    8.280   12.6593
    8.295   12.1432
    8.310   11.9537
    8.325   11.6061
    8.340   11.4165
    8.355   10.8794
    8.370   11.0058
    8.385   10.7846
    8.400   10.7109
    8.415   10.4687
    8.430   10.6688
    8.445   10.4160
    8.460   10.5951
    8.475    9.9210
    8.490    9.6682
    8.505   10.5845
    8.520    9.8052
    8.535    9.8999
    8.550    9.6577
    8.565    9.8052
    8.580    9.6998
    8.595    9.9947
    8.610    9.3944
    8.625    9.4155
    8.640    9.4155
    8.655    9.6367
    8.670    9.4576
    8.685    9.0469
    8.700    8.8678
    8.715    8.8257
    8.730    8.4255
    8.745    8.8678
    8.760    8.7625
    8.775    9.3734
    8.790    8.6467
    8.805    8.9731
    8.820    9.3628
    8.835    8.7836
    8.850    9.0363
    8.865    8.8257
    8.880    8.7941
    8.895    8.5413
    8.910    8.3202
    8.925    8.4360
    8.940    8.3202
    8.955    8.5308
    8.970    8.0779
    8.985    8.4887
    9.000    8.2464
    9.015    8.6888
    9.030    8.3202
    9.045    7.9516
    9.060    8.1622
    9.075    8.6045
    9.090    8.6467
    9.105    8.3202
    9.120    8.0569
    9.135    8.2043
    9.150    8.4044
    9.165    8.0569
    9.180    8.0147
    9.195    8.3096
    9.210    7.9516
    9.225    7.9516
    9.240    7.9831
    9.255    7.9305
    9.270    8.0147
    9.285    7.8357
    9.300    8.2991
    9.315    8.2570
    9.330    8.6783
    9.345    8.2886
    9.360    8.1306
    9.375    8.3728
    9.390    8.5203
    9.405    7.6145
    9.420    7.8568
    9.435    8.2675
    9.450    7.8462
    9.465    8.1411
    9.480    7.8146
    9.495    7.9410
    9.510    7.8673
    9.525    8.1517
    9.540    7.9410
    9.555    8.4781
    9.570    8.0358
    9.585    7.4776
    9.600    7.8146
    9.615    8.2359
    9.630    8.0463
    9.645    7.8462
    9.660    7.8778
    9.675    7.9621
    9.690    7.6883
    9.705    8.1201
    9.720    8.1517
    9.735    7.7936
    9.750    7.7409
    9.765    8.1411
    9.780    8.1095
    9.795    7.7304
    9.810    7.5829
    9.825    7.8041
    9.840    8.0463
    9.855    8.1517
    9.870    7.7830
    9.885    7.8673
    9.900    8.0990
    9.915    8.2254
    9.930    8.6045
    9.945    8.0990
    9.960    8.2254
    9.975    8.2991
    9.990    8.0569
   10.005    7.7620
   10.020    7.9516
   10.035    8.1727
   10.050    7.9726
   10.065    8.4992
   10.080    8.2780
   10.095    7.8252
   10.110    7.9831
   10.125    7.7514
   10.140    7.7304
   10.155    8.2780
   10.170    8.0569
   10.185    7.9516
   10.200    8.5097
   10.215    8.1622
   10.230    8.2886
   10.245    8.3412
   10.260    8.5624
   10.275    8.3834
   10.290    8.3202
   10.305    8.2780
   10.320    8.1938
   10.335    8.2780
   10.350    8.1938
   10.365    8.5308
   10.380    9.2996
   10.395    8.8889
   10.410    8.6888
   10.425    8.7520
   10.440    8.4992
   10.455    8.2991
   10.470    8.5203
   10.485    8.7730
   10.500    8.7941
   10.515    8.8046
   10.530    9.0047
   10.545    8.8994
   10.560    8.6045
   10.575    8.5940
   10.590    8.1833
   10.605    8.6572
   10.620    8.6993
   10.635    8.7520
   10.650    8.7730
   10.665    8.3307
   10.680    8.3307
   10.695    8.2780
   10.710    8.1622
   10.725    8.1517
   10.740    8.5519
   10.755    8.1306
   10.770    8.2780
   10.785    8.5203
   10.800    7.9410
   10.815    8.3307
   10.830    8.2570
   10.845    8.2359
   10.860    8.0674
   10.875    8.2149
   10.890    8.2675
   10.905    8.3412
   10.920    7.7409
   10.935    8.6467
   10.950    8.2570
   10.965    8.1095
   10.980    8.2464
   10.995    8.4044
   11.010    8.0042
   11.025    7.9726
   11.040    7.8778
   11.055    8.2675
   11.070    8.2149
   11.085    8.4255
   11.100    8.4887
   11.115    8.0779
   11.130    7.9094
   11.145    7.9410
   11.160    8.0463
   11.175    8.5519
   11.190    8.8784
   11.205    8.0990
   11.220    8.3834
   11.235    8.2780
   11.250    8.1411
   11.265    8.5729
   11.280    8.7836
   11.295    8.6993
   11.310    8.4571
   11.325    9.0047
   11.340    8.6045
   11.355    8.8889
   11.370    8.9837
   11.385    8.8994
   11.400    9.2996
   11.415    8.8784
   11.430    9.1206
   11.445    8.7836
   11.460    9.0679
   11.475    9.3628
   11.490    9.1627
   11.505    9.4260
   11.520    9.2154
   11.535    9.3523
   11.550    9.2786
   11.565    9.3523
   11.580    9.1732
   11.595    9.7525
   11.610    9.4471
   11.625    9.5735
   11.640    9.7209
   11.655    9.6261
   11.670    9.3839
   11.685    9.5208
   11.700   10.2370
   11.715    9.9842
   11.730   10.1527
   11.745   10.2896
   11.760   10.1527
   11.775   10.4897
   11.790   10.4687
   11.805    9.9105
   11.820    9.7946
   11.835   10.1316
   11.850   10.0579
   11.865    9.6788
   11.880    9.8368
   11.895   10.3002
   11.910   10.3423
   11.925    9.6367
   11.940    9.4471
   11.955    9.6682
   11.970    9.9105
   11.985    9.7420
   12.000    9.5419
   12.015    9.4155
   12.030    9.7736
   12.045    9.3523
   12.060    9.2680
   12.075    9.4681
   12.090    8.9310
   12.105    8.6361
   12.120    9.4050
   12.135    9.4787
   12.150    9.3523
   12.165    8.7309
   12.180    8.6993
   12.195    9.1522
   12.210    8.7414
   12.225    8.7204
   12.240    8.9310
   12.255    8.7309
   12.270    8.7836
   12.285    8.5308
   12.300    9.3523
   12.315    8.7204
   12.330    8.4150
   12.345    8.5835
   12.360    8.5940
   12.375    8.6256
   12.390    8.6151
   12.405    9.1838
   12.420    8.6993
   12.435    8.3518
   12.450    8.4992
   12.465    8.5729
   12.480    8.6888
   12.495    8.4360
   12.510    8.3412
   12.525    8.9205
   12.540    9.1732
   12.555    8.5624
   12.570    8.7414
   12.585    8.1727
   12.600    8.3623
   12.615    8.2359
   12.630    8.2254
   12.645    8.6993
   12.660    8.8889
   12.675    8.5624
   12.690    8.4255
   12.705    8.3202
   12.720    8.3939
   12.735    8.8784
   12.750    8.3096
   12.765    8.6677
   12.780    8.7730
   12.795    8.6256
   12.810    8.6677
   12.825    8.6256
   12.840    8.7204
   12.855    8.4676
   12.870    8.9310
   12.885    8.9837
   12.900    8.8152
   12.915    8.3728
   12.930    8.6993
   12.945    8.5413
   12.960    8.4360
   12.975    8.6045
   12.990    9.0679
   13.005    8.7098
   13.020    8.5413
   13.035    8.8152
   13.050    8.6256
   13.065    8.4676
   13.080    8.5413
   13.095    9.0679
   13.110    8.4255
   13.125    8.2886
   13.140    9.0469
   13.155    8.4781
   13.170    8.5940
   13.185    8.4887
   13.200    8.4255
   13.215    8.9415
   13.230    8.5097
   13.245    8.7098
   13.260    8.5308
   13.275    8.6256
   13.290    8.4992
   13.305    8.3728
   13.320    8.8994
   13.335    8.3096
   13.350    8.8152
   13.365    8.2991
   13.380    8.2149
   13.395    8.3518
   13.410    8.6993
   13.425    8.2780
   13.440    8.6572
   13.455    8.5624
   13.470    8.4255
   13.485    8.5940
   13.500    8.6888
   13.515    8.5835
   13.530    8.4781
   13.545    8.4571
   13.560    8.3096
   13.575    8.3939
   13.590    8.3307
   13.605    8.2359
   13.620    8.5413
   13.635    8.3307
   13.650    8.2254
   13.665    8.1201
   13.680    8.1938
   13.695    8.5835
   13.710    8.7520
   13.725    8.5940
   13.740    8.2149
   13.755    8.4255
   13.770    7.9937
   13.785    8.0990
   13.800    7.8357
   13.815    8.1833
   13.830    8.0885
   13.845    7.8884
   13.860    8.2359
   13.875    8.1938
   13.890    8.1517
   13.905    8.1201
   13.920    8.4887
   13.935    8.0147
   13.950    8.3728
   13.965    8.2780
   13.980    8.2254
   13.995    8.2570
   14.010    8.0990
   14.025    8.5835
   14.040    8.3412
   14.055    8.0147
   14.070    8.6783
   14.085    8.2043
   14.100    7.9831
   14.115    8.2359
   14.130    8.0463
   14.145    8.1411
   14.160    8.0463
   14.175    8.3939
   14.190    7.9621
   14.205    8.3728
   14.220    8.4781
   14.235    8.6888
   14.250    8.3518
   14.265    7.9831
   14.280    7.9516
   14.295    8.5624
   14.310    8.6361
   14.325    8.2991
   14.340    8.1833
   14.355    7.7514
   14.370    8.2043
   14.385    8.1727
   14.400    8.3096
   14.415    8.2675
   14.430    8.1411
   14.445    8.3623
   14.460    8.5413
   14.475    8.1517
   14.490    7.3934
   14.505    7.9516
   14.520    8.2464
   14.535    8.1727
   14.550    8.0042
   14.565    8.4781
   14.580    8.1095
   14.595    7.7620
   14.610    8.2675
   14.625    8.2043
   14.640    7.8252
   14.655    7.8884
   14.670    7.8673
   14.685    7.9621
   14.700    7.9410
   14.715    8.2675
   14.730    8.5729
   14.745    8.3834
   14.760    8.5203
   14.775    8.2359
   14.790    8.5203
   14.805    8.2043
   14.820    8.2675
   14.835    8.5835
   14.850    8.3518
   14.865    8.6151
   14.880    8.0358
   14.895    8.2570
   14.910    8.5835
   14.925    8.1622
   14.940    8.1201
   14.955    8.0358
   14.970    7.8357
   14.985    7.9726
   15.000    8.1938
   15.015    8.2991
   15.030    7.9516
   15.045    8.2359
   15.060    8.4255
   15.075    8.3412
   15.090    8.5624
   15.105    8.3834
   15.120    8.3939
   15.135    8.5203
   15.150    8.1938
   15.165    7.9831
   15.180    8.4360
   15.195    7.9410
   15.210    8.4676
   15.225    8.4676
   15.240    8.6256
   15.255    8.2886
   15.270    8.6045
   15.285    8.6256
   15.300    8.2991
   15.315    8.0569
   15.330    8.4571
   15.345    8.4887
   15.360    8.5835
   15.375    8.5203
   15.390    8.3728
   15.405    8.2043
   15.420    8.5308
   15.435    8.1517
   15.450    8.4150
   15.465    8.7098
   15.480    8.9731
   15.495    8.5835
   15.510    8.4255
   15.525    8.5413
   15.540    8.2570
   15.555    8.2149
   15.570    8.6888
   15.585    8.3834
   15.600    8.6572
   15.615    8.2359
   15.630    8.4466
   15.645    8.4255
   15.660    8.8784
   15.675    8.6256
   15.690    7.9937
   15.705    8.3939
   15.720    8.4255
   15.735    8.4781
   15.750    8.8362
   15.765    8.5308
   15.780    8.6045
   15.795    8.2149
   15.810    8.6256
   15.825    8.3518
   15.840    8.3518
   15.855    8.4992
   15.870    8.5624
   15.885    8.3834
   15.900    8.4887
   15.915    8.4360
   15.930    8.1517
   15.945    8.4676
   15.960    8.3202
   15.975    8.3412
   15.990    8.4044
   16.005    8.5203
   16.020    8.6151
   16.035    8.3202
   16.050    8.2886
   16.065    8.3834
   16.080    8.5097
   16.095    8.1095
   16.110    8.0885
   16.125    7.9516
   16.140    8.2675
   16.155    8.4255
   16.170    8.3096
   16.185    8.3728
   16.200    8.1306
   16.215    8.0885
   16.230    8.1622
   16.245    7.7830
   16.260    7.9516
   16.275    7.8146
   16.290    7.7725
   16.305    8.0253
   16.320    8.0253
   16.335    8.0147
   16.350    7.6777
   16.365    7.7093
   16.380    7.8462
   16.395    8.0253
   16.410    7.9410
   16.425    7.9831
   16.440    7.9621
   16.455    8.2149
   16.470    8.1306
   16.485    7.9410
   16.500    8.0042
   16.515    8.0042
   16.530    7.9200
   16.545    8.0463
   16.560    8.0358
   16.575    8.0569
   16.590    7.9937
   16.605    8.6256
   16.620    8.0253
   16.635    7.6883
   16.650    7.8778
   16.665    8.0253
   16.680    8.2570
   16.695    8.0990
   16.710    8.0147
   16.725    7.7199
   16.740    7.9831
   16.755    7.9410
   16.770    8.2464
   16.785    8.0463
   16.800    8.0779
   16.815    7.9200
   16.830    7.9726
   16.845    7.9726
   16.860    8.0674
   16.875    7.8146
   16.890    7.8252
   16.905    7.9621
   16.920    7.8673
   16.935    7.8146
   16.950    8.1095
   16.965    8.0253
   16.980    8.2675
   16.995    7.8673
   17.010    7.7620
   17.025    8.0674
   17.040    8.0990
   17.055    8.0253
   17.070    8.0147
   17.085    8.0990
   17.100    8.3728
   17.115    7.9305
   17.130    8.0253
   17.145    7.9831
   17.160    8.2359
   17.175    8.4887
   17.190    8.0990
   17.205    8.0990
   17.220    7.8989
   17.235    8.7204
   17.250    7.8568
   17.265    8.0674
   17.280    8.3202
   17.295    7.9200
   17.310    7.7620
   17.325    8.0463
   17.340    8.4571
   17.355    8.2570
   17.370    8.1095
   17.385    8.4150
   17.400    8.2149
   17.415    8.2886
   17.430    8.1517
   17.445    8.1938
   17.460    7.9410
   17.475    8.3518
   17.490    8.1201
   17.505    8.7836
   17.520    8.5835
   17.535    8.7625
   17.550    8.7836
   17.565    8.7098
   17.580    8.5835
   17.595    8.1095
   17.610    8.2570
   17.625    8.1727
   17.640    8.6361
   17.655    8.0674
   17.670    7.9305
   17.685    8.4781
   17.700    8.1938
   17.715    8.4044
   17.730    8.5097
   17.745    8.7730
   17.760    8.6151
   17.775    8.2991
   17.790    8.3202
   17.805    8.1938
   17.820    8.0674
   17.835    8.5624
   17.850    8.6045
   17.865    8.2991
   17.880    8.7204
   17.895    8.7309
   17.910    8.5413
   17.925    8.4887
   17.940    8.1306
   17.955    8.5308
   17.970    8.6677
   17.985    8.4887
   18.000    8.6467
   18.015    9.0047
   18.030    8.5835
   18.045    8.4044
   18.060    8.5413
   18.075    9.1417
   18.090    9.0363
   18.105    8.8994
   18.120    8.4571
   18.135    8.1306
   18.150    8.4571
   18.165    8.5519
   18.180    8.5940
   18.195    8.1622
   18.210    8.5940
   18.225    8.8257
   18.240    8.8046
   18.255    8.7204
   18.270    8.5097
   18.285    8.2886
   18.300    8.2149
   18.315    8.1095
   18.330    8.2886
   18.345    8.3834
   18.360    8.0463
   18.375    8.1517
   18.390    8.4255
   18.405    8.1306
   18.420    8.4676
   18.435    8.0358
   18.450    8.2464
   18.465    8.8046
   18.480    8.4571
   18.495    8.4466
   18.510    8.4571
   18.525    8.6888
   18.540    8.2043
   18.555    8.3096
   18.570    8.2254
   18.585    8.3202
   18.600    8.3307
   18.615    8.2675
   18.630    8.1938
   18.645    8.0674
   18.660    7.7830
   18.675    8.4571
   18.690    8.3412
   18.705    8.1411
   18.720    8.2886
   18.735    7.9410
   18.750    8.3728
   18.765    8.1727
   18.780    8.3096
   18.795    8.7309
   18.810    8.4571
   18.825    8.2149
   18.840    8.4255
   18.855    8.1938
   18.870    8.2043
   18.885    8.6045
   18.900    8.8889
   18.915    8.6783
   18.930    8.2780
   18.945    8.4466
   18.960    8.2570
   18.975    8.8573
   18.990    8.8784
   19.005    8.0990
   19.020    8.5308
   19.035    8.4992
   19.050    8.4781
   19.065    8.0674
   19.080    8.0990
   19.095    8.4992
   19.110    8.3202
   19.125    8.2886
   19.140    8.5308
   19.155    8.6361
   19.170    8.6256
   19.185    8.7941
   19.200    8.4992
   19.215    8.6467
   19.230    8.2675
   19.245    8.0569
   19.260    8.2675
   19.275    8.3623
   19.290    8.3307
   19.305    8.7520
   19.320    8.2043
   19.335    7.9831
   19.350    8.6256
   19.365    8.3939
   19.380    8.2043
   19.395    8.5519
   19.410    8.3096
   19.425    8.4255
   19.440    8.7414
   19.455    8.9415
   19.470    8.9521
   19.485    9.1101
   19.500    9.0363
   19.515    8.9521
   19.530    8.5729
   19.545    8.8468
   19.560    9.1206
   19.575    9.1311
   19.590    8.6256
   19.605    8.5203
   19.620    9.2470
   19.635    8.5413
   19.650    8.4887
   19.665    8.6045
   19.680    8.4887
   19.695    8.9310
   19.710    8.9100
   19.725    8.9837
   19.740    8.5729
   19.755    8.7414
   19.770    9.1522
   19.785    9.3207
   19.800    9.0258
   19.815    8.7520
   19.830    9.1417
   19.845    9.5103
   19.860    8.8784
   19.875    9.0890
   19.890    9.0995
   19.905    9.2154
   19.920    9.5840
   19.935    8.9205
   19.950    8.9837
   19.965    8.9521
   19.980    8.9205
   19.995    8.8784
   20.010    9.5945
   20.025    9.3628
   20.040    8.9205
   20.055    9.0258
   20.070    9.4681
   20.085    9.7104
   20.100    9.3523
   20.115    9.5208
   20.130    9.6472
   20.145    9.2786
   20.160    9.3418
   20.175    9.4365
   20.190    9.6261
   20.205    9.3102
   20.220    9.7420
   20.235   10.2159
   20.250    9.8157
   20.265    9.2996
   20.280    9.2575
   20.295    9.5103
   20.310    9.4471
   20.325    9.3628
   20.340    9.4787
   20.355    9.2048
   20.370    9.5629
   20.385    9.6367
   20.400    9.0469
   20.415    9.1311
   20.430    9.5419
   20.445    9.3944
   20.460    9.4892
   20.475    8.9100
   20.490    9.5945
   20.505    9.3734
   20.520    9.1311
   20.535    9.7736
   20.550    9.6893
   20.565    9.3944
   20.580    9.4787
   20.595   10.1843
   20.610    9.7525
   20.625    9.7209
   20.640    9.1101
   20.655    9.7736
   20.670    9.7420
   20.685    9.2364
   20.700    9.4471
   20.715    9.2364
   20.730    9.5524
   20.745    9.6472
   20.760    9.5735
   20.775    9.6261
   20.790    9.7630
   20.805    9.4471
   20.820    9.4471
   20.835    9.6998
   20.850    9.2259
   20.865    9.4787
   20.880    9.8262
   20.895    9.6682
   20.910    9.6998
   20.925    9.8894
   20.940    9.9421
   20.955   10.1738
   20.970    9.7420
   20.985    9.7209
   21.000   10.0895
   21.015   10.3739
   21.030    9.9842
   21.045    9.9842
   21.060    9.9526
   21.075    9.9315
   21.090    9.8789
   21.105    9.8473
   21.120   10.5213
   21.135   10.3212
   21.150    9.5419
   21.165    9.8894
   21.180    9.9210
   21.195    9.1101
   21.210    9.1943
   21.225    9.6051
   21.240   10.1948
   21.255   10.0474
   21.270    9.9631
   21.285    9.6367
   21.300    9.8578
   21.315    9.6998
   21.330    9.9105
   21.345    9.9842
   21.360    9.7209
   21.375   10.0685
   21.390    9.6577
   21.405    9.7946
   21.420   10.1632
   21.435    9.9842
   21.450    9.6261
   21.465    9.5313
   21.480    9.5629
   21.495    9.9421
   21.510    9.2786
   21.525    9.6261
   21.540    9.5945
   21.555    9.6261
   21.570    9.3418
   21.585    9.6893
   21.600    9.6893
   21.615    9.6682
   21.630    9.7104
   21.645    9.2891
   21.660   10.2686
   21.675    9.8789
   21.690    9.5840
   21.705    9.6156
   21.720   10.2791
   21.735   10.2264
   21.750    9.8473
   21.765    9.6682
   21.780    9.5735
   21.795    9.5840
   21.810    9.3839
   21.825    9.3944
   21.840    9.4050
   21.855    9.6788
   21.870    9.8999
   21.885   10.4160
   21.900   10.1316
   21.915    9.2996
   21.930    8.9415
   21.945   10.1948
   21.960    9.8262
   21.975    9.6577
   21.990   10.1843
   22.005    9.7946
   22.020    9.2891
   22.035    9.7209
   22.050    9.9210
   22.065   10.0053
   22.080    9.4997
   22.095    9.7736
   22.110    9.9737
   22.125    9.9842
   22.140    9.6577
   22.155    9.6577
   22.170    9.7314
   22.185    9.9737
   22.200   10.2159
   22.215   10.3212
   22.230    9.9526
   22.245    9.9631
   22.260    9.9737
   22.275    9.8473
   22.290    9.9947
   22.305    9.8368
   22.320   10.1422
   22.335   10.0895
   22.350    9.4260
   22.365   10.0895
   22.380   10.2159
   22.395    9.8684
   22.410   10.4897
   22.425   10.2791
   22.440    9.8578
   22.455   10.0895
   22.470   10.5635
   22.485    9.9737
   22.500   10.0685
   22.515    9.9210
   22.530   10.2054
   22.545   10.2159
   22.560   10.4792
   22.575   10.3002
   22.590   10.3423
   22.605   10.0158
   22.620   10.2580
   22.635   10.2475
   22.650   10.4265
   22.665   10.4160
   22.680   10.0369
   22.695   10.4055
   22.710    9.9210
   22.725    9.7420
   22.740   10.0685
   22.755   10.2791
   22.770   10.1948
   22.785    9.9315
   22.800   10.0790
   22.815   10.3739
   22.830   10.3633
   22.845   10.3423
   22.860   10.2264
   22.875    9.9737
   22.890    9.8368
   22.905   10.1527
   22.920    9.7841
   22.935    9.6893
   22.950    9.6788
   22.965    9.9947
   22.980    9.8789
   22.995   10.0474
   23.010   10.1843
   23.025    9.5419
   23.040    9.6682
   23.055    9.5313
   23.070    9.7841
   23.085    9.5313
   23.100    9.4365
   23.115    9.4365
   23.130    9.2470
   23.145    9.2470
   23.160    9.5945
   23.175    9.3734
   23.190    9.1417
   23.205    9.5419
   23.220    9.3628
   23.235    9.4260
   23.250    9.8578
   23.265    9.5524
   23.280    9.8578
   23.295    9.3312
   23.310    9.2364
   23.325    9.5629
   23.340    9.1101
   23.355    9.2575
   23.370    9.3102
   23.385    9.1101
   23.400    9.3839
   23.415    9.3944
   23.430    9.3207
   23.445    9.2364
   23.460    9.2996
   23.475    9.3102
   23.490    8.8889
   23.505    8.8573
   23.520    9.3207
   23.535    9.1943
   23.550    8.8362
   23.565    8.5097
   23.580    8.8257
   23.595    9.4050
   23.610    9.2575
   23.625    9.5735
   23.640    9.4155
   23.655    8.9837
   23.670    9.4155
   23.685    9.4471
   23.700    9.0469
   23.715    9.3944
   23.730    8.9310
   23.745    8.9310
   23.760    8.9837
   23.775    9.2048
   23.790    8.9521
   23.805    9.2259
   23.820    8.8046
   23.835    9.3839
   23.850    9.1627
   23.865    9.0363
   23.880    9.1522
   23.895    8.8889
   23.910    9.2048
   23.925    9.5208
   23.940    8.7836
   23.955    8.6572
   23.970    8.8784
   23.985    9.0469
   24.000    8.6783
   24.015    8.6783
   24.030    8.9415
   24.045    9.0679
   24.060    8.7520
   24.075    8.7204
   24.090    8.7941
   24.105    8.5624
   24.120    8.8257
   24.135    8.6467
   24.150    8.9205
   24.165    8.6151
   24.180    9.2364
   24.195    8.9415
   24.210    9.2364
   24.225    8.9942
   24.240    8.8573
   24.255    8.8152
   24.270    8.8257
   24.285    9.2154
   24.300    9.3207
   24.315    9.1101
   24.330    9.0469
   24.345    8.7625
   24.360    8.9310
   24.375    9.4471
   24.390    9.4681
   24.405    9.1311
   24.420    8.8784
   24.435    8.9731
   24.450    9.0047
   24.465    8.3728
   24.480    8.4571
   24.495    8.8152
   24.510    8.8678
   24.525    9.1311
   24.540    9.3628
   24.555    9.2891
   24.570    9.4050
   24.585    9.1206
   24.600    9.4787
   24.615    9.4050
   24.630    9.3839
   24.645    8.8784
   24.660    8.7836
   24.675    9.3312
   24.690    9.8473
   24.705    9.3418
   24.720    8.7836
   24.735    8.6572
   24.750    9.0679
   24.765    9.4365
   24.780    9.2575
   24.795    8.5835
   24.810    8.8257
   24.825    9.3944
   24.840    9.1838
   24.855    8.9942
   24.870    8.9415
   24.885    8.9731
   24.900    9.1417
   24.915    8.8573
   24.930    8.7730
   24.945    9.0679
   24.960    8.6783
   24.975    8.9521
   24.990    8.6572
   25.005    9.0153
   25.020    8.7204
   25.035    8.6677
   25.050    8.7098
   25.065    8.6361
   25.080    8.7098
   25.095    8.3623
   25.110    8.5203
   25.125    8.5940
   25.140    8.4676
   25.155    8.7730
   25.170    8.2043
   25.185    8.0569
   25.200    8.5203
   25.215    8.3939
   25.230    8.5203
   25.245    8.3096
   25.260    8.5729
   25.275    8.4360
   25.290    8.3096
   25.305    8.4676
   25.320    8.3412
   25.335    7.9516
   25.350    8.8994
   25.365    8.5203
   25.380    8.4360
   25.395    8.4044
   25.410    8.4360
   25.425    8.0569
   25.440    8.2780
   25.455    8.1306
   25.470    8.4150
   25.485    8.4360
   25.500    8.3728
   25.515    8.3939
   25.530    8.5413
   25.545    8.0463
   25.560    8.1727
   25.575    8.2359
   25.590    8.7625
   25.605    8.4676
   25.620    7.8989
   25.635    8.2570
   25.650    7.9410
   25.665    7.8778
   25.680    7.9726
   25.695    8.1938
   25.710    7.9305
   25.725    8.1306
   25.740    7.9621
   25.755    8.3307
   25.770    8.2991
   25.785    7.7304
   25.800    8.1938
   25.815    8.1095
   25.830    8.3518
   25.845    7.9937
   25.860    7.7304
   25.875    7.9200
   25.890    8.1095
   25.905    7.8884
   25.920    7.9200
   25.935    8.2149
   25.950    8.3096
   25.965    7.8146
   25.980    7.9831
   25.995    8.0990
   26.010    8.0779
   26.025    7.9516
   26.040    8.3623
   26.055    7.8884
   26.070    7.8252
   26.085    8.3728
   26.100    7.8989
   26.115    8.0569
   26.130    8.2780
   26.145    8.4992
   26.160    7.9305
   26.175    8.0147
   26.190    8.4255
   26.205    8.3518
   26.220    7.8041
   26.235    7.9094
   26.250    7.9516
   26.265    8.1517
   26.280    7.6567
   26.295    7.8778
   26.310    7.7830
   26.325    7.8252
   26.340    7.8041
   26.355    7.8568
   26.370    8.2043
   26.385    7.8252
   26.400    7.6567
   26.415    8.1622
   26.430    8.3939
   26.445    8.0674
   26.460    8.0779
   26.475    7.9094
   26.490    8.1095
   26.505    7.8673
   26.520    8.1306
   26.535    7.7725
   26.550    8.3202
   26.565    8.2570
   26.580    7.7620
   26.595    7.6356
   26.610    7.7093
   26.625    8.0885
   26.640    8.1411
   26.655    7.9831
   26.670    7.6883
   26.685    8.1411
   26.700    8.0253
   26.715    8.1622
   26.730    7.9937
   26.745    7.8041
   26.760    8.0674
   26.775    7.9726
   26.790    7.9305
   26.805    8.2675
   26.820    8.3096
   26.835    7.8357
   26.850    8.4887
   26.865    8.4044
   26.880    7.8778
   26.895    7.8041
   26.910    7.9410
   26.925    7.9726
   26.940    7.9094
   26.955    8.0463
   26.970    7.8462
   26.985    7.8884
   27.000    8.0885
   27.015    7.8884
   27.030    8.0253
   27.045    8.3728
   27.060    8.3202
   27.075    8.2359
   27.090    8.2254
   27.105    8.3518
   27.120    8.2359
   27.135    8.1411
   27.150    7.9200
   27.165    7.6040
   27.180    7.3512
   27.195    7.8568
   27.210    8.2043
   27.225    7.8989
   27.240    7.7830
   27.255    8.1938
   27.270    7.7936
   27.285    7.8146
   27.300    8.0147
   27.315    8.1727
   27.330    7.7409
   27.345    7.9305
   27.360    7.6883
   27.375    8.1201
   27.390    7.6672
   27.405    7.6567
   27.420    7.8989
   27.435    7.7304
   27.450    7.6040
   27.465    7.7936
   27.480    7.6461
   27.495    7.7936
   27.510    7.7304
   27.525    7.6883
   27.540    7.7304
   27.555    7.4460
   27.570    7.8778
   27.585    7.7725
   27.600    8.3518
   27.615    7.7409
   27.630    7.9200
   27.645    7.9200
   27.660    7.8146
   27.675    8.0042
   27.690    7.9937
   27.705    7.6672
   27.720    7.6883
   27.735    7.7514
   27.750    7.6567
   27.765    7.5935
   27.780    7.4460
   27.795    7.7620
   27.810    7.7093
   27.825    7.4355
   27.840    7.7514
   27.855    7.7936
   27.870    7.6461
   27.885    8.4571
   27.900    7.8146
   27.915    7.6988
   27.930    7.8778
   27.945    7.5197
   27.960    7.6145
   27.975    8.0253
   27.990    8.0674
   28.005    7.9410
   28.020    7.8884
   28.035    8.1411
   28.050    7.8146
   28.065    7.6883
   28.080    7.4460
   28.095    7.6883
   28.110    7.5829
   28.125    7.8146
   28.140    7.7199
   28.155    7.7093
   28.170    8.0674
   28.185    7.7936
   28.200    7.7514
   28.215    7.5724
   28.230    8.0358
   28.245    8.5097
   28.260    8.0885
   28.275    7.8568
   28.290    8.0358
   28.305    7.7620
   28.320    8.1411
   28.335    7.6461
   28.350    7.8673
   28.365    7.8673
   28.380    7.8673
   28.395    7.7409
   28.410    7.9831
   28.425    7.9831
   28.440    7.6777
   28.455    7.1827
   28.470    7.4460
   28.485    7.6883
   28.500    7.4460
   28.515    7.4460
   28.530    7.8146
   28.545    7.9305
   28.560    7.6672
   28.575    8.1095
   28.590    7.6040
   28.605    8.2359
   28.620    7.5935
   28.635    7.0248
   28.650    7.2249
   28.665    7.6461
   28.680    7.7936
   28.695    7.7409
   28.710    7.0774
   28.725    7.6988
   28.740    7.7514
   28.755    7.8252
   28.770    7.7620
   28.785    7.4039
   28.800    7.1301
   28.815    7.2143
   28.830    7.3302
   28.845    7.6777
   28.860    7.3512
   28.875    7.6145
   28.890    8.0358
   28.905    7.7409
   28.920    7.6356
   28.935    7.2565
   28.950    7.0563
   28.965    7.3512
   28.980    7.1301
   28.995    7.5092
   29.010    7.4671
   29.025    7.3723
   29.040    7.1722
   29.055    7.5197
   29.070    7.4250
   29.085    7.3407
   29.100    7.4250
   29.115    7.3091
   29.130    7.3196
   29.145    7.7725
   29.160    7.6251
   29.175    7.5408
   29.190    7.8357
   29.205    7.6251
   29.220    7.5513
   29.235    7.4460
   29.250    7.5935
   29.265    7.7725
   29.280    7.7409
   29.295    7.2143
   29.310    7.3828
   29.325    7.6356
   29.340    7.6988
   29.355    7.8884
   29.370    7.6567
   29.385    7.4144
   29.400    7.7514
   29.415    7.8146
   29.430    7.5408
   29.445    7.3618
   29.460    7.5829
   29.475    7.2880
   29.490    7.9094
   29.505    7.5619
   29.520    8.0042
   29.535    7.1511
   29.550    7.2670
   29.565    7.4460
   29.580    7.0248
   29.595    7.1827
   29.610    7.3196
   29.625    7.1090
   29.640    7.5829
   29.655    7.6988
   29.670    7.4355
   29.685    7.2880
   29.700    7.3196
   29.715    7.7514
   29.730    7.4566
   29.745    7.5619
   29.760    7.2459
   29.775    7.0037
   29.790    6.8984
   29.805    7.0248
   29.820    7.6251
   29.835    7.2775
   29.850    7.5619
   29.865    7.3934
   29.880    7.2354
   29.895    7.4250
   29.910    7.0458
   29.925    6.9932
   29.940    7.2354
   29.955    7.3934
   29.970    7.3512
   29.985    7.3407
   30.000    7.4671
   30.015    6.9932
   30.030    7.5619
   30.045    7.6567
   30.060    7.2459
   30.075    7.1195
   30.090    7.3512
   30.105    7.1827
   30.120    7.1722
   30.135    7.3196
   30.150    7.0774
   30.165    7.3091
   30.180    7.2880
   30.195    7.2565
   30.210    7.6672
   30.225    7.0142
   30.240    7.0669
   30.255    7.4250
   30.270    7.4776
   30.285    7.3091
   30.300    7.3302
   30.315    7.2354
   30.330    7.2986
   30.345    7.6356
   30.360    7.2459
   30.375    7.4355
   30.390    7.6145
   30.405    7.2143
   30.420    7.5513
   30.435    6.9405
   30.450    7.0774
   30.465    7.3618
   30.480    7.2775
   30.495    7.5724
   30.510    7.6145
   30.525    6.8457
   30.540    6.9194
   30.555    7.2986
   30.570    7.4039
   30.585    7.4144
   30.600    7.2775
   30.615    7.2986
   30.630    7.2565
   30.645    7.0142
   30.660    6.8457
   30.675    7.6040
   30.690    7.2986
   30.705    6.8562
   30.720    6.8668
   30.735    7.2354
   30.750    7.4144
   30.765    7.1301
   30.780    6.7509
   30.795    7.1195
   30.810    7.2670
   30.825    7.4566
   30.840    7.4355
   30.855    6.9300
   30.870    7.1617
   30.885    7.0353
   30.900    6.7720
   30.915    7.3618
   30.930    7.2249
   30.945    7.1301
   30.960    7.0669
   30.975    7.0563
   30.990    7.2775
   31.005    7.4566
   31.020    7.3407
   31.035    7.0353
   31.050    7.1617
   31.065    7.0037
   31.080    7.5513
   31.095    7.4776
   31.110    7.7093
   31.125    7.4566
   31.140    7.2459
   31.155    7.3512
   31.170    6.9826
   31.185    6.9932
   31.200    7.1933
   31.215    7.6251
   31.230    7.1617
   31.245    7.2038
   31.260    7.3196
   31.275    7.1406
   31.290    7.0563
   31.305    7.0985
   31.320    7.2038
   31.335    7.3407
   31.350    6.9721
   31.365    6.9405
   31.380    7.3091
   31.395    7.4882
   31.410    6.9194
   31.425    7.0248
   31.440    7.0985
   31.455    7.2354
   31.470    6.9510
   31.485    7.3302
   31.500    7.4987
   31.515    7.1933
   31.530    7.0563
   31.545    7.0248
   31.560    7.0879
   31.575    7.3723
   31.590    7.0142
   31.605    7.2143
   31.620    7.7093
   31.635    7.5303
   31.650    7.6145
   31.665    7.0774
   31.680    7.7304
   31.695    7.4460
   31.710    7.2670
   31.725    7.5303
   31.740    7.4566
   31.755    7.5935
   31.770    7.5829
   31.785    7.3302
   31.800    7.3196
   31.815    7.6777
   31.830    7.2775
   31.845    7.2143
   31.860    7.5197
   31.875    7.7304
   31.890    7.1722
   31.905    7.2986
   31.920    7.6567
   31.935    7.6145
   31.950    7.2143
   31.965    7.6145
   31.980    7.6883
   31.995    7.3196
   32.010    7.0879
   32.025    7.2880
   32.040    7.0879
   32.055    7.1511
   32.070    7.4144
   32.085    7.2670
   32.100    7.4355
   32.115    7.2880
   32.130    7.2459
   32.145    7.4882
   32.160    7.3512
   32.175    7.0563
   32.190    6.7930
   32.205    7.2143
   32.220    7.1617
   32.235    7.3091
   32.250    6.8562
   32.265    7.1195
   32.280    7.2565
   32.295    7.3091
   32.310    7.6145
   32.325    7.1827
   32.340    7.0774
   32.355    7.2880
   32.370    7.1827
   32.385    6.9616
   32.400    6.7825
   32.415    7.3723
   32.430    7.5935
   32.445    7.4250
   32.460    7.6988
   32.475    7.3091
   32.490    7.2986
   32.505    7.4460
   32.520    7.0037
   32.535    7.0563
   32.550    7.0985
   32.565    6.9194
   32.580    6.7509
   32.595    6.9300
   32.610    7.0248
   32.625    7.0353
   32.640    7.3091
   32.655    6.8668
   32.670    6.6877
   32.685    6.9721
   32.700    6.8246
   32.715    6.9616
   32.730    7.3618
   32.745    7.1090
   32.760    7.0563
   32.775    7.0985
   32.790    7.4144
   32.805    7.4460
   32.820    7.3618
   32.835    6.9826
   32.850    7.2986
   32.865    6.9194
   32.880    7.0774
   32.895    6.8352
   32.910    6.8246
   32.925    6.7299
   32.940    7.0879
   32.955    7.2143
   32.970    7.0774
   32.985    7.1617
   33.000    7.2775
   33.015    6.4244
   33.030    6.7299
   33.045    6.6456
   33.060    6.7615
   33.075    6.7509
   33.090    6.9721
   33.105    7.0774
   33.120    6.8984
   33.135    6.6983
   33.150    7.1301
   33.165    7.0458
   33.180    6.5824
   33.195    7.1722
   33.210    6.9300
   33.225    6.6561
   33.240    6.4876
   33.255    6.9194
   33.270    7.2459
   33.285    6.7088
   33.300    6.9300
   33.315    6.8352
   33.330    6.7720
   33.345    6.6561
   33.360    7.0774
   33.375    6.9510
   33.390    6.8352
   33.405    7.1511
   33.420    6.9616
   33.435    6.6245
   33.450    6.6351
   33.465    6.5929
   33.480    6.9089
   33.495    6.6561
   33.510    6.7404
   33.525    7.2038
   33.540    7.1406
   33.555    7.0353
   33.570    7.1195
   33.585    6.9510
   33.600    6.6667
   33.615    6.5192
   33.630    7.1090
   33.645    6.8562
   33.660    6.5508
   33.675    6.8668
   33.690    6.6877
   33.705    6.3928
   33.720    6.8141
   33.735    6.7615
   33.750    6.9510
   33.765    6.7720
   33.780    6.3086
   33.795    6.7193
   33.810    7.1406
   33.825    6.9826
   33.840    6.7720
   33.855    6.4982
   33.870    6.6667
   33.885    6.9510
   33.900    7.2038
   33.915    6.8036
   33.930    6.8457
   33.945    6.8141
   33.960    6.8457
   33.975    6.7720
   33.990    6.5719
   34.005    6.5719
   34.020    6.9194
   34.035    6.7509
   34.050    6.8984
   34.065    7.0774
   34.080    6.7615
   34.095    6.6245
   34.110    6.5508
   34.125    6.8773
   34.140    6.7509
   34.155    6.9721
   34.170    7.0142
   34.185    6.7088
   34.200    6.4139
   34.215    6.4876
   34.230    6.8878
   34.245    6.9721
   34.260    6.7720
   34.275    6.8457
   34.290    6.4982
   34.305    6.9089
   34.320    6.7299
   34.335    6.5087
   34.350    6.5824
   34.365    6.2559
   34.380    6.5613
   34.395    6.7299
   34.410    6.5298
   34.425    6.4034
   34.440    6.7825
   34.455    6.8878
   34.470    6.6456
   34.485    6.7615
   34.500    6.4139
   34.515    6.2665
   34.530    6.9932
   34.545    6.6351
   34.560    6.3823
   34.575    6.1927
   34.590    6.7299
   34.605    6.5929
   34.620    6.7930
   34.635    6.6245
   34.650    6.7404
   34.665    6.8246
   34.680    6.6456
   34.695    6.4455
   34.710    6.4666
   34.725    6.3718
   34.740    6.3718
   34.755    6.4455
   34.770    6.3823
   34.785    7.0458
   34.800    6.8246
   34.815    7.0248
   34.830    6.8246
   34.845    6.7299
   34.860    6.4455
   34.875    6.5929
   34.890    7.0458
   34.905    6.8984
   34.920    6.6035
   34.935    6.3612
   34.950    6.1822
   34.965    6.3612
   34.980    6.8036
   34.995    6.4771
   35.010    6.5824
   35.025    6.7193
   35.040    6.9089
   35.055    6.8773
   35.070    6.3823
   35.085    6.4876
   35.100    6.3612
   35.115    6.3823
   35.130    6.5824
   35.145    6.6877
   35.160    6.9194
   35.175    6.7930
   35.190    6.4982
   35.205    6.4034
   35.220    6.5824
   35.235    6.4350
   35.250    6.6561
   35.265    6.4771
   35.280    6.6561
   35.295    7.0563
   35.310    6.6667
   35.325    6.4139
   35.340    6.9405
   35.355    6.5824
   35.370    6.2138
   35.385    6.5613
   35.400    6.1506
   35.415    6.4034
   35.430    6.2981
   35.445    6.7825
   35.460    6.6561
   35.475    6.2770
   35.490    6.4666
   35.505    6.5719
   35.520    6.7930
   35.535    6.4455
   35.550    6.5929
   35.565    6.8668
   35.580    6.5403
   35.595    6.4139
   35.610    6.7299
   35.625    6.7930
   35.640    6.7299
   35.655    6.7930
   35.670    6.8036
   35.685    6.3296
   35.700    6.3612
   35.715    6.5719
   35.730    6.7193
   35.745    6.4876
   35.760    6.4350
   35.775    6.3823
   35.790    6.5929
   35.805    6.5087
   35.820    6.1611
   35.835    6.7509
   35.850    7.0563
   35.865    6.6245
   35.880    6.2875
   35.895    6.8668
   35.910    6.7404
   35.925    6.9932
   35.940    6.7825
   35.955    6.5613
   35.970    6.7509
   35.985    6.5192
   36.000    6.3612
   36.015    6.1927
   36.030    6.4666
   36.045    6.6245
   36.060    6.7193
   36.075    6.4560
   36.090    6.3612
   36.105    6.4139
   36.120    6.6877
   36.135    6.6667
   36.150    6.2665
   36.165    6.0242
   36.180    6.1190
   36.195    6.7299
   36.210    6.4350
   36.225    6.4876
   36.240    6.5087
   36.255    6.7615
   36.270    6.5403
   36.285    6.3612
   36.300    6.3507
   36.315    6.5719
   36.330    6.6456
   36.345    6.5824
   36.360    6.5087
   36.375    6.4666
   36.390    6.4666
   36.405    6.5192
   36.420    6.3191
   36.435    6.2559
   36.450    6.3086
   36.465    6.1295
   36.480    6.4244
   36.495    6.5613
   36.510    6.6140
   36.525    6.4982
   36.540    6.4139
   36.555    6.5508
   36.570    6.4771
   36.585    6.2454
   36.600    6.5613
   36.615    6.6561
   36.630    6.2981
   36.645    6.2138
   36.660    6.3928
   36.675    6.1611
   36.690    6.2349
   36.705    6.1822
   36.720    6.2981
   36.735    6.3612
   36.750    6.8457
   36.765    6.4139
   36.780    6.2349
   36.795    6.3612
   36.810    6.2770
   36.825    6.4244
   36.840    6.4560
   36.855    6.3296
   36.870    6.3086
   36.885    6.1822
   36.900    6.2349
   36.915    6.5613
   36.930    6.2770
   36.945    6.4455
   36.960    5.6872
   36.975    6.3718
   36.990    6.1190
   37.005    6.2243
   37.020    6.4876
   37.035    6.4244
   37.050    6.1085
   37.065    6.5087
   37.080    6.4034
   37.095    6.2033
   37.110    6.3718
   37.125    6.3191
   37.140    6.5613
   37.155    6.8984
   37.170    6.5298
   37.185    6.2981
   37.200    6.1506
   37.215    6.3191
   37.230    6.2138
   37.245    6.3191
   37.260    6.1401
   37.275    6.6245
   37.290    6.4666
   37.305    6.7509
   37.320    6.7088
   37.335    6.6456
   37.350    6.4876
   37.365    6.6140
   37.380    6.5087
   37.395    6.3612
   37.410    6.2243
   37.425    6.4455
   37.440    6.6983
   37.455    6.4034
   37.470    6.2770
   37.485    6.1506
   37.500    6.5192
   37.515    6.4666
   37.530    6.2665
   37.545    6.0242
   37.560    6.6035
   37.575    6.8246
   37.590    6.4666
   37.605    6.1927
   37.620    6.3612
   37.635    6.3612
   37.650    6.4771
   37.665    6.5613
   37.680    6.5719
   37.695    6.7930
   37.710    6.5508
   37.725    6.7615
   37.740    6.2981
   37.755    6.2033
   37.770    6.1506
   37.785    6.2138
   37.800    6.2665
   37.815    6.2243
   37.830    6.5929
   37.845    6.7720
   37.860    6.4139
   37.875    6.2665
   37.890    6.4771
   37.905    6.4560
   37.920    6.5508
   37.935    6.5929
   37.950    6.2349
   37.965    6.6772
   37.980    6.5613
   37.995    6.2665
   38.010    6.3507
   38.025    6.0769
   38.040    6.2875
   38.055    6.3402
   38.070    5.8241
   38.085    6.3191
   38.100    6.6983
   38.115    6.0979
   38.130    6.2665
   38.145    5.9400
   38.160    6.6245
   38.175    6.3718
   38.190    6.4771
   38.205    6.1506
   38.220    6.6140
   38.235    6.2875
   38.250    6.6351
   38.265    6.4982
   38.280    6.1506
   38.295    6.8562
   38.310    6.5298
   38.325    6.0558
   38.340    6.1085
   38.355    6.5824
   38.370    6.5613
   38.385    6.4350
   38.400    6.4560
   38.415    6.4350
   38.430    6.7825
   38.445    6.5719
   38.460    6.5508
   38.475    6.6245
   38.490    6.6877
   38.505    6.4244
   38.520    6.4982
   38.535    6.4982
   38.550    6.1295
   38.565    6.0453
   38.580    6.5824
   38.595    6.5508
   38.610    5.9294
   38.625    6.2981
   38.640    6.7193
   38.655    6.5613
   38.670    6.7615
   38.685    6.4876
   38.700    6.4666
   38.715    6.0558
   38.730    5.8873
   38.745    6.2981
   38.760    6.2243
   38.775    6.6351
   38.790    6.3928
   38.805    6.5192
   38.820    6.5403
   38.835    6.1295
   38.850    6.1822
   38.865    6.1611
   38.880    6.1401
   38.895    6.3086
   38.910    6.7193
   38.925    6.3718
   38.940    6.1295
   38.955    6.1717
   38.970    6.4982
   38.985    6.1822
   39.000    6.1822
   39.015    6.4876
   39.030    6.4560
   39.045    6.7404
   39.060    6.5508
   39.075    6.4560
   39.090    6.3191
   39.105    6.5087
   39.120    6.5087
   39.135    6.4876
   39.150    6.0453
   39.165    6.2875
   39.180    6.2559
   39.195    6.1295
   39.210    6.4244
   39.225    6.0348
   39.240    6.2875
   39.255    6.8141
   39.270    6.5192
   39.285    6.3086
   39.300    7.0353
   39.315    6.4350
   39.330    6.2349
   39.345    6.4139
   39.360    6.3296
   39.375    6.0769
   39.390    6.3612
   39.405    6.2559
   39.420    6.4455
   39.435    6.3507
   39.450    6.4876
   39.465    6.3296
   39.480    6.3507
   39.495    6.3823
   39.510    6.1717
   39.525    6.2875
   39.540    6.5613
   39.555    6.4139
   39.570    6.5824
   39.585    6.0032
   39.600    6.1611
   39.615    6.6983
   39.630    6.4244
   39.645    6.3507
   39.660    6.6667
   39.675    6.3191
   39.690    6.0242
   39.705    6.2138
   39.720    6.4244
   39.735    6.3086
   39.750    6.6035
   39.765    6.7088
   39.780    6.0137
   39.795    6.1295
   39.810    6.6351
   39.825    6.6456
   39.840    6.4139
   39.855    6.0769
   39.870    5.7083
   39.885    5.7715
   39.900    6.2454
   39.915    6.2875
   39.930    6.0874
   39.945    6.3718
   39.960    6.2981
   39.975    6.4244
   39.990    6.4560
