    1.500   27.9621 
    1.515   28.6256 
    1.530   27.2986 
    1.545   27.0142 
    1.560   26.8668 
    1.575   26.4139 
    1.590   26.1295 
    1.605   25.6661 
    1.620   25.0974 
    1.635   25.1922 
    1.650   24.6235 
    1.665   25.3397 
    1.680   25.4871 
    1.695   24.2549 
    1.710   23.9916 
    1.725   24.2338 
    1.740   23.8968 
    1.755   23.4545 
    1.770   22.6962 
    1.785   22.0221 
    1.800   22.2538 
    1.815   22.5487 
    1.830   22.0432 
    1.845   22.4855 
    1.860   22.2433 
    1.875   21.9800 
    1.890   21.6430 
    1.905   20.8847 
    1.920   21.0953 
    1.935   22.2959 
    1.950   21.5903 
    1.965   21.2849 
    1.980   20.8952 
    1.995   21.3270 
    2.010   20.9689 
    2.025   21.0953 
    2.040   20.2949 
    2.055   20.7372 
    2.070   21.7272 
    2.085   21.2322 
    2.100   20.9689 
    2.115   21.7904 
    2.130   21.4218 
    2.145   20.8636 
    2.160   20.6003 
    2.175   20.3160 
    2.190   20.6424 
    2.205   20.5371 
    2.220   21.2112 
    2.235   20.6740 
    2.250   20.7899 
    2.265   22.3907 
    2.280   22.1064 
    2.295   21.8852 
    2.310   21.3481 
    2.325   21.7799 
    2.340   21.1901 
    2.355   21.5692 
    2.370   22.2538 
    2.385   22.3381 
    2.400   22.6646 
    2.415   21.1901 
    2.430   22.3381 
    2.445   23.2859 
    2.460   23.4018 
    2.475   23.6440 
    2.490   23.5176 
    2.505   24.0442 
    2.520   24.5392 
    2.535   24.7183 
    2.550   24.2127 
    2.565   24.7815 
    2.580   25.3818 
    2.595   25.3081 
    2.610   25.8662 
    2.625   26.7825 
    2.640   25.9610 
    2.655   26.6351 
    2.670   28.0253 
    2.685   28.2043 
    2.700   28.7309 
    2.715   29.7209 
    2.730   30.6266 
    2.745   29.5419 
    2.760   30.0579 
    2.775   30.4055 
    2.790   31.4376 
    2.805   31.4587 
    2.820   32.4592 
    2.835   33.3017 
    2.850   33.5861 
    2.865   34.6393 
    2.880   34.4076 
    2.895   36.6719 
    2.910   37.4513 
    2.925   38.7467 
    2.940   38.8626 
    2.955   40.1264 
    2.970   41.3586 
    2.985   42.3907 
    3.000   44.3075 
    3.015   44.6551 
    3.030   45.8452 
    3.045   47.4566 
    3.060   48.8362 
    3.075   49.7525 
    3.090   52.1432 
    3.105   53.5018 
    3.120   55.4186 
    3.135   57.0406 
    3.150   59.0837 
    3.165   61.1059 
    3.180   62.8963 
    3.195   65.9926 
    3.210   68.8257 
    3.225   71.9431 
    3.240   75.1132 
    3.255   79.8842 
    3.270   81.1585 
    3.285   85.3397 
    3.300   90.0263 
    3.315   95.1027 
    3.330   98.8731 
    3.345  103.4755 
    3.360  109.8157 
    3.375  116.3349 
    3.390  124.7815 
    3.405  129.2365 
    3.420  136.2823 
    3.435  141.0111 
    3.450  146.0032 
    3.465  146.5614 
    3.480  143.2438 
    3.495  138.0411 
    3.510  127.8357 
    3.525  115.3765 
    3.540  104.6235 
    3.555   92.6172 
    3.570   81.2638 
    3.585   73.0595 
    3.600   65.8241 
    3.615   62.2117 
    3.630   58.8731 
    3.645   56.0084 
    3.660   54.6393 
    3.675   52.5013 
    3.690   52.1222 
    3.705   50.2054 
    3.720   51.9642 
    3.735   52.1011 
    3.750   52.7330 
    3.765   54.1864 
    3.780   54.7657 
    3.795   54.5656 
    3.810   54.8394 
    3.825   56.1032 
    3.840   55.4186 
    3.855   56.1664 
    3.870   57.8515 
    3.885   58.2833 
    3.900   58.0727 
    3.915   58.7151 
    3.930   59.4945 
    3.945   58.7783 
    3.960   58.9363 
    3.975   59.1575 
    3.990   58.7994 
    4.005   58.0621 
    4.020   55.3449 
    4.035   55.6609 
    4.050   54.8921 
    4.065   53.1964 
    4.080   51.7536 
    4.095   50.4687 
    4.110   47.8568 
    4.125   45.9610 
    4.140   43.2438 
    4.155   41.7272 
    4.170   40.3370 
    4.185   38.7994 
    4.200   35.7030 
    4.215   34.4708 
    4.230   33.9337 
    4.245   31.9537 
    4.260   30.1001 
    4.275   28.1727 
    4.290   26.8246 
    4.305   25.2238 
    4.320   23.5492 
    4.335   22.0958 
    4.350   20.9163 
    4.365   20.7899 
    4.380   19.5471 
    4.395   18.1780 
    4.410   17.6409 
    4.425   16.4297 
    4.440   15.8610 
    4.455   15.5029 
    4.470   14.8183 
    4.485   14.0706 
    4.500   14.1864 
    4.515   13.2596 
    4.530   12.7962 
    4.545   12.4592 
    4.560   12.6066 
    4.575   12.0169 
    4.590   11.5429 
    4.605   11.4587 
    4.620   10.7214 
    4.635   10.9847 
    4.650   10.5951 
    4.665   10.6372 
    4.680   10.2791 
    4.695    9.7209 
    4.710   10.2370 
    4.725    9.7630 
    4.740    9.6367 
    4.755    9.0047 
    4.770    9.3207 
    4.785    9.4997 
    4.800    8.8046 
    4.815    8.8257 
    4.830    8.5203 
    4.845    8.7941 
    4.860    8.7941 
    4.875    8.8468 
    4.890    8.5835 
    4.905    8.3412 
    4.920    8.3518 
    4.935    8.3728 
    4.950    8.1833 
    4.965    8.0674 
    4.980    8.2886 
    4.995    8.0885 
    5.010    8.0990 
    5.025    8.5308 
    5.040    7.9621 
    5.055    7.8146 
    5.070    7.6356 
    5.085    7.9516 
    5.100    8.0569 
    5.115    7.8462 
    5.130    7.5092 
    5.145    7.7936 
    5.160    7.6040 
    5.175    7.7830 
    5.190    7.7725 
    5.205    7.3512 
    5.220    7.6672 
    5.235    7.5197 
    5.250    7.3407 
    5.265    7.4144 
    5.280    7.1617 
    5.295    7.0985 
    5.310    7.5619 
    5.325    7.6040 
    5.340    7.2249 
    5.355    7.1090 
    5.370    7.4039 
    5.385    7.1301 
    5.400    7.0669 
    5.415    7.0563 
    5.430    7.0353 
    5.445    7.1933 
    5.460    7.2565 
    5.475    6.9826 
    5.490    6.7930 
    5.505    6.8773 
    5.520    6.8773 
    5.535    6.8141 
    5.550    7.0353 
    5.565    6.5508 
    5.580    6.7720 
    5.595    7.0353 
    5.610    6.8457 
    5.625    7.1090 
    5.640    7.0563 
    5.655    7.2670 
    5.670    6.9616 
    5.685    6.6877 
    5.700    6.5192 
    5.715    6.8352 
    5.730    6.4982 
    5.745    6.6983 
    5.760    6.8878 
    5.775    6.5613 
    5.790    6.7193 
    5.805    6.5087 
    5.820    6.6667 
    5.835    6.6983 
    5.850    6.8457 
    5.865    6.8246 
    5.880    6.9616 
    5.895    6.8562 
    5.910    7.0142 
    5.925    6.9405 
    5.940    6.8457 
    5.955    6.8668 
    5.970    6.8773 
    5.985    6.5298 
    6.000    6.7299 
    6.015    6.4350 
    6.030    6.9721 
    6.045    6.6667 
    6.060    6.5719 
    6.075    6.7299 
    6.090    6.8246 
    6.105    6.6667 
    6.120    6.6561 
    6.135    6.6877 
    6.150    6.7930 
    6.165    6.8457 
    6.180    6.7720 
    6.195    7.0458 
    6.210    6.8457 
    6.225    6.4455 
    6.240    6.8773 
    6.255    6.8457 
    6.270    6.6140 
    6.285    6.6245 
    6.300    6.9405 
    6.315    7.0669 
    6.330    7.1301 
    6.345    7.1827 
    6.360    7.2038 
    6.375    7.0879 
    6.390    7.4776 
    6.405    7.2775 
    6.420    7.0142 
    6.435    7.4355 
    6.450    7.7093 
    6.465    7.3723 
    6.480    7.7514 
    6.495    7.8462 
    6.510    7.8568 
    6.525    7.8568 
    6.540    8.1833 
    6.555    8.1411 
    6.570    8.0674 
    6.585    8.1622 
    6.600    8.8257 
    6.615    9.0785 
    6.630    8.8362 
    6.645    9.3207 
    6.660    8.9310 
    6.675    9.5208 
    6.690    9.6788 
    6.705   10.3212 
    6.720   10.1632 
    6.735   10.3633 
    6.750   10.8478 
    6.765   10.9321 
    6.780   11.3217 
    6.795   11.7430 
    6.810   12.9437 
    6.825   12.8173 
    6.840   13.5018 
    6.855   14.5445 
    6.870   14.8815 
    6.885   15.4924 
    6.900   16.8720 
    6.915   17.3144 
    6.930   17.3460 
    6.945   17.7146 
    6.960   18.3044 
    6.975   17.6409 
    6.990   17.6303 
    7.005   16.9563 
    7.020   16.1032 
    7.035   14.7973 
    7.050   13.9231 
    7.065   12.9963 
    7.080   11.7536 
    7.095   10.8583 
    7.110   10.1422 
    7.125    9.8684 
    7.140    9.3839 
    7.155    8.7520 
    7.170    9.1838 
    7.185    8.2780 
    7.200    8.4676 
    7.215    8.1938 
    7.230    8.2464 
    7.245    8.3834 
    7.260    7.8252 
    7.275    7.9621 
    7.290    8.0042 
    7.305    7.8778 
    7.320    7.5619 
    7.335    7.5408 
    7.350    7.8568 
    7.365    8.4150 
    7.380    8.1306 
    7.395    7.6040 
    7.410    7.4882 
    7.425    8.0358 
    7.440    8.0674 
    7.455    7.9516 
    7.470    7.8989 
    7.485    8.1833 
    7.500    8.0253 
    7.515    7.7830 
    7.530    7.8357 
    7.545    8.0042 
    7.560    7.9094 
    7.575    8.2254 
    7.590    8.1306 
    7.605    8.6151 
    7.620    8.4466 
    7.635    8.7309 
    7.650    8.0674 
    7.665    8.5308 
    7.680    8.7625 
    7.695    9.0995 
    7.710    9.3312 
    7.725    9.1522 
    7.740    9.0679 
    7.755    9.0995 
    7.770    9.2575 
    7.785    9.4365 
    7.800    9.1206 
    7.815    9.4997 
    7.830    9.9210 
    7.845    9.5419 
    7.860    9.6051 
    7.875    9.7736 
    7.890    9.8052 
    7.905    9.6367 
    7.920   10.0474 
    7.935   10.1422 
    7.950   10.1527 
    7.965    9.9421 
    7.980    9.8789 
    7.995    9.9526 
    8.010   10.0579 
    8.025   10.3423 
    8.040    9.9315 
    8.055   10.0369 
    8.070    9.8684 
    8.085   10.1211 
    8.100   10.0053 
    8.115   10.3318 
    8.130   10.5213 
    8.145    9.7420 
    8.160    9.8473 
    8.175    9.4260 
    8.190    9.7420 
    8.205   10.5108 
    8.220   10.3528 
    8.235   10.0895 
    8.250    9.8368 
    8.265    9.6051 
    8.280    9.3207 
    8.295    9.5735 
    8.310    9.6156 
    8.325    9.0890 
    8.340    9.0153 
    8.355    9.1417 
    8.370    8.9837 
    8.385    9.0153 
    8.400    9.0574 
    8.415    9.2786 
    8.430    8.7730 
    8.445    8.8362 
    8.460    8.6572 
    8.475    8.7625 
    8.490    8.3518 
    8.505    8.7836 
    8.520    8.5203 
    8.535    8.2254 
    8.550    8.1306 
    8.565    7.9937 
    8.580    8.1517 
    8.595    7.8884 
    8.610    7.6567 
    8.625    7.4882 
    8.640    7.7199 
    8.655    7.7409 
    8.670    7.7304 
    8.685    7.5408 
    8.700    7.4039 
    8.715    7.3723 
    8.730    7.1827 
    8.745    7.4250 
    8.760    7.2775 
    8.775    7.2038 
    8.790    7.3618 
    8.805    7.0248 
    8.820    7.0669 
    8.835    6.9616 
    8.850    6.8457 
    8.865    6.8878 
    8.880    7.1090 
    8.895    6.6561 
    8.910    6.6456 
    8.925    6.6877 
    8.940    6.5298 
    8.955    6.4876 
    8.970    6.6351 
    8.985    6.6772 
    9.000    6.4666 
    9.015    6.8036 
    9.030    6.6561 
    9.045    6.8878 
    9.060    7.0669 
    9.075    6.8036 
    9.090    6.3296 
    9.105    6.0769 
    9.120    6.1611 
    9.135    6.2138 
    9.150    6.0137 
    9.165    6.2138 
    9.180    6.2981 
    9.195    6.1401 
    9.210    5.9926 
    9.225    6.5192 
    9.240    6.3928 
    9.255    5.9821 
    9.270    6.0032 
    9.285    6.2665 
    9.300    6.1717 
    9.315    5.9716 
    9.330    6.2665 
    9.345    6.4350 
    9.360    6.0558 
    9.375    6.2243 
    9.390    6.4244 
    9.405    6.3191 
    9.420    6.1822 
    9.435    6.1085 
    9.450    6.4560 
    9.465    6.2454 
    9.480    5.8873 
    9.495    5.9926 
    9.510    6.1927 
    9.525    6.1295 
    9.540    6.3191 
    9.555    6.2243 
    9.570    6.1717 
    9.585    5.9926 
    9.600    5.8557 
    9.615    5.9294 
    9.630    6.3507 
    9.645    6.4034 
    9.660    6.2665 
    9.675    5.8347 
    9.690    6.3718 
    9.705    6.1190 
    9.720    6.3296 
    9.735    6.1295 
    9.750    6.3612 
    9.765    5.9716 
    9.780    6.0979 
    9.795    5.8031 
    9.810    6.1506 
    9.825    6.3823 
    9.840    6.2138 
    9.855    6.3086 
    9.870    6.6772 
    9.885    6.4455 
    9.900    6.1611 
    9.915    6.1190 
    9.930    6.1822 
    9.945    5.9821 
    9.960    6.0348 
    9.975    5.7504 
    9.990    5.7820 
   10.005    6.4876 
   10.020    6.2033 
   10.035    5.9189 
   10.050    5.9716 
   10.065    6.1822 
   10.080    5.8452 
   10.095    5.5924 
   10.110    6.0979 
   10.125    5.9610 
   10.140    5.7504 
   10.155    5.9400 
   10.170    6.1927 
   10.185    6.0453 
   10.200    5.9716 
   10.215    6.4771 
   10.230    6.7404 
   10.245    6.2770 
   10.260    5.8768 
   10.275    6.2665 
   10.290    6.4771 
   10.305    6.5508 
   10.320    6.4666 
   10.335    6.5087 
   10.350    6.6140 
   10.365    6.6877 
   10.380    6.5403 
   10.395    6.7193 
   10.410    6.8246 
   10.425    6.6351 
   10.440    6.8562 
   10.455    6.7615 
   10.470    6.8352 
   10.485    7.0985 
   10.500    6.9721 
   10.515    6.7088 
   10.530    6.4034 
   10.545    6.3402 
   10.560    6.6351 
   10.575    6.6245 
   10.590    6.1401 
   10.605    6.3296 
   10.620    6.6667 
   10.635    6.4771 
   10.650    6.4560 
   10.665    6.2875 
   10.680    6.1401 
   10.695    6.1611 
   10.710    6.2665 
   10.725    6.2981 
   10.740    6.2349 
   10.755    5.9189 
   10.770    5.9189 
   10.785    5.6872 
   10.800    5.4976 
   10.815    6.0453 
   10.830    5.9926 
   10.845    5.8347 
   10.860    6.0874 
   10.875    6.4455 
   10.890    6.2243 
   10.905    5.8452 
   10.920    5.8347 
   10.935    6.1717 
   10.950    5.6767 
   10.965    5.6451 
   10.980    6.0664 
   10.995    6.3928 
   11.010    5.9716 
   11.025    5.9821 
   11.040    6.2243 
   11.055    6.0664 
   11.070    6.1190 
   11.085    6.0558 
   11.100    6.0874 
   11.115    5.9189 
   11.130    5.7715 
   11.145    5.9189 
   11.160    6.3612 
   11.175    6.0453 
   11.190    5.9294 
   11.205    5.9926 
   11.220    5.8136 
   11.235    6.0032 
   11.250    5.8557 
   11.265    5.9084 
   11.280    6.3086 
   11.295    6.4350 
   11.310    6.1085 
   11.325    6.6456 
   11.340    6.0348 
   11.355    6.2138 
   11.370    6.2454 
   11.385    6.5192 
   11.400    6.1717 
   11.415    6.3402 
   11.430    6.4034 
   11.445    6.3191 
   11.460    6.1717 
   11.475    6.4034 
   11.490    6.5087 
   11.505    6.6983 
   11.520    6.4771 
   11.535    6.1611 
   11.550    6.4034 
   11.565    6.6351 
   11.580    6.2559 
   11.595    6.3296 
   11.610    6.5824 
   11.625    5.8662 
   11.640    6.0137 
   11.655    6.3191 
   11.670    6.9300 
   11.685    6.6667 
   11.700    6.1822 
   11.715    5.8347 
   11.730    6.2033 
   11.745    6.4034 
   11.760    6.6983 
   11.775    6.5508 
   11.790    6.0874 
   11.805    6.4455 
   11.820    6.3507 
   11.835    6.0664 
   11.850    6.5192 
   11.865    6.4034 
   11.880    6.5403 
   11.895    6.6561 
   11.910    6.5087 
   11.925    6.9300 
   11.940    6.7404 
   11.955    6.5298 
   11.970    6.5403 
   11.985    6.9300 
   12.000    7.0879 
   12.015    6.7404 
   12.030    6.8457 
   12.045    6.1927 
   12.060    6.2454 
   12.075    6.4876 
   12.090    6.7825 
   12.105    6.5087 
   12.120    6.4139 
   12.135    6.4771 
   12.150    6.3928 
   12.165    7.1406 
   12.180    6.4876 
   12.195    6.5824 
   12.210    6.7193 
   12.225    6.3507 
   12.240    6.3718 
   12.255    6.6351 
   12.270    6.8984 
   12.285    6.9616 
   12.300    6.5929 
   12.315    6.6035 
   12.330    6.6877 
   12.345    6.7404 
   12.360    7.0037 
   12.375    6.4455 
   12.390    6.4034 
   12.405    6.5613 
   12.420    6.7509 
   12.435    6.9194 
   12.450    6.4666 
   12.465    6.7720 
   12.480    6.9194 
   12.495    6.6983 
   12.510    6.9826 
   12.525    6.6351 
   12.540    6.6983 
   12.555    6.7193 
   12.570    6.6877 
   12.585    6.7930 
   12.600    6.5298 
   12.615    6.1822 
   12.630    6.6035 
   12.645    6.5298 
   12.660    6.6351 
   12.675    6.7299 
   12.690    6.4982 
   12.705    6.0558 
   12.720    6.2875 
   12.735    6.1927 
   12.750    6.7404 
   12.765    6.7088 
   12.780    6.5719 
   12.795    6.2349 
   12.810    6.2981 
   12.825    6.7930 
   12.840    6.2559 
   12.855    6.5719 
   12.870    6.4560 
   12.885    6.3086 
   12.900    6.3086 
   12.915    6.4034 
   12.930    6.2875 
   12.945    6.3086 
   12.960    6.2665 
   12.975    6.1611 
   12.990    6.1822 
   13.005    6.3928 
   13.020    6.3612 
   13.035    6.2875 
   13.050    6.6983 
   13.065    6.4139 
   13.080    6.0558 
   13.095    6.2243 
   13.110    5.7399 
   13.125    6.0348 
   13.140    6.2454 
   13.155    6.1927 
   13.170    6.1717 
   13.185    6.6456 
   13.200    6.4139 
   13.215    6.4560 
   13.230    6.2665 
   13.245    6.5824 
   13.260    6.0558 
   13.275    6.1611 
   13.290    6.2033 
   13.305    6.4771 
   13.320    6.0453 
   13.335    6.3612 
   13.350    6.3718 
   13.365    6.2559 
   13.380    5.8873 
   13.395    6.1611 
   13.410    6.2454 
   13.425    6.0874 
   13.440    6.3507 
   13.455    6.3928 
   13.470    6.2559 
   13.485    6.2981 
   13.500    6.3086 
   13.515    6.4876 
   13.530    6.2349 
   13.545    6.4139 
   13.560    6.3507 
   13.575    6.0874 
   13.590    5.8662 
   13.605    6.4666 
   13.620    6.6456 
   13.635    6.0558 
   13.650    6.3507 
   13.665    6.3823 
   13.680    6.4034 
   13.695    6.5087 
   13.710    6.3507 
   13.725    5.8452 
   13.740    5.9716 
   13.755    6.3507 
   13.770    6.4244 
   13.785    6.3718 
   13.800    5.9821 
   13.815    6.0664 
   13.830    6.1401 
   13.845    6.2349 
   13.860    5.9926 
   13.875    6.0874 
   13.890    6.0664 
   13.905    5.9294 
   13.920    6.0242 
   13.935    6.3402 
   13.950    6.3507 
   13.965    6.2665 
   13.980    6.1190 
   13.995    6.1717 
   14.010    6.2981 
   14.025    6.4876 
   14.040    6.4455 
   14.055    6.1085 
   14.070    6.2875 
   14.085    5.9294 
   14.100    5.9505 
   14.115    5.9505 
   14.130    6.2665 
   14.145    5.9610 
   14.160    6.2665 
   14.175    6.0558 
   14.190    5.9716 
   14.205    6.3086 
   14.220    6.1927 
   14.235    5.8347 
   14.250    6.0453 
   14.265    6.0453 
   14.280    5.9926 
   14.295    5.7399 
   14.310    5.9716 
   14.325    6.0769 
   14.340    6.5087 
   14.355    6.3086 
   14.370    6.3612 
   14.385    6.1611 
   14.400    6.2243 
   14.415    5.8136 
   14.430    6.2138 
   14.445    6.2454 
   14.460    6.1717 
   14.475    6.0242 
   14.490    5.7504 
   14.505    5.7083 
   14.520    6.0137 
   14.535    5.8662 
   14.550    5.8241 
   14.565    6.0979 
   14.580    6.0348 
   14.595    6.3191 
   14.610    6.2875 
   14.625    5.7715 
   14.640    5.7293 
   14.655    5.6661 
   14.670    6.0558 
   14.685    6.2770 
   14.700    6.0769 
   14.715    5.9189 
   14.730    5.9294 
   14.745    5.9821 
   14.760    6.0453 
   14.775    5.9400 
   14.790    5.8978 
   14.805    5.7083 
   14.820    5.6872 
   14.835    6.1822 
   14.850    6.5403 
   14.865    5.8873 
   14.880    6.2243 
   14.895    5.9505 
   14.910    6.1611 
   14.925    5.9400 
   14.940    5.8873 
   14.955    6.0032 
   14.970    5.9189 
   14.985    5.6661 
   15.000    5.7188 
   15.015    5.6872 
   15.030    5.9084 
   15.045    5.7715 
   15.060    6.0769 
   15.075    6.0453 
   15.090    5.7293 
   15.105    5.6451 
   15.120    5.6872 
   15.135    5.6556 
   15.150    5.9926 
   15.165    6.1611 
   15.180    6.0032 
   15.195    5.9400 
   15.210    6.1717 
   15.225    6.1927 
   15.240    5.7399 
   15.255    6.1085 
   15.270    5.9610 
   15.285    5.7188 
   15.300    5.8241 
   15.315    6.1506 
   15.330    6.1295 
   15.345    5.7820 
   15.360    5.9716 
   15.375    6.0769 
   15.390    6.0874 
   15.405    5.8031 
   15.420    6.0242 
   15.435    6.1401 
   15.450    5.9610 
   15.465    5.8241 
   15.480    5.7925 
   15.495    6.3507 
   15.510    6.5403 
   15.525    6.3612 
   15.540    6.2981 
   15.555    6.0032 
   15.570    6.0979 
   15.585    6.3718 
   15.600    6.1401 
   15.615    5.9926 
   15.630    6.2665 
   15.645    5.9821 
   15.660    6.0137 
   15.675    6.2349 
   15.690    6.7088 
   15.705    6.0558 
   15.720    6.2559 
   15.735    6.1295 
   15.750    6.2138 
   15.765    6.2033 
   15.780    6.2454 
   15.795    5.8662 
   15.810    6.0558 
   15.825    6.6877 
   15.840    6.5298 
   15.855    6.1611 
   15.870    6.2349 
   15.885    5.9610 
   15.900    6.4666 
   15.915    6.6245 
   15.930    6.4560 
   15.945    6.5613 
   15.960    6.1822 
   15.975    6.0558 
   15.990    6.0242 
   16.005    6.2559 
   16.020    6.2349 
   16.035    6.8562 
   16.050    6.8878 
   16.065    6.8036 
   16.080    6.5192 
   16.095    6.7615 
   16.110    6.5298 
   16.125    6.3296 
   16.140    6.4455 
   16.155    6.1927 
   16.170    6.0558 
   16.185    6.1611 
   16.200    6.3718 
   16.215    6.6035 
   16.230    6.7193 
   16.245    6.5929 
   16.260    6.4244 
   16.275    6.4560 
   16.290    6.4771 
   16.305    6.6561 
   16.320    6.2243 
   16.335    6.1085 
   16.350    6.0664 
   16.365    6.2033 
   16.380    6.1085 
   16.395    6.1927 
   16.410    5.7399 
   16.425    5.7925 
   16.440    5.9821 
   16.455    5.9505 
   16.470    6.1822 
   16.485    5.8031 
   16.500    6.0348 
   16.515    5.8557 
   16.530    5.9400 
   16.545    6.5824 
   16.560    6.2033 
   16.575    6.0664 
   16.590    6.0137 
   16.605    6.2033 
   16.620    6.0348 
   16.635    5.8347 
   16.650    6.0242 
   16.665    6.0769 
   16.680    6.0348 
   16.695    5.9294 
   16.710    6.3296 
   16.725    6.1506 
   16.740    5.9610 
   16.755    6.0769 
   16.770    6.1190 
   16.785    5.6135 
   16.800    6.1506 
   16.815    6.2243 
   16.830    6.0137 
   16.845    6.0242 
   16.860    6.0664 
   16.875    5.7083 
   16.890    5.7609 
   16.905    5.7188 
   16.920    5.7925 
   16.935    5.6556 
   16.950    5.8347 
   16.965    5.8978 
   16.980    6.3296 
   16.995    5.9189 
   17.010    5.7399 
   17.025    5.6135 
   17.040    5.6556 
   17.055    5.8241 
   17.070    6.0032 
   17.085    6.0453 
   17.100    5.9926 
   17.115    5.9084 
   17.130    5.8031 
   17.145    6.0558 
   17.160    6.0137 
   17.175    6.3086 
   17.190    5.8768 
   17.205    5.7083 
   17.220    6.0453 
   17.235    6.2665 
   17.250    6.0348 
   17.265    5.7293 
   17.280    6.0664 
   17.295    6.2138 
   17.310    6.0453 
   17.325    5.8241 
   17.340    5.5398 
   17.355    6.0979 
   17.370    5.8873 
   17.385    5.9084 
   17.400    6.3402 
   17.415    6.0979 
   17.430    5.7504 
   17.445    6.1611 
   17.460    6.2033 
   17.475    6.2981 
   17.490    6.4139 
   17.505    6.0453 
   17.520    5.9189 
   17.535    6.0453 
   17.550    5.7293 
   17.565    6.3612 
   17.580    6.2243 
   17.595    6.2033 
   17.610    6.1611 
   17.625    5.9610 
   17.640    5.8557 
   17.655    6.1822 
   17.670    6.2665 
   17.685    6.4560 
   17.700    6.2665 
   17.715    6.0979 
   17.730    5.7609 
   17.745    5.8557 
   17.760    5.7925 
   17.775    6.1717 
   17.790    6.5508 
   17.805    6.6667 
   17.820    6.1506 
   17.835    5.8768 
   17.850    6.1295 
   17.865    6.1190 
   17.880    5.8347 
   17.895    6.0558 
   17.910    5.7399 
   17.925    5.8136 
   17.940    6.5298 
   17.955    6.5824 
   17.970    5.8241 
   17.985    5.9400 
   18.000    6.1401 
   18.015    6.1085 
   18.030    5.9294 
   18.045    5.9189 
   18.060    6.0558 
   18.075    6.4244 
   18.090    6.2559 
   18.105    5.8662 
   18.120    5.9189 
   18.135    6.3612 
   18.150    6.0874 
   18.165    5.7715 
   18.180    6.0769 
   18.195    6.1506 
   18.210    6.2559 
   18.225    6.1506 
   18.240    6.3507 
   18.255    5.9926 
   18.270    5.9294 
   18.285    6.2665 
   18.300    6.1611 
   18.315    6.3823 
   18.330    5.8136 
   18.345    6.1717 
   18.360    6.1085 
   18.375    5.9505 
   18.390    6.1295 
   18.405    6.0874 
   18.420    6.0874 
   18.435    6.1295 
   18.450    6.2349 
   18.465    6.3086 
   18.480    6.3086 
   18.495    5.8136 
   18.510    6.1190 
   18.525    6.1717 
   18.540    6.2349 
   18.555    5.9716 
   18.570    5.8031 
   18.585    5.8557 
   18.600    5.8978 
   18.615    6.2454 
   18.630    5.9926 
   18.645    5.5819 
   18.660    6.0558 
   18.675    6.1085 
   18.690    6.1822 
   18.705    5.8662 
   18.720    6.1611 
   18.735    6.0874 
   18.750    5.9189 
   18.765    6.0032 
   18.780    6.5192 
   18.795    6.2243 
   18.810    6.2665 
   18.825    6.3086 
   18.840    6.6035 
   18.855    6.4982 
   18.870    6.3928 
   18.885    6.2138 
   18.900    6.6035 
   18.915    6.3402 
   18.930    6.3296 
   18.945    6.6351 
   18.960    6.7930 
   18.975    6.8352 
   18.990    7.1933 
   19.005    7.0142 
   19.020    6.9089 
   19.035    6.8141 
   19.050    6.4876 
   19.065    6.6772 
   19.080    6.3191 
   19.095    6.4244 
   19.110    6.0242 
   19.125    5.7715 
   19.140    6.4034 
   19.155    6.4560 
   19.170    6.4455 
   19.185    6.3507 
   19.200    6.0242 
   19.215    6.2981 
   19.230    5.9294 
   19.245    6.5719 
   19.260    6.4034 
   19.275    6.1822 
   19.290    5.9926 
   19.305    6.1927 
   19.320    6.4666 
   19.335    6.1822 
   19.350    6.0242 
   19.365    5.8347 
   19.380    6.4666 
   19.395    6.3086 
   19.410    6.5508 
   19.425    6.6245 
   19.440    6.2138 
   19.455    6.4771 
   19.470    6.2875 
   19.485    6.4771 
   19.500    6.4771 
   19.515    6.4771 
   19.530    6.3612 
   19.545    6.3612 
   19.560    6.5298 
   19.575    6.2559 
   19.590    6.1401 
   19.605    6.6035 
   19.620    6.2349 
   19.635    6.4455 
   19.650    6.6245 
   19.665    6.6772 
   19.680    6.6351 
   19.695    6.4139 
   19.710    6.3191 
   19.725    6.6140 
   19.740    6.7088 
   19.755    6.6456 
   19.770    6.3296 
   19.785    6.4244 
   19.800    6.3612 
   19.815    6.6772 
   19.830    6.4771 
   19.845    6.7088 
   19.860    6.4034 
   19.875    6.5192 
   19.890    6.7404 
   19.905    6.6561 
   19.920    6.6456 
   19.935    6.6877 
   19.950    6.2665 
   19.965    6.0348 
   19.980    6.5192 
   19.995    6.1401 
   20.010    6.4876 
   20.025    6.4455 
   20.040    6.7615 
   20.055    6.9405 
   20.070    6.9510 
   20.085    6.8984 
   20.100    6.6035 
   20.115    6.4560 
   20.130    6.6456 
   20.145    6.6245 
   20.160    6.4982 
   20.175    6.9405 
   20.190    6.9089 
   20.205    6.7825 
   20.220    6.5403 
   20.235    6.6035 
   20.250    6.7193 
   20.265    6.4244 
   20.280    6.9616 
   20.295    6.5508 
   20.310    6.3086 
   20.325    6.6035 
   20.340    6.9089 
   20.355    6.6983 
   20.370    6.2454 
   20.385    6.6877 
   20.400    6.4982 
   20.415    6.8984 
   20.430    6.5298 
   20.445    6.5192 
   20.460    6.8457 
   20.475    6.9300 
   20.490    6.4244 
   20.505    6.5824 
   20.520    6.3928 
   20.535    6.8984 
   20.550    6.7825 
   20.565    6.3191 
   20.580    6.4139 
   20.595    6.8562 
   20.610    6.8352 
   20.625    6.7930 
   20.640    6.4771 
   20.655    6.7193 
   20.670    6.7299 
   20.685    6.6983 
   20.700    6.8668 
   20.715    6.3507 
   20.730    6.4876 
   20.745    6.4455 
   20.760    6.7193 
   20.775    6.8036 
   20.790    6.7825 
   20.805    6.8457 
   20.820    6.9721 
   20.835    6.7193 
   20.850    6.7615 
   20.865    6.9826 
   20.880    6.4560 
   20.895    6.5087 
   20.910    6.7404 
   20.925    6.7509 
   20.940    6.7193 
   20.955    6.7509 
   20.970    6.7299 
   20.985    6.6667 
   21.000    6.9194 
   21.015    6.6983 
   21.030    6.5929 
   21.045    6.4560 
   21.060    6.7509 
   21.075    6.9300 
   21.090    6.8141 
   21.105    6.4350 
   21.120    6.9194 
   21.135    6.5719 
   21.150    6.6667 
   21.165    6.7615 
   21.180    6.3402 
   21.195    6.7615 
   21.210    6.4034 
   21.225    6.6772 
   21.240    6.7193 
   21.255    6.5719 
   21.270    6.5087 
   21.285    6.7088 
   21.300    6.4455 
   21.315    6.6667 
   21.330    6.5719 
   21.345    6.7299 
   21.360    6.6877 
   21.375    6.6983 
   21.390    7.0458 
   21.405    6.7825 
   21.420    6.6035 
   21.435    6.5719 
   21.450    6.8457 
   21.465    6.4560 
   21.480    6.2033 
   21.495    6.8036 
   21.510    6.5192 
   21.525    6.5719 
   21.540    6.4982 
   21.555    6.5613 
   21.570    6.8878 
   21.585    6.4876 
   21.600    6.8036 
   21.615    6.7930 
   21.630    6.6877 
   21.645    6.6456 
   21.660    6.8246 
   21.675    6.9194 
   21.690    6.7088 
   21.705    6.7509 
   21.720    6.6140 
   21.735    6.2770 
   21.750    6.3928 
   21.765    6.9826 
   21.780    6.7509 
   21.795    6.6351 
   21.810    6.7088 
   21.825    6.5298 
   21.840    6.5298 
   21.855    6.7509 
   21.870    6.8036 
   21.885    6.3507 
   21.900    6.6245 
   21.915    6.8668 
   21.930    6.8562 
   21.945    6.4666 
   21.960    6.5824 
   21.975    6.7930 
   21.990    6.6245 
   22.005    6.4350 
   22.020    6.4244 
   22.035    6.4034 
   22.050    6.8457 
   22.065    6.9089 
   22.080    6.8878 
   22.095    6.1085 
   22.110    6.5192 
   22.125    6.4666 
   22.140    6.4455 
   22.155    7.1617 
   22.170    6.7088 
   22.185    6.7615 
   22.200    6.4982 
   22.215    6.9089 
   22.230    6.5298 
   22.245    6.2770 
   22.260    6.5929 
   22.275    6.7193 
   22.290    6.9405 
   22.305    6.6877 
   22.320    7.2249 
   22.335    6.8036 
   22.350    6.4876 
   22.365    6.7720 
   22.380    6.6877 
   22.395    6.2559 
   22.410    6.8352 
   22.425    6.7299 
   22.440    6.5719 
   22.455    6.5929 
   22.470    6.9405 
   22.485    7.0248 
   22.500    6.6456 
   22.515    7.0879 
   22.530    6.7720 
   22.545    6.7720 
   22.560    6.5508 
   22.575    6.8246 
   22.590    6.7088 
   22.605    6.7615 
   22.620    7.0774 
   22.635    6.6667 
   22.650    6.5929 
   22.665    6.8036 
   22.680    6.7720 
   22.695    6.9616 
   22.710    6.6667 
   22.725    6.3402 
   22.740    6.4560 
   22.755    6.4666 
   22.770    6.3612 
   22.785    6.3928 
   22.800    6.4666 
   22.815    6.3191 
   22.830    6.5403 
   22.845    6.4666 
   22.860    6.8457 
   22.875    6.8562 
   22.890    6.7825 
   22.905    6.4455 
   22.920    6.3612 
   22.935    7.0353 
   22.950    6.8246 
   22.965    6.8246 
   22.980    6.7509 
   22.995    6.8668 
   23.010    6.7193 
   23.025    6.6245 
   23.040    6.5403 
   23.055    6.5613 
   23.070    6.6456 
   23.085    6.7930 
   23.100    6.6561 
   23.115    6.3612 
   23.130    6.6351 
   23.145    6.9405 
   23.160    7.3407 
   23.175    6.6561 
   23.190    6.5192 
   23.205    6.2349 
   23.220    6.5403 
   23.235    6.8562 
   23.250    6.4244 
   23.265    6.2665 
   23.280    6.4244 
   23.295    6.3507 
   23.310    6.4666 
   23.325    6.5298 
   23.340    6.6772 
   23.355    6.3718 
   23.370    6.7088 
   23.385    6.5192 
   23.400    6.3507 
   23.415    6.8773 
   23.430    6.3402 
   23.445    6.3507 
   23.460    6.4455 
   23.475    6.2770 
   23.490    6.4244 
   23.505    6.6983 
   23.520    6.8878 
   23.535    6.7930 
   23.550    6.4350 
   23.565    6.7825 
   23.580    6.3612 
   23.595    6.7088 
   23.610    6.5929 
   23.625    6.1506 
   23.640    6.0664 
   23.655    6.5192 
   23.670    6.2454 
   23.685    6.4139 
   23.700    6.5824 
   23.715    6.4350 
   23.730    6.1927 
   23.745    6.2559 
   23.760    6.8141 
   23.775    6.6772 
   23.790    6.2243 
   23.805    6.2349 
   23.820    6.4139 
   23.835    6.0137 
   23.850    6.6245 
   23.865    6.7088 
   23.880    6.2454 
   23.895    6.1927 
   23.910    6.2770 
   23.925    6.0348 
   23.940    6.0032 
   23.955    6.1401 
   23.970    5.9294 
   23.985    6.1822 
   24.000    5.9610 
   24.015    6.4771 
   24.030    6.5719 
   24.045    6.4350 
   24.060    6.4139 
   24.075    6.4982 
   24.090    6.2138 
   24.105    6.3612 
   24.120    6.7088 
   24.135    6.1611 
   24.150    6.2770 
   24.165    6.1611 
   24.180    6.1927 
   24.195    6.2454 
   24.210    6.1190 
   24.225    6.1190 
   24.240    5.9189 
   24.255    6.1295 
   24.270    6.2875 
   24.285    5.8978 
   24.300    5.9505 
   24.315    5.9505 
   24.330    5.9400 
   24.345    5.8978 
   24.360    6.0769 
   24.375    5.8978 
   24.390    6.3612 
   24.405    6.0242 
   24.420    6.1190 
   24.435    5.9400 
   24.450    6.3823 
   24.465    6.3928 
   24.480    6.7615 
   24.495    6.1611 
   24.510    6.3296 
   24.525    6.4034 
   24.540    6.2770 
   24.555    5.9189 
   24.570    6.4560 
   24.585    6.6456 
   24.600    6.2349 
   24.615    6.3612 
   24.630    6.2875 
   24.645    5.9189 
   24.660    6.2243 
   24.675    6.3086 
   24.690    6.6140 
   24.705    6.7193 
   24.720    6.3718 
   24.735    6.6983 
   24.750    6.1295 
   24.765    6.6140 
   24.780    6.0769 
   24.795    5.9716 
   24.810    6.3928 
   24.825    6.1611 
   24.840    6.3612 
   24.855    6.3718 
   24.870    6.3296 
   24.885    6.1927 
   24.900    6.3402 
   24.915    5.9189 
   24.930    6.0242 
   24.945    6.2770 
   24.960    6.3507 
   24.975    6.0137 
   24.990    5.9084 
   25.005    6.5719 
   25.020    6.3086 
   25.035    5.8452 
   25.050    6.0242 
   25.065    6.1190 
   25.080    5.9505 
   25.095    6.0453 
   25.110    6.2138 
   25.125    6.4034 
   25.140    6.3507 
   25.155    6.4666 
   25.170    5.9400 
   25.185    6.1822 
   25.200    6.2981 
   25.215    6.1927 
   25.230    6.1611 
   25.245    6.0558 
   25.260    5.6767 
   25.275    5.9400 
   25.290    6.2033 
   25.305    6.1822 
   25.320    6.3612 
   25.335    6.1506 
   25.350    6.0664 
   25.365    6.1506 
   25.380    6.0979 
   25.395    6.0453 
   25.410    6.2559 
   25.425    5.8031 
   25.440    5.5398 
   25.455    6.2454 
   25.470    6.0453 
   25.485    6.0558 
   25.500    6.3507 
   25.515    6.0664 
   25.530    6.1295 
   25.545    6.1717 
   25.560    6.2454 
   25.575    6.1295 
   25.590    6.0769 
   25.605    6.5824 
   25.620    6.3612 
   25.635    6.1190 
   25.650    6.1295 
   25.665    6.0137 
   25.680    6.0769 
   25.695    5.9189 
   25.710    6.0979 
   25.725    6.3612 
   25.740    5.7188 
   25.755    6.0137 
   25.770    6.1085 
   25.785    6.3296 
   25.800    6.3718 
   25.815    5.9505 
   25.830    5.6451 
   25.845    6.0032 
   25.860    6.0242 
   25.875    6.1506 
   25.890    6.0032 
   25.905    5.9716 
   25.920    5.9926 
   25.935    5.9926 
   25.950    6.0348 
   25.965    5.8241 
   25.980    5.7504 
   25.995    5.7504 
   26.010    5.5924 
   26.025    5.9084 
   26.040    6.1190 
   26.055    5.6661 
   26.070    5.9294 
   26.085    5.8031 
   26.100    5.9400 
   26.115    5.8241 
   26.130    5.9926 
   26.145    6.0979 
   26.160    6.0769 
   26.175    5.4555 
   26.190    5.5714 
   26.205    5.6767 
   26.220    6.0137 
   26.235    5.8978 
   26.250    6.0558 
   26.265    5.8978 
   26.280    6.1611 
   26.295    5.9400 
   26.310    5.6451 
   26.325    5.8873 
   26.340    5.9294 
   26.355    5.8662 
   26.370    5.8241 
   26.385    5.6977 
   26.400    6.0137 
   26.415    6.0874 
   26.430    5.5503 
   26.445    5.5819 
   26.460    5.6345 
   26.475    5.8768 
   26.490    5.9400 
   26.505    5.8031 
   26.520    5.4344 
   26.535    5.5398 
   26.550    5.7715 
   26.565    5.9400 
   26.580    5.7820 
   26.595    5.6345 
   26.610    5.4766 
   26.625    5.9716 
   26.640    6.2033 
   26.655    6.0453 
   26.670    5.7715 
   26.685    5.9505 
   26.700    5.6661 
   26.715    5.5819 
   26.730    5.2554 
   26.745    5.6240 
   26.760    5.7715 
   26.775    5.7715 
   26.790    5.7820 
   26.805    5.7925 
   26.820    5.6345 
   26.835    5.6556 
   26.850    5.8241 
   26.865    5.9610 
   26.880    5.7399 
   26.895    5.7820 
   26.910    5.6029 
   26.925    5.8241 
   26.940    5.8557 
   26.955    5.4028 
   26.970    5.4450 
   26.985    6.1085 
   27.000    6.1611 
   27.015    5.3923 
   27.030    5.5398 
   27.045    5.5398 
   27.060    5.9821 
   27.075    5.9189 
   27.090    5.6135 
   27.105    5.6767 
   27.120    5.4976 
   27.135    5.7504 
   27.150    5.4450 
   27.165    5.8557 
   27.180    5.9716 
   27.195    5.8873 
   27.210    6.0453 
   27.225    5.4766 
   27.240    5.8136 
   27.255    5.8557 
   27.270    5.3291 
   27.285    5.5187 
   27.300    5.4134 
   27.315    5.5503 
   27.330    5.6767 
   27.345    5.4344 
   27.360    5.6661 
   27.375    5.7925 
   27.390    5.5714 
   27.405    5.7820 
   27.420    5.7715 
   27.435    6.0874 
   27.450    5.9610 
   27.465    5.8241 
   27.480    5.8136 
   27.495    5.4976 
   27.510    5.6345 
   27.525    5.7504 
   27.540    5.7399 
   27.555    5.6345 
   27.570    5.2133 
   27.585    5.5819 
   27.600    5.4555 
   27.615    5.8978 
   27.630    5.7925 
   27.645    5.4766 
   27.660    5.6556 
   27.675    5.4239 
   27.690    5.3397 
   27.705    5.7083 
   27.720    5.7504 
   27.735    5.7399 
   27.750    5.7188 
   27.765    5.9084 
   27.780    5.8241 
   27.795    5.9505 
   27.810    5.9400 
   27.825    5.8031 
   27.840    5.5608 
   27.855    5.4871 
   27.870    5.6451 
   27.885    5.7188 
   27.900    6.0348 
   27.915    6.1190 
   27.930    6.0558 
   27.945    5.7504 
   27.960    6.1085 
   27.975    6.0558 
   27.990    6.4666 
   28.005    5.9716 
   28.020    6.2138 
   28.035    6.7825 
   28.050    6.6140 
   28.065    6.4350 
   28.080    6.0874 
   28.095    5.9189 
   28.110    5.9926 
   28.125    6.1506 
   28.140    6.1717 
   28.155    5.6345 
   28.170    5.9821 
   28.185    5.7293 
   28.200    5.8031 
   28.215    5.8031 
   28.230    5.8662 
   28.245    6.2454 
   28.260    5.8241 
   28.275    5.8241 
   28.290    6.3402 
   28.305    6.2770 
   28.320    6.2033 
   28.335    5.9294 
   28.350    5.6872 
   28.365    5.5819 
   28.380    5.7820 
   28.395    5.8557 
   28.410    5.7083 
   28.425    5.4766 
   28.440    5.5292 
   28.455    5.6345 
   28.470    5.4450 
   28.485    5.5292 
   28.500    5.5292 
   28.515    5.6345 
   28.530    5.9716 
   28.545    5.5819 
   28.560    5.6451 
   28.575    5.5503 
   28.590    5.5187 
   28.605    5.8347 
   28.620    5.6451 
   28.635    5.8031 
   28.650    6.1295 
   28.665    5.6135 
   28.680    5.5503 
   28.695    5.5292 
   28.710    5.6451 
   28.725    5.7083 
   28.740    5.4766 
   28.755    5.5924 
   28.770    5.0974 
   28.785    5.1290 
   28.800    5.7715 
   28.815    5.6240 
   28.830    5.4344 
   28.845    5.7609 
   28.860    5.8241 
   28.875    6.1506 
   28.890    5.9610 
   28.905    6.0769 
   28.920    5.8768 
   28.935    5.8557 
   28.950    5.8768 
   28.965    6.4982 
   28.980    6.4350 
   28.995    6.2243 
   29.010    6.2559 
   29.025    6.1717 
   29.040    5.6872 
   29.055    5.8768 
   29.070    5.8768 
   29.085    5.8768 
   29.100    5.8241 
   29.115    5.4871 
   29.130    5.4134 
   29.145    5.4344 
   29.160    5.3607 
   29.175    5.3397 
   29.190    5.6977 
   29.205    5.4450 
   29.220    5.8557 
   29.235    6.1717 
   29.250    5.4871 
   29.265    5.3607 
   29.280    5.6029 
   29.295    5.6661 
   29.310    5.8768 
   29.325    5.3607 
   29.340    5.2765 
   29.355    5.5187 
   29.370    5.5398 
   29.385    6.0874 
   29.400    5.9084 
   29.415    5.5608 
   29.430    5.7293 
   29.445    5.4660 
   29.460    5.2765 
   29.475    5.1922 
   29.490    5.2870 
   29.505    5.2975 
   29.520    5.6029 
   29.535    5.5714 
   29.550    5.6556 
   29.565    5.4450 
   29.580    5.6977 
   29.595    5.5924 
   29.610    5.4660 
   29.625    5.6451 
   29.640    5.4344 
   29.655    5.6345 
   29.670    5.9294 
   29.685    5.6767 
   29.700    5.6872 
   29.715    5.5082 
   29.730    5.4871 
   29.745    5.4660 
   29.760    5.4660 
   29.775    5.5187 
   29.790    5.6977 
   29.805    5.5187 
   29.820    5.5398 
   29.835    5.1185 
   29.850    5.3818 
   29.865    5.4344 
   29.880    5.6029 
   29.895    5.1080 
   29.910    5.6767 
   29.925    5.5819 
   29.940    5.6451 
   29.955    5.5187 
   29.970    5.1290 
   29.985    5.3712 
   30.000    5.8768 
   30.015    5.8347 
   30.030    5.2765 
   30.045    5.6977 
   30.060    5.7715 
   30.075    5.4134 
   30.090    5.8031 
   30.105    5.9926 
   30.120    5.7715 
   30.135    5.3081 
   30.150    5.5714 
   30.165    5.0869 
   30.180    5.4344 
   30.195    5.6872 
   30.210    5.6029 
   30.225    5.4660 
   30.240    5.5819 
   30.255    5.4660 
   30.270    5.6977 
   30.285    5.4976 
   30.300    5.3712 
   30.315    5.3818 
   30.330    5.5398 
   30.345    5.4766 
   30.360    5.4134 
   30.375    5.7293 
   30.390    5.4028 
   30.405    5.7293 
   30.420    5.4555 
   30.435    5.1606 
   30.450    5.4239 
   30.465    5.6240 
   30.480    5.7083 
   30.495    5.7925 
   30.510    5.5292 
   30.525    5.4766 
   30.540    5.1395 
   30.555    5.4555 
   30.570    6.1401 
   30.585    5.7715 
   30.600    5.6977 
   30.615    5.4450 
   30.630    5.2238 
   30.645    5.4555 
   30.660    5.5187 
   30.675    5.3607 
   30.690    5.4976 
   30.705    5.5187 
   30.720    5.6872 
   30.735    5.4976 
   30.750    5.3607 
   30.765    5.4555 
   30.780    5.7715 
   30.795    5.7293 
   30.810    5.5608 
   30.825    5.4344 
   30.840    5.4660 
   30.855    5.8241 
   30.870    5.6661 
   30.885    5.8662 
   30.900    5.9821 
   30.915    5.5608 
   30.930    5.6135 
   30.945    5.4028 
   30.960    5.5819 
   30.975    5.5924 
   30.990    5.7715 
   31.005    5.4239 
   31.020    5.6451 
   31.035    5.4239 
   31.050    5.3923 
   31.065    5.3397 
   31.080    5.1922 
   31.095    5.8031 
   31.110    5.2975 
   31.125    5.5819 
   31.140    5.6767 
   31.155    5.7399 
   31.170    5.4450 
   31.185    5.3607 
   31.200    5.2765 
   31.215    5.0553 
   31.230    5.5398 
   31.245    5.8978 
   31.260    5.6556 
   31.275    5.3186 
   31.290    5.1711 
   31.305    5.7293 
   31.320    5.5292 
   31.335    5.5292 
   31.350    5.5608 
   31.365    5.5187 
   31.380    5.6556 
   31.395    5.3397 
   31.410    5.4344 
   31.425    5.5187 
   31.440    5.5819 
   31.455    5.3818 
   31.470    5.2343 
   31.485    5.3502 
   31.500    5.2133 
   31.515    5.3923 
   31.530    5.3081 
   31.545    5.4976 
   31.560    5.8662 
   31.575    5.7925 
   31.590    5.4766 
   31.605    5.2659 
   31.620    5.3502 
   31.635    5.5082 
   31.650    5.5082 
   31.665    5.7715 
   31.680    5.7925 
   31.695    5.7504 
   31.710    5.7188 
   31.725    5.4555 
   31.740    5.6345 
   31.755    5.6556 
   31.770    6.1085 
   31.785    6.0874 
   31.800    5.9084 
   31.815    5.9505 
   31.830    5.9189 
   31.845    5.8136 
   31.860    6.0664 
   31.875    5.9084 
   31.890    5.8662 
   31.905    6.0242 
   31.920    5.9716 
   31.935    5.7083 
   31.950    5.6872 
   31.965    6.1717 
   31.980    5.6767 
   31.995    5.7188 
   32.010    6.2243 
   32.025    6.6772 
   32.040    6.3402 
   32.055    7.0142 
   32.070    7.1406 
   32.085    6.9826 
   32.100    6.4139 
   32.115    6.8773 
   32.130    6.5403 
   32.145    6.6983 
   32.160    6.2981 
   32.175    6.3296 
   32.190    5.6135 
   32.205    5.6661 
   32.220    5.9505 
   32.235    5.4344 
   32.250    5.8452 
   32.265    5.5924 
   32.280    5.4660 
   32.295    5.4660 
   32.310    5.0658 
   32.325    5.3502 
   32.340    5.4134 
   32.355    5.3502 
   32.370    5.4450 
   32.385    5.5187 
   32.400    5.4766 
   32.415    5.3923 
   32.430    5.6029 
   32.445    5.3081 
   32.460    5.2975 
   32.475    5.2133 
   32.490    5.2659 
   32.505    5.2343 
   32.520    5.4134 
   32.535    5.2870 
   32.550    5.4766 
   32.565    5.2238 
   32.580    4.9816 
   32.595    5.2449 
   32.610    5.2238 
   32.625    5.3186 
   32.640    5.0553 
   32.655    5.1606 
   32.670    5.3712 
   32.685    5.2449 
   32.700    5.4028 
   32.715    5.4976 
   32.730    5.5082 
   32.745    5.4766 
   32.760    5.1606 
   32.775    5.2870 
   32.790    5.2659 
   32.805    5.2870 
   32.820    4.7288 
   32.835    5.3186 
   32.850    5.4450 
   32.865    5.5292 
   32.880    5.2343 
   32.895    5.1395 
   32.910    5.4660 
   32.925    5.1922 
   32.940    5.2238 
   32.955    5.5398 
   32.970    5.4450 
   32.985    5.1185 
   33.000    5.2659 
   33.015    5.2554 
   33.030    5.5082 
   33.045    5.4028 
   33.060    5.0553 
   33.075    4.9710 
   33.090    5.1185 
   33.105    5.0448 
   33.120    5.1501 
   33.135    4.9605 
   33.150    5.5187 
   33.165    5.4660 
   33.180    5.0764 
   33.195    5.1290 
   33.210    5.1606 
   33.225    5.1817 
   33.240    5.1817 
   33.255    5.2659 
   33.270    5.2975 
   33.285    5.3186 
   33.300    5.2027 
   33.315    4.9816 
   33.330    5.1290 
   33.345    5.1922 
   33.360    5.4239 
   33.375    5.0448 
   33.390    5.2133 
   33.405    5.2238 
   33.420    5.4871 
   33.435    5.6345 
   33.450    5.0869 
   33.465    5.1606 
   33.480    5.1711 
   33.495    5.3291 
   33.510    5.4239 
   33.525    5.1185 
   33.540    5.2133 
   33.555    4.9605 
   33.570    4.9500 
   33.585    4.9710 
   33.600    5.0342 
   33.615    5.2343 
   33.630    5.2343 
   33.645    5.2554 
   33.660    4.9816 
   33.675    5.4344 
   33.690    5.5819 
   33.705    5.2870 
   33.720    5.2343 
   33.735    4.9816 
   33.750    5.2870 
   33.765    5.4344 
   33.780    5.5924 
   33.795    5.3607 
   33.810    5.3397 
   33.825    5.7820 
   33.840    5.5292 
   33.855    5.6345 
   33.870    5.3186 
   33.885    5.5819 
   33.900    5.8452 
   33.915    5.8873 
   33.930    5.2975 
   33.945    5.2343 
   33.960    5.3607 
   33.975    5.1290 
   33.990    5.2027 
   34.005    5.7820 
   34.020    5.3081 
   34.035    5.0237 
   34.050    5.1185 
   34.065    4.8763 
   34.080    4.8657 
   34.095    5.0658 
   34.110    4.9078 
   34.125    4.7499 
   34.140    5.1080 
   34.155    5.0869 
   34.170    4.9078 
   34.185    5.1185 
   34.200    5.0974 
   34.215    4.9184 
   34.230    4.7499 
   34.245    5.0658 
   34.260    4.9816 
   34.275    4.8341 
   34.290    4.9289 
   34.305    4.9289 
   34.320    4.8868 
   34.335    4.9605 
   34.350    4.8552 
   34.365    4.8657 
   34.380    4.7920 
   34.395    4.7393 
   34.410    4.9605 
   34.425    5.1290 
   34.440    4.9921 
   34.455    5.4134 
   34.470    5.2238 
   34.485    5.0658 
   34.500    4.9816 
   34.515    5.0132 
   34.530    5.0764 
   34.545    4.5603 
   34.560    4.8657 
   34.575    5.0237 
   34.590    5.1817 
   34.605    5.1185 
   34.620    4.8131 
   34.635    5.0974 
   34.650    5.0448 
   34.665    5.0764 
   34.680    5.1606 
   34.695    4.7288 
   34.710    4.8763 
   34.725    5.0132 
   34.740    4.8552 
   34.755    5.0974 
   34.770    4.9921 
   34.785    4.8552 
   34.800    5.0869 
   34.815    4.6867 
   34.830    4.9605 
   34.845    4.8341 
   34.860    5.3923 
   34.875    5.2659 
   34.890    4.9921 
   34.905    4.8868 
   34.920    4.8868 
   34.935    5.0342 
   34.950    4.8341 
   34.965    4.8868 
   34.980    5.2554 
   34.995    5.0764 
   35.010    5.0448 
   35.025    4.7815 
   35.040    4.8868 
   35.055    4.8973 
   35.070    5.1290 
   35.085    4.9921 
   35.100    5.0658 
   35.115    4.7920 
   35.130    5.3397 
   35.145    5.3923 
   35.160    5.3923 
   35.175    5.3923 
   35.190    5.3818 
   35.205    5.1395 
   35.220    4.8973 
   35.235    5.0658 
   35.250    4.9394 
   35.265    5.0764 
   35.280    4.8657 
   35.295    4.8025 
   35.310    4.7920 
   35.325    5.0974 
   35.340    4.9184 
   35.355    4.4339 
   35.370    4.5287 
   35.385    5.0448 
   35.400    4.6761 
   35.415    4.8657 
   35.430    4.7499 
   35.445    5.0237 
   35.460    4.8657 
   35.475    4.8552 
   35.490    4.8341 
   35.505    4.8552 
   35.520    4.8447 
   35.535    4.8447 
   35.550    4.9289 
   35.565    5.0132 
   35.580    4.8447 
   35.595    4.9816 
   35.610    4.8763 
   35.625    5.0237 
   35.640    4.8447 
   35.655    4.5919 
   35.670    4.8763 
   35.685    4.7604 
   35.700    4.8552 
   35.715    4.8657 
   35.730    4.8657 
   35.745    4.8025 
   35.760    5.2343 
   35.775    4.9500 
   35.790    4.9816 
   35.805    4.9184 
   35.820    4.9500 
   35.835    4.9710 
   35.850    4.5392 
   35.865    4.4971 
   35.880    4.6761 
   35.895    4.7183 
   35.910    4.7183 
   35.925    4.9184 
   35.940    4.7499 
   35.955    4.6445 
   35.970    4.8341 
   35.985    4.7183 
   36.000    4.9605 
   36.015    4.8763 
   36.030    4.7183 
   36.045    4.8025 
   36.060    4.9184 
   36.075    5.0237 
   36.090    4.9921 
   36.105    4.8025 
   36.120    4.9289 
   36.135    4.7815 
   36.150    4.5076 
   36.165    4.6340 
   36.180    4.8763 
   36.195    4.7499 
   36.210    4.6867 
   36.225    4.8657 
   36.240    4.8447 
   36.255    5.0658 
   36.270    4.8236 
   36.285    4.8447 
   36.300    4.7288 
   36.315    4.8131 
   36.330    5.1817 
   36.345    5.0237 
   36.360    4.9816 
   36.375    4.7709 
   36.390    4.6024 
   36.405    4.6656 
   36.420    4.9921 
   36.435    4.8131 
   36.450    4.7499 
   36.465    5.1606 
   36.480    4.9605 
   36.495    4.6130 
   36.510    4.8552 
   36.525    4.9184 
   36.540    4.7077 
   36.555    4.5498 
   36.570    4.9394 
   36.585    5.0869 
   36.600    4.7709 
   36.615    4.8236 
   36.630    4.6761 
   36.645    4.6235 
   36.660    4.5392 
   36.675    4.7920 
   36.690    4.7604 
   36.705    4.7499 
   36.720    4.7604 
   36.735    4.6024 
   36.750    4.7288 
   36.765    4.6551 
   36.780    4.8447 
   36.795    4.9289 
   36.810    5.0764 
   36.825    5.2027 
   36.840    4.4866 
   36.855    4.7604 
   36.870    5.0026 
   36.885    4.6761 
   36.900    4.4023 
   36.915    4.7393 
   36.930    4.6235 
   36.945    5.0237 
   36.960    4.5603 
   36.975    4.7709 
   36.990    4.5919 
   37.005    4.5814 
   37.020    4.6551 
   37.035    4.9184 
   37.050    4.6761 
   37.065    4.8025 
   37.080    4.5708 
   37.095    4.9078 
   37.110    4.9500 
   37.125    4.7604 
   37.140    4.7815 
   37.155    5.0132 
   37.170    4.7920 
   37.185    4.9500 
   37.200    4.9394 
   37.215    4.7288 
   37.230    4.6972 
   37.245    4.7604 
   37.260    4.3075 
   37.275    4.3707 
   37.290    4.8025 
   37.305    4.7183 
   37.320    4.6340 
   37.335    4.4023 
   37.350    4.3707 
   37.365    4.4023 
   37.380    4.7815 
   37.395    5.0553 
   37.410    4.5603 
   37.425    4.7604 
   37.440    4.8341 
   37.455    4.5076 
   37.470    4.7920 
   37.485    4.5392 
   37.500    4.4023 
   37.515    4.0442 
   37.530    4.6340 
   37.545    4.7077 
   37.560    4.4023 
   37.575    4.8025 
   37.590    5.2659 
   37.605    4.9394 
   37.620    4.7815 
   37.635    5.2870 
   37.650    4.9394 
   37.665    4.7709 
   37.680    4.9500 
   37.695    4.6340 
   37.710    4.4444 
   37.725    4.4234 
   37.740    4.6867 
   37.755    5.1817 
   37.770    5.1185 
   37.785    4.9710 
   37.800    4.9605 
   37.815    4.8657 
   37.830    4.7183 
   37.845    4.9816 
   37.860    4.7288 
   37.875    4.6972 
   37.890    4.6551 
   37.905    4.6551 
   37.920    4.7499 
   37.935    4.6551 
   37.950    4.7393 
   37.965    4.6130 
   37.980    4.6656 
   37.995    4.7077 
   38.010    4.5392 
   38.025    4.5814 
   38.040    5.1080 
   38.055    4.8868 
   38.070    4.8657 
   38.085    4.6867 
   38.100    4.8657 
   38.115    4.8552 
   38.130    4.5182 
   38.145    4.7393 
   38.160    4.8763 
   38.175    4.5076 
   38.190    4.8341 
   38.205    4.8236 
   38.220    4.3602 
   38.235    4.6130 
   38.250    4.8763 
   38.265    4.6130 
   38.280    4.7288 
   38.295    4.8973 
   38.310    4.8131 
   38.325    4.8657 
   38.340    4.5498 
   38.355    4.9710 
   38.370    4.8552 
   38.385    4.6340 
   38.400    4.9078 
   38.415    4.7920 
   38.430    4.8763 
   38.445    4.8341 
   38.460    4.7920 
   38.475    4.7499 
   38.490    4.4971 
   38.505    4.7077 
   38.520    4.7709 
   38.535    5.1290 
   38.550    4.8657 
   38.565    4.9921 
   38.580    5.0974 
   38.595    4.9816 
   38.610    5.3081 
   38.625    5.4555 
   38.640    5.0448 
   38.655    4.9078 
   38.670    5.2238 
   38.685    5.0026 
   38.700    4.8341 
   38.715    5.0553 
   38.730    4.9394 
   38.745    4.9394 
   38.760    4.7920 
   38.775    4.6761 
   38.790    4.7815 
   38.805    4.8236 
   38.820    4.5814 
   38.835    4.5814 
   38.850    4.7288 
   38.865    4.6867 
   38.880    4.9184 
   38.895    4.8236 
   38.910    5.0974 
   38.925    4.8657 
   38.940    4.4023 
   38.955    4.6024 
   38.970    4.6235 
   38.985    4.9078 
   39.000    4.8341 
   39.015    4.8236 
   39.030    4.9078 
   39.045    5.3502 
   39.060    5.0974 
   39.075    4.8131 
   39.090    4.9605 
   39.105    4.7077 
   39.120    4.9078 
   39.135    5.0658 
   39.150    5.0342 
   39.165    5.1185 
   39.180    5.0342 
   39.195    5.0553 
   39.210    4.8025 
   39.225    5.0448 
   39.240    4.9078 
   39.255    4.7920 
   39.270    4.7077 
   39.285    4.7920 
   39.300    4.9500 
   39.315    5.0342 
   39.330    5.0658 
   39.345    4.9816 
   39.360    4.8973 
   39.375    4.7604 
   39.390    4.7604 
   39.405    4.7920 
   39.420    4.8552 
   39.435    4.6972 
   39.450    4.6235 
   39.465    4.5814 
   39.480    4.6130 
   39.495    4.8131 
   39.510    4.6867 
   39.525    5.0132 
   39.540    4.6235 
   39.555    4.6445 
   39.570    4.9710 
   39.585    4.9394 
   39.600    4.6551 
   39.615    4.6445 
   39.630    4.5392 
   39.645    4.5708 
   39.660    4.8025 
   39.675    4.4128 
   39.690    4.8447 
   39.705    4.9605 
   39.720    5.1606 
   39.735    5.0974 
   39.750    4.7709 
   39.765    4.6656 
   39.780    4.6340 
   39.795    4.5814 
   39.810    4.5708 
   39.825    4.6761 
   39.840    4.5392 
   39.855    4.7288 
   39.870    4.5603 
   39.885    4.6235 
   39.900    4.9500 
   39.915    4.8973 
   39.930    4.8131 
   39.945    4.7183 
   39.960    4.6761 
   39.975    4.8131 
   39.990    4.7183 
