    1.500   28.7871
    1.515   29.5594
    1.530   28.0147
    1.545   28.6642
    1.560   27.4530
    1.575   28.0499
    1.590   28.3834
    1.605   27.3828
    1.620   26.7860
    1.635   26.1190
    1.650   26.0137
    1.665   27.1371
    1.680   25.5222
    1.695   24.6972
    1.710   24.8025
    1.725   24.2759
    1.740   23.7493
    1.755   24.0477
    1.770   23.9951
    1.785   23.6265
    1.800   23.2052
    1.815   22.9946
    1.830   22.7488
    1.845   21.1866
    1.860   21.2041
    1.875   21.5377
    1.890   21.8887
    1.905   20.5722
    1.920   21.2744
    1.935   20.0983
    1.950   19.8701
    1.965   19.8701
    1.980   19.5366
    1.995   19.0100
    2.010   19.9930
    2.025   19.0276
    2.040   20.0105
    2.055   17.8691
    2.070   18.1499
    2.085   17.9042
    2.100   18.1675
    2.115   17.9568
    2.130   17.8515
    2.145   18.1324
    2.160   17.0792
    2.175   17.2196
    2.190   17.0792
    2.205   16.7281
    2.220   16.9212
    2.235   16.6930
    2.250   16.9036
    2.265   15.6574
    2.280   16.2191
    2.295   15.4994
    2.310   15.8329
    2.325   15.9558
    2.340   15.6574
    2.355   15.5872
    2.370   15.4643
    2.385   16.2191
    2.400   15.2712
    2.415   15.0079
    2.430   15.2010
    2.445   15.2185
    2.460   14.5691
    2.475   14.5515
    2.490   15.5345
    2.505   14.7270
    2.520   14.4989
    2.535   14.8499
    2.550   14.6393
    2.565   13.8845
    2.580   13.9547
    2.595   14.1829
    2.610   14.6217
    2.625   14.6919
    2.640   15.0079
    2.655   14.5866
    2.670   14.8324
    2.685   14.8148
    2.700   14.3584
    2.715   13.9898
    2.730   14.0425
    2.745   13.7441
    2.760   14.0425
    2.775   15.1834
    2.790   14.3584
    2.805   14.3233
    2.820   14.4462
    2.835   15.1834
    2.850   15.1483
    2.865   15.0079
    2.880   14.5691
    2.895   14.9552
    2.910   15.3239
    2.925   15.1483
    2.940   15.5520
    2.955   15.0957
    2.970   14.5866
    2.985   15.4643
    3.000   15.6574
    3.015   16.4648
    3.030   15.6047
    3.045   15.7978
    3.060   16.3770
    3.075   16.5877
    3.090   16.8510
    3.105   16.3946
    3.120   17.1143
    3.135   17.8515
    3.150   17.8164
    3.165   16.7632
    3.180   17.1845
    3.195   18.1850
    3.210   18.7292
    3.225   19.2557
    3.240   19.5717
    3.255   19.5542
    3.270   20.6073
    3.285   19.8701
    3.300   20.4318
    3.315   21.3095
    3.330   21.7483
    3.345   21.8536
    3.360   21.8536
    3.375   23.4860
    3.390   23.5738
    3.405   23.7493
    3.420   24.1355
    3.435   25.5222
    3.450   26.6280
    3.465   27.3302
    3.480   27.6812
    3.495   29.4541
    3.510   30.1738
    3.525   30.3844
    3.540   31.5780
    3.555   32.8594
    3.570   32.7014
    3.585   35.2817
    3.600   37.7392
    3.615   38.4588
    3.630   41.3551
    3.645   44.0934
    3.660   45.8136
    3.675   47.7620
    3.690   49.1662
    3.705   53.0806
    3.720   57.2231
    3.735   60.7337
    3.750   66.7720
    3.765   72.2837
    3.780   81.9379
    3.795   91.7325
    3.810  105.8452
    3.825  121.5201
    3.840  130.7355
    3.855  122.8190
    3.870  102.6681
    3.885   79.7964
    3.900   56.3103
    3.915   35.3519
    3.930   22.5733
    3.945   16.2191
    3.960   13.5685
    3.975   11.4622
    3.990   10.3563
    4.005    9.5489
    4.020    9.0925
    4.035    9.1978
    4.050    9.0750
    4.065    8.0920
    4.080    7.9691
    4.095    8.0569
    4.110    8.2324
    4.125    8.2149
    4.140    7.7234
    4.155    7.7409
    4.170    7.5829
    4.185    7.5303
    4.200    7.5829
    4.215    7.2670
    4.230    7.9164
    4.245    7.3899
    4.260    7.3899
    4.275    7.1441
    4.290    6.7930
    4.305    7.2494
    4.320    7.3021
    4.335    6.9335
    4.350    7.2319
    4.365    6.8984
    4.380    7.1266
    4.395    6.9686
    4.410    7.2319
    4.425    7.2845
    4.440    7.2494
    4.455    7.0388
    4.470    7.4952
    4.485    7.4425
    4.500    6.7228
    4.515    6.9686
    4.530    6.6877
    4.545    6.5122
    4.560    7.3021
    4.575    7.6005
    4.590    7.6356
    4.605    7.7585
    4.620    7.3372
    4.635    7.3021
    4.650    7.3021
    4.665    7.5829
    4.680    7.7058
    4.695    7.4952
    4.710    7.1968
    4.725    7.4250
    4.740    7.2670
    4.755    7.3372
    4.770    6.8106
    4.785    7.0563
    4.800    7.7234
    4.815    7.2143
    4.830    7.2845
    4.845    8.0744
    4.860    7.7409
    4.875    8.4430
    4.890    8.2324
    4.905    8.0744
    4.920    7.8989
    4.935    7.6883
    4.950    8.4079
    4.965    8.9521
    4.980    8.2675
    4.995    8.2675
    5.010    8.4606
    5.025    8.6186
    5.040    9.1803
    5.055    9.6893
    5.070    9.3382
    5.085    9.4436
    5.100    9.5840
    5.115    9.7420
    5.130    9.8648
    5.145   10.1281
    5.160   10.0930
    5.175   10.4792
    5.190   10.4792
    5.205   11.2164
    5.220   11.6728
    5.235   12.1643
    5.250   12.7962
    5.265   13.2701
    5.280   13.9547
    5.295   14.2531
    5.310   14.3760
    5.325   15.0430
    5.340   16.1840
    5.355   17.1669
    5.370   19.3260
    5.385   19.5366
    5.400   22.1696
    5.415   24.2057
    5.430   27.8919
    5.445   32.4908
    5.460   34.6498
    5.475   33.7195
    5.490   29.6296
    5.505   24.6972
    5.520   19.0276
    5.535   13.3930
    5.550    9.9877
    5.565    8.3728
    5.580    7.1090
    5.595    6.8282
    5.610    6.4946
    5.625    6.2138
    5.640    6.0558
    5.655    6.3191
    5.670    6.5298
    5.685    5.9505
    5.700    5.6345
    5.715    5.8276
    5.730    5.7399
    5.745    6.2313
    5.760    6.2665
    5.775    5.9154
    5.790    6.2665
    5.805    6.1260
    5.820    5.5468
    5.835    5.5117
    5.850    5.6521
    5.865    5.5117
    5.880    5.8101
    5.895    6.4771
    5.910    5.7750
    5.925    5.9681
    5.940    5.9505
    5.955    5.9856
    5.970    5.7223
    5.985    6.0383
    6.000    5.9505
    6.015    6.0383
    6.030    6.0734
    6.045    6.3191
    6.060    6.4420
    6.075    6.3016
    6.090    5.7925
    6.105    5.6521
    6.120    6.3542
    6.135    6.0383
    6.150    6.1787
    6.165    5.9505
    6.180    6.0383
    6.195    5.5468
    6.210    6.0032
    6.225    5.7223
    6.240    6.0909
    6.255    5.9856
    6.270    5.7399
    6.285    5.8101
    6.300    6.1085
    6.315    5.8101
    6.330    6.2138
    6.345    6.0032
    6.360    6.5122
    6.375    6.3016
    6.390    6.3542
    6.405    6.7053
    6.420    6.3718
    6.435    6.1436
    6.450    5.9154
    6.465    6.6526
    6.480    6.9335
    6.495    6.8633
    6.510    6.9159
    6.525    6.6526
    6.540    6.9861
    6.555    7.6005
    6.570    7.9867
    6.585    7.7585
    6.600    7.7585
    6.615    8.0569
    6.630    8.0042
    6.645    8.8292
    6.660    8.9521
    6.675    9.8999
    6.690   10.8127
    6.705   10.3212
    6.720   10.0755
    6.735    9.4611
    6.750    9.1627
    6.765    8.2149
    6.780    7.4776
    6.795    6.2489
    6.810    5.7750
    6.825    5.9681
    6.840    5.8978
    6.855    5.7925
    6.870    5.5994
    6.885    5.8803
    6.900    5.7574
    6.915    5.7048
    6.930    5.4766
    6.945    5.3010
    6.960    5.8627
    6.975    5.4941
    6.990    5.7574
    7.005    5.5117
    7.020    5.8803
    7.035    5.4239
    7.050    5.3888
    7.065    5.7750
    7.080    5.7399
    7.095    5.8627
    7.110    5.8978
    7.125    5.9856
    7.140    5.8627
    7.155    5.7750
    7.170    5.3186
    7.185    5.9505
    7.200    5.9856
    7.215    6.1436
    7.230    5.5468
    7.245    5.4239
    7.260    5.8978
    7.275    5.7223
    7.290    5.8803
    7.305    5.8803
    7.320    6.2138
    7.335    6.0734
    7.350    5.5117
    7.365    5.6345
    7.380    6.1436
    7.395    6.3718
    7.410    6.2489
    7.425    6.4069
    7.440    6.6702
    7.455    6.0558
    7.470    6.5473
    7.485    6.2313
    7.500    6.3367
    7.515    6.2489
    7.530    6.5298
    7.545    6.8106
    7.560    7.0739
    7.575    6.9686
    7.590    7.2494
    7.605    7.5127
    7.620    7.4952
    7.635    8.3728
    7.650    7.6883
    7.665    7.8638
    7.680    9.4085
    7.695    9.1452
    7.710   10.1808
    7.725   10.8303
    7.740   11.6904
    7.755   12.3749
    7.770   12.9015
    7.785   11.9712
    7.800   10.3388
    7.815    8.7590
    7.830    7.7936
    7.845    6.9510
    7.860    6.4069
    7.875    5.9329
    7.890    5.5819
    7.905    5.9681
    7.920    5.6697
    7.935    5.7750
    7.950    6.0207
    7.965    5.4590
    7.980    5.0728
    7.995    5.5819
    8.010    5.9154
    8.025    5.8101
    8.040    5.1957
    8.055    5.8101
    8.070    5.5819
    8.085    5.2484
    8.100    5.3361
    8.115    5.1782
    8.130    5.4766
    8.145    5.7223
    8.160    5.9329
    8.175    5.4064
    8.190    5.8627
    8.205    5.6345
    8.220    5.7399
    8.235    5.4239
    8.250    5.7048
    8.265    5.5994
    8.280    6.4069
    8.295    5.8452
    8.310    6.0383
    8.325    6.0383
    8.340    5.4239
    8.355    5.4064
    8.370    5.6521
    8.385    5.2308
    8.400    5.3361
    8.415    5.7223
    8.430    5.6697
    8.445    5.4239
    8.460    5.6697
    8.475    5.6170
    8.490    6.0909
    8.505    5.6170
    8.520    5.6872
    8.535    5.6872
    8.550    5.6872
    8.565    5.7574
    8.580    5.8276
    8.595    5.9329
    8.610    6.0207
    8.625    5.7750
    8.640    5.7048
    8.655    6.7053
    8.670    6.7053
    8.685    6.4244
    8.700    6.5122
    8.715    6.5824
    8.730    6.5298
    8.745    6.4771
    8.760    5.9856
    8.775    5.7048
    8.790    5.4941
    8.805    5.9329
    8.820    6.0032
    8.835    5.7399
    8.850    5.1606
    8.865    5.5819
    8.880    5.5117
    8.895    5.7048
    8.910    5.4064
    8.925    5.5994
    8.940    5.5292
    8.955    5.5819
    8.970    5.8803
    8.985    5.4415
    9.000    5.8276
    9.015    5.3537
    9.030    5.6521
    9.045    5.5468
    9.060    5.8276
    9.075    5.7399
    9.090    5.9681
    9.105    5.8101
    9.120    5.2659
    9.135    5.8276
    9.150    5.9329
    9.165    6.1962
    9.180    6.1611
    9.195    6.1260
    9.210    6.1787
    9.225    6.1787
    9.240    5.7750
    9.255    6.1962
    9.270    6.9159
    9.285    7.1441
    9.300    6.8808
    9.315    7.4250
    9.330    7.2494
    9.345    7.4425
    9.360    8.2324
    9.375    8.0393
    9.390    8.1095
    9.405    8.7063
    9.420    8.8994
    9.435    9.4787
    9.450   10.5494
    9.465   11.8132
    9.480   12.9893
    9.495   14.2180
    9.510   14.8675
    9.525   15.4994
    9.540   15.5520
    9.555   13.9898
    9.570   12.6733
    9.585   10.2510
    9.600    8.2500
    9.615    7.1968
    9.630    6.8106
    9.645    6.1085
    9.660    5.5292
    9.675    5.9681
    9.690    5.8452
    9.705    5.8627
    9.720    5.4941
    9.735    5.3712
    9.750    5.2484
    9.765    5.4064
    9.780    5.6697
    9.795    5.8978
    9.810    5.9329
    9.825    6.2313
    9.840    5.9154
    9.855    5.9329
    9.870    5.7048
    9.885    6.0558
    9.900    5.5117
    9.915    5.0553
    9.930    5.4239
    9.945    5.6697
    9.960    5.5819
    9.975    5.5994
    9.990    5.5468
   10.005    5.5117
   10.020    5.5468
   10.035    5.9505
   10.050    6.0734
   10.065    6.0032
   10.080    5.9505
   10.095    5.9154
   10.110    6.4244
   10.125    6.1787
   10.140    6.2840
   10.155    5.9329
   10.170    6.1787
   10.185    6.0558
   10.200    6.8633
   10.215    6.6877
   10.230    7.0915
   10.245    8.1622
   10.260    8.2324
   10.275    8.4606
   10.290    8.8643
   10.305    8.9170
   10.320    8.0042
   10.335    7.5478
   10.350    7.2670
   10.365    6.9861
   10.380    6.3367
   10.395    6.4946
   10.410    5.7574
   10.425    5.3361
   10.440    5.3537
   10.455    5.8627
   10.470    5.8627
   10.485    5.6521
   10.500    5.5117
   10.515    5.7048
   10.530    5.9681
   10.545    5.8803
   10.560    5.8627
   10.575    5.4590
   10.590    5.8452
   10.605    5.7399
   10.620    5.3537
   10.635    5.3361
   10.650    5.4766
   10.665    5.5468
   10.680    5.4590
   10.695    5.2659
   10.710    5.8978
   10.725    5.6872
   10.740    5.1957
   10.755    5.0904
   10.770    5.2133
   10.785    5.4941
   10.800    5.7925
   10.815    5.5117
   10.830    6.0207
   10.845    6.1787
   10.860    6.1436
   10.875    5.9856
   10.890    6.4771
   10.905    6.6526
   10.920    6.2665
   10.935    6.9510
   10.950    6.7579
   10.965    7.3021
   10.980    7.9516
   10.995    8.4957
   11.010    8.5659
   11.025    8.7590
   11.040    8.2324
   11.055    7.5478
   11.070    7.1441
   11.085    6.7755
   11.100    6.2665
   11.115    5.9505
   11.130    5.7925
   11.145    6.0558
   11.160    5.5994
   11.175    5.1431
   11.190    5.0728
   11.205    5.1255
   11.220    5.3888
   11.235    5.1782
   11.250    5.4415
   11.265    5.0553
   11.280    5.4941
   11.295    5.2133
   11.310    5.4239
   11.325    5.7223
   11.340    5.2133
   11.355    5.7048
   11.370    5.0728
   11.385    5.2835
   11.400    5.0728
   11.415    5.5292
   11.430    5.4415
   11.445    5.5292
   11.460    5.5117
   11.475    5.4415
   11.490    5.6521
   11.505    5.5468
   11.520    5.6170
   11.535    5.7925
   11.550    5.7574
   11.565    6.1085
   11.580    6.5473
   11.595    7.2143
   11.610    6.1787
   11.625    7.2845
   11.640    7.9164
   11.655    8.2324
   11.670    8.7590
   11.685    9.3207
   11.700    8.3202
   11.715    8.6010
   11.730    7.5127
   11.745    7.1968
   11.760    6.8633
   11.775    6.3542
   11.790    5.4239
   11.805    5.4941
   11.820    5.2835
   11.835    5.3712
   11.850    5.4415
   11.865    5.1957
   11.880    5.4064
   11.895    5.1606
   11.910    4.9149
   11.925    4.8447
   11.940    4.8622
   11.955    5.0202
   11.970    5.1080
   11.985    4.5111
   12.000    4.6340
   12.015    5.1431
   12.030    5.2659
   12.045    4.9500
   12.060    5.1606
   12.075    5.0202
   12.090    5.1957
   12.105    4.8447
   12.120    5.1255
   12.135    5.5468
   12.150    5.2835
   12.165    5.1782
   12.180    5.2133
   12.195    4.8622
   12.210    4.9675
   12.225    4.9324
   12.240    5.5643
   12.255    5.4064
   12.270    5.0728
   12.285    5.8627
   12.300    5.1431
   12.315    6.0207
   12.330    5.7574
   12.345    5.6872
   12.360    5.8452
   12.375    5.5994
   12.390    5.0904
   12.405    4.7920
   12.420    4.7218
   12.435    4.8095
   12.450    5.2659
   12.465    5.2835
   12.480    4.6691
   12.495    4.4234
   12.510    4.5989
   12.525    4.8095
   12.540    4.8798
   12.555    4.4936
   12.570    4.6516
   12.585    5.2835
   12.600    5.1782
   12.615    4.8271
   12.630    5.1255
   12.645    4.9851
   12.660    5.2133
   12.675    5.1255
   12.690    4.6867
   12.705    4.8798
   12.720    5.1782
   12.735    4.9500
   12.750    4.8973
   12.765    5.4941
   12.780    5.3537
   12.795    5.1255
   12.810    5.5292
   12.825    5.3361
   12.840    5.4415
   12.855    5.8803
   12.870    6.0909
   12.885    6.3191
   12.900    6.7755
   12.915    6.7053
   12.930    7.0563
   12.945    7.0915
   12.960    6.7228
   12.975    6.4420
   12.990    6.4595
   13.005    5.6872
   13.020    5.1606
   13.035    5.2133
   13.050    5.1957
   13.065    5.0728
   13.080    4.9149
   13.095    4.7569
   13.110    4.8973
   13.125    4.5287
   13.140    5.0202
   13.155    4.8095
   13.170    5.2308
   13.185    4.6691
   13.200    4.5989
   13.215    5.0377
   13.230    5.0377
   13.245    5.2133
   13.260    5.1957
   13.275    5.0553
   13.290    4.8973
   13.305    4.8271
   13.320    4.7744
   13.335    4.9675
   13.350    4.9324
   13.365    4.9149
   13.380    5.3186
   13.395    5.2484
   13.410    4.7744
   13.425    5.0377
   13.440    5.7574
   13.455    5.1255
   13.470    5.5994
   13.485    5.7750
   13.500    5.8978
   13.515    6.0032
   13.530    5.8627
   13.545    5.8452
   13.560    5.5994
   13.575    5.4415
   13.590    5.3010
   13.605    5.1431
   13.620    5.0377
   13.635    5.1782
   13.650    4.8095
   13.665    4.6867
   13.680    4.5989
   13.695    4.5111
   13.710    4.4760
   13.725    4.6340
   13.740    5.3361
   13.755    4.9675
   13.770    5.0026
   13.785    4.6516
   13.800    4.9851
   13.815    4.7569
   13.830    4.2654
   13.845    4.8271
   13.860    4.7393
   13.875    4.9675
   13.890    4.5814
   13.905    4.8271
   13.920    5.1255
   13.935    5.2133
   13.950    4.8447
   13.965    5.4415
   13.980    5.4766
   13.995    5.8803
   14.010    6.1962
   14.025    6.3191
   14.040    6.5298
   14.055    6.9510
   14.070    7.0388
   14.085    7.3372
   14.100    6.9335
   14.115    6.5473
   14.130    6.1611
   14.145    5.2835
   14.160    5.1606
   14.175    4.8447
   14.190    4.8973
   14.205    4.6691
   14.220    5.0904
   14.235    4.7569
   14.250    5.0728
   14.265    5.4766
   14.280    4.9675
   14.295    4.5287
   14.310    4.8622
   14.325    5.0904
   14.340    4.7393
   14.355    4.6340
   14.370    4.7218
   14.385    5.0202
   14.400    4.7218
   14.415    4.9500
   14.430    4.8095
   14.445    4.7920
   14.460    4.6867
   14.475    4.8271
   14.490    4.7218
   14.505    4.9851
   14.520    4.9675
   14.535    5.0377
   14.550    4.8095
   14.565    4.6165
   14.580    4.3356
   14.595    4.4585
   14.610    4.4234
   14.625    4.7920
   14.640    4.8447
   14.655    4.7218
   14.670    4.8095
   14.685    4.9149
   14.700    4.8973
   14.715    4.7042
   14.730    4.8973
   14.745    4.7218
   14.760    4.8798
   14.775    4.5638
   14.790    4.8271
   14.805    4.4234
   14.820    4.9500
   14.835    5.0026
   14.850    5.0202
   14.865    4.8973
   14.880    4.5814
   14.895    4.6516
   14.910    4.5814
   14.925    4.7042
   14.940    4.8973
   14.955    4.9324
   14.970    5.0904
   14.985    5.4941
   15.000    5.1957
   15.015    4.7569
   15.030    4.8447
   15.045    4.5638
   15.060    4.8447
   15.075    4.9851
   15.090    5.4941
   15.105    5.1606
   15.120    5.4415
   15.135    5.3712
   15.150    5.2659
   15.165    5.5819
   15.180    5.1957
   15.195    4.4409
   15.210    4.6691
   15.225    4.5287
   15.240    4.4409
   15.255    4.8622
   15.270    4.6867
   15.285    4.6340
   15.300    4.7393
   15.315    4.9324
   15.330    4.7042
   15.345    4.6867
   15.360    4.7920
   15.375    4.7218
   15.390    4.6165
   15.405    4.6340
   15.420    4.5638
   15.435    4.6165
   15.450    4.3532
   15.465    4.4585
   15.480    4.6691
   15.495    4.7569
   15.510    4.6691
   15.525    4.6165
   15.540    4.8095
   15.555    4.8798
   15.570    4.4585
   15.585    4.5287
   15.600    4.5814
   15.615    4.4058
   15.630    4.6516
   15.645    4.3181
   15.660    4.4760
   15.675    4.5638
   15.690    4.7042
   15.705    4.6165
   15.720    4.5287
   15.735    4.1952
   15.750    4.4585
   15.765    4.5989
   15.780    4.6691
   15.795    4.5814
   15.810    4.4409
   15.825    4.5814
   15.840    4.4058
   15.855    4.4234
   15.870    4.8095
   15.885    5.0026
   15.900    4.9324
   15.915    5.0728
   15.930    4.8271
   15.945    4.9500
   15.960    4.7920
   15.975    4.8095
   15.990    5.0553
   16.005    5.1080
   16.020    4.8622
   16.035    4.8447
   16.050    4.8798
   16.065    5.5643
   16.080    5.1957
   16.095    5.2484
   16.110    5.3712
   16.125    5.3888
   16.140    4.9500
   16.155    5.4064
   16.170    5.2659
   16.185    5.2659
   16.200    5.1080
   16.215    5.0553
   16.230    4.8798
   16.245    4.9149
   16.260    4.2478
   16.275    4.5989
   16.290    4.9324
   16.305    5.0553
   16.320    4.8622
   16.335    4.5989
   16.350    4.2654
   16.365    4.4936
   16.380    4.8271
   16.395    4.5814
   16.410    4.9675
   16.425    5.2133
   16.440    4.9324
   16.455    4.7920
   16.470    4.8447
   16.485    5.0026
   16.500    5.0202
   16.515    5.0728
   16.530    5.3712
   16.545    5.4064
   16.560    5.3537
   16.575    5.8627
   16.590    5.4064
   16.605    5.5819
   16.620    5.6170
   16.635    5.1957
   16.650    5.6521
   16.665    5.3361
   16.680    5.5117
   16.695    5.0202
   16.710    4.8973
   16.725    5.0026
   16.740    5.0026
   16.755    4.9675
   16.770    5.1606
   16.785    5.0553
   16.800    4.8271
   16.815    5.3712
   16.830    5.3537
   16.845    5.4766
   16.860    5.3010
   16.875    4.9675
   16.890    5.0904
   16.905    5.0377
   16.920    5.1431
   16.935    5.2835
   16.950    4.9851
   16.965    5.4239
   16.980    5.3010
   16.995    5.8803
   17.010    6.3016
   17.025    6.5122
   17.040    6.3893
   17.055    6.3367
   17.070    6.6175
   17.085    6.3893
   17.100    6.1787
   17.115    5.6697
   17.130    5.6872
   17.145    5.2308
   17.160    5.2308
   17.175    4.8095
   17.190    4.9851
   17.205    5.0026
   17.220    4.5463
   17.235    4.8622
   17.250    4.8095
   17.265    4.8095
   17.280    4.4936
   17.295    4.9324
   17.310    5.0728
   17.325    4.7920
   17.340    4.7218
   17.355    4.7920
   17.370    5.0904
   17.385    5.0728
   17.400    4.9675
   17.415    5.1606
   17.430    5.3537
   17.445    5.1255
   17.460    4.6340
   17.475    5.2308
   17.490    5.2659
   17.505    5.3712
   17.520    5.7223
   17.535    5.8627
   17.550    5.5819
   17.565    5.1782
   17.580    5.2308
   17.595    5.0026
   17.610    5.2133
   17.625    5.0026
   17.640    4.5814
   17.655    4.6340
   17.670    4.8271
   17.685    4.8447
   17.700    5.0026
   17.715    5.0728
   17.730    5.1606
   17.745    5.0026
   17.760    4.8622
   17.775    5.1782
   17.790    4.8095
   17.805    4.8271
   17.820    4.7042
   17.835    4.4936
   17.850    5.4766
   17.865    5.2659
   17.880    4.8447
   17.895    5.1255
   17.910    5.1080
   17.925    5.3361
   17.940    5.1080
   17.955    4.8447
   17.970    5.4415
   17.985    4.9500
   18.000    5.3361
   18.015    4.9500
   18.030    4.6516
   18.045    4.3005
   18.060    4.7393
   18.075    5.1080
   18.090    5.1431
   18.105    4.7393
   18.120    4.7218
   18.135    5.1957
   18.150    5.2133
   18.165    4.6165
   18.180    5.2835
   18.195    5.0377
   18.210    5.3537
   18.225    5.1431
   18.240    4.7569
   18.255    5.0553
   18.270    5.0026
   18.285    4.8622
   18.300    5.2835
   18.315    5.4064
   18.330    4.9851
   18.345    5.3186
   18.360    5.6170
   18.375    5.5292
   18.390    5.1080
   18.405    5.1957
   18.420    4.7569
   18.435    5.2835
   18.450    4.9675
   18.465    4.4936
   18.480    4.8271
   18.495    4.8095
   18.510    4.4585
   18.525    4.6867
   18.540    4.8622
   18.555    5.0026
   18.570    5.2133
   18.585    4.9851
   18.600    5.0553
   18.615    4.7569
   18.630    5.0026
   18.645    4.7744
   18.660    4.6516
   18.675    4.8798
   18.690    4.9851
   18.705    4.8798
   18.720    4.8095
   18.735    5.1431
   18.750    4.7920
   18.765    5.1957
   18.780    5.2133
   18.795    5.2484
   18.810    5.3537
   18.825    5.1080
   18.840    5.1606
   18.855    5.0728
   18.870    4.9851
   18.885    4.8798
   18.900    5.0202
   18.915    4.7393
   18.930    4.7393
   18.945    4.6691
   18.960    5.0026
   18.975    5.1431
   18.990    5.0026
   19.005    4.7393
   19.020    4.5287
   19.035    5.2659
   19.050    5.3712
   19.065    4.7920
   19.080    4.4760
   19.095    4.6516
   19.110    4.7920
   19.125    5.0728
   19.140    4.7393
   19.155    4.7744
   19.170    5.2484
   19.185    5.1957
   19.200    4.6867
   19.215    4.6340
   19.230    4.7042
   19.245    4.6867
   19.260    4.8973
   19.275    4.6340
   19.290    5.0202
   19.305    4.8622
   19.320    4.1952
   19.335    5.1957
   19.350    5.0026
   19.365    4.9851
   19.380    4.8798
   19.395    4.9851
   19.410    4.9851
   19.425    4.8973
   19.440    4.9500
   19.455    5.0026
   19.470    4.8973
   19.485    4.4585
   19.500    4.7569
   19.515    5.1255
   19.530    5.7399
   19.545    5.4415
   19.560    5.3712
   19.575    5.0553
   19.590    4.8095
   19.605    5.1957
   19.620    5.1080
   19.635    5.4415
   19.650    5.2133
   19.665    5.1431
   19.680    5.1080
   19.695    5.1606
   19.710    5.1957
   19.725    5.2133
   19.740    4.6691
   19.755    4.3883
   19.770    4.5463
   19.785    4.6867
   19.800    5.2308
   19.815    4.4409
   19.830    4.7920
   19.845    4.5989
   19.860    4.8447
   19.875    4.9324
   19.890    4.2127
   19.905    4.4936
   19.920    4.3532
   19.935    4.6867
   19.950    4.8447
   19.965    4.9324
   19.980    4.9500
   19.995    5.3888
   20.010    5.0553
   20.025    5.1957
   20.040    5.7574
   20.055    5.2659
   20.070    5.2659
   20.085    4.9500
   20.100    4.4409
   20.115    4.8622
   20.130    4.8271
   20.145    5.2133
   20.160    4.9851
   20.175    4.8798
   20.190    4.8798
   20.205    5.2308
   20.220    4.6867
   20.235    4.5111
   20.250    5.1957
   20.265    5.7399
   20.280    5.0728
   20.295    5.5292
   20.310    5.7223
   20.325    6.0558
   20.340    6.3542
   20.355    6.3542
   20.370    5.7399
   20.385    6.0558
   20.400    6.1260
   20.415    6.2840
   20.430    6.0734
   20.445    5.5994
   20.460    5.5819
   20.475    5.1957
   20.490    5.3361
   20.505    5.1606
   20.520    5.1782
   20.535    5.0904
   20.550    5.1606
   20.565    5.0377
   20.580    4.7920
   20.595    5.1255
   20.610    5.2835
   20.625    5.3186
   20.640    4.7393
   20.655    5.0202
   20.670    4.7920
   20.685    4.6867
   20.700    4.8271
   20.715    5.1080
   20.730    4.6516
   20.745    4.8973
   20.760    4.7744
   20.775    5.1957
   20.790    5.1782
   20.805    5.1255
   20.820    4.7393
   20.835    5.2308
   20.850    5.2308
   20.865    4.8973
   20.880    5.4064
   20.895    4.8798
   20.910    5.0553
   20.925    4.7218
   20.940    5.0202
   20.955    4.6165
   20.970    4.7744
   20.985    4.4585
   21.000    4.6516
   21.015    4.7744
   21.030    4.7218
   21.045    4.9675
   21.060    4.7218
   21.075    4.7393
   21.090    4.9149
   21.105    5.3010
   21.120    4.9324
   21.135    5.0553
   21.150    4.9149
   21.165    4.5814
   21.180    5.0904
   21.195    5.0553
   21.210    4.9500
   21.225    5.1080
   21.240    4.6867
   21.255    4.8271
   21.270    4.7393
   21.285    5.2484
   21.300    4.6516
   21.315    4.9149
   21.330    4.7920
   21.345    4.8973
   21.360    4.9675
   21.375    5.1431
   21.390    4.8973
   21.405    5.2133
   21.420    4.9324
   21.435    4.5638
   21.450    4.7920
   21.465    4.5638
   21.480    5.0026
   21.495    5.0377
   21.510    4.9149
   21.525    4.5287
   21.540    4.8095
   21.555    4.9851
   21.570    4.8622
   21.585    4.8271
   21.600    4.7920
   21.615    4.9675
   21.630    4.8973
   21.645    4.9675
   21.660    4.9500
   21.675    4.9500
   21.690    5.2484
   21.705    4.6165
   21.720    4.9500
   21.735    5.1255
   21.750    5.1255
   21.765    5.0904
   21.780    4.9675
   21.795    5.3712
   21.810    5.3361
   21.825    5.7750
   21.840    5.2835
   21.855    5.2835
   21.870    5.1606
   21.885    5.5468
   21.900    5.0904
   21.915    5.6345
   21.930    5.5994
   21.945    4.9675
   21.960    5.0377
   21.975    5.1255
   21.990    5.4415
   22.005    4.5989
   22.020    5.0904
   22.035    5.2835
   22.050    5.2835
   22.065    5.4590
   22.080    4.7744
   22.095    5.4415
   22.110    5.1080
   22.125    5.0553
   22.140    4.9324
   22.155    4.9500
   22.170    5.3712
   22.185    5.4415
   22.200    5.1255
   22.215    5.5819
   22.230    5.3361
   22.245    5.2133
   22.260    5.2835
   22.275    4.5287
   22.290    4.8622
   22.305    5.4064
   22.320    4.9675
   22.335    4.9500
   22.350    5.4064
   22.365    4.9675
   22.380    4.9851
   22.395    5.3537
   22.410    5.4064
   22.425    5.0553
   22.440    5.0026
   22.455    4.9149
   22.470    4.8095
   22.485    5.6170
   22.500    6.0734
   22.515    5.9329
   22.530    6.0032
   22.545    6.0383
   22.560    6.2840
   22.575    6.3893
   22.590    6.3367
   22.605    6.4244
   22.620    6.0558
   22.635    5.9329
   22.650    5.4239
   22.665    5.6170
   22.680    5.1080
   22.695    4.7920
   22.710    5.3010
   22.725    5.5292
   22.740    5.1957
   22.755    5.2133
   22.770    4.8798
   22.785    5.3361
   22.800    5.6872
   22.815    5.4415
   22.830    5.3186
   22.845    5.9856
   22.860    6.1085
   22.875    6.8808
   22.890    6.4771
   22.905    6.6526
   22.920    6.1787
   22.935    6.1962
   22.950    6.1787
   22.965    5.9329
   22.980    5.3361
   22.995    5.5819
   23.010    5.5819
   23.025    5.3361
   23.040    5.2835
   23.055    4.8271
   23.070    5.2308
   23.085    5.3010
   23.100    4.9851
   23.115    5.3186
   23.130    5.5994
   23.145    5.4590
   23.160    5.2659
   23.175    5.0904
   23.190    5.4064
   23.205    5.1255
   23.220    5.2133
   23.235    5.2835
   23.250    5.2835
   23.265    5.2835
   23.280    5.3712
   23.295    5.3712
   23.310    5.1431
   23.325    5.1782
   23.340    5.4415
   23.355    4.7569
   23.370    4.7744
   23.385    4.7744
   23.400    4.8095
   23.415    4.6516
   23.430    5.1080
   23.445    4.8271
   23.460    5.1255
   23.475    5.1782
   23.490    5.2659
   23.505    4.9851
   23.520    5.0202
   23.535    5.2308
   23.550    4.9500
   23.565    4.8973
   23.580    5.0202
   23.595    4.7218
   23.610    4.9149
   23.625    4.8095
   23.640    4.8095
   23.655    4.7218
   23.670    4.9851
   23.685    5.0553
   23.700    4.7393
   23.715    4.8622
   23.730    4.8447
   23.745    4.8095
   23.760    4.8622
   23.775    4.8622
   23.790    5.0202
   23.805    5.3010
   23.820    5.0377
   23.835    4.7744
   23.850    5.1606
   23.865    5.2133
   23.880    5.2133
   23.895    5.0904
   23.910    4.6867
   23.925    4.8973
   23.940    5.4766
   23.955    4.7744
   23.970    5.2484
   23.985    4.7569
   24.000    4.5989
   24.015    4.8095
   24.030    5.2308
   24.045    5.1255
   24.060    5.0377
   24.075    4.9500
   24.090    5.0377
   24.105    4.9675
   24.120    4.5814
   24.135    4.8447
   24.150    4.7920
   24.165    4.3356
   24.180    4.7218
   24.195    4.9675
   24.210    4.8798
   24.225    5.2133
   24.240    4.8798
   24.255    4.7569
   24.270    5.0202
   24.285    4.7218
   24.300    4.8798
   24.315    4.7744
   24.330    4.9324
   24.345    4.8447
   24.360    4.6340
   24.375    4.4234
   24.390    4.5814
   24.405    4.8622
   24.420    4.4936
   24.435    4.8622
   24.450    4.5463
   24.465    4.5989
   24.480    4.7042
   24.495    4.6691
   24.510    4.6691
   24.525    4.7569
   24.540    5.1431
   24.555    4.9149
   24.570    5.0904
   24.585    5.2835
   24.600    4.7393
   24.615    4.7744
   24.630    4.6867
   24.645    4.7393
   24.660    4.5814
   24.675    4.8798
   24.690    4.7393
   24.705    4.7393
   24.720    4.7920
   24.735    4.6165
   24.750    5.0904
   24.765    4.4760
   24.780    4.6340
   24.795    4.8622
   24.810    4.7393
   24.825    4.5989
   24.840    4.5111
   24.855    4.6691
   24.870    4.9149
   24.885    4.6516
   24.900    4.7920
   24.915    5.3537
   24.930    4.7042
   24.945    4.7218
   24.960    5.0026
   24.975    4.7744
   24.990    4.4058
   25.005    4.8447
   25.020    4.4760
   25.035    5.1080
   25.050    4.8095
   25.065    4.4936
   25.080    4.7569
   25.095    4.7569
   25.110    4.8095
   25.125    4.3707
   25.140    4.8447
   25.155    4.8271
   25.170    4.2830
   25.185    4.8447
   25.200    5.0904
   25.215    4.8622
   25.230    4.5287
   25.245    5.1606
   25.260    4.8973
   25.275    4.6867
   25.290    4.7920
   25.305    4.4936
   25.320    4.6165
   25.335    5.0728
   25.350    5.1606
   25.365    5.0553
   25.380    5.0377
   25.395    4.6516
   25.410    4.7393
   25.425    4.7393
   25.440    4.9324
   25.455    4.6165
   25.470    5.3537
   25.485    5.1957
   25.500    4.9149
   25.515    4.5638
   25.530    4.8271
   25.545    4.3883
   25.560    4.4760
   25.575    5.0553
   25.590    5.0904
   25.605    5.0026
   25.620    5.0904
   25.635    4.7393
   25.650    4.7393
   25.665    4.6867
   25.680    5.0377
   25.695    4.7744
   25.710    5.5994
   25.725    5.3712
   25.740    4.9149
   25.755    5.5819
   25.770    5.1431
   25.785    5.5292
   25.800    5.7223
   25.815    5.4941
   25.830    5.7574
   25.845    5.7750
   25.860    5.9329
   25.875    5.3361
   25.890    5.1255
   25.905    4.8095
   25.920    4.8798
   25.935    4.9324
   25.950    4.6516
   25.965    4.8973
   25.980    4.8447
   25.995    4.7393
   26.010    4.6867
   26.025    5.0904
   26.040    4.8095
   26.055    4.8973
   26.070    4.6516
   26.085    4.7393
   26.100    4.7218
   26.115    4.6691
   26.130    5.0202
   26.145    4.9675
   26.160    4.9149
   26.175    4.8798
   26.190    4.8798
   26.205    4.8095
   26.220    4.4058
   26.235    4.6867
   26.250    4.4936
   26.265    4.8622
   26.280    4.7042
   26.295    4.9500
   26.310    5.0904
   26.325    4.7393
   26.340    4.1601
   26.355    4.1776
   26.370    4.4585
   26.385    4.7393
   26.400    4.9500
   26.415    4.9675
   26.430    4.7218
   26.445    4.5463
   26.460    4.7744
   26.475    4.6867
   26.490    4.5287
   26.505    4.9149
   26.520    5.0026
   26.535    4.8095
   26.550    5.0728
   26.565    4.8271
   26.580    4.3181
   26.595    4.6691
   26.610    4.6691
   26.625    4.5989
   26.640    4.4234
   26.655    4.5814
   26.670    4.2127
   26.685    4.5111
   26.700    4.5463
   26.715    4.5638
   26.730    4.6691
   26.745    4.5638
   26.760    4.4058
   26.775    4.4760
   26.790    4.4234
   26.805    4.4936
   26.820    4.7569
   26.835    4.4936
   26.850    4.8447
   26.865    4.8622
   26.880    4.4409
   26.895    4.7042
   26.910    4.6691
   26.925    4.6867
   26.940    5.1431
   26.955    4.4409
   26.970    4.5287
   26.985    4.5989
   27.000    4.8271
   27.015    4.7393
   27.030    4.5814
   27.045    4.9500
   27.060    5.1255
   27.075    4.8095
   27.090    4.9149
   27.105    4.6340
   27.120    4.7042
   27.135    4.6691
   27.150    4.5287
   27.165    4.5638
   27.180    4.3532
   27.195    4.4760
   27.210    4.5111
   27.225    4.0723
   27.240    4.1776
   27.255    4.1952
   27.270    4.5463
   27.285    4.3005
   27.300    4.0899
   27.315    4.4409
   27.330    4.3356
   27.345    4.7042
   27.360    4.5111
   27.375    4.4585
   27.390    4.4058
   27.405    4.7393
   27.420    4.6165
   27.435    4.7744
   27.450    4.7393
   27.465    4.6867
   27.480    4.8798
   27.495    4.9675
   27.510    4.5111
   27.525    4.2127
   27.540    4.3356
   27.555    4.3883
   27.570    4.4760
   27.585    4.9675
   27.600    4.6516
   27.615    5.2484
   27.630    4.7218
   27.645    4.5989
   27.660    4.2830
   27.675    4.1425
   27.690    4.3883
   27.705    4.4936
   27.720    4.4409
   27.735    4.1250
   27.750    4.2303
   27.765    4.2830
   27.780    4.3005
   27.795    4.7920
   27.810    5.4064
   27.825    4.5463
   27.840    4.5287
   27.855    4.3707
   27.870    4.5814
   27.885    4.7744
   27.900    4.9324
   27.915    4.3005
   27.930    4.7042
   27.945    4.3356
   27.960    4.7920
   27.975    4.7393
   27.990    4.4234
   28.005    4.5814
   28.020    4.8447
   28.035    4.8271
   28.050    4.6691
   28.065    4.7218
   28.080    4.7744
   28.095    4.5638
   28.110    4.4234
   28.125    4.7218
   28.140    4.8271
   28.155    4.4409
   28.170    4.7569
   28.185    4.6516
   28.200    4.6867
   28.215    4.9324
   28.230    4.7744
   28.245    4.3883
   28.260    4.5111
   28.275    4.7920
   28.290    4.1776
   28.305    4.4936
   28.320    4.5814
   28.335    4.6516
   28.350    4.7393
   28.365    4.5989
   28.380    4.7218
   28.395    5.4239
   28.410    4.4760
   28.425    4.8271
   28.440    4.7569
   28.455    4.6867
   28.470    4.5111
   28.485    4.3356
   28.500    4.6340
   28.515    4.4936
   28.530    4.5111
   28.545    4.4058
   28.560    4.8095
   28.575    4.5989
   28.590    4.4936
   28.605    4.6516
   28.620    4.5814
   28.635    4.1074
   28.650    4.1250
   28.665    4.6516
   28.680    4.4234
   28.695    4.4409
   28.710    4.2478
   28.725    4.1776
   28.740    4.4058
   28.755    3.8792
   28.770    3.9319
   28.785    4.1952
   28.800    4.7744
   28.815    4.4234
   28.830    4.3356
   28.845    4.5111
   28.860    4.1601
   28.875    4.1952
   28.890    4.3883
   28.905    4.5463
   28.920    4.1952
   28.935    4.4058
   28.950    4.3707
   28.965    4.1250
   28.980    4.2654
   28.995    4.2303
   29.010    4.2478
   29.025    4.0899
   29.040    4.6340
   29.055    4.2830
   29.070    4.7393
   29.085    4.7393
   29.100    4.5111
   29.115    4.2127
   29.130    4.6691
   29.145    4.2830
   29.160    4.3707
   29.175    4.3181
   29.190    4.3005
   29.205    4.5111
   29.220    4.3356
   29.235    4.4409
   29.250    4.5814
   29.265    4.4936
   29.280    4.6867
   29.295    4.8271
   29.310    4.4760
   29.325    4.8798
   29.340    4.4585
   29.355    4.3356
   29.370    4.8271
   29.385    4.7393
   29.400    4.4585
   29.415    4.2830
   29.430    4.2654
   29.445    4.1074
   29.460    4.4585
   29.475    4.5111
   29.490    3.8266
   29.505    4.4585
   29.520    4.4058
   29.535    4.4585
   29.550    4.4058
   29.565    4.3883
   29.580    4.2654
   29.595    4.0197
   29.610    4.2478
   29.625    4.3181
   29.640    4.8973
   29.655    4.2127
   29.670    4.2127
   29.685    3.9143
   29.700    4.2303
   29.715    4.0723
   29.730    4.3707
   29.745    4.1601
   29.760    4.3883
   29.775    4.2654
   29.790    4.5463
   29.805    4.6516
   29.820    4.1601
   29.835    4.5111
   29.850    4.3532
   29.865    4.4234
   29.880    4.6516
   29.895    4.4936
   29.910    4.3356
   29.925    4.2127
   29.940    4.4760
   29.955    4.6691
   29.970    4.4409
   29.985    3.9846
   30.000    3.8968
   30.015    4.3707
   30.030    4.2654
   30.045    3.9846
   30.060    4.1250
   30.075    3.7739
   30.090    4.1425
   30.105    4.3005
   30.120    4.3356
   30.135    4.5463
   30.150    4.5638
   30.165    4.2303
   30.180    4.2830
   30.195    4.3181
   30.210    4.3356
   30.225    4.2478
   30.240    4.3707
   30.255    4.3707
   30.270    4.3532
   30.285    4.4058
   30.300    4.1425
   30.315    4.3005
   30.330    4.2127
   30.345    4.0548
   30.360    4.3181
   30.375    4.0723
   30.390    4.3356
   30.405    4.7042
   30.420    4.1601
   30.435    4.0372
   30.450    4.2830
   30.465    4.5638
   30.480    4.0372
   30.495    4.0197
   30.510    4.1601
   30.525    4.0021
   30.540    3.8968
   30.555    4.2127
   30.570    4.5638
   30.585    4.1952
   30.600    4.3005
   30.615    3.8617
   30.630    3.9670
   30.645    4.4058
   30.660    4.7218
   30.675    4.4409
   30.690    4.7920
   30.705    4.5463
   30.720    4.3883
   30.735    4.1776
   30.750    4.1776
   30.765    3.9143
   30.780    4.1074
   30.795    3.9846
   30.810    4.3005
   30.825    3.9319
   30.840    3.9494
   30.855    3.9494
   30.870    4.1074
   30.885    3.9319
   30.900    3.9846
   30.915    3.7564
   30.930    4.0021
   30.945    4.3181
   30.960    3.8617
   30.975    4.3532
   30.990    4.0372
   31.005    3.4931
   31.020    3.8266
   31.035    4.0548
   31.050    4.2127
   31.065    3.9670
   31.080    3.5984
   31.095    3.8968
   31.110    3.8792
   31.125    3.9143
   31.140    4.4936
   31.155    3.8266
   31.170    3.8090
   31.185    3.9143
   31.200    3.8968
   31.215    3.9143
   31.230    4.1250
   31.245    4.0021
   31.260    3.9143
   31.275    3.9846
   31.290    4.0021
   31.305    4.1601
   31.320    4.0197
   31.335    4.1776
   31.350    4.3883
   31.365    4.2654
   31.380    4.3707
   31.395    4.1601
   31.410    4.2303
   31.425    4.2654
   31.440    4.4936
   31.455    4.3005
   31.470    4.0548
   31.485    4.1425
   31.500    4.2303
   31.515    4.0723
   31.530    3.9319
   31.545    4.5111
   31.560    4.3883
   31.575    4.0197
   31.590    3.9494
   31.605    4.4760
   31.620    4.1952
   31.635    4.3181
   31.650    3.9846
   31.665    4.2830
   31.680    4.3883
   31.695    4.1776
   31.710    4.1425
   31.725    4.2303
   31.740    4.1425
   31.755    4.4234
   31.770    4.4058
   31.785    4.3883
   31.800    4.2654
   31.815    4.2478
   31.830    3.9319
   31.845    4.1952
   31.860    3.5457
   31.875    3.8441
   31.890    4.6867
   31.905    4.2127
   31.920    4.3005
   31.935    4.1952
   31.950    3.9319
   31.965    3.7739
   31.980    4.2127
   31.995    4.1250
   32.010    4.4058
   32.025    4.3005
   32.040    4.1776
   32.055    4.0723
   32.070    4.0899
   32.085    3.8792
   32.100    3.6335
   32.115    3.8792
   32.130    3.8090
   32.145    3.6510
   32.160    3.9143
   32.175    3.8441
   32.190    3.9846
   32.205    4.3883
   32.220    4.3005
   32.235    3.8792
   32.250    3.9319
   32.265    3.8792
   32.280    3.8617
   32.295    4.0899
   32.310    3.8266
   32.325    3.9846
   32.340    3.8617
   32.355    3.9319
   32.370    3.6335
   32.385    3.6510
   32.400    4.1601
   32.415    4.1250
   32.430    4.3707
   32.445    4.0723
   32.460    3.8792
   32.475    4.0197
   32.490    3.9143
   32.505    3.7388
   32.520    4.0021
   32.535    4.1250
   32.550    3.8968
   32.565    3.9494
   32.580    4.0548
   32.595    3.8968
   32.610    3.6335
   32.625    4.1952
   32.640    4.0372
   32.655    4.4234
   32.670    4.2830
   32.685    4.0723
   32.700    4.4234
   32.715    4.1952
   32.730    3.9670
   32.745    3.7915
   32.760    4.0372
   32.775    4.2303
   32.790    4.2478
   32.805    4.0899
   32.820    4.0723
   32.835    3.7037
   32.850    4.5111
   32.865    4.3005
   32.880    4.1952
   32.895    3.9670
   32.910    3.8266
   32.925    3.9670
   32.940    3.5984
   32.955    3.6335
   32.970    4.3005
   32.985    4.1425
   33.000    4.2303
   33.015    3.8792
   33.030    3.8441
   33.045    4.1250
   33.060    3.7564
   33.075    3.7739
   33.090    4.3532
   33.105    4.1425
   33.120    4.0723
   33.135    3.6159
   33.150    3.5457
   33.165    4.0723
   33.180    4.0021
   33.195    4.1952
   33.210    4.0372
   33.225    4.1250
   33.240    4.2478
   33.255    4.0723
   33.270    4.0197
   33.285    4.0372
   33.300    4.0197
   33.315    3.6335
   33.330    3.5282
   33.345    4.2478
   33.360    3.8968
   33.375    3.9143
   33.390    3.9143
   33.405    3.8792
   33.420    3.9670
   33.435    3.8617
   33.450    4.1074
   33.465    4.0197
   33.480    3.7915
   33.495    3.6159
   33.510    4.0021
   33.525    4.0197
   33.540    3.9494
   33.555    4.1074
   33.570    3.7564
   33.585    3.7915
   33.600    3.9143
   33.615    4.2303
   33.630    3.9494
   33.645    4.0197
   33.660    3.8617
   33.675    3.7037
   33.690    3.7213
   33.705    3.8090
   33.720    3.7739
   33.735    3.9494
   33.750    3.9143
   33.765    3.7739
   33.780    3.8968
   33.795    4.3181
   33.810    4.2654
   33.825    4.8447
   33.840    4.4760
   33.855    4.1074
   33.870    3.8617
   33.885    4.1776
   33.900    4.0899
   33.915    4.1952
   33.930    3.7915
   33.945    3.9143
   33.960    3.7915
   33.975    4.0899
   33.990    4.2303
   34.005    3.9846
   34.020    4.1074
   34.035    3.9494
   34.050    3.9319
   34.065    3.8617
   34.080    3.8968
   34.095    4.0197
   34.110    4.3356
   34.125    3.7213
   34.140    4.1601
   34.155    3.7915
   34.170    4.1074
   34.185    4.0723
   34.200    4.0372
   34.215    4.0723
   34.230    3.9494
   34.245    4.0021
   34.260    3.7213
   34.275    3.7037
   34.290    3.6159
   34.305    3.8968
   34.320    4.1776
   34.335    3.6862
   34.350    3.5984
   34.365    3.7915
   34.380    3.7213
   34.395    4.3532
   34.410    4.1425
   34.425    4.1250
   34.440    3.7564
   34.455    4.0021
   34.470    4.1776
   34.485    3.8792
   34.500    3.7388
   34.515    3.8792
   34.530    3.8617
   34.545    3.6510
   34.560    3.4931
   34.575    3.8792
   34.590    4.0197
   34.605    3.5808
   34.620    3.4755
   34.635    4.0899
   34.650    3.7388
   34.665    3.9143
   34.680    3.5808
   34.695    4.0372
   34.710    4.1074
   34.725    4.1425
   34.740    3.8266
   34.755    3.6335
   34.770    3.4931
   34.785    3.7388
   34.800    3.7739
   34.815    4.3005
   34.830    3.5808
   34.845    3.8617
   34.860    3.7564
   34.875    3.6862
   34.890    3.3877
   34.905    3.4229
   34.920    3.7739
   34.935    3.6862
   34.950    3.9846
   34.965    3.9494
   34.980    4.1250
   34.995    3.8090
   35.010    3.5633
   35.025    3.7037
   35.040    3.6510
   35.055    3.7388
   35.070    3.8968
   35.085    3.5282
   35.100    3.5984
   35.115    3.9494
   35.130    3.8441
   35.145    3.7915
   35.160    3.8090
   35.175    3.5808
   35.190    3.6686
   35.205    3.5457
   35.220    3.3877
   35.235    3.5282
   35.250    3.7739
   35.265    4.2478
   35.280    3.9319
   35.295    3.8792
   35.310    3.9143
   35.325    3.5808
   35.340    3.5808
   35.355    3.7564
   35.370    3.4580
   35.385    3.4404
   35.400    3.8266
   35.415    3.5984
   35.430    3.5984
   35.445    3.8792
   35.460    3.6159
   35.475    3.5633
   35.490    3.6510
   35.505    3.8968
   35.520    3.8266
   35.535    4.0197
   35.550    4.0197
   35.565    3.6335
   35.580    3.5282
   35.595    3.4404
   35.610    3.6510
   35.625    3.7037
   35.640    3.7213
   35.655    3.9319
   35.670    3.7213
   35.685    3.6686
   35.700    4.3356
   35.715    3.7037
   35.730    3.5633
   35.745    3.6510
   35.760    3.9846
   35.775    3.9143
   35.790    3.4931
   35.805    3.3351
   35.820    3.5984
   35.835    3.7915
   35.850    3.4755
   35.865    3.5282
   35.880    4.0021
   35.895    3.8968
   35.910    4.0723
   35.925    3.8090
   35.940    3.5282
   35.955    3.7388
   35.970    4.1952
   35.985    3.7388
   36.000    3.9143
   36.015    3.8441
   36.030    3.8090
   36.045    3.7915
   36.060    3.8792
   36.075    3.7564
   36.090    3.8266
   36.105    3.6510
   36.120    3.5282
   36.135    3.8441
   36.150    4.0723
   36.165    3.4404
   36.180    3.3877
   36.195    3.8617
   36.210    3.5808
   36.225    3.5808
   36.240    3.5984
   36.255    3.5282
   36.270    3.8266
   36.285    3.6862
   36.300    3.2473
   36.315    4.0723
   36.330    3.5984
   36.345    3.5106
   36.360    3.6335
   36.375    3.6862
   36.390    3.4755
   36.405    3.8441
   36.420    3.5633
   36.435    3.7739
   36.450    3.6862
   36.465    3.7739
   36.480    3.5106
   36.495    3.7037
   36.510    3.5633
   36.525    3.5457
   36.540    3.7037
   36.555    3.8266
   36.570    3.5457
   36.585    3.4229
   36.600    3.8090
   36.615    4.2303
   36.630    3.8792
   36.645    3.5808
   36.660    3.6159
   36.675    3.5457
   36.690    3.7739
   36.705    3.7213
   36.720    3.8968
   36.735    3.4931
   36.750    3.5457
   36.765    3.8090
   36.780    3.7915
   36.795    3.6510
   36.810    3.7213
   36.825    3.5984
   36.840    3.5457
   36.855    3.6335
   36.870    3.7915
   36.885    3.5984
   36.900    3.5984
   36.915    3.5457
   36.930    3.7915
   36.945    3.6335
   36.960    3.6159
   36.975    3.5106
   36.990    3.7037
   37.005    3.3000
   37.020    3.3000
   37.035    3.9143
   37.050    3.7739
   37.065    3.7564
   37.080    3.6510
   37.095    3.7915
   37.110    3.8090
   37.125    4.0899
   37.140    4.2303
   37.155    3.8441
   37.170    3.6335
   37.185    3.6862
   37.200    4.0372
   37.215    4.2127
   37.230    3.6510
   37.245    3.8968
   37.260    3.4053
   37.275    3.6335
   37.290    3.5633
   37.305    3.4755
   37.320    3.3000
   37.335    3.5457
   37.350    3.3702
   37.365    3.4931
   37.380    3.7213
   37.395    3.5984
   37.410    3.5808
   37.425    3.5282
   37.440    3.7213
   37.455    3.7739
   37.470    3.7037
   37.485    3.3351
   37.500    3.4580
   37.515    3.3175
   37.530    3.5984
   37.545    3.5633
   37.560    3.7388
   37.575    3.5457
   37.590    3.6686
   37.605    3.5457
   37.620    3.4755
   37.635    3.8441
   37.650    3.8968
   37.665    3.4229
   37.680    3.3877
   37.695    3.4931
   37.710    3.4053
   37.725    3.9846
   37.740    3.5457
   37.755    3.2473
   37.770    3.4931
   37.785    3.6510
   37.800    3.5282
   37.815    3.8266
   37.830    3.5808
   37.845    3.4229
   37.860    3.6510
   37.875    3.3351
   37.890    3.8090
   37.905    3.8792
   37.920    3.8792
   37.935    3.8090
   37.950    3.9319
   37.965    3.5282
   37.980    3.4931
   37.995    3.4053
   38.010    3.5808
   38.025    3.8617
   38.040    3.6335
   38.055    3.6862
   38.070    3.9494
   38.085    3.5984
   38.100    3.5282
   38.115    3.5984
   38.130    3.6159
   38.145    3.7037
   38.160    3.5106
   38.175    3.3702
   38.190    3.3175
   38.205    3.4931
   38.220    3.4404
   38.235    3.2649
   38.250    3.3526
   38.265    3.7388
   38.280    3.4755
   38.295    3.7915
   38.310    3.5808
   38.325    3.4755
   38.340    3.7213
   38.355    3.1947
   38.370    3.5633
   38.385    4.0548
   38.400    3.6686
   38.415    3.2824
   38.430    3.5984
   38.445    3.8090
   38.460    3.7915
   38.475    3.2649
   38.490    3.5984
   38.505    3.5808
   38.520    3.7213
   38.535    3.8266
   38.550    3.4931
   38.565    3.3877
   38.580    3.3000
   38.595    3.4931
   38.610    3.5808
   38.625    3.7388
   38.640    3.8617
   38.655    3.4580
   38.670    3.5633
   38.685    3.3877
   38.700    3.4404
   38.715    3.5106
   38.730    3.4580
   38.745    3.1947
   38.760    3.1596
   38.775    3.6510
   38.790    3.6159
   38.805    3.4580
   38.820    3.6686
   38.835    3.4053
   38.850    3.5984
   38.865    3.6159
   38.880    3.3877
   38.895    3.7388
   38.910    3.5457
   38.925    3.5106
   38.940    3.5808
   38.955    3.5984
   38.970    3.1420
   38.985    3.3702
   39.000    3.5106
   39.015    3.3351
   39.030    3.0893
   39.045    3.5282
   39.060    3.6159
   39.075    3.6686
   39.090    3.7037
   39.105    3.4229
   39.120    3.0367
   39.135    3.6686
   39.150    3.8090
   39.165    3.5984
   39.180    3.9143
   39.195    3.8792
   39.210    3.5457
   39.225    3.4931
   39.240    3.5106
   39.255    3.4580
   39.270    3.6862
   39.285    3.5457
   39.300    3.5633
   39.315    3.8617
   39.330    3.5106
   39.345    3.5808
   39.360    3.5808
   39.375    3.3526
   39.390    3.4053
   39.405    3.3526
   39.420    3.6335
   39.435    3.7739
   39.450    3.7213
   39.465    3.7564
   39.480    3.6686
   39.495    3.5106
   39.510    3.3000
   39.525    3.2824
   39.540    3.5633
   39.555    3.7564
   39.570    3.6686
   39.585    3.8792
   39.600    3.6862
   39.615    3.5984
   39.630    3.4580
   39.645    3.3702
   39.660    3.1947
   39.675    3.5106
   39.690    3.5457
   39.705    3.6159
   39.720    3.4053
   39.735    3.6510
   39.750    3.8968
   39.765    3.7037
   39.780    3.9143
   39.795    3.5106
   39.810    3.4404
   39.825    3.5457
   39.840    3.6159
   39.855    3.4053
   39.870    3.8968
   39.885    3.6159
   39.900    3.3351
   39.915    3.4053
   39.930    3.7213
   39.945    3.6862
   39.960    3.7564
   39.975    3.9494
   39.990    3.6159
   40.005    3.7213
   40.020    3.7213
   40.035    3.7037
   40.050    3.5106
   40.065    3.5633
   40.080    3.8441
   40.095    3.4931
   40.110    3.5106
   40.125    3.7564
   40.140    3.5984
   40.155    3.3000
   40.170    3.8441
   40.185    3.6335
   40.200    3.5106
   40.215    3.8266
   40.230    3.8266
   40.245    3.3877
   40.260    3.4404
   40.275    3.4404
   40.290    3.5457
   40.305    3.8090
   40.320    3.9494
   40.335    3.6335
   40.350    3.6159
   40.365    3.8792
   40.380    4.0021
   40.395    3.9319
   40.410    3.6335
   40.425    3.6335
   40.440    3.6510
   40.455    3.6159
   40.470    3.6862
   40.485    3.4931
   40.500    3.3702
   40.515    3.6510
   40.530    3.5282
   40.545    3.6335
   40.560    3.4229
   40.575    3.5457
   40.590    3.7213
   40.605    3.7388
   40.620    3.5282
   40.635    3.2649
   40.650    3.5808
   40.665    3.2122
   40.680    3.6686
   40.695    3.7388
   40.710    3.5984
   40.725    3.6159
   40.740    3.6510
   40.755    3.9670
   40.770    3.6686
   40.785    3.3351
   40.800    3.4053
   40.815    3.4931
   40.830    3.5808
   40.845    3.0016
   40.860    3.3351
   40.875    3.5633
   40.890    4.0197
   40.905    3.6335
   40.920    3.5808
   40.935    3.4404
   40.950    3.5984
   40.965    3.6510
   40.980    3.4229
   40.995    3.7739
   41.010    4.0548
   41.025    3.9143
   41.040    3.4053
   41.055    3.1947
   41.070    3.3351
   41.085    3.3702
   41.100    3.4931
   41.115    3.8968
   41.130    3.3526
   41.145    3.4931
   41.160    3.5633
   41.175    3.4053
   41.190    3.3877
   41.205    3.4053
   41.220    3.3526
   41.235    3.2298
   41.250    3.4229
   41.265    3.6686
   41.280    3.5282
   41.295    3.4053
   41.310    3.3702
   41.325    3.7213
   41.340    3.5106
   41.355    3.4755
   41.370    3.6862
   41.385    3.5282
   41.400    3.3351
   41.415    3.2824
   41.430    3.4931
   41.445    3.5457
   41.460    3.8441
   41.475    3.6335
   41.490    3.5106
   41.505    3.1245
   41.520    3.4404
   41.535    3.3351
   41.550    3.3877
   41.565    3.5633
   41.580    3.7037
   41.595    3.4580
   41.610    3.5282
   41.625    3.2824
   41.640    3.2649
   41.655    3.3877
   41.670    3.3702
   41.685    3.4053
   41.700    3.7388
   41.715    3.4229
   41.730    3.3877
   41.745    3.7037
   41.760    3.5106
   41.775    3.8617
   41.790    3.6510
   41.805    3.6335
   41.820    3.3175
   41.835    3.4404
   41.850    3.1245
   41.865    3.7564
   41.880    3.6335
   41.895    3.5984
   41.910    3.4755
   41.925    3.6686
   41.940    3.5633
   41.955    3.5457
   41.970    3.6862
   41.985    3.4755
   42.000    3.4580
   42.015    3.5808
   42.030    3.5984
   42.045    3.4229
   42.060    3.8266
   42.075    3.8090
   42.090    3.5106
   42.105    3.1771
   42.120    3.2473
   42.135    3.5457
   42.150    3.3351
   42.165    3.5984
   42.180    3.1947
   42.195    3.2473
   42.210    3.5457
   42.225    3.3175
   42.240    3.7037
   42.255    3.4931
   42.270    3.2473
   42.285    3.1596
   42.300    3.5106
   42.315    3.8441
   42.330    3.4580
   42.345    3.4053
   42.360    3.5457
   42.375    3.6510
   42.390    4.0197
   42.405    3.7037
   42.420    4.0548
   42.435    3.4229
   42.450    3.2473
   42.465    3.6335
   42.480    3.7915
   42.495    3.1245
   42.510    3.0893
   42.525    3.5808
   42.540    3.3877
   42.555    3.5808
   42.570    3.4229
   42.585    3.1771
   42.600    3.4053
   42.615    3.7388
   42.630    3.7564
   42.645    3.8266
   42.660    3.5106
   42.675    3.4755
   42.690    3.3702
   42.705    3.4931
   42.720    3.5282
   42.735    3.3702
   42.750    3.5106
   42.765    3.5282
   42.780    3.4580
   42.795    3.5808
   42.810    3.2122
   42.825    3.0367
   42.840    3.4229
   42.855    3.3702
   42.870    4.0021
   42.885    4.0021
   42.900    3.7915
   42.915    3.4053
   42.930    3.7739
   42.945    3.4755
   42.960    3.8617
   42.975    3.8441
   42.990    3.7564
   43.005    3.9319
   43.020    3.5808
   43.035    3.4229
   43.050    3.3175
   43.065    3.3877
   43.080    3.4580
   43.095    3.8266
   43.110    3.9319
   43.125    3.8617
   43.140    3.4931
   43.155    3.3877
   43.170    3.7915
   43.185    3.7564
   43.200    3.6159
   43.215    3.5984
   43.230    3.8090
   43.245    3.4755
   43.260    3.7739
   43.275    4.0197
   43.290    3.4404
   43.305    3.3351
   43.320    3.4755
   43.335    3.6159
   43.350    3.3702
   43.365    3.5106
   43.380    3.4931
   43.395    3.6159
   43.410    3.7915
   43.425    3.6510
   43.440    3.7739
   43.455    3.7213
   43.470    3.4229
   43.485    3.6159
   43.500    3.3877
   43.515    3.3702
   43.530    3.5808
   43.545    3.6510
   43.560    3.5282
   43.575    3.5282
   43.590    3.4931
   43.605    3.6510
   43.620    3.5633
   43.635    3.3877
   43.650    3.3351
   43.665    3.5633
   43.680    3.7213
   43.695    3.2473
   43.710    3.1947
   43.725    3.5106
   43.740    3.4580
   43.755    3.7915
   43.770    3.6510
   43.785    3.9846
   43.800    3.4755
   43.815    3.5457
   43.830    3.8266
   43.845    3.4404
   43.860    3.1245
   43.875    3.3526
   43.890    3.4755
   43.905    3.1420
   43.920    3.4931
   43.935    3.6159
   43.950    4.0372
   43.965    3.7388
   43.980    3.3351
   43.995    3.2649
   44.010    3.4580
   44.025    3.7388
   44.040    3.3175
   44.055    3.5106
   44.070    3.5808
   44.085    3.4755
   44.100    3.7213
   44.115    3.7213
   44.130    3.5808
   44.145    3.6686
   44.160    3.5984
   44.175    3.3000
   44.190    3.4404
   44.205    3.3000
   44.220    3.4931
   44.235    3.3175
   44.250    3.3526
   44.265    3.6686
   44.280    3.6510
   44.295    3.4755
   44.310    3.6510
   44.325    3.2649
   44.340    3.4580
   44.355    3.5633
   44.370    3.5282
   44.385    3.7564
   44.400    3.3702
   44.415    3.3702
   44.430    3.3877
   44.445    3.3175
   44.460    3.2824
   44.475    3.3877
   44.490    3.8266
   44.505    3.8441
   44.520    3.9846
   44.535    3.8792
   44.550    3.9846
   44.565    3.7037
   44.580    3.8792
   44.595    3.6159
   44.610    3.2298
   44.625    3.3702
   44.640    3.1596
   44.655    3.4229
   44.670    3.5808
   44.685    3.7213
   44.700    3.5457
   44.715    3.4053
   44.730    3.7388
   44.745    3.6862
   44.760    3.2298
   44.775    3.2122
   44.790    3.7213
   44.805    3.3351
   44.820    3.5457
   44.835    3.7564
   44.850    3.4580
   44.865    3.6862
   44.880    3.5457
   44.895    3.2824
   44.910    3.4755
   44.925    3.6686
   44.940    3.4229
   44.955    3.9319
   44.970    3.7037
   44.985    3.8617
   45.000    3.7388
   45.015    3.8617
   45.030    3.7739
   45.045    3.4580
   45.060    3.6686
   45.075    3.6159
   45.090    3.4053
   45.105    3.4404
   45.120    3.3877
   45.135    3.5106
   45.150    3.5457
   45.165    3.1596
   45.180    3.1771
   45.195    3.3351
   45.210    3.6686
   45.225    3.3877
   45.240    3.7213
   45.255    3.7915
   45.270    3.4755
   45.285    3.1947
   45.300    3.4404
   45.315    3.3877
   45.330    3.0191
   45.345    3.0893
   45.360    3.6159
   45.375    3.4931
   45.390    3.5633
   45.405    3.5106
   45.420    3.0893
   45.435    3.5282
   45.450    3.3351
   45.465    3.3351
   45.480    3.2649
   45.495    3.6159
   45.510    3.7388
   45.525    3.5106
   45.540    3.5808
   45.555    3.4404
   45.570    3.7388
   45.585    3.6159
   45.600    3.3351
   45.615    3.5106
   45.630    3.5984
   45.645    3.5633
   45.660    3.6510
   45.675    3.5282
   45.690    3.4229
   45.705    3.6686
   45.720    3.3000
   45.735    3.2122
   45.750    3.1420
   45.765    3.1596
   45.780    3.6335
   45.795    3.7037
   45.810    3.5282
   45.825    3.5633
   45.840    3.5984
   45.855    3.2649
   45.870    3.2473
   45.885    3.5457
   45.900    3.5282
   45.915    3.3351
   45.930    3.8090
   45.945    3.3877
   45.960    3.2298
   45.975    3.4580
   45.990    3.4580
   46.005    3.3000
   46.020    3.3526
   46.035    3.3877
   46.050    3.2473
   46.065    3.5457
   46.080    3.5633
   46.095    3.3175
   46.110    3.4229
   46.125    3.2649
   46.140    3.3702
   46.155    3.1596
   46.170    3.4755
   46.185    3.5282
   46.200    3.5282
   46.215    3.4931
   46.230    3.5106
   46.245    3.3526
   46.260    3.6686
   46.275    3.5282
   46.290    3.8968
   46.305    3.4931
   46.320    3.5808
   46.335    3.2473
   46.350    3.4580
   46.365    3.4229
   46.380    3.5984
   46.395    3.6862
   46.410    3.7037
   46.425    3.6510
   46.440    3.6159
   46.455    3.4931
   46.470    3.1420
   46.485    3.0367
   46.500    3.3000
   46.515    2.9138
   46.530    3.1420
   46.545    3.3877
   46.560    3.5282
   46.575    3.5457
   46.590    3.8266
   46.605    3.7388
   46.620    3.4931
   46.635    3.5984
   46.650    3.6686
   46.665    3.3526
   46.680    3.4404
   46.695    3.4755
   46.710    3.5457
   46.725    3.4755
   46.740    3.4931
   46.755    3.7037
   46.770    3.3702
   46.785    3.5808
   46.800    3.5457
   46.815    3.4404
   46.830    3.2298
   46.845    3.4229
   46.860    3.0893
   46.875    3.2824
   46.890    3.0191
   46.905    3.1596
   46.920    3.3175
   46.935    3.2122
   46.950    3.1245
   46.965    3.4229
   46.980    3.2824
   46.995    3.2473
   47.010    3.4053
   47.025    3.6335
   47.040    3.5106
   47.055    3.4404
   47.070    3.2473
   47.085    3.1245
   47.100    3.0367
   47.115    3.4053
   47.130    3.5106
   47.145    3.2473
   47.160    3.2122
   47.175    3.0718
   47.190    3.3175
   47.205    3.5633
   47.220    3.3526
   47.235    3.1069
   47.250    3.3351
   47.265    3.4755
   47.280    3.2122
   47.295    3.1245
   47.310    3.5282
   47.325    3.4755
   47.340    3.4755
   47.355    3.5633
   47.370    3.4931
   47.385    3.4229
   47.400    3.4931
   47.415    3.5106
   47.430    3.4580
   47.445    3.2824
   47.460    3.5633
   47.475    3.4229
   47.490    3.3351
   47.505    3.4229
   47.520    3.0191
   47.535    3.3702
   47.550    3.9143
   47.565    3.4404
   47.580    3.4931
   47.595    3.7915
   47.610    3.5633
   47.625    3.4580
   47.640    3.5106
   47.655    3.0718
   47.670    3.6862
   47.685    3.7915
   47.700    3.5984
   47.715    3.3175
   47.730    3.3877
   47.745    3.3877
   47.760    3.5984
   47.775    3.3526
   47.790    3.3702
   47.805    3.4755
   47.820    3.5984
   47.835    3.5984
   47.850    3.5282
   47.865    3.6862
   47.880    3.8266
   47.895    3.4755
   47.910    3.3000
   47.925    3.0893
   47.940    3.1420
   47.955    3.4931
   47.970    3.2649
   47.985    3.3702
   48.000    3.5984
   48.015    3.4229
   48.030    3.3000
   48.045    3.5457
   48.060    3.3351
   48.075    3.3175
   48.090    3.0367
   48.105    3.0367
   48.120    3.0542
   48.135    3.2649
   48.150    3.5808
   48.165    3.5106
   48.180    3.2298
   48.195    3.6510
   48.210    3.3175
   48.225    3.1245
   48.240    3.1771
   48.255    3.5633
   48.270    3.2649
   48.285    3.4931
   48.300    3.3702
   48.315    3.3526
   48.330    3.3351
   48.345    3.4229
   48.360    3.3877
   48.375    3.0718
   48.390    3.0542
   48.405    3.1947
   48.420    3.1771
   48.435    3.7739
   48.450    3.5633
   48.465    3.3351
   48.480    3.0367
   48.495    3.1596
   48.510    3.7739
   48.525    3.4053
   48.540    3.5282
   48.555    3.4755
   48.570    3.5808
   48.585    3.5984
   48.600    3.2824
   48.615    3.4229
   48.630    3.5282
   48.645    3.3877
   48.660    3.3702
   48.675    3.4755
   48.690    3.5633
   48.705    3.5106
   48.720    3.3175
   48.735    3.4931
   48.750    3.3351
   48.765    3.3877
   48.780    3.3526
   48.795    3.3175
   48.810    3.0893
   48.825    3.2122
   48.840    3.2824
   48.855    3.5457
   48.870    3.6686
   48.885    3.8441
   48.900    3.4053
   48.915    3.3702
   48.930    3.1596
   48.945    3.1069
   48.960    3.2824
   48.975    2.9840
   48.990    3.1947
   49.005    3.3526
   49.020    3.3175
   49.035    3.2473
   49.050    3.0191
   49.065    3.2298
   49.080    3.3526
   49.095    3.2298
   49.110    3.1069
   49.125    3.5457
   49.140    3.3702
   49.155    3.3702
   49.170    3.4580
   49.185    3.2824
   49.200    3.6159
   49.215    3.2473
   49.230    3.0718
   49.245    3.2649
   49.260    3.3351
   49.275    3.3000
   49.290    3.1771
   49.305    2.9489
   49.320    3.2298
   49.335    3.2473
   49.350    3.4755
   49.365    3.5633
   49.380    3.3526
   49.395    3.4755
   49.410    3.2824
   49.425    3.3526
   49.440    3.3000
   49.455    3.2298
   49.470    3.4755
   49.485    3.4580
   49.500    3.2298
   49.515    3.4580
   49.530    3.4755
   49.545    3.5457
   49.560    3.7388
   49.575    3.5106
   49.590    3.3526
   49.605    3.4931
   49.620    3.4580
   49.635    3.3351
   49.650    3.3000
   49.665    3.1069
   49.680    2.8436
   49.695    3.2473
   49.710    3.2824
   49.725    3.3175
   49.740    3.4404
   49.755    3.2473
   49.770    2.8612
   49.785    2.8612
   49.800    3.1245
   49.815    3.2473
   49.830    3.2649
   49.845    3.3877
   49.860    3.2824
   49.875    3.3526
   49.890    3.3175
   49.905    3.3351
   49.920    3.5106
   49.935    3.0542
   49.950    3.2824
   49.965    2.9489
   49.980    3.0367
