    1.500   29.5103
    1.515   29.8894
    1.530   29.1311
    1.545   27.6356
    1.560   26.9826
    1.575   26.9932
    1.590   26.8562
    1.605   25.4450
    1.620   25.0658
    1.635   24.9605
    1.650   24.2022
    1.665   23.7809
    1.680   22.6540
    1.695   22.0116
    1.710   22.8752
    1.725   22.4329
    1.740   22.0326
    1.755   21.4007
    1.770   21.9379
    1.785   21.8957
    1.800   21.0005
    1.815   20.9057
    1.830   19.7262
    1.845   19.5893
    1.860   19.5155
    1.875   19.7578
    1.890   19.7156
    1.905   18.2096
    1.920   17.8094
    1.935   18.2412
    1.950   17.8936
    1.965   18.2728
    1.980   18.6098
    1.995   17.6935
    2.010   17.4934
    2.025   17.2722
    2.040   17.2722
    2.055   17.5777
    2.070   17.0616
    2.085   16.5771
    2.100   16.3139
    2.115   16.3665
    2.130   16.5877
    2.145   15.6187
    2.160   16.9879
    2.175   16.4613
    2.190   15.9558
    2.205   15.6819
    2.220   15.3555
    2.235   15.2291
    2.250   15.5134
    2.265   15.1764
    2.280   15.5345
    2.295   15.6398
    2.310   15.1764
    2.325   15.1869
    2.340   15.1659
    2.355   15.5450
    2.370   14.5129
    2.385   15.4608
    2.400   15.1764
    2.415   15.6187
    2.430   14.8710
    2.445   14.8499
    2.460   15.1553
    2.475   15.3555
    2.490   14.7973
    2.505   14.7025
    2.520   14.7973
    2.535   15.3344
    2.550   15.1869
    2.565   15.4397
    2.580   16.1137
    2.595   14.9342
    2.610   14.9342
    2.625   15.7030
    2.640   15.4608
    2.655   15.1975
    2.670   15.6082
    2.685   15.7767
    2.700   15.9452
    2.715   16.3349
    2.730   16.5350
    2.745   16.2507
    2.760   16.4929
    2.775   17.0721
    2.790   16.4086
    2.805   17.1248
    2.820   17.8094
    2.835   17.2828
    2.850   17.9358
    2.865   18.1780
    2.880   17.6093
    2.895   17.0300
    2.910   17.8199
    2.925   18.3886
    2.940   19.1785
    2.955   18.8520
    2.970   19.3470
    2.985   20.5161
    3.000   20.0632
    3.015   19.9473
    3.030   20.4950
    3.045   20.8426
    3.060   21.6324
    3.075   22.2433
    3.090   22.0537
    3.105   22.5487
    3.120   22.6119
    3.135   23.6440
    3.150   24.4023
    3.165   25.2554
    3.180   25.1606
    3.195   25.5082
    3.210   26.8457
    3.225   27.5513
    3.240   27.2880
    3.255   28.3834
    3.270   29.8473
    3.285   31.3639
    3.300   32.2275
    3.315   32.7646
    3.330   33.5650
    3.345   34.8605
    3.360   37.6303
    3.375   38.6730
    3.390   40.5687
    3.405   41.1374
    3.420   42.3486
    3.435   44.4971
    3.450   45.1185
    3.465   45.2659
    3.480   42.6751
    3.495   41.1690
    3.510   39.0311
    3.525   35.4397
    3.540   31.7536
    3.555   28.3834
    3.570   25.4871
    3.585   24.1706
    3.600   21.9800
    3.615   19.7894
    3.630   19.6946
    3.645   18.7046
    3.660   18.5150
    3.675   18.9363
    3.690   17.9989
    3.705   17.6619
    3.720   17.3565
    3.735   18.1148
    3.750   17.4934
    3.765   16.9352
    3.780   17.8726
    3.795   18.4939
    3.810   18.7256
    3.825   18.5045
    3.840   18.3254
    3.855   18.9468
    3.870   19.1364
    3.885   19.0521
    3.900   18.8942
    3.915   19.9684
    3.930   19.7262
    3.945   19.8420
    3.960   20.4529
    3.975   21.3481
    3.990   20.9163
    4.005   20.8426
    4.020   21.5166
    4.035   22.3275
    4.050   22.0011
    4.065   21.4323
    4.080   20.6108
    4.095   21.1796
    4.110   20.9900
    4.125   20.9163
    4.140   20.8636
    4.155   20.0737
    4.170   19.4734
    4.185   19.6419
    4.200   18.4308
    4.215   17.9252
    4.230   17.5145
    4.245   16.9352
    4.260   16.2928
    4.275   15.7241
    4.290   14.9447
    4.305   13.9652
    4.320   13.5966
    4.335   12.8383
    4.350   12.4065
    4.365   11.5640
    4.380   11.1006
    4.395   11.0163
    4.410   10.5108
    4.425   10.0579
    4.440    9.5629
    4.455    9.5629
    4.470    9.2996
    4.485    8.9521
    4.500    8.6151
    4.515    8.2991
    4.530    7.8989
    4.545    7.6461
    4.560    7.8357
    4.575    7.7725
    4.590    7.6988
    4.605    7.1617
    4.620    7.6883
    4.635    6.9616
    4.650    7.1195
    4.665    6.6561
    4.680    7.3302
    4.695    7.1511
    4.710    6.8773
    4.725    6.9616
    4.740    6.7720
    4.755    7.2249
    4.770    6.9194
    4.785    6.5824
    4.800    6.4560
    4.815    6.6245
    4.830    6.5298
    4.845    6.4244
    4.860    6.6245
    4.875    6.6035
    4.890    6.4350
    4.905    6.5298
    4.920    6.6245
    4.935    6.6561
    4.950    6.5403
    4.965    6.3612
    4.980    6.4350
    4.995    6.4666
    5.010    6.3928
    5.025    6.5403
    5.040    6.6877
    5.055    6.2875
    5.070    6.7193
    5.085    6.6351
    5.100    6.1506
    5.115    6.2349
    5.130    6.0874
    5.145    6.2243
    5.160    6.3507
    5.175    6.1085
    5.190    6.0979
    5.205    5.9926
    5.220    5.8662
    5.235    6.5403
    5.250    6.1822
    5.265    6.5403
    5.280    5.8136
    5.295    6.2981
    5.310    6.2033
    5.325    6.3507
    5.340    6.3086
    5.355    5.9821
    5.370    5.9505
    5.385    6.2138
    5.400    6.0979
    5.415    6.1506
    5.430    6.1506
    5.445    5.8557
    5.460    5.8241
    5.475    5.8662
    5.490    5.7820
    5.505    5.7715
    5.520    5.8347
    5.535    5.9400
    5.550    5.7504
    5.565    6.0979
    5.580    6.0032
    5.595    5.9926
    5.610    6.0348
    5.625    6.2665
    5.640    6.2033
    5.655    6.1822
    5.670    6.0242
    5.685    6.1506
    5.700    5.8662
    5.715    5.6872
    5.730    5.5608
    5.745    5.9926
    5.760    5.6661
    5.775    5.8978
    5.790    5.9821
    5.805    5.8873
    5.820    5.8241
    5.835    5.4976
    5.850    5.5608
    5.865    5.7715
    5.880    5.7715
    5.895    5.7820
    5.910    5.7820
    5.925    5.7399
    5.940    5.6345
    5.955    5.8452
    5.970    5.6872
    5.985    5.7820
    6.000    5.4871
    6.015    5.8241
    6.030    5.9821
    6.045    5.8768
    6.060    5.7083
    6.075    5.7715
    6.090    5.6872
    6.105    5.9821
    6.120    5.7188
    6.135    5.8873
    6.150    5.6767
    6.165    5.8136
    6.180    5.9821
    6.195    5.9189
    6.210    5.9505
    6.225    5.9084
    6.240    5.9505
    6.255    5.6872
    6.270    5.8557
    6.285    6.0769
    6.300    6.0032
    6.315    6.0032
    6.330    6.1611
    6.345    6.3086
    6.360    6.0979
    6.375    6.4771
    6.390    6.2665
    6.405    6.4455
    6.420    6.2665
    6.435    6.4455
    6.450    5.9400
    6.465    6.2349
    6.480    6.2454
    6.495    6.5403
    6.510    6.6351
    6.525    6.1401
    6.540    6.1927
    6.555    6.5403
    6.570    6.4982
    6.585    6.8457
    6.600    6.3402
    6.615    6.6351
    6.630    6.5508
    6.645    6.7193
    6.660    6.9194
    6.675    6.7615
    6.690    7.1722
    6.705    7.1933
    6.720    7.0248
    6.735    7.4144
    6.750    7.2459
    6.765    7.2670
    6.780    7.6040
    6.795    7.7620
    6.810    7.5408
    6.825    7.9305
    6.840    8.4150
    6.855    8.6993
    6.870    8.6993
    6.885    8.8678
    6.900    8.9837
    6.915    9.2680
    6.930    8.8362
    6.945    8.6783
    6.960    9.3523
    6.975    8.6467
    6.990    8.6888
    7.005    8.5203
    7.020    8.4466
    7.035    8.2991
    7.050    7.7936
    7.065    7.3196
    7.080    6.9721
    7.095    6.7299
    7.110    6.7088
    7.125    6.4876
    7.140    6.3823
    7.155    6.1611
    7.170    5.8873
    7.185    6.1611
    7.200    5.9084
    7.215    6.4455
    7.230    6.2454
    7.245    5.9610
    7.260    6.5613
    7.275    6.2875
    7.290    6.0769
    7.305    5.7715
    7.320    6.2033
    7.335    6.0664
    7.350    6.2243
    7.365    6.4244
    7.380    6.0453
    7.395    6.0769
    7.410    6.1085
    7.425    6.0558
    7.440    6.2243
    7.455    6.0137
    7.470    5.9294
    7.485    5.6345
    7.500    5.9189
    7.515    6.2454
    7.530    6.3402
    7.545    5.9610
    7.560    5.9926
    7.575    6.1401
    7.590    6.0348
    7.605    5.9400
    7.620    6.3612
    7.635    6.2454
    7.650    6.1506
    7.665    5.8873
    7.680    5.8873
    7.695    6.3507
    7.710    6.1506
    7.725    5.8978
    7.740    5.6977
    7.755    5.9189
    7.770    6.1822
    7.785    6.3928
    7.800    6.4560
    7.815    6.0874
    7.830    6.3718
    7.845    6.2770
    7.860    6.7509
    7.875    6.4455
    7.890    6.6456
    7.905    6.5929
    7.920    6.6877
    7.935    6.6035
    7.950    6.6772
    7.965    6.7404
    7.980    6.4034
    7.995    6.7193
    8.010    6.6035
    8.025    6.5613
    8.040    6.3402
    8.055    6.4350
    8.070    6.7930
    8.085    6.8246
    8.100    7.1827
    8.115    6.7088
    8.130    6.6877
    8.145    6.8036
    8.160    6.8246
    8.175    6.8668
    8.190    6.7930
    8.205    6.6140
    8.220    6.5403
    8.235    6.7930
    8.250    6.8668
    8.265    6.9932
    8.280    7.4460
    8.295    6.9405
    8.310    6.4666
    8.325    6.8562
    8.340    7.2880
    8.355    6.9721
    8.370    6.9405
    8.385    6.8562
    8.400    6.9300
    8.415    6.8668
    8.430    6.6877
    8.445    7.1827
    8.460    7.1827
    8.475    6.9089
    8.490    6.4034
    8.505    6.6561
    8.520    6.2559
    8.535    6.5298
    8.550    6.8352
    8.565    6.8246
    8.580    6.4771
    8.595    6.6667
    8.610    6.6456
    8.625    6.4139
    8.640    6.5298
    8.655    6.4244
    8.670    5.9189
    8.685    6.5192
    8.700    6.4771
    8.715    6.3718
    8.730    6.4455
    8.745    6.3191
    8.760    6.1085
    8.775    6.4244
    8.790    6.2665
    8.805    5.9926
    8.820    6.1190
    8.835    6.0558
    8.850    5.8452
    8.865    6.1295
    8.880    6.0664
    8.895    5.8136
    8.910    5.9610
    8.925    5.8768
    8.940    6.1822
    8.955    6.6456
    8.970    6.0664
    8.985    5.7609
    9.000    5.6029
    9.015    5.7715
    9.030    5.9084
    9.045    5.8557
    9.060    5.8241
    9.075    5.9926
    9.090    5.6345
    9.105    5.8136
    9.120    5.4450
    9.135    5.8347
    9.150    5.7083
    9.165    5.3712
    9.180    5.6556
    9.195    5.4134
    9.210    5.4871
    9.225    5.8662
    9.240    5.8136
    9.255    5.6240
    9.270    5.9084
    9.285    5.8452
    9.300    5.7083
    9.315    5.5082
    9.330    5.3607
    9.345    5.9610
    9.360    5.9189
    9.375    6.0032
    9.390    6.0453
    9.405    5.5608
    9.420    5.7293
    9.435    5.6029
    9.450    5.5924
    9.465    5.6451
    9.480    5.5608
    9.495    5.7820
    9.510    5.7399
    9.525    5.9084
    9.540    5.5608
    9.555    5.5819
    9.570    5.5608
    9.585    5.5924
    9.600    5.6977
    9.615    5.8768
    9.630    5.8347
    9.645    5.5608
    9.660    5.4766
    9.675    5.5714
    9.690    5.6345
    9.705    5.5714
    9.720    5.2870
    9.735    5.9084
    9.750    5.6767
    9.765    5.5819
    9.780    5.6240
    9.795    5.6135
    9.810    5.7504
    9.825    5.6029
    9.840    5.6135
    9.855    5.8136
    9.870    5.6240
    9.885    5.5187
    9.900    6.0664
    9.915    6.2770
    9.930    5.6872
    9.945    5.5187
    9.960    5.5187
    9.975    5.4344
    9.990    5.4450
   10.005    5.7820
   10.020    5.6872
   10.035    5.9084
   10.050    5.5924
   10.065    5.7820
   10.080    5.8136
   10.095    5.4028
   10.110    5.2659
   10.125    5.6451
   10.140    5.4555
   10.155    5.3923
   10.170    5.4871
   10.185    5.7504
   10.200    5.6767
   10.215    5.8136
   10.230    5.8557
   10.245    5.8452
   10.260    5.7399
   10.275    5.6345
   10.290    5.6451
   10.305    5.6872
   10.320    5.8452
   10.335    5.8031
   10.350    5.6345
   10.365    5.7504
   10.380    5.4344
   10.395    5.6135
   10.410    5.6661
   10.425    5.8136
   10.440    5.5714
   10.455    5.5398
   10.470    5.6556
   10.485    5.6345
   10.500    5.4660
   10.515    5.4976
   10.530    5.7399
   10.545    5.6451
   10.560    5.5187
   10.575    5.5503
   10.590    5.6029
   10.605    5.5714
   10.620    5.4766
   10.635    5.6661
   10.650    5.3607
   10.665    5.4344
   10.680    5.6345
   10.695    5.4344
   10.710    5.7399
   10.725    5.4555
   10.740    5.5292
   10.755    5.6977
   10.770    5.3291
   10.785    5.0764
   10.800    5.4450
   10.815    5.3607
   10.830    5.3607
   10.845    5.2238
   10.860    5.5398
   10.875    5.5292
   10.890    5.4660
   10.905    5.4555
   10.920    5.5503
   10.935    5.4555
   10.950    5.7083
   10.965    5.2343
   10.980    5.2659
   10.995    5.4450
   11.010    5.3081
   11.025    5.6451
   11.040    5.2133
   11.055    5.2975
   11.070    5.5819
   11.085    5.0448
   11.100    5.2975
   11.115    5.3502
   11.130    5.3923
   11.145    5.1501
   11.160    5.0974
   11.175    5.2343
   11.190    5.5924
   11.205    5.7609
   11.220    5.7504
   11.235    5.3186
   11.250    4.7709
   11.265    5.2975
   11.280    5.3397
   11.295    5.5292
   11.310    5.2027
   11.325    5.5398
   11.340    5.6872
   11.355    5.4344
   11.370    5.3923
   11.385    5.5819
   11.400    5.5082
   11.415    5.2870
   11.430    5.7188
   11.445    5.3291
   11.460    5.2238
   11.475    5.1817
   11.490    5.5187
   11.505    5.5714
   11.520    5.3818
   11.535    5.5608
   11.550    5.0553
   11.565    5.3291
   11.580    5.5714
   11.595    5.5292
   11.610    5.5714
   11.625    5.6345
   11.640    5.6135
   11.655    5.3291
   11.670    5.4555
   11.685    4.9710
   11.700    5.6661
   11.715    5.4450
   11.730    5.4134
   11.745    5.3397
   11.760    5.3818
   11.775    5.4871
   11.790    5.6451
   11.805    5.6345
   11.820    5.6345
   11.835    5.6977
   11.850    5.2027
   11.865    5.4450
   11.880    5.2238
   11.895    5.5714
   11.910    5.4239
   11.925    5.4450
   11.940    5.6556
   11.955    5.2027
   11.970    5.1711
   11.985    5.4450
   12.000    5.4976
   12.015    5.2765
   12.030    5.3818
   12.045    5.4871
   12.060    5.4028
   12.075    5.4028
   12.090    5.7293
   12.105    5.7609
   12.120    5.4344
   12.135    5.2870
   12.150    5.4766
   12.165    5.2343
   12.180    4.9921
   12.195    5.3502
   12.210    5.4660
   12.225    5.5398
   12.240    5.3607
   12.255    5.3502
   12.270    5.5819
   12.285    5.3818
   12.300    5.3081
   12.315    5.6451
   12.330    5.4976
   12.345    5.3712
   12.360    5.6977
   12.375    5.5187
   12.390    5.8873
   12.405    5.3712
   12.420    5.1922
   12.435    5.4239
   12.450    5.2870
   12.465    5.5082
   12.480    5.4134
   12.495    5.1290
   12.510    5.4660
   12.525    5.3291
   12.540    5.2765
   12.555    5.2659
   12.570    5.4344
   12.585    5.3186
   12.600    5.4660
   12.615    5.6345
   12.630    5.6345
   12.645    5.3397
   12.660    4.8552
   12.675    5.3607
   12.690    5.4344
   12.705    5.5292
   12.720    5.6345
   12.735    5.0869
   12.750    5.1185
   12.765    5.6240
   12.780    5.0869
   12.795    5.4134
   12.810    5.3818
   12.825    5.3923
   12.840    5.5714
   12.855    5.5292
   12.870    5.6345
   12.885    5.2449
   12.900    5.4976
   12.915    5.1711
   12.930    5.1922
   12.945    5.3081
   12.960    5.4028
   12.975    4.8657
   12.990    5.3081
   13.005    5.2975
   13.020    5.5398
   13.035    5.3186
   13.050    5.4028
   13.065    5.3607
   13.080    5.3081
   13.095    5.4028
   13.110    5.2554
   13.125    4.9921
   13.140    5.1606
   13.155    5.4344
   13.170    5.3291
   13.185    5.0342
   13.200    5.1080
   13.215    5.3923
   13.230    5.3923
   13.245    5.4660
   13.260    5.3818
   13.275    5.0448
   13.290    4.8025
   13.305    4.8341
   13.320    5.0764
   13.335    5.2238
   13.350    5.3291
   13.365    5.0764
   13.380    5.0658
   13.395    5.2659
   13.410    5.1606
   13.425    5.2765
   13.440    5.4450
   13.455    5.3397
   13.470    5.3081
   13.485    5.1290
   13.500    5.3607
   13.515    5.2659
   13.530    5.1395
   13.545    4.9816
   13.560    5.3081
   13.575    5.3397
   13.590    5.4134
   13.605    5.2027
   13.620    5.4555
   13.635    5.2765
   13.650    5.2027
   13.665    5.1922
   13.680    5.0448
   13.695    5.2554
   13.710    5.5924
   13.725    5.6872
   13.740    5.4239
   13.755    5.4028
   13.770    5.0237
   13.785    5.1080
   13.800    4.9184
   13.815    4.9500
   13.830    5.3607
   13.845    5.3502
   13.860    5.2238
   13.875    5.3712
   13.890    5.0237
   13.905    5.3291
   13.920    5.1711
   13.935    5.2133
   13.950    4.9500
   13.965    5.3186
   13.980    5.2765
   13.995    5.4028
   14.010    5.0448
   14.025    4.9500
   14.040    5.4976
   14.055    5.6661
   14.070    5.0764
   14.085    5.2027
   14.100    4.8552
   14.115    5.2238
   14.130    5.2343
   14.145    5.0869
   14.160    5.0026
   14.175    5.4344
   14.190    5.3502
   14.205    5.6240
   14.220    5.3186
   14.235    4.9710
   14.250    5.4134
   14.265    5.3923
   14.280    5.0132
   14.295    5.2238
   14.310    5.1922
   14.325    4.8763
   14.340    4.9289
   14.355    5.2449
   14.370    5.1080
   14.385    5.2238
   14.400    5.1922
   14.415    5.1290
   14.430    4.9710
   14.445    4.8973
   14.460    5.0237
   14.475    5.1185
   14.490    5.5187
   14.505    5.2133
   14.520    5.1606
   14.535    5.0869
   14.550    4.7499
   14.565    5.0237
   14.580    5.1185
   14.595    5.5819
   14.610    5.2343
   14.625    5.0237
   14.640    4.7815
   14.655    4.9500
   14.670    5.2133
   14.685    5.0132
   14.700    5.0448
   14.715    4.7920
   14.730    5.2027
   14.745    5.0237
   14.760    4.8131
   14.775    4.7499
   14.790    4.8341
   14.805    4.8763
   14.820    4.9289
   14.835    4.9500
   14.850    5.2554
   14.865    5.1395
   14.880    5.3081
   14.895    5.0658
   14.910    5.1290
   14.925    5.5187
   14.940    5.0974
   14.955    5.0026
   14.970    5.0448
   14.985    4.8657
   15.000    4.9394
   15.015    5.0974
   15.030    5.0553
   15.045    5.1290
   15.060    5.5398
   15.075    5.4871
   15.090    5.1606
   15.105    5.3186
   15.120    4.8341
   15.135    4.9184
   15.150    4.7393
   15.165    5.0974
   15.180    5.0342
   15.195    5.0237
   15.210    5.0342
   15.225    4.6551
   15.240    4.7815
   15.255    5.1817
   15.270    5.4450
   15.285    5.1606
   15.300    5.1185
   15.315    5.4134
   15.330    5.2870
   15.345    5.1501
   15.360    5.0237
   15.375    5.0974
   15.390    5.1290
   15.405    4.8236
   15.420    5.1711
   15.435    4.8973
   15.450    4.4550
   15.465    4.7920
   15.480    4.9394
   15.495    5.2975
   15.510    5.3502
   15.525    5.1501
   15.540    5.0132
   15.555    5.1185
   15.570    5.0974
   15.585    5.0764
   15.600    4.9394
   15.615    5.2343
   15.630    4.9710
   15.645    5.1185
   15.660    5.2133
   15.675    5.3397
   15.690    5.2659
   15.705    5.2659
   15.720    4.9394
   15.735    5.3502
   15.750    5.1185
   15.765    5.1395
   15.780    4.8868
   15.795    5.1501
   15.810    4.8763
   15.825    5.1711
   15.840    5.6872
   15.855    5.4871
   15.870    5.2765
   15.885    5.0132
   15.900    5.2133
   15.915    5.2449
   15.930    5.4028
   15.945    5.1290
   15.960    5.2238
   15.975    5.4871
   15.990    5.4871
   16.005    5.3397
   16.020    5.6135
   16.035    5.3186
   16.050    5.4028
   16.065    4.9921
   16.080    4.9394
   16.095    5.4976
   16.110    5.1711
   16.125    5.4028
   16.140    5.0869
   16.155    4.9394
   16.170    5.1290
   16.185    5.0869
   16.200    5.3712
   16.215    5.0342
   16.230    4.8973
   16.245    4.6235
   16.260    5.1395
   16.275    5.2133
   16.290    5.2659
   16.305    4.9710
   16.320    5.1290
   16.335    5.2659
   16.350    5.1606
   16.365    4.7288
   16.380    5.0974
   16.395    5.1290
   16.410    4.9394
   16.425    5.4555
   16.440    5.0342
   16.455    4.9921
   16.470    5.2133
   16.485    4.9921
   16.500    5.2027
   16.515    5.0764
   16.530    5.0764
   16.545    5.2659
   16.560    5.0342
   16.575    5.2659
   16.590    5.1711
   16.605    5.0764
   16.620    4.9184
   16.635    5.0764
   16.650    4.9184
   16.665    4.9921
   16.680    5.2554
   16.695    5.1080
   16.710    5.0869
   16.725    5.0553
   16.740    4.9816
   16.755    5.1817
   16.770    5.1185
   16.785    5.1606
   16.800    5.3397
   16.815    5.0237
   16.830    5.1922
   16.845    5.2975
   16.860    4.8868
   16.875    5.1711
   16.890    5.2449
   16.905    4.8552
   16.920    5.1080
   16.935    5.1922
   16.950    4.8973
   16.965    5.2765
   16.980    5.3291
   16.995    4.9816
   17.010    5.0342
   17.025    4.8552
   17.040    5.1080
   17.055    4.9710
   17.070    5.1606
   17.085    5.0237
   17.100    4.8763
   17.115    5.3291
   17.130    5.4344
   17.145    5.2133
   17.160    5.2554
   17.175    5.2449
   17.190    5.1711
   17.205    5.0342
   17.220    5.2870
   17.235    5.3081
   17.250    5.2765
   17.265    4.8763
   17.280    4.9921
   17.295    5.2554
   17.310    4.7815
   17.325    5.3607
   17.340    5.1606
   17.355    4.9289
   17.370    5.1290
   17.385    5.2238
   17.400    5.1922
   17.415    4.8447
   17.430    5.0974
   17.445    5.1922
   17.460    5.2975
   17.475    5.0237
   17.490    4.7815
   17.505    5.1290
   17.520    4.6867
   17.535    4.8763
   17.550    5.1817
   17.565    5.1395
   17.580    5.0237
   17.595    5.3397
   17.610    5.0448
   17.625    5.0764
   17.640    5.3397
   17.655    5.4344
   17.670    5.2343
   17.685    5.0237
   17.700    5.0658
   17.715    4.8763
   17.730    5.0869
   17.745    4.9816
   17.760    5.2554
   17.775    5.2343
   17.790    5.2449
   17.805    4.9605
   17.820    5.2133
   17.835    5.0448
   17.850    5.2238
   17.865    5.4028
   17.880    5.1290
   17.895    4.8763
   17.910    5.1080
   17.925    5.3923
   17.940    5.2870
   17.955    5.4976
   17.970    5.1185
   17.985    5.3818
   18.000    5.2870
   18.015    5.1922
   18.030    5.0026
   18.045    5.1711
   18.060    5.1501
   18.075    5.3818
   18.090    4.9816
   18.105    5.2765
   18.120    5.0237
   18.135    5.0974
   18.150    5.0974
   18.165    5.0448
   18.180    5.3818
   18.195    5.1290
   18.210    5.1817
   18.225    5.0869
   18.240    5.4450
   18.255    5.3712
   18.270    5.4239
   18.285    5.6556
   18.300    5.4344
   18.315    5.2765
   18.330    5.2449
   18.345    5.1606
   18.360    4.9921
   18.375    4.8763
   18.390    4.8868
   18.405    5.2975
   18.420    5.3923
   18.435    5.3607
   18.450    5.3818
   18.465    5.0553
   18.480    5.0553
   18.495    4.8552
   18.510    5.0764
   18.525    5.3607
   18.540    5.3818
   18.555    5.3397
   18.570    5.0342
   18.585    5.2554
   18.600    5.5503
   18.615    5.4239
   18.630    5.1606
   18.645    5.0448
   18.660    5.0448
   18.675    5.0658
   18.690    5.1501
   18.705    5.3818
   18.720    5.4555
   18.735    5.4028
   18.750    5.3397
   18.765    5.2027
   18.780    5.3712
   18.795    5.4134
   18.810    5.1922
   18.825    5.2449
   18.840    5.0553
   18.855    5.2975
   18.870    5.0974
   18.885    5.2554
   18.900    5.4450
   18.915    5.6661
   18.930    4.9605
   18.945    5.1711
   18.960    5.0132
   18.975    4.7709
   18.990    5.1395
   19.005    5.3607
   19.020    5.2975
   19.035    5.0658
   19.050    5.2554
   19.065    5.7399
   19.080    5.4766
   19.095    5.1501
   19.110    4.8657
   19.125    4.8868
   19.140    5.1817
   19.155    5.4976
   19.170    5.3291
   19.185    5.0869
   19.200    5.2870
   19.215    5.4766
   19.230    5.2554
   19.245    4.8973
   19.260    5.2870
   19.275    5.2659
   19.290    5.2975
   19.305    5.2870
   19.320    5.3502
   19.335    5.2449
   19.350    5.4555
   19.365    5.7188
   19.380    5.4344
   19.395    5.3923
   19.410    5.1080
   19.425    5.4134
   19.440    5.1185
   19.455    5.1817
   19.470    5.3291
   19.485    5.7083
   19.500    5.0974
   19.515    5.0764
   19.530    5.4344
   19.545    5.2975
   19.560    5.2343
   19.575    5.5292
   19.590    5.4344
   19.605    5.8347
   19.620    5.3502
   19.635    5.5714
   19.650    5.5082
   19.665    5.6767
   19.680    5.4344
   19.695    5.3186
   19.710    5.3397
   19.725    5.5714
   19.740    5.3923
   19.755    5.4555
   19.770    5.4976
   19.785    5.0448
   19.800    5.3397
   19.815    5.1290
   19.830    5.4871
   19.845    5.3081
   19.860    5.3818
   19.875    5.4871
   19.890    5.2975
   19.905    5.7504
   19.920    5.7293
   19.935    5.4450
   19.950    5.3923
   19.965    5.2133
   19.980    5.4871
   19.995    5.2238
   20.010    5.1606
   20.025    5.1922
   20.040    5.4555
   20.055    5.6767
   20.070    5.5398
   20.085    5.3607
   20.100    5.4976
   20.115    5.5082
   20.130    5.5292
   20.145    5.3502
   20.160    5.3397
   20.175    5.2343
   20.190    5.4450
   20.205    5.5924
   20.220    5.9610
   20.235    5.5714
   20.250    5.6872
   20.265    5.5187
   20.280    5.4450
   20.295    5.3291
   20.310    5.3397
   20.325    5.5924
   20.340    5.4239
   20.355    5.6240
   20.370    5.0553
   20.385    5.5398
   20.400    5.6556
   20.415    5.2027
   20.430    5.4766
   20.445    5.3081
   20.460    5.0869
   20.475    5.4450
   20.490    5.4028
   20.505    5.5187
   20.520    5.4871
   20.535    5.3607
   20.550    5.3186
   20.565    5.2975
   20.580    5.3818
   20.595    5.5714
   20.610    5.5608
   20.625    5.4766
   20.640    5.5187
   20.655    5.5503
   20.670    5.5187
   20.685    5.3607
   20.700    5.4028
   20.715    5.1817
   20.730    5.6029
   20.745    5.1606
   20.760    5.2238
   20.775    5.4660
   20.790    5.3397
   20.805    5.5292
   20.820    5.6451
   20.835    5.4766
   20.850    5.3923
   20.865    5.3291
   20.880    5.4766
   20.895    5.7609
   20.910    5.6135
   20.925    5.5924
   20.940    5.5398
   20.955    5.5714
   20.970    5.6029
   20.985    5.5608
   21.000    4.8657
   21.015    5.2238
   21.030    5.3186
   21.045    5.5924
   21.060    5.4555
   21.075    5.6029
   21.090    5.5503
   21.105    5.3923
   21.120    5.5398
   21.135    5.6872
   21.150    5.3397
   21.165    5.4344
   21.180    5.2343
   21.195    5.1185
   21.210    5.3712
   21.225    5.3397
   21.240    5.4555
   21.255    5.8241
   21.270    5.5503
   21.285    5.2975
   21.300    5.7083
   21.315    5.3397
   21.330    5.1395
   21.345    5.0764
   21.360    5.4555
   21.375    5.2659
   21.390    5.2343
   21.405    5.0237
   21.420    5.3923
   21.435    5.2765
   21.450    5.3818
   21.465    5.6135
   21.480    5.3502
   21.495    5.3502
   21.510    5.5924
   21.525    5.6345
   21.540    5.5819
   21.555    5.3081
   21.570    5.5292
   21.585    5.6345
   21.600    5.2449
   21.615    5.0342
   21.630    5.2765
   21.645    5.4976
   21.660    5.1290
   21.675    5.4239
   21.690    5.5292
   21.705    5.3607
   21.720    5.3712
   21.735    5.3607
   21.750    5.2133
   21.765    5.7715
   21.780    5.4660
   21.795    5.4976
   21.810    5.2870
   21.825    5.3607
   21.840    5.4976
   21.855    5.4028
   21.870    5.2975
   21.885    5.5292
   21.900    5.2238
   21.915    5.8031
   21.930    5.7609
   21.945    5.2133
   21.960    5.5082
   21.975    5.4660
   21.990    5.4344
   22.005    5.5503
   22.020    5.5924
   22.035    5.2027
   22.050    5.4028
   22.065    5.5819
   22.080    5.5398
   22.095    5.8347
   22.110    5.6661
   22.125    5.3502
   22.140    5.6345
   22.155    5.3712
   22.170    5.0026
   22.185    5.3502
   22.200    5.4766
   22.215    5.7504
   22.230    5.8031
   22.245    5.1711
   22.260    5.4134
   22.275    5.3397
   22.290    4.9816
   22.305    5.3186
   22.320    5.7399
   22.335    5.7188
   22.350    5.8768
   22.365    5.4766
   22.380    5.5503
   22.395    5.5187
   22.410    5.6661
   22.425    5.6661
   22.440    5.6451
   22.455    5.6135
   22.470    5.2975
   22.485    5.1290
   22.500    5.4450
   22.515    5.7293
   22.530    5.4871
   22.545    5.2659
   22.560    5.4555
   22.575    5.2238
   22.590    5.2765
   22.605    5.6345
   22.620    5.3291
   22.635    5.4555
   22.650    5.0869
   22.665    5.2027
   22.680    5.4450
   22.695    5.7293
   22.710    5.5819
   22.725    5.7609
   22.740    5.4976
   22.755    5.2765
   22.770    5.4871
   22.785    5.6135
   22.800    5.4239
   22.815    5.3291
   22.830    5.5608
   22.845    5.4344
   22.860    5.6451
   22.875    5.1185
   22.890    5.5082
   22.905    5.3502
   22.920    5.3607
   22.935    5.6767
   22.950    5.6661
   22.965    5.1711
   22.980    5.0237
   22.995    5.4344
   23.010    5.4344
   23.025    5.3081
   23.040    5.1395
   23.055    5.4239
   23.070    5.6977
   23.085    5.5398
   23.100    5.5608
   23.115    5.2975
   23.130    5.0869
   23.145    5.3186
   23.160    5.4555
   23.175    5.3291
   23.190    5.4766
   23.205    5.1922
   23.220    5.3397
   23.235    5.3502
   23.250    5.2975
   23.265    5.5398
   23.280    5.2765
   23.295    4.9394
   23.310    5.0869
   23.325    4.9816
   23.340    5.4450
   23.355    5.3502
   23.370    5.4766
   23.385    5.0237
   23.400    5.4134
   23.415    5.3607
   23.430    5.8873
   23.445    5.0237
   23.460    5.0448
   23.475    5.0026
   23.490    5.2765
   23.505    5.4028
   23.520    5.4134
   23.535    5.0448
   23.550    5.1606
   23.565    5.4239
   23.580    5.2343
   23.595    5.0448
   23.610    5.1080
   23.625    5.3291
   23.640    5.3607
   23.655    5.5608
   23.670    4.9816
   23.685    5.4660
   23.700    5.2870
   23.715    5.2765
   23.730    5.6029
   23.745    5.0553
   23.760    5.0974
   23.775    5.2870
   23.790    5.1185
   23.805    5.4976
   23.820    5.2870
   23.835    5.0658
   23.850    5.3186
   23.865    4.9710
   23.880    4.9078
   23.895    4.9921
   23.910    4.8236
   23.925    5.2027
   23.940    5.4134
   23.955    5.0764
   23.970    5.5608
   23.985    5.3081
   24.000    5.6767
   24.015    5.2343
   24.030    5.1606
   24.045    4.9289
   24.060    5.0764
   24.075    5.3712
   24.090    5.3923
   24.105    5.2870
   24.120    5.2449
   24.135    5.2343
   24.150    5.4239
   24.165    5.2343
   24.180    4.9289
   24.195    5.2765
   24.210    5.3818
   24.225    5.2238
   24.240    5.2238
   24.255    4.9710
   24.270    5.1711
   24.285    5.2343
   24.300    5.2554
   24.315    5.2449
   24.330    5.3081
   24.345    5.1606
   24.360    4.9289
   24.375    4.8341
   24.390    5.0553
   24.405    5.1290
   24.420    5.4450
   24.435    5.4660
   24.450    5.1817
   24.465    5.4239
   24.480    5.2449
   24.495    5.7293
   24.510    5.6451
   24.525    5.2975
   24.540    5.5398
   24.555    5.3186
   24.570    5.2343
   24.585    4.9605
   24.600    5.1290
   24.615    5.0132
   24.630    5.4239
   24.645    4.9605
   24.660    5.1817
   24.675    5.1290
   24.690    5.0553
   24.705    4.8341
   24.720    5.2765
   24.735    5.0342
   24.750    5.3186
   24.765    5.1922
   24.780    5.1922
   24.795    4.9394
   24.810    5.0448
   24.825    5.3502
   24.840    4.8341
   24.855    4.8657
   24.870    5.1711
   24.885    5.3397
   24.900    5.4239
   24.915    5.0448
   24.930    5.2449
   24.945    5.2765
   24.960    5.0132
   24.975    5.4766
   24.990    4.9078
   25.005    4.7920
   25.020    4.8973
   25.035    5.2975
   25.050    5.1395
   25.065    5.3186
   25.080    5.3818
   25.095    5.2238
   25.110    5.1817
   25.125    5.3291
   25.140    5.2133
   25.155    5.1817
   25.170    5.2449
   25.185    5.0553
   25.200    4.8763
   25.215    5.1080
   25.230    5.0658
   25.245    4.6235
   25.260    5.1080
   25.275    5.2238
   25.290    5.2343
   25.305    5.2870
   25.320    5.0237
   25.335    5.1501
   25.350    5.3291
   25.365    5.2238
   25.380    5.0658
   25.395    5.1922
   25.410    4.8025
   25.425    4.8868
   25.440    5.1185
   25.455    4.9184
   25.470    4.7920
   25.485    5.2238
   25.500    4.9921
   25.515    4.8763
   25.530    4.7815
   25.545    5.1606
   25.560    5.1080
   25.575    4.9500
   25.590    4.7499
   25.605    4.5708
   25.620    4.9921
   25.635    4.9289
   25.650    4.8657
   25.665    4.9078
   25.680    4.9605
   25.695    5.0237
   25.710    4.8868
   25.725    4.9184
   25.740    4.8236
   25.755    5.0448
   25.770    5.2027
   25.785    5.0026
   25.800    4.9605
   25.815    5.0869
   25.830    5.3818
   25.845    4.8236
   25.860    5.0553
   25.875    5.2133
   25.890    4.8657
   25.905    4.9605
   25.920    5.3818
   25.935    4.9289
   25.950    4.7288
   25.965    4.9078
   25.980    5.4871
   25.995    5.1185
   26.010    4.7077
   26.025    5.1501
   26.040    5.7083
   26.055    5.2765
   26.070    4.9184
   26.085    4.8131
   26.100    4.7077
   26.115    4.8131
   26.130    4.9816
   26.145    4.9078
   26.160    4.6972
   26.175    5.0974
   26.190    5.1080
   26.205    5.0342
   26.220    5.0764
   26.235    4.9921
   26.250    4.7815
   26.265    5.0237
   26.280    5.1922
   26.295    5.0342
   26.310    5.5082
   26.325    5.1290
   26.340    4.9605
   26.355    4.8763
   26.370    5.0342
   26.385    5.1395
   26.400    5.0237
   26.415    4.7709
   26.430    5.0026
   26.445    4.6130
   26.460    4.9605
   26.475    4.6551
   26.490    4.8341
   26.505    4.8131
   26.520    4.9078
   26.535    5.0342
   26.550    5.0342
   26.565    4.8131
   26.580    5.0026
   26.595    5.0237
   26.610    5.3923
   26.625    4.9289
   26.640    4.5708
   26.655    4.7709
   26.670    5.3186
   26.685    5.0974
   26.700    5.0026
   26.715    5.3081
   26.730    5.1185
   26.745    5.0342
   26.760    4.9605
   26.775    4.5919
   26.790    4.8763
   26.805    5.0974
   26.820    5.0553
   26.835    5.1501
   26.850    5.1501
   26.865    4.8552
   26.880    4.8025
   26.895    5.1817
   26.910    4.8341
   26.925    4.8447
   26.940    4.5392
   26.955    4.6445
   26.970    4.7077
   26.985    5.0553
   27.000    4.8552
   27.015    5.2238
   27.030    5.0869
   27.045    4.7288
   27.060    4.7815
   27.075    4.6445
   27.090    4.6551
   27.105    4.8552
   27.120    4.7709
   27.135    4.7920
   27.150    4.8131
   27.165    4.8763
   27.180    4.7288
   27.195    4.6024
   27.210    4.7604
   27.225    4.8341
   27.240    4.9605
   27.255    5.0237
   27.270    4.6340
   27.285    4.5603
   27.300    4.7499
   27.315    4.5603
   27.330    4.9500
   27.345    4.8341
   27.360    4.6867
   27.375    5.0026
   27.390    4.8341
   27.405    4.9394
   27.420    4.7604
   27.435    4.9816
   27.450    4.8763
   27.465    4.7815
   27.480    4.8447
   27.495    4.7815
   27.510    4.7393
   27.525    4.7183
   27.540    4.8763
   27.555    4.5392
   27.570    4.8131
   27.585    4.4971
   27.600    4.4760
   27.615    4.7604
   27.630    4.8973
   27.645    4.5498
   27.660    4.5287
   27.675    4.6972
   27.690    5.0026
   27.705    4.9289
   27.720    5.1922
   27.735    5.2449
   27.750    4.8131
   27.765    4.4550
   27.780    4.8341
   27.795    4.8341
   27.810    4.8131
   27.825    4.7604
   27.840    4.6867
   27.855    4.7815
   27.870    4.5076
   27.885    4.8025
   27.900    4.6551
   27.915    4.6024
   27.930    4.7077
   27.945    4.7077
   27.960    4.7815
   27.975    4.6972
   27.990    4.6445
   28.005    4.5814
   28.020    4.7288
   28.035    4.9605
   28.050    4.7920
   28.065    4.5603
   28.080    4.9710
   28.095    4.7815
   28.110    4.4971
   28.125    4.6761
   28.140    4.5603
   28.155    4.5708
   28.170    4.6340
   28.185    4.7499
   28.200    4.7920
   28.215    4.6024
   28.230    4.6235
   28.245    4.8763
   28.260    4.5814
   28.275    4.5392
   28.290    4.6130
   28.305    4.5392
   28.320    4.7499
   28.335    4.9710
   28.350    4.8973
   28.365    5.0658
   28.380    4.6656
   28.395    4.8447
   28.410    4.6235
   28.425    4.9921
   28.440    5.0869
   28.455    4.7920
   28.470    4.6130
   28.485    4.6445
   28.500    4.6024
   28.515    4.7183
   28.530    4.7499
   28.545    4.5182
   28.560    4.8447
   28.575    5.0658
   28.590    4.6867
   28.605    4.7077
   28.620    4.9184
   28.635    4.5498
   28.650    4.4234
   28.665    4.4971
   28.680    4.8763
   28.695    4.8025
   28.710    4.6761
   28.725    4.3707
   28.740    4.6972
   28.755    4.8763
   28.770    4.6235
   28.785    4.4444
   28.800    4.6867
   28.815    4.7709
   28.830    4.7393
   28.845    4.5919
   28.860    4.6656
   28.875    4.6340
   28.890    4.4444
   28.905    4.4971
   28.920    4.8341
   28.935    4.4760
   28.950    4.8657
   28.965    4.4128
   28.980    4.4971
   28.995    4.5814
   29.010    4.6340
   29.025    4.9184
   29.040    4.7183
   29.055    4.5814
   29.070    4.6972
   29.085    4.6340
   29.100    4.4128
   29.115    4.6551
   29.130    4.3602
   29.145    4.6867
   29.160    4.5287
   29.175    4.5287
   29.190    4.5708
   29.205    4.4866
   29.220    4.6761
   29.235    4.6972
   29.250    4.7499
   29.265    4.5919
   29.280    4.6130
   29.295    4.4234
   29.310    4.4971
   29.325    4.1917
   29.340    4.4550
   29.355    4.6130
   29.370    4.6972
   29.385    4.5708
   29.400    4.4971
   29.415    4.6130
   29.430    4.4339
   29.445    4.6340
   29.460    4.8973
   29.475    4.6972
   29.490    4.4128
   29.505    4.5603
   29.520    4.2338
   29.535    4.3707
   29.550    4.7288
   29.565    4.6024
   29.580    4.5708
   29.595    4.4444
   29.610    4.4760
   29.625    4.3707
   29.640    4.2970
   29.655    4.3813
   29.670    4.6867
   29.685    4.7604
   29.700    4.5287
   29.715    4.5498
   29.730    4.6235
   29.745    4.5392
   29.760    4.2549
   29.775    4.5919
   29.790    4.3918
   29.805    4.1074
   29.820    4.3286
   29.835    4.3286
   29.850    4.4023
   29.865    4.8236
   29.880    4.6656
   29.895    4.3813
   29.910    4.4444
   29.925    4.2865
   29.940    4.6340
   29.955    4.4444
   29.970    4.5919
   29.985    4.4023
   30.000    4.5287
   30.015    4.4128
   30.030    4.4444
   30.045    4.1917
   30.060    4.2127
   30.075    4.6340
   30.090    4.4128
   30.105    4.3497
   30.120    4.5392
   30.135    4.8447
   30.150    4.4760
   30.165    4.2970
   30.180    4.5708
   30.195    4.5076
   30.210    4.5392
   30.225    4.5392
   30.240    4.1706
   30.255    4.2233
   30.270    4.3602
   30.285    4.5603
   30.300    4.3602
   30.315    4.3181
   30.330    4.1601
   30.345    4.4339
   30.360    4.4655
   30.375    4.6656
   30.390    4.2443
   30.405    4.3707
   30.420    4.4760
   30.435    4.1811
   30.450    4.4866
   30.465    4.4866
   30.480    4.5708
   30.495    4.5814
   30.510    4.3497
   30.525    4.5287
   30.540    4.8973
   30.555    4.6024
   30.570    4.5814
   30.585    4.4550
   30.600    4.4550
   30.615    4.3286
   30.630    4.4655
   30.645    4.3075
   30.660    4.4760
   30.675    4.4339
   30.690    4.1811
   30.705    4.4971
   30.720    4.4339
   30.735    4.5287
   30.750    4.3391
   30.765    4.2865
   30.780    4.1601
   30.795    4.2443
   30.810    4.3075
   30.825    4.3497
   30.840    4.3075
   30.855    4.3075
   30.870    4.4655
   30.885    4.4655
   30.900    4.3391
   30.915    4.1390
   30.930    4.1601
   30.945    4.4234
   30.960    4.5708
   30.975    4.3813
   30.990    4.2759
   31.005    4.2127
   31.020    4.0969
   31.035    4.2233
   31.050    4.2654
   31.065    4.2127
   31.080    4.1706
   31.095    4.3075
   31.110    4.2549
   31.125    4.4866
   31.140    4.3075
   31.155    4.0864
   31.170    4.1917
   31.185    4.1706
   31.200    4.2759
   31.215    4.3286
   31.230    4.2865
   31.245    4.2443
   31.260    4.5814
   31.275    4.2233
   31.290    4.3813
   31.305    4.6761
   31.320    4.1074
   31.335    4.3918
   31.350    4.1811
   31.365    4.0021
   31.380    4.0021
   31.395    4.0232
   31.410    4.2022
   31.425    4.2970
   31.440    4.4444
   31.455    4.2970
   31.470    4.3075
   31.485    4.3075
   31.500    4.4234
   31.515    4.2970
   31.530    4.1285
   31.545    4.4234
   31.560    4.5182
   31.575    4.0758
   31.590    4.1285
   31.605    4.3075
   31.620    4.6235
   31.635    4.2127
   31.650    4.1074
   31.665    4.3181
   31.680    4.2759
   31.695    3.9916
   31.710    4.4760
   31.725    4.3918
   31.740    4.3075
   31.755    4.2338
   31.770    4.3497
   31.785    4.2022
   31.800    4.3707
   31.815    4.1917
   31.830    4.1601
   31.845    4.0653
   31.860    4.0021
   31.875    3.7177
   31.890    3.8125
   31.905    4.4550
   31.920    4.0126
   31.935    3.9389
   31.950    4.0758
   31.965    4.1601
   31.980    4.3707
   31.995    3.9073
   32.010    4.2970
   32.025    4.2443
   32.040    4.0969
   32.055    4.0337
   32.070    4.2022
   32.085    4.7183
   32.100    4.4234
   32.115    4.4023
   32.130    4.2549
   32.145    4.2127
   32.160    3.9916
   32.175    4.0864
   32.190    4.2549
   32.205    4.2759
   32.220    4.6656
   32.235    4.2022
   32.250    4.0232
   32.265    4.0969
   32.280    4.2970
   32.295    4.2654
   32.310    4.1917
   32.325    4.0758
   32.340    3.9600
   32.355    4.3497
   32.370    4.1706
   32.385    4.2338
   32.400    4.0337
   32.415    4.2022
   32.430    4.0758
   32.445    4.2127
   32.460    4.1917
   32.475    4.1074
   32.490    4.0442
   32.505    3.9916
   32.520    4.2443
   32.535    4.2759
   32.550    4.2970
   32.565    3.8757
   32.580    3.9810
   32.595    4.0232
   32.610    4.0864
   32.625    4.1496
   32.640    3.7072
   32.655    3.9284
   32.670    4.1074
   32.685    4.0969
   32.700    4.2759
   32.715    3.9179
   32.730    3.6967
   32.745    3.8441
   32.760    3.9494
   32.775    3.9389
   32.790    3.9073
   32.805    4.0232
   32.820    4.0758
   32.835    4.3707
   32.850    4.0969
   32.865    4.0758
   32.880    3.8125
   32.895    4.0969
   32.910    4.0653
   32.925    4.1074
   32.940    4.0126
   32.955    4.0232
   32.970    4.0758
   32.985    4.2338
   33.000    4.1496
   33.015    3.9073
   33.030    3.9600
   33.045    4.1706
   33.060    4.2022
   33.075    3.8547
   33.090    4.0969
   33.105    4.0653
   33.120    4.2022
   33.135    3.8020
   33.150    3.7809
   33.165    4.2654
   33.180    3.9494
   33.195    4.0337
   33.210    3.9284
   33.225    3.7283
   33.240    3.7283
   33.255    4.1496
   33.270    4.0021
   33.285    4.1285
   33.300    3.9810
   33.315    3.8968
   33.330    3.9494
   33.345    4.0021
   33.360    3.9389
   33.375    3.8336
   33.390    3.7809
   33.405    3.9284
   33.420    3.7704
   33.435    4.0864
   33.450    4.1601
   33.465    3.9916
   33.480    4.0126
   33.495    4.2654
   33.510    4.0021
   33.525    4.0126
   33.540    3.8020
   33.555    3.7809
   33.570    3.8652
   33.585    3.8547
   33.600    4.0758
   33.615    3.9179
   33.630    3.7809
   33.645    3.8231
   33.660    3.8441
   33.675    3.8863
   33.690    4.0021
   33.705    3.9073
   33.720    4.0653
   33.735    3.7704
   33.750    3.7177
   33.765    3.7493
   33.780    3.9179
   33.795    4.2127
   33.810    3.9810
   33.825    4.1706
   33.840    4.0337
   33.855    3.8336
   33.870    3.7809
   33.885    3.9916
   33.900    3.6651
   33.915    3.8125
   33.930    4.1390
   33.945    4.0442
   33.960    4.0969
   33.975    3.6756
   33.990    3.6440
   34.005    4.0653
   34.020    3.9389
   34.035    3.8336
   34.050    3.8547
   34.065    3.8336
   34.080    3.6124
   34.095    3.8968
   34.110    3.8968
   34.125    3.8757
   34.140    3.9389
   34.155    3.8547
   34.170    3.9073
   34.185    4.1917
   34.200    4.0337
   34.215    3.8231
   34.230    3.9284
   34.245    3.8441
   34.260    3.6756
   34.275    3.7283
   34.290    3.8441
   34.305    4.0442
   34.320    3.8757
   34.335    3.7072
   34.350    3.6967
   34.365    3.5914
   34.380    4.0864
   34.395    4.2127
   34.410    3.9073
   34.425    3.7915
   34.440    3.8336
   34.455    3.8547
   34.470    3.9073
   34.485    3.8863
   34.500    3.6651
   34.515    3.7915
   34.530    3.7388
   34.545    4.0864
   34.560    3.7599
   34.575    3.7704
   34.590    4.0021
   34.605    3.5176
   34.620    3.9284
   34.635    3.6124
   34.650    3.8968
   34.665    3.8547
   34.680    3.6019
   34.695    3.8336
   34.710    3.7809
   34.725    3.9916
   34.740    3.6440
   34.755    3.4018
   34.770    3.7704
   34.785    3.7388
   34.800    3.7283
   34.815    3.6651
   34.830    3.7599
   34.845    3.9600
   34.860    3.9705
   34.875    4.0653
   34.890    4.0232
   34.905    3.8125
   34.920    3.6967
   34.935    3.7283
   34.950    3.7809
   34.965    3.4439
   34.980    3.5703
   34.995    3.6756
   35.010    3.8547
   35.025    3.7283
   35.040    3.5914
   35.055    3.8968
   35.070    3.8652
   35.085    3.9073
   35.100    4.0548
   35.115    3.8020
   35.130    3.8336
   35.145    3.6756
   35.160    3.8020
   35.175    3.8547
   35.190    4.1180
   35.205    3.9600
   35.220    3.5176
   35.235    3.5914
   35.250    3.8757
   35.265    3.5914
   35.280    3.7388
   35.295    3.8336
   35.310    3.6546
   35.325    3.7493
   35.340    3.9284
   35.355    3.6124
   35.370    3.5914
   35.385    3.7704
   35.400    3.6967
   35.415    3.9073
   35.430    3.7809
   35.445    3.6756
   35.460    3.5703
   35.475    3.7388
   35.490    3.8125
   35.505    3.5071
   35.520    3.5914
   35.535    3.5387
   35.550    3.7493
   35.565    3.8652
   35.580    3.5282
   35.595    3.6019
   35.610    3.7599
   35.625    3.6862
   35.640    3.9179
   35.655    3.5071
   35.670    3.8020
   35.685    3.4755
   35.700    3.3491
   35.715    3.4334
   35.730    3.3807
   35.745    3.4123
   35.760    3.6440
   35.775    3.7493
   35.790    3.7388
   35.805    3.4544
   35.820    3.5703
   35.835    3.6651
   35.850    3.8863
   35.865    3.9705
   35.880    3.7283
   35.895    3.8125
   35.910    3.8125
   35.925    3.6440
   35.940    3.4650
   35.955    3.4755
   35.970    3.5176
   35.985    3.7388
   36.000    3.8231
   36.015    3.7809
   36.030    3.6440
   36.045    3.7493
   36.060    3.8441
   36.075    3.8336
   36.090    3.7493
   36.105    3.7283
   36.120    3.6546
   36.135    3.4966
   36.150    3.4966
   36.165    3.7283
   36.180    3.8757
   36.195    3.7177
   36.210    3.4334
   36.225    3.6440
   36.240    3.5598
   36.255    3.6967
   36.270    3.8020
   36.285    3.4755
   36.300    3.5071
   36.315    3.5387
   36.330    3.7388
   36.345    3.3597
   36.360    3.7704
   36.375    3.6546
   36.390    3.7599
   36.405    3.5492
   36.420    3.6651
   36.435    3.6967
   36.450    3.6440
   36.465    3.5282
   36.480    3.7072
   36.495    3.8441
   36.510    3.5492
   36.525    3.4860
   36.540    3.4755
   36.555    3.7072
   36.570    3.7599
   36.585    3.5808
   36.600    3.4755
   36.615    3.7493
   36.630    3.5808
   36.645    3.8020
   36.660    3.6335
   36.675    3.5176
   36.690    3.5598
   36.705    3.6124
   36.720    4.0021
   36.735    3.8968
   36.750    3.4860
   36.765    3.6335
   36.780    3.5176
   36.795    3.9284
   36.810    3.2333
   36.825    3.6546
   36.840    3.7177
   36.855    3.3386
   36.870    3.1069
   36.885    3.3491
   36.900    3.4229
   36.915    3.4755
   36.930    3.8020
   36.945    3.5071
   36.960    3.4966
   36.975    3.7072
   36.990    3.6124
   37.005    3.5598
   37.020    3.7283
   37.035    3.8441
   37.050    3.8757
   37.065    3.6230
   37.080    3.6230
   37.095    3.4650
   37.110    3.5914
   37.125    3.7809
   37.140    3.6967
   37.155    3.4860
   37.170    3.6862
   37.185    3.5914
   37.200    3.8968
   37.215    3.5492
   37.230    3.5808
   37.245    3.4439
   37.260    3.6862
   37.275    3.7809
   37.290    3.4334
   37.305    3.4544
   37.320    3.6756
   37.335    3.8441
   37.350    3.5071
   37.365    3.5176
   37.380    3.5387
   37.395    3.6335
   37.410    3.5176
   37.425    3.4439
   37.440    3.5808
   37.455    3.4229
   37.470    3.4860
   37.485    3.4755
   37.500    3.3913
   37.515    3.5176
   37.530    3.3175
   37.545    3.4544
   37.560    3.6440
   37.575    3.5071
   37.590    3.4229
   37.605    3.4018
   37.620    3.4018
   37.635    3.4018
   37.650    3.4439
   37.665    3.2965
   37.680    3.2754
   37.695    3.7704
   37.710    3.3807
   37.725    3.6230
   37.740    3.4544
   37.755    3.5492
   37.770    3.8125
   37.785    3.4229
   37.800    3.3807
   37.815    3.4229
   37.830    3.6019
   37.845    3.6335
   37.860    3.6546
   37.875    3.5282
   37.890    3.5071
   37.905    3.6230
   37.920    3.9389
   37.935    3.6019
   37.950    3.6019
   37.965    3.3597
   37.980    3.3070
   37.995    3.5914
   38.010    3.6124
   38.025    3.5598
   38.040    3.4755
   38.055    3.4860
   38.070    3.6862
   38.085    3.2438
   38.100    3.2754
   38.115    3.6124
   38.130    3.5071
   38.145    3.2754
   38.160    3.6124
   38.175    3.5492
   38.190    3.4018
   38.205    3.7493
   38.220    3.4229
   38.235    3.4650
   38.250    3.4966
   38.265    3.5071
   38.280    3.4334
   38.295    3.4229
   38.310    3.4439
   38.325    3.5598
   38.340    3.3386
   38.355    3.4334
   38.370    3.4439
   38.385    3.3175
   38.400    3.7388
   38.415    3.6862
   38.430    3.7704
   38.445    4.0758
   38.460    3.6651
   38.475    3.5492
   38.490    3.5176
   38.505    3.4229
   38.520    3.4123
   38.535    3.5071
   38.550    3.3070
   38.565    3.5282
   38.580    3.3597
   38.595    3.4123
   38.610    3.2965
   38.625    3.3913
   38.640    3.3175
   38.655    3.4439
   38.670    3.5387
   38.685    3.4755
   38.700    3.1490
   38.715    3.5808
   38.730    3.2859
   38.745    3.1385
   38.760    3.4544
   38.775    3.3597
   38.790    3.1912
   38.805    3.6967
   38.820    3.6230
   38.835    3.5176
   38.850    3.3491
   38.865    3.7072
   38.880    3.6230
   38.895    3.3702
   38.910    3.6862
   38.925    3.6651
   38.940    3.5071
   38.955    3.6967
   38.970    3.5808
   38.985    3.5176
   39.000    3.5914
   39.015    3.6546
   39.030    3.4123
   39.045    3.1490
   39.060    3.4123
   39.075    3.3281
   39.090    3.2754
   39.105    3.5703
   39.120    3.6862
   39.135    3.6124
   39.150    3.6335
   39.165    3.6230
   39.180    3.7809
   39.195    3.3702
   39.210    3.3807
   39.225    3.8547
   39.240    3.6862
   39.255    3.6756
   39.270    3.2543
   39.285    3.3386
   39.300    3.2649
   39.315    3.5703
   39.330    3.5914
   39.345    3.5598
   39.360    3.5071
   39.375    3.4439
   39.390    3.5387
   39.405    3.5703
   39.420    3.4755
   39.435    3.5492
   39.450    3.6335
   39.465    3.3070
   39.480    3.4650
   39.495    3.7388
   39.510    3.5598
   39.525    3.4966
   39.540    3.6967
   39.555    3.4544
   39.570    3.3491
   39.585    3.2227
   39.600    3.3807
   39.615    3.7388
   39.630    3.6230
   39.645    3.5071
   39.660    3.4544
   39.675    3.3807
   39.690    3.5282
   39.705    3.9810
   39.720    3.5808
   39.735    3.6862
   39.750    3.5176
   39.765    3.2333
   39.780    3.5282
   39.795    3.6651
   39.810    3.5176
   39.825    3.4860
   39.840    3.1385
   39.855    3.4650
   39.870    3.6124
   39.885    3.5387
   39.900    3.5387
   39.915    3.4439
   39.930    3.4860
   39.945    3.3386
   39.960    3.5492
   39.975    3.5808
   39.990    3.2333
