    1.500    5.4789
    1.515    5.4682
    1.530    5.4789
    1.545    5.5966
    1.560    5.2113
    1.575    4.9973
    1.590    5.1792
    1.605    4.9866
    1.620    4.6763
    1.635    4.9652
    1.650    4.6977
    1.665    4.9438
    1.680    4.8261
    1.695    4.6870
    1.710    4.6977
    1.725    4.4837
    1.740    4.0984
    1.755    4.6870
    1.770    4.6121
    1.785    4.3767
    1.800    4.0235
    1.815    4.0984
    1.830    4.2590
    1.845    4.1091
    1.860    3.9807
    1.875    4.0128
    1.890    4.1413
    1.905    4.1520
    1.920    3.9486
    1.935    3.9379
    1.950    3.6597
    1.965    3.6918
    1.980    3.5313
    1.995    3.7988
    2.010    4.3018
    2.025    3.9700
    2.040    3.9486
    2.055    3.3601
    2.070    3.7881
    2.085    3.5955
    2.100    3.4778
    2.115    3.1782
    2.130    3.3280
    2.145    3.3708
    2.160    3.2745
    2.175    3.2103
    2.190    3.3280
    2.205    3.1568
    2.220    3.2317
    2.235    3.2103
    2.250    3.0284
    2.265    3.2317
    2.280    3.1996
    2.295    3.0177
    2.310    3.0926
    2.325    3.0177
    2.340    2.9320
    2.355    3.0177
    2.370    3.1889
    2.385    3.1675
    2.400    3.1675
    2.415    2.9428
    2.430    3.0498
    2.445    2.8464
    2.460    2.7073
    2.475    2.7715
    2.490    2.7394
    2.505    2.9856
    2.520    2.4398
    2.535    2.6217
    2.550    2.8250
    2.565    2.7822
    2.580    2.7180
    2.595    2.9856
    2.610    2.3970
    2.625    2.7822
    2.640    2.9642
    2.655    2.6966
    2.670    2.6431
    2.685    2.4612
    2.700    2.4826
    2.715    2.4291
    2.730    2.7501
    2.745    2.5254
    2.760    2.6645
    2.775    2.3970
    2.790    2.5682
    2.805    2.6324
    2.820    2.6003
    2.835    2.4719
    2.850    2.5040
    2.865    2.4398
    2.880    2.6538
    2.895    2.5040
    2.910    2.2258
    2.925    2.2472
    2.940    2.5682
    2.955    2.3328
    2.970    2.3863
    2.985    2.4719
    3.000    2.2793
    3.015    2.2579
    3.030    2.2900
    3.045    2.3221
    3.060    2.2579
    3.075    2.0653
    3.090    2.0546
    3.105    2.2900
    3.120    2.3970
    3.135    2.2151
    3.150    2.3756
    3.165    2.3328
    3.180    2.3114
    3.195    2.3542
    3.210    2.3649
    3.225    2.3542
    3.240    2.1723
    3.255    2.2258
    3.270    2.1937
    3.285    2.0974
    3.300    1.9797
    3.315    2.3328
    3.330    2.0760
    3.345    2.1081
    3.360    2.1295
    3.375    1.8834
    3.390    2.1937
    3.405    2.1830
    3.420    2.1188
    3.435    2.0546
    3.450    2.0011
    3.465    2.2472
    3.480    1.8941
    3.495    2.1616
    3.510    2.0546
    3.525    1.9690
    3.540    2.0974
    3.555    2.2044
    3.570    1.8834
    3.585    2.1081
    3.600    2.2151
    3.615    2.2579
    3.630    2.2258
    3.645    2.0439
    3.660    2.2900
    3.675    2.2044
    3.690    2.4505
    3.705    2.1081
    3.720    2.2044
    3.735    2.2900
    3.750    2.1616
    3.765    2.3435
    3.780    2.1830
    3.795    2.3114
    3.810    2.2900
    3.825    2.3328
    3.840    2.2579
    3.855    2.6217
    3.870    2.8785
    3.885    2.8785
    3.900    2.7394
    3.915    2.7394
    3.930    2.8250
    3.945    2.9749
    3.960    3.1568
    3.975    3.1033
    3.990    2.9856
    4.005    3.4029
    4.020    3.9058
    4.035    3.8095
    4.050    3.8095
    4.065    4.0877
    4.080    4.0449
    4.095    3.7667
    4.110    3.7988
    4.125    3.7667
    4.140    4.2162
    4.155    4.0877
    4.170    4.0235
    4.185    4.3553
    4.200    4.6121
    4.215    4.6442
    4.230    5.3077
    4.245    5.7571
    4.260    5.7143
    4.275    5.9176
    4.290    6.6881
    4.305    7.1803
    4.320    7.7475
    4.335    8.6463
    4.350    9.5345
    4.365   10.5725
    4.380   11.0005
    4.395   12.4345
    4.410   13.5474
    4.425   15.1846
    4.440   17.8384
    4.455   20.2033
    4.470   24.6014
    4.485   28.5821
    4.500   37.1643
    4.515   50.8614
    4.530   56.8753
    4.545   28.0471
    4.560    6.5811
    4.575    2.9535
    4.590    2.6324
    4.605    2.4291
    4.620    2.2365
    4.635    2.1402
    4.650    2.1081
    4.665    2.1295
    4.680    2.1081
    4.695    2.1723
    4.710    2.2151
    4.725    2.0332
    4.740    2.0653
    4.755    2.1402
    4.770    1.9476
    4.785    2.1616
    4.800    2.3756
    4.815    2.0011
    4.830    2.0332
    4.845    2.2365
    4.860    2.0332
    4.875    1.9369
    4.890    1.9797
    4.905    1.7657
    4.920    2.0011
    4.935    2.2365
    4.950    2.0867
    4.965    1.9262
    4.980    1.8299
    4.995    1.8727
    5.010    1.8299
    5.025    1.7549
    5.040    1.8513
    5.055    1.6158
    5.070    1.7871
    5.085    1.7657
    5.100    1.8299
    5.115    1.7442
    5.130    1.5730
    5.145    1.6800
    5.160    1.6372
    5.175    1.7442
    5.190    1.6051
    5.205    1.7121
    5.220    1.8941
    5.235    1.8727
    5.250    1.8727
    5.265    1.8620
    5.280    1.9369
    5.295    1.5623
    5.310    1.8513
    5.325    1.9048
    5.340    1.7228
    5.355    1.5195
    5.370    1.8406
    5.385    1.5837
    5.400    1.6907
    5.415    1.7549
    5.430    1.5730
    5.445    1.6158
    5.460    1.7228
    5.475    1.8192
    5.490    1.6800
    5.505    1.8192
    5.520    1.7549
    5.535    1.5088
    5.550    1.7335
    5.565    1.7871
    5.580    1.6800
    5.595    1.6479
    5.610    1.5409
    5.625    1.5195
    5.640    1.5195
    5.655    2.0867
    5.670    1.6158
    5.685    1.8513
    5.700    1.5409
    5.715    1.5730
    5.730    1.7121
    5.745    1.8727
    5.760    1.6800
    5.775    1.5730
    5.790    1.6907
    5.805    1.7764
    5.820    1.8513
    5.835    1.6479
    5.850    1.5730
    5.865    1.5730
    5.880    1.8085
    5.895    1.8834
    5.910    1.9369
    5.925    1.7549
    5.940    1.9583
    5.955    1.7764
    5.970    1.7549
    5.985    1.8834
    6.000    1.8406
    6.015    1.9690
    6.030    1.9155
    6.045    1.9262
    6.060    2.1295
    6.075    2.3114
    6.090    2.3435
    6.105    2.4184
    6.120    2.3756
    6.135    2.3542
    6.150    2.3221
    6.165    2.8785
    6.180    2.9535
    6.195    3.1675
    6.210    3.4564
    6.225    3.3601
    6.240    3.5634
    6.255    4.0342
    6.270    4.2483
    6.285    4.7726
    6.300    5.3291
    6.315    6.0139
    6.330    6.1744
    6.345    7.6940
    6.360    9.2777
    6.375   10.6153
    6.390   14.2536
    6.405   18.1059
    6.420   14.1252
    6.435    5.8106
    6.450    2.8250
    6.465    2.3756
    6.480    2.4184
    6.495    2.2365
    6.510    2.3221
    6.525    2.5575
    6.540    2.1830
    6.555    2.0011
    6.570    2.0011
    6.585    1.9690
    6.600    1.9048
    6.615    1.9155
    6.630    2.0546
    6.645    1.9262
    6.660    2.0011
    6.675    2.1509
    6.690    2.0225
    6.705    1.9048
    6.720    1.9262
    6.735    1.8406
    6.750    1.7228
    6.765    1.8620
    6.780    1.9476
    6.795    1.8727
    6.810    1.6693
    6.825    1.7228
    6.840    1.8941
    6.855    1.7442
    6.870    1.7978
    6.885    1.7121
    6.900    1.8513
    6.915    1.8620
    6.930    1.7978
    6.945    1.4981
    6.960    1.3697
    6.975    1.5944
    6.990    1.7871
    7.005    2.0546
    7.020    1.5623
    7.035    1.7335
    7.050    1.7228
    7.065    1.4660
    7.080    1.5516
    7.095    1.6265
    7.110    1.5088
    7.125    1.7442
    7.140    1.7228
    7.155    1.6800
    7.170    1.7335
    7.185    1.6372
    7.200    1.4874
    7.215    1.5944
    7.230    1.7657
    7.245    1.6051
    7.260    1.6051
    7.275    1.4553
    7.290    1.5730
    7.305    1.6265
    7.320    1.5516
    7.335    1.7442
    7.350    1.5944
    7.365    1.6158
    7.380    1.3590
    7.395    1.6907
    7.410    1.4981
    7.425    1.3376
    7.440    1.4232
    7.455    1.5409
    7.470    1.4874
    7.485    1.4125
    7.500    1.6372
    7.515    1.5302
    7.530    1.3804
    7.545    1.6586
    7.560    1.6586
    7.575    1.4339
    7.590    1.6265
    7.605    1.5944
    7.620    1.5409
    7.635    1.6158
    7.650    1.5409
    7.665    1.5088
    7.680    1.5944
    7.695    1.8299
    7.710    1.9690
    7.725    1.8620
    7.740    2.0760
    7.755    2.2044
    7.770    2.3328
    7.785    2.3007
    7.800    2.7394
    7.815    3.5420
    7.830    4.0342
    7.845    5.1150
    7.860    4.8368
    7.875    2.8357
    7.890    1.5944
    7.905    1.2306
    7.920    1.4339
    7.935    1.3911
    7.950    1.2199
    7.965    1.2734
    7.980    1.3483
    7.995    1.3055
    8.010    1.1878
    8.025    1.4767
    8.040    1.4874
    8.055    1.2520
    8.070    1.3483
    8.085    1.3376
    8.100    1.4339
    8.115    1.5623
    8.130    1.3911
    8.145    1.4018
    8.160    1.3697
    8.175    1.2734
    8.190    1.3590
    8.205    1.3590
    8.220    1.4553
    8.235    1.3911
    8.250    1.3483
    8.265    1.2734
    8.280    1.1878
    8.295    1.0166
    8.310    1.4125
    8.325    1.3911
    8.340    1.3697
    8.355    1.2413
    8.370    1.1129
    8.385    1.1878
    8.400    1.1236
    8.415    1.2092
    8.430    1.1450
    8.445    1.1022
    8.460    1.3911
    8.475    1.2627
    8.490    1.0701
    8.505    1.3483
    8.520    1.0059
    8.535    1.3269
    8.550    1.0380
    8.565    1.2306
    8.580    1.0380
    8.595    1.0594
    8.610    1.0915
    8.625    1.1985
    8.640    1.1985
    8.655    1.1236
    8.670    1.2841
    8.685    1.2520
    8.700    1.0808
    8.715    1.0808
    8.730    1.2306
    8.745    1.0808
    8.760    1.0594
    8.775    1.0594
    8.790    1.1236
    8.805    1.1236
    8.820    1.3590
    8.835    1.1450
    8.850    1.2199
    8.865    1.2199
    8.880    1.4232
    8.895    1.2841
    8.910    1.3483
    8.925    1.4446
    8.940    1.5944
    8.955    1.6479
    8.970    1.9262
    8.985    2.0546
    9.000    2.1616
    9.015    2.3863
    9.030    2.8143
    9.045    3.3922
    9.060    4.1199
    9.075    4.4623
    9.090    3.1675
    9.105    1.6586
    9.120    1.1450
    9.135    1.0808
    9.150    1.0701
    9.165    1.0380
    9.180    1.0808
    9.195    1.0915
    9.210    1.0487
    9.225    1.0166
    9.240    1.0808
    9.255    1.0487
    9.270    1.2092
    9.285    1.1557
    9.300    1.0701
    9.315    1.0808
    9.330    1.1022
    9.345    1.1022
    9.360    1.0380
    9.375    1.0273
    9.390    1.1557
    9.405    1.2306
    9.420    1.0059
    9.435    1.1771
    9.450    1.1557
    9.465    1.0594
    9.480    1.0380
    9.495    1.0487
    9.510    1.0166
    9.525    0.9952
    9.540    0.9310
    9.555    0.9631
    9.570    0.9631
    9.585    1.0487
    9.600    1.1557
    9.615    1.0808
    9.630    1.0059
    9.645    1.0273
    9.660    1.0487
    9.675    1.1129
    9.690    1.0166
    9.705    1.0808
    9.720    0.9096
    9.735    0.9524
    9.750    0.9738
    9.765    0.9203
    9.780    0.8989
    9.795    0.9631
    9.810    0.9952
    9.825    1.0808
    9.840    1.0915
    9.855    0.9845
    9.870    1.0166
    9.885    0.8561
    9.900    1.0594
    9.915    0.9845
    9.930    0.8989
    9.945    0.9417
    9.960    0.9524
    9.975    1.0166
    9.990    0.8668
   10.005    0.9524
   10.020    0.9738
   10.035    1.1236
   10.050    1.0701
   10.065    0.9310
   10.080    0.9417
   10.095    1.1236
   10.110    1.3269
   10.125    1.1771
   10.140    1.3804
   10.155    1.4232
   10.170    1.0166
   10.185    0.9738
   10.200    1.0059
   10.215    0.9845
   10.230    0.9310
   10.245    0.9631
   10.260    0.8775
   10.275    0.9310
   10.290    0.9417
   10.305    0.8775
   10.320    0.8026
   10.335    0.9096
   10.350    0.9417
   10.365    0.8989
   10.380    0.8882
   10.395    0.8454
   10.410    1.0594
   10.425    0.9096
   10.440    0.9952
   10.455    0.9096
   10.470    0.9417
   10.485    0.8347
   10.500    0.9631
   10.515    0.9417
   10.530    0.8561
   10.545    0.8347
   10.560    1.0915
   10.575    1.0059
   10.590    0.9203
   10.605    1.0059
   10.620    1.0808
   10.635    0.8347
   10.650    0.8347
   10.665    0.7705
   10.680    1.0059
   10.695    1.1129
   10.710    0.9738
   10.725    0.8454
   10.740    0.7384
   10.755    0.9203
   10.770    1.0487
   10.785    0.9417
   10.800    0.9952
   10.815    0.8668
   10.830    0.9738
   10.845    1.0273
   10.860    0.8454
   10.875    1.0380
   10.890    1.0059
   10.905    0.9417
   10.920    0.9096
   10.935    0.9845
   10.950    1.0701
   10.965    1.1022
   10.980    1.2734
   10.995    1.5837
   11.010    1.4446
   11.025    1.8299
   11.040    2.0332
   11.055    2.6003
   11.070    3.2638
   11.085    4.0877
   11.100    5.4896
   11.115    6.8807
   11.130    5.7785
   11.145    3.1033
   11.160    1.3269
   11.175    0.9845
   11.190    0.8775
   11.205    0.9952
   11.220    0.7384
   11.235    0.8026
   11.250    0.9310
   11.265    1.0380
   11.280    0.9203
   11.295    0.8775
   11.310    0.9417
   11.325    0.8775
   11.340    0.8668
   11.355    0.9524
   11.370    0.8454
   11.385    0.7598
   11.400    0.8561
   11.415    0.9203
   11.430    0.7705
   11.445    0.9845
   11.460    0.9524
   11.475    0.9203
   11.490    0.8347
   11.505    0.9952
   11.520    0.8133
   11.535    0.8347
   11.550    0.9524
   11.565    0.8882
   11.580    0.9417
   11.595    0.8347
   11.610    0.9203
   11.625    0.7812
   11.640    0.8454
   11.655    0.9203
   11.670    0.9524
   11.685    0.7705
   11.700    1.0166
   11.715    0.9203
   11.730    0.8882
   11.745    0.9096
   11.760    0.8775
   11.775    0.8668
   11.790    0.9524
   11.805    0.8561
   11.820    0.7919
   11.835    0.9096
   11.850    1.0594
   11.865    0.9952
   11.880    0.9738
   11.895    0.9738
   11.910    1.0059
   11.925    1.2948
   11.940    1.2306
   11.955    1.5837
   11.970    1.5516
   11.985    2.2365
   12.000    2.7394
   12.015    2.7929
   12.030    2.0867
   12.045    1.4018
   12.060    1.2306
   12.075    1.0701
   12.090    0.9417
   12.105    0.9631
   12.120    0.8454
   12.135    0.9417
   12.150    0.8026
   12.165    0.8882
   12.180    0.8240
   12.195    0.8347
   12.210    0.8347
   12.225    0.8882
   12.240    0.8989
   12.255    0.8454
   12.270    1.0273
   12.285    0.8347
   12.300    0.9203
   12.315    0.8240
   12.330    0.9845
   12.345    0.9738
   12.360    1.0059
   12.375    0.9310
   12.390    0.9417
   12.405    1.1022
   12.420    0.9524
   12.435    0.8989
   12.450    1.1236
   12.465    0.6849
   12.480    0.9096
   12.495    0.9310
   12.510    0.8561
   12.525    0.8668
   12.540    0.8882
   12.555    0.9631
   12.570    1.0594
   12.585    0.9631
   12.600    0.9203
   12.615    0.8668
   12.630    1.0059
   12.645    0.8775
   12.660    0.8668
   12.675    1.0808
   12.690    1.0701
   12.705    0.9417
   12.720    1.1343
   12.735    1.1985
   12.750    1.1664
   12.765    1.3697
   12.780    1.4553
   12.795    1.5409
   12.810    1.8513
   12.825    2.4933
   12.840    3.2103
   12.855    3.2852
   12.870    2.0225
   12.885    1.3376
   12.900    0.9524
   12.915    0.9952
   12.930    0.9631
   12.945    1.0166
   12.960    1.0166
   12.975    0.9203
   12.990    0.9952
   13.005    1.1129
   13.020    0.9952
   13.035    0.9417
   13.050    0.8668
   13.065    0.8347
   13.080    0.8561
   13.095    0.8775
   13.110    0.8454
   13.125    0.7705
   13.140    1.0059
   13.155    1.0273
   13.170    0.9952
   13.185    1.0380
   13.200    0.9417
   13.215    0.9524
   13.230    1.0380
   13.245    0.9310
   13.260    0.8454
   13.275    0.7705
   13.290    0.9738
   13.305    1.0701
   13.320    1.1129
   13.335    0.9631
   13.350    0.7812
   13.365    0.8026
   13.380    1.0166
   13.395    0.9631
   13.410    0.8882
   13.425    0.7812
   13.440    0.9738
   13.455    1.0059
   13.470    1.1343
   13.485    1.1129
   13.500    1.1664
   13.515    1.2199
   13.530    1.0701
   13.545    1.1771
   13.560    1.2841
   13.575    1.4553
   13.590    2.0546
   13.605    2.4398
   13.620    3.1354
   13.635    3.1889
   13.650    2.4612
   13.665    1.5195
   13.680    1.1450
   13.695    0.9310
   13.710    0.8989
   13.725    0.9952
   13.740    0.9310
   13.755    0.9203
   13.770    0.7812
   13.785    0.8240
   13.800    0.7919
   13.815    0.8347
   13.830    0.9417
   13.845    0.8989
   13.860    0.9417
   13.875    0.8668
   13.890    0.8668
   13.905    0.8454
   13.920    0.8133
   13.935    0.9738
   13.950    0.8133
   13.965    0.8668
   13.980    0.9310
   13.995    1.0166
   14.010    0.8454
   14.025    0.9845
   14.040    0.9096
   14.055    0.9203
   14.070    0.9203
   14.085    0.8133
   14.100    0.9096
   14.115    1.1343
   14.130    0.9096
   14.145    0.8882
   14.160    0.9203
   14.175    0.9845
   14.190    0.9417
   14.205    0.7812
   14.220    0.7384
   14.235    0.8561
   14.250    0.9845
   14.265    1.0487
   14.280    0.8882
   14.295    0.7705
   14.310    0.9631
   14.325    1.1664
   14.340    1.1985
   14.355    1.0487
   14.370    1.1878
   14.385    1.2413
   14.400    1.0915
   14.415    0.9524
   14.430    0.8775
   14.445    0.9845
   14.460    0.9417
   14.475    0.8882
   14.490    0.9417
   14.505    0.8561
   14.520    0.7919
   14.535    0.7277
   14.550    0.7277
   14.565    0.7705
   14.580    0.8989
   14.595    0.9631
   14.610    0.8668
   14.625    0.8882
   14.640    0.7919
   14.655    0.8668
   14.670    0.9310
   14.685    0.8882
   14.700    0.8240
   14.715    1.0487
   14.730    0.8561
   14.745    0.8775
   14.760    0.8882
   14.775    0.8240
   14.790    0.8989
   14.805    0.7812
   14.820    0.9096
   14.835    0.8561
   14.850    0.9096
   14.865    0.8882
   14.880    0.7170
   14.895    0.8026
   14.910    0.8454
   14.925    0.8240
   14.940    0.8882
   14.955    1.0166
   14.970    0.9738
   14.985    0.9738
   15.000    1.0594
   15.015    1.0487
   15.030    1.2306
   15.045    1.4125
   15.060    1.7549
   15.075    2.0118
   15.090    2.0653
   15.105    1.4232
   15.120    1.0487
   15.135    0.8775
   15.150    0.7919
   15.165    0.8026
   15.180    0.9203
   15.195    0.7598
   15.210    0.8989
   15.225    0.9096
   15.240    0.9417
   15.255    0.9524
   15.270    0.8454
   15.285    0.9310
   15.300    0.8240
   15.315    0.8775
   15.330    0.7063
   15.345    0.8347
   15.360    0.9096
   15.375    0.8133
   15.390    0.9417
   15.405    0.8133
   15.420    0.8775
   15.435    0.9096
   15.450    0.7705
   15.465    0.8561
   15.480    0.9845
   15.495    0.8454
   15.510    0.8240
   15.525    0.9096
   15.540    0.8240
   15.555    0.8989
   15.570    0.8561
   15.585    0.7705
   15.600    0.7384
   15.615    0.7170
   15.630    0.7812
   15.645    0.8882
   15.660    1.0273
   15.675    1.0915
   15.690    0.8882
   15.705    0.9738
   15.720    1.0273
   15.735    1.2306
   15.750    1.3697
   15.765    1.3376
   15.780    0.9952
   15.795    0.7705
   15.810    0.7919
   15.825    0.8454
   15.840    0.8668
   15.855    0.9845
   15.870    0.9203
   15.885    0.8561
   15.900    0.8668
   15.915    0.8026
   15.930    0.9096
   15.945    0.9417
   15.960    0.9417
   15.975    0.8989
   15.990    0.9203
   16.005    0.8240
   16.020    0.8668
   16.035    0.7598
   16.050    0.8561
   16.065    0.9631
   16.080    0.8454
   16.095    0.8347
   16.110    0.8454
   16.125    0.7812
   16.140    0.8668
   16.155    0.8133
   16.170    0.8026
   16.185    0.8347
   16.200    0.9952
   16.215    0.8668
   16.230    0.8347
   16.245    0.8454
   16.260    0.9310
   16.275    0.9952
   16.290    0.9524
   16.305    1.1129
   16.320    1.3590
   16.335    1.2734
   16.350    1.2306
   16.365    1.3590
   16.380    1.5837
   16.395    1.8620
   16.410    1.9369
   16.425    1.5088
   16.440    1.1450
   16.455    0.9417
   16.470    0.9203
   16.485    0.9096
   16.500    0.9310
   16.515    0.8561
   16.530    0.9631
   16.545    0.9845
   16.560    0.9738
   16.575    1.0273
   16.590    0.8775
   16.605    0.9417
   16.620    0.9203
   16.635    0.9845
   16.650    0.9310
   16.665    0.8240
   16.680    0.8668
   16.695    0.9096
   16.710    0.8347
   16.725    0.8347
   16.740    0.9203
   16.755    0.8989
   16.770    1.2413
   16.785    1.0059
   16.800    0.7919
   16.815    0.9310
   16.830    0.8989
   16.845    1.0059
   16.860    0.9952
   16.875    0.9952
   16.890    0.9631
   16.905    0.9096
   16.920    0.8668
   16.935    0.7919
   16.950    0.9203
   16.965    1.0594
   16.980    1.0487
   16.995    0.8561
   17.010    0.8454
   17.025    0.8668
   17.040    0.9524
   17.055    0.9310
   17.070    0.8026
   17.085    0.7919
   17.100    1.0166
   17.115    0.9845
   17.130    0.9845
   17.145    0.8240
   17.160    0.9096
   17.175    0.8454
   17.190    0.8989
   17.205    1.0059
   17.220    0.8989
   17.235    0.7170
   17.250    0.8454
   17.265    0.7277
   17.280    0.8668
   17.295    0.8240
   17.310    0.6956
   17.325    0.7063
   17.340    0.8882
   17.355    0.7919
   17.370    0.8240
   17.385    0.9631
   17.400    0.8026
   17.415    0.9096
   17.430    0.8668
   17.445    0.9310
   17.460    0.8347
   17.475    0.8882
   17.490    0.9845
   17.505    0.8454
   17.520    0.8026
   17.535    0.8347
   17.550    0.7384
   17.565    0.9310
   17.580    0.7705
   17.595    0.8989
   17.610    0.9845
   17.625    1.1557
   17.640    1.0701
   17.655    1.1343
   17.670    0.9738
   17.685    0.7919
   17.700    0.7919
   17.715    0.7812
   17.730    0.8882
   17.745    0.8668
   17.760    0.7705
   17.775    0.9096
   17.790    0.8347
   17.805    0.9310
   17.820    0.8240
   17.835    0.9417
   17.850    0.8882
   17.865    0.6956
   17.880    0.6742
   17.895    0.7812
   17.910    0.6421
   17.925    0.7384
   17.940    0.8026
   17.955    0.8668
   17.970    0.7384
   17.985    0.8561
   18.000    0.8561
   18.015    0.6849
   18.030    0.8240
   18.045    0.7919
   18.060    0.7277
   18.075    0.8347
   18.090    0.9524
   18.105    0.8775
   18.120    0.8668
   18.135    0.9096
   18.150    0.8454
   18.165    0.8240
   18.180    0.7705
   18.195    0.6742
   18.210    0.7598
   18.225    0.8775
   18.240    0.9203
   18.255    0.8133
   18.270    0.8133
   18.285    0.7277
   18.300    0.7170
   18.315    0.7705
   18.330    0.9631
   18.345    0.8026
   18.360    0.9203
   18.375    0.8668
   18.390    0.7491
   18.405    0.8240
   18.420    0.7812
   18.435    0.7277
   18.450    0.8133
   18.465    0.8454
   18.480    0.9952
   18.495    1.0166
   18.510    0.8347
   18.525    0.7277
   18.540    0.7705
   18.555    0.8133
   18.570    0.8347
   18.585    0.7384
   18.600    0.9096
   18.615    0.9524
   18.630    0.8882
   18.645    0.9524
   18.660    0.8561
   18.675    0.6956
   18.690    0.8240
   18.705    0.8561
   18.720    0.8454
   18.735    0.9524
   18.750    0.8775
   18.765    0.9524
   18.780    0.9845
   18.795    1.0701
   18.810    0.8989
   18.825    0.9417
   18.840    0.7277
   18.855    0.8561
   18.870    0.8240
   18.885    0.6314
   18.900    0.8882
   18.915    0.7812
   18.930    0.8240
   18.945    0.7919
   18.960    0.8347
   18.975    0.8347
   18.990    0.7491
   19.005    0.8133
   19.020    0.7384
   19.035    0.8668
   19.050    0.7812
   19.065    0.7812
   19.080    0.7277
   19.095    0.8668
   19.110    0.9310
   19.125    0.8240
   19.140    0.8454
   19.155    0.9631
   19.170    0.8561
   19.185    0.8026
   19.200    0.7384
   19.215    0.8668
   19.230    0.8882
   19.245    0.7919
   19.260    0.7705
   19.275    0.8775
   19.290    1.0487
   19.305    0.8668
   19.320    0.9417
   19.335    1.0487
   19.350    0.8668
   19.365    0.9203
   19.380    0.8240
   19.395    0.8347
   19.410    0.8347
   19.425    0.8240
   19.440    0.7705
   19.455    0.7277
   19.470    0.8026
   19.485    0.9203
   19.500    0.9524
   19.515    0.8668
   19.530    1.0380
   19.545    0.7384
   19.560    0.7384
   19.575    0.8668
   19.590    0.8133
   19.605    0.8668
   19.620    0.7491
   19.635    0.6849
   19.650    0.7812
   19.665    0.8133
   19.680    0.8882
   19.695    0.9417
   19.710    0.8775
   19.725    0.9845
   19.740    0.7919
   19.755    0.9417
   19.770    0.9524
   19.785    0.8882
   19.800    0.9203
   19.815    1.1557
   19.830    1.2413
   19.845    1.4446
   19.860    1.8834
   19.875    1.6586
   19.890    1.1878
   19.905    0.9738
   19.920    0.8775
   19.935    0.8240
   19.950    0.6742
   19.965    0.8882
   19.980    0.7705
   19.995    0.6314
   20.010    0.7812
   20.025    0.8775
   20.040    0.8240
   20.055    0.8561
   20.070    0.7598
   20.085    0.8668
   20.100    0.8668
   20.115    0.7598
   20.130    0.7491
   20.145    0.9203
   20.160    0.7812
   20.175    0.8668
   20.190    0.8668
   20.205    0.8561
   20.220    0.8668
   20.235    0.7384
   20.250    0.7919
   20.265    0.8668
   20.280    0.8561
   20.295    0.8240
   20.310    0.9096
   20.325    0.9524
   20.340    0.8775
   20.355    0.9738
   20.370    1.0701
   20.385    0.9524
   20.400    0.9952
   20.415    0.8775
   20.430    0.8240
   20.445    0.7063
   20.460    0.8454
   20.475    0.7491
   20.490    0.8347
   20.505    0.8347
   20.520    0.7919
   20.535    0.6849
   20.550    0.7812
   20.565    0.7598
   20.580    0.9524
   20.595    0.7812
   20.610    0.8347
   20.625    0.7705
   20.640    0.7170
   20.655    0.7170
   20.670    0.7919
   20.685    0.7063
   20.700    0.7491
   20.715    0.8347
   20.730    0.8454
   20.745    0.7812
   20.760    0.8026
   20.775    0.7812
   20.790    0.8561
   20.805    0.9096
   20.820    0.8347
   20.835    0.7063
   20.850    0.8561
   20.865    0.8561
   20.880    0.8668
   20.895    0.9738
   20.910    0.8989
   20.925    0.8133
   20.940    0.7705
   20.955    0.8668
   20.970    0.8989
   20.985    0.9096
   21.000    0.9203
   21.015    0.9631
   21.030    0.9738
   21.045    0.9417
   21.060    0.7170
   21.075    0.7705
   21.090    0.8454
   21.105    0.9417
   21.120    0.8347
   21.135    0.6849
   21.150    0.8240
   21.165    0.8454
   21.180    0.7812
   21.195    0.6742
   21.210    0.6956
   21.225    0.7384
   21.240    0.8561
   21.255    0.7491
   21.270    0.8240
   21.285    0.7384
   21.300    0.8133
   21.315    0.9524
   21.330    0.9417
   21.345    0.9738
   21.360    0.8347
   21.375    0.9845
   21.390    1.0273
   21.405    0.9310
   21.420    0.9631
   21.435    0.9524
   21.450    0.8989
   21.465    0.9417
   21.480    0.6849
   21.495    0.6635
   21.510    0.7384
   21.525    0.7491
   21.540    0.7598
   21.555    0.8240
   21.570    0.8775
   21.585    0.7491
   21.600    0.7277
   21.615    0.7384
   21.630    0.8561
   21.645    0.6635
   21.660    0.8133
   21.675    0.9203
   21.690    0.8775
   21.705    0.6956
   21.720    0.8454
   21.735    0.8133
   21.750    0.7277
   21.765    0.8026
   21.780    0.9096
   21.795    0.7919
   21.810    0.8989
   21.825    0.8454
   21.840    0.7919
   21.855    0.8775
   21.870    0.9096
   21.885    0.8668
   21.900    0.7812
   21.915    0.9631
   21.930    0.9096
   21.945    0.8668
   21.960    0.7063
   21.975    0.8026
   21.990    0.7919
   22.005    0.7063
   22.020    0.7812
   22.035    0.7705
   22.050    0.7812
   22.065    0.7170
   22.080    0.9631
   22.095    0.8668
   22.110    0.9310
   22.125    0.9203
   22.140    0.7491
   22.155    0.8454
   22.170    0.7598
   22.185    0.7277
   22.200    0.6956
   22.215    0.7384
   22.230    0.7170
   22.245    0.7384
   22.260    0.7384
   22.275    0.7063
   22.290    0.8240
   22.305    0.7277
   22.320    0.7919
   22.335    0.8668
   22.350    0.7277
   22.365    0.7491
   22.380    0.8668
   22.395    0.7598
   22.410    0.7491
   22.425    0.7705
   22.440    0.7063
   22.455    0.7277
   22.470    0.6956
   22.485    0.6528
   22.500    0.7170
   22.515    0.6421
   22.530    0.7384
   22.545    0.8561
   22.560    0.6742
   22.575    0.6849
   22.590    0.7063
   22.605    0.7170
   22.620    0.5993
   22.635    0.7277
   22.650    0.6849
   22.665    0.7063
   22.680    0.8454
   22.695    0.7919
   22.710    0.7491
   22.725    0.7384
   22.740    0.7277
   22.755    0.6849
   22.770    0.6100
   22.785    0.8561
   22.800    0.9417
   22.815    0.9952
   22.830    1.0166
   22.845    1.1022
   22.860    0.9738
   22.875    0.9203
   22.890    0.8026
   22.905    0.7919
   22.920    0.6635
   22.935    0.8026
   22.950    0.7705
   22.965    0.8454
   22.980    0.7277
   22.995    0.7170
   23.010    0.7812
   23.025    0.8240
   23.040    0.7384
   23.055    0.7277
   23.070    0.7491
   23.085    0.6956
   23.100    0.7812
   23.115    0.7598
   23.130    0.7812
   23.145    0.6849
   23.160    0.7812
   23.175    0.8347
   23.190    0.7812
   23.205    0.7705
   23.220    0.8026
   23.235    0.7598
   23.250    0.7277
   23.265    0.6742
   23.280    0.6635
   23.295    0.7384
   23.310    0.7919
   23.325    0.7491
   23.340    0.7170
   23.355    0.7063
   23.370    0.6956
   23.385    0.8561
   23.400    0.8026
   23.415    0.7277
   23.430    0.6314
   23.445    0.6421
   23.460    0.6849
   23.475    0.7277
   23.490    0.7598
   23.505    0.8133
   23.520    0.7063
   23.535    0.6849
   23.550    0.6421
   23.565    0.7277
   23.580    0.8026
   23.595    0.9096
   23.610    0.7277
   23.625    0.7384
   23.640    0.6956
   23.655    0.9310
   23.670    0.7384
   23.685    0.9203
   23.700    0.9845
   23.715    1.1664
   23.730    1.5516
   23.745    1.4446
   23.760    1.1664
   23.775    0.9096
   23.790    0.8454
   23.805    0.7705
   23.820    0.7812
   23.835    0.7598
   23.850    0.7919
   23.865    0.7063
   23.880    0.7063
   23.895    0.7491
   23.910    0.7384
   23.925    0.7170
   23.940    0.7598
   23.955    0.6421
   23.970    0.6956
   23.985    0.8668
   24.000    0.7277
   24.015    0.7598
   24.030    0.6421
   24.045    0.6849
   24.060    0.8026
   24.075    0.5564
   24.090    0.7491
   24.105    0.7919
   24.120    0.7063
   24.135    0.6207
   24.150    0.6956
   24.165    0.6207
   24.180    0.7170
   24.195    0.7812
   24.210    0.7384
   24.225    0.7705
   24.240    0.8561
   24.255    0.6528
   24.270    0.8133
   24.285    0.6849
   24.300    0.6314
   24.315    0.7170
   24.330    0.6635
   24.345    0.8026
   24.360    0.7170
   24.375    0.7277
   24.390    0.7063
   24.405    0.5778
   24.420    0.6314
   24.435    0.6528
   24.450    0.5886
   24.465    0.6314
   24.480    0.6100
   24.495    0.6635
   24.510    0.7277
   24.525    0.5993
   24.540    0.7812
   24.555    0.6421
   24.570    0.7063
   24.585    0.7170
   24.600    0.6314
   24.615    0.8347
   24.630    0.7491
   24.645    0.6849
   24.660    0.5457
   24.675    0.5993
   24.690    0.8026
   24.705    0.7812
   24.720    0.5886
   24.735    0.6528
   24.750    0.7491
   24.765    0.6421
   24.780    0.6314
   24.795    0.6528
   24.810    0.6528
   24.825    0.6849
   24.840    0.6528
   24.855    0.6528
   24.870    0.7812
   24.885    0.8240
   24.900    0.7170
   24.915    0.5993
   24.930    0.6849
   24.945    0.6849
   24.960    0.7384
   24.975    0.7063
   24.990    0.7063
   25.005    0.6849
   25.020    0.5778
   25.035    0.5993
   25.050    0.7277
   25.065    0.7598
   25.080    0.6742
   25.095    0.6421
   25.110    0.6956
   25.125    0.7598
   25.140    0.7812
   25.155    0.7491
   25.170    0.7598
   25.185    0.6100
   25.200    0.6528
   25.215    0.6528
   25.230    0.6956
   25.245    0.7170
   25.260    0.6635
   25.275    0.6849
   25.290    0.7170
   25.305    0.6314
   25.320    0.7384
   25.335    0.8026
   25.350    0.7598
   25.365    0.7277
   25.380    0.6528
   25.395    0.6742
   25.410    0.7277
   25.425    0.7491
   25.440    0.9310
   25.455    0.8561
   25.470    0.8668
   25.485    0.8989
   25.500    0.7919
   25.515    0.6421
   25.530    0.6635
   25.545    0.6421
   25.560    0.6528
   25.575    0.6421
   25.590    0.5457
   25.605    0.5671
   25.620    0.5993
   25.635    0.7277
   25.650    0.7598
   25.665    0.6528
   25.680    0.4922
   25.695    0.7384
   25.710    0.7170
   25.725    0.6528
   25.740    0.6956
   25.755    0.6207
   25.770    0.6528
   25.785    0.7063
   25.800    0.7598
   25.815    0.8133
   25.830    0.6956
   25.845    0.6528
   25.860    0.8454
   25.875    0.8775
   25.890    0.9845
   25.905    0.8668
   25.920    0.6849
   25.935    0.6421
   25.950    0.6100
   25.965    0.7063
   25.980    0.6314
   25.995    0.4173
   26.010    0.6742
   26.025    0.7170
   26.040    0.7384
   26.055    0.6849
   26.070    0.7384
   26.085    0.6956
   26.100    0.6528
   26.115    0.7491
   26.130    0.7277
   26.145    0.6956
   26.160    0.8026
   26.175    0.7812
   26.190    0.6314
   26.205    0.6421
   26.220    0.6314
   26.235    0.8454
   26.250    0.8454
   26.265    1.1664
   26.280    1.5730
   26.295    1.4339
   26.310    1.1343
   26.325    0.8561
   26.340    0.5993
   26.355    0.8133
   26.370    0.7705
   26.385    0.7063
   26.400    0.6635
   26.415    0.6100
   26.430    0.7705
   26.445    0.6635
   26.460    0.6635
   26.475    0.6849
   26.490    0.7277
   26.505    0.7384
   26.520    0.6100
   26.535    0.6314
   26.550    0.6742
   26.565    0.6421
   26.580    0.5457
   26.595    0.6100
   26.610    0.7491
   26.625    0.8347
   26.640    0.8454
   26.655    0.9631
   26.670    1.1343
   26.685    1.4553
   26.700    1.5409
   26.715    1.3697
   26.730    0.9203
   26.745    0.6956
   26.760    0.7063
   26.775    0.6635
   26.790    0.6528
   26.805    0.6421
   26.820    0.5886
   26.835    0.6207
   26.850    0.6635
   26.865    0.6421
   26.880    0.5886
   26.895    0.8133
   26.910    0.7384
   26.925    0.6421
   26.940    0.6421
   26.955    0.6528
   26.970    0.7812
   26.985    0.6956
   27.000    0.4601
   27.015    0.5243
   27.030    0.6635
   27.045    0.7705
   27.060    0.7384
   27.075    0.9096
   27.090    1.0166
   27.105    0.8347
   27.120    0.8026
   27.135    0.6314
   27.150    0.5457
   27.165    0.5886
   27.180    0.6849
   27.195    0.5564
   27.210    0.6956
   27.225    0.6956
   27.240    0.8454
   27.255    0.6742
   27.270    0.6207
   27.285    0.5243
   27.300    0.6314
   27.315    0.6742
   27.330    0.5993
   27.345    0.5671
   27.360    0.4708
   27.375    0.5564
   27.390    0.6849
   27.405    0.6956
   27.420    0.7491
   27.435    0.5671
   27.450    0.5778
   27.465    0.6100
   27.480    0.6635
   27.495    0.6849
   27.510    0.6421
   27.525    0.5671
   27.540    0.5778
   27.555    0.5029
   27.570    0.4922
   27.585    0.5029
   27.600    0.5136
   27.615    0.6314
   27.630    0.6100
   27.645    0.5886
   27.660    0.6956
   27.675    0.5671
   27.690    0.5029
   27.705    0.5350
   27.720    0.4815
   27.735    0.5029
   27.750    0.5243
   27.765    0.5457
   27.780    0.4601
   27.795    0.5778
   27.810    0.7063
   27.825    0.7491
   27.840    0.7491
   27.855    0.7812
   27.870    0.7491
   27.885    0.8026
   27.900    0.6635
   27.915    0.5136
   27.930    0.6314
   27.945    0.6421
   27.960    0.6635
   27.975    0.5457
   27.990    0.6207
   28.005    0.7063
   28.020    0.8240
   28.035    0.5993
   28.050    0.5029
   28.065    0.5564
   28.080    0.4708
   28.095    0.5993
   28.110    0.5886
   28.125    0.5886
   28.140    0.5243
   28.155    0.5886
   28.170    0.5993
   28.185    0.5886
   28.200    0.5886
   28.215    0.5778
   28.230    0.5564
   28.245    0.6528
   28.260    0.7491
   28.275    0.6100
   28.290    0.4815
   28.305    0.5029
   28.320    0.6207
   28.335    0.5029
   28.350    0.6314
   28.365    0.5993
   28.380    0.5457
   28.395    0.5243
   28.410    0.6207
   28.425    0.5778
   28.440    0.5350
   28.455    0.6742
   28.470    0.4708
   28.485    0.4922
   28.500    0.5564
   28.515    0.4815
   28.530    0.4815
   28.545    0.5564
   28.560    0.6956
   28.575    0.6207
   28.590    0.4601
   28.605    0.5886
   28.620    0.5564
   28.635    0.7170
   28.650    0.5993
   28.665    0.5993
   28.680    0.5886
   28.695    0.6314
   28.710    0.6314
   28.725    0.6100
   28.740    0.5671
   28.755    0.5029
   28.770    0.7063
   28.785    0.6314
   28.800    0.6421
   28.815    0.6314
   28.830    0.6528
   28.845    0.6207
   28.860    0.6100
   28.875    0.5029
   28.890    0.5993
   28.905    0.6100
   28.920    0.5350
   28.935    0.4815
   28.950    0.5671
   28.965    0.6849
   28.980    0.5993
   28.995    0.6528
   29.010    0.5886
   29.025    0.5886
   29.040    0.6207
   29.055    0.5350
   29.070    0.5457
   29.085    0.5350
   29.100    0.5350
   29.115    0.5886
   29.130    0.5243
   29.145    0.5350
   29.160    0.5350
   29.175    0.5886
   29.190    0.5993
   29.205    0.5671
   29.220    0.4815
   29.235    0.5457
   29.250    0.5886
   29.265    0.5457
   29.280    0.6314
   29.295    0.5350
   29.310    0.4922
   29.325    0.5457
   29.340    0.5886
   29.355    0.5457
   29.370    0.4922
   29.385    0.6635
   29.400    0.6956
   29.415    0.5029
   29.430    0.5136
   29.445    0.5350
   29.460    0.4601
   29.475    0.5564
   29.490    0.5029
   29.505    0.5243
   29.520    0.5029
   29.535    0.5243
   29.550    0.5778
   29.565    0.4815
   29.580    0.5457
   29.595    0.5029
   29.610    0.4815
   29.625    0.5457
   29.640    0.5136
   29.655    0.4815
   29.670    0.5564
   29.685    0.5778
   29.700    0.5564
   29.715    0.6314
   29.730    0.6849
   29.745    0.7170
   29.760    0.7384
   29.775    0.6314
   29.790    0.5457
   29.805    0.5457
   29.820    0.5671
   29.835    0.5243
   29.850    0.5243
   29.865    0.6100
   29.880    0.6421
   29.895    0.6421
   29.910    0.4922
   29.925    0.6100
   29.940    0.5136
   29.955    0.6421
   29.970    0.5136
   29.985    0.5243
   30.000    0.5029
   30.015    0.5029
   30.030    0.5671
   30.045    0.6207
   30.060    0.8026
   30.075    0.9845
   30.090    0.9631
   30.105    0.9845
   30.120    0.8133
   30.135    0.7705
   30.150    0.5350
   30.165    0.6207
   30.180    0.5671
   30.195    0.5993
   30.210    0.4815
   30.225    0.5029
   30.240    0.5564
   30.255    0.5564
   30.270    0.5029
   30.285    0.5029
   30.300    0.6207
   30.315    0.7277
   30.330    0.5671
   30.345    0.5457
   30.360    0.4708
   30.375    0.4494
   30.390    0.4708
   30.405    0.6207
   30.420    0.6528
   30.435    0.4922
   30.450    0.5993
   30.465    0.4494
   30.480    0.4601
   30.495    0.5671
   30.510    0.6100
   30.525    0.5671
   30.540    0.5029
   30.555    0.4387
   30.570    0.5457
   30.585    0.6100
   30.600    0.5350
   30.615    0.4922
   30.630    0.6100
   30.645    0.5136
   30.660    0.4601
   30.675    0.4387
   30.690    0.5564
   30.705    0.6314
   30.720    0.6956
   30.735    0.5243
   30.750    0.5136
   30.765    0.5778
   30.780    0.6635
   30.795    0.7277
   30.810    0.6207
   30.825    0.6314
   30.840    0.4708
   30.855    0.5029
   30.870    0.4387
   30.885    0.5029
   30.900    0.4173
   30.915    0.4601
   30.930    0.6207
   30.945    0.6207
   30.960    0.5243
   30.975    0.5564
   30.990    0.4708
   31.005    0.4601
   31.020    0.4922
   31.035    0.4601
   31.050    0.4387
   31.065    0.5029
   31.080    0.5243
   31.095    0.4708
   31.110    0.4173
   31.125    0.4173
   31.140    0.4494
   31.155    0.4601
   31.170    0.5243
   31.185    0.5886
   31.200    0.5029
   31.215    0.5350
   31.230    0.5778
   31.245    0.6956
   31.260    0.5671
   31.275    0.4708
   31.290    0.4708
   31.305    0.5457
   31.320    0.5564
   31.335    0.4601
   31.350    0.4922
   31.365    0.5243
   31.380    0.4387
   31.395    0.4708
   31.410    0.4387
   31.425    0.3959
   31.440    0.5029
   31.455    0.5136
   31.470    0.5243
   31.485    0.7277
   31.500    0.6421
   31.515    0.5886
   31.530    0.6100
   31.545    0.4387
   31.560    0.4280
   31.575    0.5350
   31.590    0.4922
   31.605    0.4387
   31.620    0.4387
   31.635    0.4922
   31.650    0.5564
   31.665    0.5350
   31.680    0.5029
   31.695    0.5243
   31.710    0.4280
   31.725    0.5136
   31.740    0.4494
   31.755    0.5350
   31.770    0.5029
   31.785    0.3959
   31.800    0.4494
   31.815    0.4387
   31.830    0.5993
   31.845    0.5243
   31.860    0.4922
   31.875    0.3745
   31.890    0.6207
   31.905    0.4708
   31.920    0.4173
   31.935    0.3852
   31.950    0.4066
   31.965    0.4494
   31.980    0.4708
   31.995    0.4601
   32.010    0.4494
   32.025    0.4280
   32.040    0.3959
   32.055    0.4387
   32.070    0.5136
   32.085    0.4494
   32.100    0.4494
   32.115    0.4494
   32.130    0.4708
   32.145    0.5243
   32.160    0.6849
   32.175    0.6635
   32.190    0.5671
   32.205    0.5243
   32.220    0.5350
   32.235    0.4601
   32.250    0.4494
   32.265    0.4387
   32.280    0.6528
   32.295    0.5457
   32.310    0.4494
   32.325    0.4280
   32.340    0.4280
   32.355    0.3424
   32.370    0.3959
   32.385    0.4066
   32.400    0.3959
   32.415    0.3959
   32.430    0.4280
   32.445    0.5457
   32.460    0.4280
   32.475    0.4922
   32.490    0.4708
   32.505    0.4922
   32.520    0.5243
   32.535    0.5778
   32.550    0.5243
   32.565    0.4280
   32.580    0.3852
   32.595    0.3103
   32.610    0.4280
   32.625    0.5029
   32.640    0.4173
   32.655    0.4494
   32.670    0.4922
   32.685    0.3424
   32.700    0.4601
   32.715    0.4066
   32.730    0.4922
   32.745    0.4815
   32.760    0.3210
   32.775    0.4708
   32.790    0.5457
   32.805    0.4922
   32.820    0.5671
   32.835    0.5993
   32.850    0.7919
   32.865    0.5778
   32.880    0.4494
   32.895    0.4708
   32.910    0.4708
   32.925    0.4066
   32.940    0.4387
   32.955    0.4601
   32.970    0.4815
   32.985    0.5457
   33.000    0.6207
   33.015    0.4708
   33.030    0.3210
   33.045    0.4601
   33.060    0.4494
   33.075    0.5029
   33.090    0.4815
   33.105    0.4173
   33.120    0.5136
   33.135    0.5136
   33.150    0.5136
   33.165    0.7384
   33.180    0.6421
   33.195    0.5778
   33.210    0.4815
   33.225    0.5564
   33.240    0.5243
   33.255    0.3638
   33.270    0.4387
   33.285    0.3745
   33.300    0.3959
   33.315    0.5671
   33.330    0.5886
   33.345    0.4387
   33.360    0.3745
   33.375    0.3852
   33.390    0.4387
   33.405    0.4708
   33.420    0.3959
   33.435    0.3852
   33.450    0.3852
   33.465    0.4601
   33.480    0.5671
   33.495    0.4815
   33.510    0.3852
   33.525    0.4708
   33.540    0.5993
   33.555    0.4494
   33.570    0.4173
   33.585    0.5136
   33.600    0.4601
   33.615    0.4494
   33.630    0.4815
   33.645    0.5457
   33.660    0.4815
   33.675    0.3959
   33.690    0.4173
   33.705    0.4494
   33.720    0.4708
   33.735    0.3745
   33.750    0.5243
   33.765    0.6635
   33.780    0.4601
   33.795    0.4815
   33.810    0.4815
   33.825    0.4494
   33.840    0.5564
   33.855    0.5671
   33.870    0.5564
   33.885    0.3959
   33.900    0.3638
   33.915    0.4601
   33.930    0.5671
   33.945    0.4494
   33.960    0.3959
   33.975    0.4815
   33.990    0.4173
   34.005    0.4387
   34.020    0.4601
   34.035    0.3638
   34.050    0.3531
   34.065    0.3638
   34.080    0.5243
   34.095    0.5778
   34.110    0.4815
   34.125    0.5029
   34.140    0.5671
   34.155    0.5886
   34.170    0.5029
   34.185    0.5350
   34.200    0.5350
   34.215    0.5029
   34.230    0.4708
   34.245    0.3638
   34.260    0.4066
   34.275    0.4280
   34.290    0.4387
   34.305    0.3638
   34.320    0.4387
   34.335    0.4708
   34.350    0.3103
   34.365    0.3638
   34.380    0.3959
   34.395    0.4387
   34.410    0.3852
   34.425    0.3638
   34.440    0.3638
   34.455    0.3531
   34.470    0.3103
   34.485    0.3745
   34.500    0.3638
   34.515    0.3638
   34.530    0.3317
   34.545    0.3638
   34.560    0.3959
   34.575    0.4708
   34.590    0.3959
   34.605    0.4815
   34.620    0.4387
   34.635    0.4280
   34.650    0.4173
   34.665    0.3638
   34.680    0.3638
   34.695    0.4494
   34.710    0.3959
   34.725    0.4280
   34.740    0.4494
   34.755    0.3745
   34.770    0.4601
   34.785    0.4173
   34.800    0.5243
   34.815    0.4494
   34.830    0.2889
   34.845    0.3424
   34.860    0.3210
   34.875    0.3531
   34.890    0.2889
   34.905    0.3317
   34.920    0.2675
   34.935    0.3531
   34.950    0.3638
   34.965    0.3531
   34.980    0.2461
   34.995    0.2568
   35.010    0.3531
   35.025    0.3210
   35.040    0.3531
   35.055    0.3531
   35.070    0.4494
   35.085    0.3745
   35.100    0.4708
   35.115    0.4173
   35.130    0.2996
   35.145    0.3745
   35.160    0.4601
   35.175    0.4066
   35.190    0.3317
   35.205    0.4066
   35.220    0.3210
   35.235    0.4387
   35.250    0.4922
   35.265    0.3531
   35.280    0.3317
   35.295    0.2889
   35.310    0.4601
   35.325    0.3638
   35.340    0.3638
   35.355    0.3103
   35.370    0.2247
   35.385    0.2996
   35.400    0.4815
   35.415    0.4387
   35.430    0.3638
   35.445    0.2782
   35.460    0.3852
   35.475    0.4173
   35.490    0.4173
   35.505    0.4173
   35.520    0.3103
   35.535    0.3852
   35.550    0.3745
   35.565    0.4173
   35.580    0.3531
   35.595    0.3638
   35.610    0.4066
   35.625    0.2889
   35.640    0.3317
   35.655    0.4601
   35.670    0.4815
   35.685    0.3638
   35.700    0.4280
   35.715    0.4280
   35.730    0.4601
   35.745    0.4601
   35.760    0.3531
   35.775    0.3103
   35.790    0.4494
   35.805    0.3959
   35.820    0.2996
   35.835    0.2782
   35.850    0.3210
   35.865    0.4280
   35.880    0.3745
   35.895    0.3424
   35.910    0.4387
   35.925    0.4494
   35.940    0.3852
   35.955    0.3959
   35.970    0.3103
   35.985    0.3638
   36.000    0.4066
   36.015    0.5029
   36.030    0.3959
   36.045    0.2889
   36.060    0.2996
   36.075    0.3745
   36.090    0.2889
   36.105    0.3424
   36.120    0.3103
   36.135    0.3424
   36.150    0.3531
   36.165    0.2247
   36.180    0.3852
   36.195    0.4387
   36.210    0.4173
   36.225    0.3959
   36.240    0.3531
   36.255    0.4280
   36.270    0.3531
   36.285    0.2461
   36.300    0.3745
   36.315    0.3424
   36.330    0.2782
   36.345    0.3531
   36.360    0.2568
   36.375    0.3638
   36.390    0.3959
   36.405    0.3210
   36.420    0.3317
   36.435    0.4280
   36.450    0.3852
   36.465    0.3317
   36.480    0.3103
   36.495    0.3210
   36.510    0.3424
   36.525    0.3745
   36.540    0.3103
   36.555    0.3424
   36.570    0.3210
   36.585    0.4173
   36.600    0.3638
   36.615    0.3103
   36.630    0.4494
   36.645    0.4922
   36.660    0.4815
   36.675    0.3210
   36.690    0.4066
   36.705    0.3210
   36.720    0.4173
   36.735    0.4387
   36.750    0.3210
   36.765    0.3210
   36.780    0.2675
   36.795    0.3317
   36.810    0.4815
   36.825    0.4173
   36.840    0.2996
   36.855    0.2782
   36.870    0.2782
   36.885    0.3317
   36.900    0.3424
   36.915    0.2996
   36.930    0.3638
   36.945    0.4708
   36.960    0.3531
   36.975    0.4601
   36.990    0.3103
   37.005    0.2140
   37.020    0.3317
   37.035    0.3531
   37.050    0.2889
   37.065    0.3103
   37.080    0.3638
   37.095    0.3745
   37.110    0.3103
   37.125    0.2889
   37.140    0.4387
   37.155    0.2568
   37.170    0.2889
   37.185    0.2889
   37.200    0.2996
   37.215    0.3745
   37.230    0.4601
   37.245    0.3959
   37.260    0.2996
   37.275    0.3852
   37.290    0.2782
   37.305    0.3210
   37.320    0.2461
   37.335    0.3317
   37.350    0.3317
   37.365    0.2889
   37.380    0.3745
   37.395    0.3424
   37.410    0.2996
   37.425    0.3210
   37.440    0.4494
   37.455    0.5136
   37.470    0.5457
   37.485    0.4387
   37.500    0.3638
   37.515    0.2889
   37.530    0.2568
   37.545    0.2247
   37.560    0.2782
   37.575    0.2782
   37.590    0.3317
   37.605    0.2782
   37.620    0.2354
   37.635    0.3424
   37.650    0.3210
   37.665    0.4066
   37.680    0.3852
   37.695    0.4066
   37.710    0.4494
   37.725    0.3852
   37.740    0.3424
   37.755    0.2140
   37.770    0.2247
   37.785    0.2568
   37.800    0.3531
   37.815    0.2782
   37.830    0.2889
   37.845    0.3317
   37.860    0.2996
   37.875    0.2889
   37.890    0.2354
   37.905    0.2889
   37.920    0.3103
   37.935    0.3424
   37.950    0.3424
   37.965    0.3317
   37.980    0.2568
   37.995    0.2568
   38.010    0.3638
   38.025    0.3103
   38.040    0.2782
   38.055    0.2461
   38.070    0.2996
   38.085    0.3638
   38.100    0.3103
   38.115    0.2568
   38.130    0.3103
   38.145    0.2782
   38.160    0.3210
   38.175    0.2996
   38.190    0.2996
   38.205    0.2782
   38.220    0.3103
   38.235    0.2889
   38.250    0.3103
   38.265    0.3103
   38.280    0.2568
   38.295    0.3210
   38.310    0.2782
   38.325    0.2782
   38.340    0.2568
   38.355    0.2461
   38.370    0.3531
   38.385    0.3745
   38.400    0.3210
   38.415    0.3745
   38.430    0.3638
   38.445    0.3638
   38.460    0.2461
   38.475    0.2568
   38.490    0.2675
   38.505    0.3103
   38.520    0.2675
   38.535    0.3317
   38.550    0.3531
   38.565    0.2889
   38.580    0.2996
   38.595    0.2568
   38.610    0.3103
   38.625    0.2782
   38.640    0.3210
   38.655    0.3959
   38.670    0.2568
   38.685    0.2996
   38.700    0.3424
   38.715    0.4387
   38.730    0.3103
   38.745    0.3531
   38.760    0.3424
   38.775    0.3317
   38.790    0.3210
   38.805    0.3103
   38.820    0.3103
   38.835    0.3103
   38.850    0.2675
   38.865    0.2033
   38.880    0.2782
   38.895    0.2568
   38.910    0.2354
   38.925    0.2461
   38.940    0.3424
   38.955    0.2889
   38.970    0.2782
   38.985    0.3317
   39.000    0.3210
   39.015    0.2568
   39.030    0.3852
   39.045    0.2782
   39.060    0.2675
   39.075    0.2568
   39.090    0.2889
   39.105    0.2675
   39.120    0.3424
   39.135    0.4066
   39.150    0.2675
   39.165    0.3424
   39.180    0.2889
   39.195    0.2140
   39.210    0.2140
   39.225    0.2568
   39.240    0.2782
   39.255    0.2782
   39.270    0.3531
   39.285    0.2354
   39.300    0.3424
   39.315    0.2247
   39.330    0.2568
   39.345    0.1819
   39.360    0.2675
   39.375    0.1070
   39.390    0.2675
   39.405    0.2889
   39.420    0.3103
   39.435    0.3103
   39.450    0.3959
   39.465    0.3638
   39.480    0.3424
   39.495    0.3531
   39.510    0.2889
   39.525    0.2889
   39.540    0.3852
   39.555    0.3852
   39.570    0.3852
   39.585    0.3959
   39.600    0.3959
   39.615    0.3852
   39.630    0.3210
   39.645    0.2996
   39.660    0.3852
   39.675    0.3959
   39.690    0.2140
   39.705    0.2354
   39.720    0.3317
   39.735    0.2675
   39.750    0.2675
   39.765    0.2675
   39.780    0.2354
   39.795    0.2889
   39.810    0.3317
   39.825    0.3317
   39.840    0.3638
   39.855    0.2782
   39.870    0.2782
   39.885    0.2782
   39.900    0.2568
   39.915    0.2996
   39.930    0.2782
   39.945    0.2782
   39.960    0.2568
   39.975    0.3103
   39.990    0.2033
