    1.500    2.1274
    1.515    2.0642
    1.530    2.1906
    1.545    2.3486
    1.560    2.1274
    1.575    2.1801
    1.590    2.4223
    1.605    2.3381
    1.620    2.4539
    1.635    2.1696
    1.650    2.2959
    1.665    2.5276
    1.680    2.6962
    1.695    2.7172
    1.710    2.5066
    1.725    2.4223
    1.740    2.7067
    1.755    2.4855
    1.770    2.6751
    1.785    2.4118
    1.800    2.4539
    1.815    2.8225
    1.830    2.8963
    1.845    2.7067
    1.860    2.8857
    1.875    2.8963
    1.890    2.6224
    1.905    2.5276
    1.920    2.6751
    1.935    3.1490
    1.950    2.7699
    1.965    2.7699
    1.980    2.7278
    1.995    2.7909
    2.010    2.8647
    2.025    2.9173
    2.040    2.7593
    2.055    2.7909
    2.070    2.8647
    2.085    2.5803
    2.100    2.9279
    2.115    3.0437
    2.130    2.7488
    2.145    2.9384
    2.160    2.8963
    2.175    3.0121
    2.190    3.1280
    2.205    3.0437
    2.220    3.0226
    2.235    3.1385
    2.250    3.2017
    2.265    3.1280
    2.280    3.1806
    2.295    3.0648
    2.310    2.9595
    2.325    3.0437
    2.340    3.0016
    2.355    2.9595
    2.370    3.0648
    2.385    3.0332
    2.400    2.9805
    2.415    3.0753
    2.430    3.0542
    2.445    2.9700
    2.460    2.9384
    2.475    3.1701
    2.490    3.1280
    2.505    3.1701
    2.520    2.8436
    2.535    3.1385
    2.550    3.2754
    2.565    3.0121
    2.580    3.2438
    2.595    3.2649
    2.610    3.2649
    2.625    3.2649
    2.640    3.2543
    2.655    3.1280
    2.670    3.4229
    2.685    3.1701
    2.700    3.2543
    2.715    3.3913
    2.730    3.3175
    2.745    3.2543
    2.760    3.4123
    2.775    3.4334
    2.790    3.2649
    2.805    3.2122
    2.820    3.2543
    2.835    3.4229
    2.850    3.1806
    2.865    3.1490
    2.880    3.3807
    2.895    3.2859
    2.910    3.0016
    2.925    3.0964
    2.940    3.1701
    2.955    3.4123
    2.970    3.5071
    2.985    3.4439
    3.000    3.3175
    3.015    3.1596
    3.030    3.4018
    3.045    3.5071
    3.060    3.4544
    3.075    3.4755
    3.090    3.1280
    3.105    3.5176
    3.120    3.3597
    3.135    3.6651
    3.150    3.4650
    3.165    3.5492
    3.180    3.4650
    3.195    3.3913
    3.210    3.3702
    3.225    3.3807
    3.240    3.5914
    3.255    3.5282
    3.270    3.4544
    3.285    3.3702
    3.300    3.2543
    3.315    3.5914
    3.330    3.4650
    3.345    3.4229
    3.360    3.4123
    3.375    3.5808
    3.390    3.5071
    3.405    3.4544
    3.420    3.2227
    3.435    3.2965
    3.450    3.6862
    3.465    3.4966
    3.480    3.5703
    3.495    3.4544
    3.510    3.5598
    3.525    3.3913
    3.540    3.4229
    3.555    3.6546
    3.570    3.5071
    3.585    3.1701
    3.600    3.3386
    3.615    3.6124
    3.630    3.6440
    3.645    3.7388
    3.660    3.4860
    3.675    3.3913
    3.690    3.7072
    3.705    3.4334
    3.720    3.4755
    3.735    3.6230
    3.750    3.6124
    3.765    3.8231
    3.780    3.6967
    3.795    3.4755
    3.810    3.8336
    3.825    3.4966
    3.840    3.5598
    3.855    3.4966
    3.870    3.3702
    3.885    3.2965
    3.900    3.7177
    3.915    3.6440
    3.930    3.6019
    3.945    3.8020
    3.960    3.5598
    3.975    3.6967
    3.990    3.6651
    4.005    3.3281
    4.020    3.5071
    4.035    3.5808
    4.050    3.5598
    4.065    3.6124
    4.080    3.5808
    4.095    3.7493
    4.110    3.5176
    4.125    3.7388
    4.140    3.7177
    4.155    3.3070
    4.170    3.7283
    4.185    3.6651
    4.200    3.8125
    4.215    3.6546
    4.230    3.5071
    4.245    3.4650
    4.260    3.5808
    4.275    3.9179
    4.290    3.6124
    4.305    3.6230
    4.320    3.4123
    4.335    3.7915
    4.350    3.7283
    4.365    3.6019
    4.380    3.8020
    4.395    3.5914
    4.410    3.5492
    4.425    3.5703
    4.440    3.6335
    4.455    3.4650
    4.470    3.3597
    4.485    3.3702
    4.500    3.6335
    4.515    3.7177
    4.530    3.8231
    4.545    4.0969
    4.560    3.6440
    4.575    3.7809
    4.590    3.7388
    4.605    3.4229
    4.620    3.8441
    4.635    3.8020
    4.650    3.7599
    4.665    3.8125
    4.680    3.7072
    4.695    3.6230
    4.710    3.6967
    4.725    3.6230
    4.740    3.8336
    4.755    3.8863
    4.770    3.6440
    4.785    3.5492
    4.800    3.6440
    4.815    3.8020
    4.830    3.6756
    4.845    3.7915
    4.860    3.7388
    4.875    3.6124
    4.890    3.7177
    4.905    3.6967
    4.920    3.7177
    4.935    3.4334
    4.950    3.4544
    4.965    3.5282
    4.980    3.5282
    4.995    3.5598
    5.010    3.4018
    5.025    3.4860
    5.040    3.6651
    5.055    3.5387
    5.070    3.7388
    5.085    3.7809
    5.100    3.7072
    5.115    3.6440
    5.130    3.5071
    5.145    3.5071
    5.160    3.7809
    5.175    3.6967
    5.190    3.6335
    5.205    3.6230
    5.220    3.6124
    5.235    3.6440
    5.250    3.8336
    5.265    3.5914
    5.280    3.5808
    5.295    3.6651
    5.310    3.7072
    5.325    3.7599
    5.340    3.9600
    5.355    4.1601
    5.370    3.7072
    5.385    3.4544
    5.400    3.6124
    5.415    3.6335
    5.430    3.8441
    5.445    3.7072
    5.460    3.6862
    5.475    3.6019
    5.490    3.7599
    5.505    3.6756
    5.520    3.6967
    5.535    3.8020
    5.550    3.8968
    5.565    3.8547
    5.580    3.9073
    5.595    3.7283
    5.610    3.6019
    5.625    3.5492
    5.640    3.7177
    5.655    4.0021
    5.670    3.4966
    5.685    3.3386
    5.700    3.4650
    5.715    3.6651
    5.730    3.8968
    5.745    3.4966
    5.760    3.7283
    5.775    3.5387
    5.790    3.3597
    5.805    3.6230
    5.820    3.9073
    5.835    3.6546
    5.850    4.0864
    5.865    3.7388
    5.880    3.4860
    5.895    3.6440
    5.910    3.9073
    5.925    3.5914
    5.940    3.5492
    5.955    3.6230
    5.970    3.7493
    5.985    3.6230
    6.000    3.5598
    6.015    3.4229
    6.030    3.6862
    6.045    3.8020
    6.060    3.7915
    6.075    3.9073
    6.090    3.8336
    6.105    3.4755
    6.120    3.4018
    6.135    3.7809
    6.150    3.4650
    6.165    3.7493
    6.180    3.6651
    6.195    3.6546
    6.210    3.5598
    6.225    3.9600
    6.240    3.7072
    6.255    3.8863
    6.270    3.8231
    6.285    3.8125
    6.300    3.9705
    6.315    3.9494
    6.330    3.8863
    6.345    3.6440
    6.360    4.0653
    6.375    3.7283
    6.390    3.7599
    6.405    3.5282
    6.420    3.3913
    6.435    3.8652
    6.450    3.4966
    6.465    3.6756
    6.480    3.9494
    6.495    3.7704
    6.510    3.7072
    6.525    3.7704
    6.540    3.9073
    6.555    3.8336
    6.570    3.7072
    6.585    3.7704
    6.600    3.4650
    6.615    3.9073
    6.630    3.8125
    6.645    3.7072
    6.660    3.8125
    6.675    3.5492
    6.690    3.8125
    6.705    3.5387
    6.720    3.4650
    6.735    3.7493
    6.750    3.7704
    6.765    3.8336
    6.780    3.6967
    6.795    3.5176
    6.810    3.6546
    6.825    3.5808
    6.840    3.8547
    6.855    3.5914
    6.870    3.4650
    6.885    3.5808
    6.900    3.9073
    6.915    3.8125
    6.930    3.5176
    6.945    3.8020
    6.960    3.4755
    6.975    3.4755
    6.990    3.4334
    7.005    3.5071
    7.020    3.7915
    7.035    3.6756
    7.050    3.4860
    7.065    3.6651
    7.080    3.6756
    7.095    3.7177
    7.110    3.9179
    7.125    3.9705
    7.140    3.7599
    7.155    3.6440
    7.170    3.5387
    7.185    3.7599
    7.200    3.5914
    7.215    3.8547
    7.230    3.8231
    7.245    3.8125
    7.260    3.7704
    7.275    3.8336
    7.290    3.6230
    7.305    3.7177
    7.320    3.5598
    7.335    3.6651
    7.350    3.6230
    7.365    3.7177
    7.380    3.8441
    7.395    3.5598
    7.410    3.6230
    7.425    3.4018
    7.440    3.5282
    7.455    3.6546
    7.470    3.6967
    7.485    3.7072
    7.500    3.5071
    7.515    3.4650
    7.530    3.5598
    7.545    3.8652
    7.560    3.6651
    7.575    4.1390
    7.590    3.7493
    7.605    3.6967
    7.620    3.6019
    7.635    3.7072
    7.650    3.7704
    7.665    3.6440
    7.680    3.6440
    7.695    3.8020
    7.710    3.5387
    7.725    3.6651
    7.740    3.5071
    7.755    3.6440
    7.770    3.7704
    7.785    3.6124
    7.800    3.5071
    7.815    3.6546
    7.830    3.5703
    7.845    3.6019
    7.860    3.5492
    7.875    3.5914
    7.890    3.5914
    7.905    3.5808
    7.920    3.6967
    7.935    3.6967
    7.950    3.5703
    7.965    3.3702
    7.980    3.8020
    7.995    3.3597
    8.010    3.5492
    8.025    3.5914
    8.040    3.6546
    8.055    3.7177
    8.070    3.8441
    8.085    3.6862
    8.100    3.5808
    8.115    3.6967
    8.130    3.5176
    8.145    3.6967
    8.160    3.8757
    8.175    3.7177
    8.190    3.4229
    8.205    3.3702
    8.220    3.5914
    8.235    3.7809
    8.250    3.7493
    8.265    3.6862
    8.280    3.2754
    8.295    3.5176
    8.310    3.6546
    8.325    3.6019
    8.340    3.4650
    8.355    3.5387
    8.370    3.7599
    8.385    3.9389
    8.400    3.6651
    8.415    3.4860
    8.430    3.5387
    8.445    3.6019
    8.460    3.8231
    8.475    3.5492
    8.490    3.5176
    8.505    3.8020
    8.520    3.8231
    8.535    3.5282
    8.550    3.6230
    8.565    3.5387
    8.580    3.3913
    8.595    3.7388
    8.610    3.6335
    8.625    3.4966
    8.640    3.4650
    8.655    3.4229
    8.670    3.6756
    8.685    3.7493
    8.700    3.4544
    8.715    3.7599
    8.730    3.5598
    8.745    3.4439
    8.760    3.5492
    8.775    3.5282
    8.790    3.6756
    8.805    3.5071
    8.820    3.6124
    8.835    3.5808
    8.850    3.6651
    8.865    3.7388
    8.880    3.5598
    8.895    3.6546
    8.910    3.6124
    8.925    3.6651
    8.940    3.6230
    8.955    3.4966
    8.970    3.3597
    8.985    3.6546
    9.000    3.4544
    9.015    3.8125
    9.030    3.4966
    9.045    3.7283
    9.060    3.6124
    9.075    3.4860
    9.090    3.7599
    9.105    3.5282
    9.120    3.6546
    9.135    3.5914
    9.150    3.5387
    9.165    3.4439
    9.180    3.6230
    9.195    3.4966
    9.210    3.4650
    9.225    3.5282
    9.240    3.5808
    9.255    3.4544
    9.270    3.2965
    9.285    3.4544
    9.300    3.4755
    9.315    3.4229
    9.330    3.5492
    9.345    3.5703
    9.360    3.6967
    9.375    3.5387
    9.390    3.5914
    9.405    3.5703
    9.420    3.3913
    9.435    3.3807
    9.450    3.6651
    9.465    3.6756
    9.480    3.7599
    9.495    4.0653
    9.510    3.6124
    9.525    3.2649
    9.540    3.4860
    9.555    3.6862
    9.570    3.3491
    9.585    3.5703
    9.600    3.5703
    9.615    3.3702
    9.630    3.5914
    9.645    3.5176
    9.660    3.4018
    9.675    3.4755
    9.690    3.3702
    9.705    3.5492
    9.720    3.6862
    9.735    3.6546
    9.750    3.4229
    9.765    3.5387
    9.780    3.3281
    9.795    3.1385
    9.810    3.2754
    9.825    3.5598
    9.840    3.6546
    9.855    3.4544
    9.870    3.3597
    9.885    3.5387
    9.900    3.6967
    9.915    3.5387
    9.930    3.4229
    9.945    3.3491
    9.960    3.4544
    9.975    3.4544
    9.990    3.4650
   10.005    3.4755
   10.020    3.3597
   10.035    3.1490
   10.050    3.4334
   10.065    3.0437
   10.080    3.3491
   10.095    3.4018
   10.110    3.4123
   10.125    3.7915
   10.140    3.3281
   10.155    3.5914
   10.170    3.2438
   10.185    3.3913
   10.200    3.3597
   10.215    3.2754
   10.230    3.4123
   10.245    3.4439
   10.260    3.3281
   10.275    3.5598
   10.290    3.2649
   10.305    3.2017
   10.320    3.4229
   10.335    3.3807
   10.350    3.4018
   10.365    3.5387
   10.380    3.3175
   10.395    3.3386
   10.410    3.3597
   10.425    3.3597
   10.440    3.4334
   10.455    3.2227
   10.470    3.3913
   10.485    3.3386
   10.500    3.6546
   10.515    3.5703
   10.530    3.5598
   10.545    3.2122
   10.560    3.3491
   10.575    3.5071
   10.590    3.6862
   10.605    3.5808
   10.620    3.3597
   10.635    3.0437
   10.650    3.2122
   10.665    3.3913
   10.680    3.3070
   10.695    3.3491
   10.710    3.4229
   10.725    3.2227
   10.740    3.4544
   10.755    3.6862
   10.770    3.2122
   10.785    3.1912
   10.800    3.3386
   10.815    3.4018
   10.830    3.4755
   10.845    3.3913
   10.860    3.3807
   10.875    3.1280
   10.890    3.2859
   10.905    3.2965
   10.920    3.3281
   10.935    3.3175
   10.950    3.1806
   10.965    3.3702
   10.980    3.4334
   10.995    3.4439
   11.010    3.4860
   11.025    3.3175
   11.040    3.4650
   11.055    3.4860
   11.070    3.2859
   11.085    3.0753
   11.100    3.4018
   11.115    3.5176
   11.130    3.2438
   11.145    3.0648
   11.160    3.3491
   11.175    3.3702
   11.190    3.4650
   11.205    3.1806
   11.220    3.4018
   11.235    3.3597
   11.250    3.2965
   11.265    3.5176
   11.280    3.3281
   11.295    3.4123
   11.310    3.3175
   11.325    3.6440
   11.340    3.4966
   11.355    3.3175
   11.370    3.2438
   11.385    3.2859
   11.400    3.0964
   11.415    3.0858
   11.430    3.1490
   11.445    3.2754
   11.460    2.9595
   11.475    3.1701
   11.490    3.1280
   11.505    3.5071
   11.520    3.4860
   11.535    3.2754
   11.550    3.3702
   11.565    3.5071
   11.580    3.2965
   11.595    3.1912
   11.610    3.3175
   11.625    3.1174
   11.640    3.3386
   11.655    3.3807
   11.670    3.1806
   11.685    3.2543
   11.700    3.0226
   11.715    3.0753
   11.730    3.2754
   11.745    3.2438
   11.760    3.4860
   11.775    3.3070
   11.790    3.1912
   11.805    3.1596
   11.820    3.2649
   11.835    3.1701
   11.850    3.3175
   11.865    3.2859
   11.880    3.3386
   11.895    3.3491
   11.910    3.0648
   11.925    3.1385
   11.940    3.3070
   11.955    3.3491
   11.970    3.2333
   11.985    3.2649
   12.000    3.1280
   12.015    2.9910
   12.030    3.2649
   12.045    3.1596
   12.060    3.0121
   12.075    2.8752
   12.090    2.9595
   12.105    3.1912
   12.120    3.0964
   12.135    2.9910
   12.150    3.2965
   12.165    3.1069
   12.180    3.2438
   12.195    3.2227
   12.210    3.1280
   12.225    3.4650
   12.240    3.5071
   12.255    3.1490
   12.270    3.1806
   12.285    3.0437
   12.300    3.3913
   12.315    3.3807
   12.330    3.5282
   12.345    3.1806
   12.360    3.1385
   12.375    3.4123
   12.390    3.2649
   12.405    3.1069
   12.420    3.5282
   12.435    3.4229
   12.450    3.2543
   12.465    3.1912
   12.480    3.0648
   12.495    3.0437
   12.510    3.2649
   12.525    3.2227
   12.540    3.2859
   12.555    2.8647
   12.570    2.8963
   12.585    3.0016
   12.600    3.3070
   12.615    3.0753
   12.630    3.0121
   12.645    3.1701
   12.660    3.2965
   12.675    3.1174
   12.690    3.1596
   12.705    2.8015
   12.720    2.9700
   12.735    3.2227
   12.750    3.1701
   12.765    3.0332
   12.780    3.1280
   12.795    3.3070
   12.810    3.1490
   12.825    3.2965
   12.840    3.2649
   12.855    3.0332
   12.870    3.1174
   12.885    3.3597
   12.900    3.4544
   12.915    3.2859
   12.930    3.2438
   12.945    2.9595
   12.960    3.0121
   12.975    2.8436
   12.990    3.0121
   13.005    3.1385
   13.020    2.8963
   13.035    3.1385
   13.050    3.2227
   13.065    3.2859
   13.080    3.0226
   13.095    3.1069
   13.110    2.8963
   13.125    3.1069
   13.140    3.0648
   13.155    3.1385
   13.170    3.0648
   13.185    3.0437
   13.200    3.0016
   13.215    2.9910
   13.230    3.0753
   13.245    2.8436
   13.260    3.2754
   13.275    3.0121
   13.290    2.8963
   13.305    2.9489
   13.320    3.1912
   13.335    3.0016
   13.350    3.2438
   13.365    3.0016
   13.380    3.0437
   13.395    3.3491
   13.410    3.0542
   13.425    3.1174
   13.440    3.0858
   13.455    3.1069
   13.470    3.2227
   13.485    2.8541
   13.500    3.1912
   13.515    3.1069
   13.530    2.8120
   13.545    3.1174
   13.560    3.0016
   13.575    3.0121
   13.590    3.1596
   13.605    3.0648
   13.620    2.9700
   13.635    3.1912
   13.650    3.0648
   13.665    2.9700
   13.680    2.9910
   13.695    3.0858
   13.710    3.0648
   13.725    3.0332
   13.740    3.0858
   13.755    2.9595
   13.770    3.0964
   13.785    2.9384
   13.800    3.1069
   13.815    3.0121
   13.830    2.9489
   13.845    3.0226
   13.860    3.0648
   13.875    3.0542
   13.890    2.9805
   13.905    2.8963
   13.920    3.1174
   13.935    2.9700
   13.950    2.7699
   13.965    3.0016
   13.980    2.8857
   13.995    2.8541
   14.010    3.2754
   14.025    2.8331
   14.040    3.0016
   14.055    2.8331
   14.070    2.8120
   14.085    2.8015
   14.100    3.1280
   14.115    2.7593
   14.130    2.8647
   14.145    2.8120
   14.160    2.7909
   14.175    2.8647
   14.190    3.0016
   14.205    2.8963
   14.220    3.2965
   14.235    3.1806
   14.250    2.8331
   14.265    3.1490
   14.280    2.8225
   14.295    3.1806
   14.310    2.9384
   14.325    2.8541
   14.340    2.9068
   14.355    2.8225
   14.370    2.6751
   14.385    2.4961
   14.400    2.7909
   14.415    2.8857
   14.430    3.1912
   14.445    3.0964
   14.460    2.9173
   14.475    2.9700
   14.490    2.9068
   14.505    2.8331
   14.520    2.8331
   14.535    2.9384
   14.550    2.9068
   14.565    3.0753
   14.580    2.7278
   14.595    2.9805
   14.610    3.1806
   14.625    3.1596
   14.640    2.9173
   14.655    2.8752
   14.670    2.8541
   14.685    3.0016
   14.700    2.8541
   14.715    2.8015
   14.730    2.7172
   14.745    2.9700
   14.760    2.9384
   14.775    2.8541
   14.790    2.9384
   14.805    2.9489
   14.820    2.7172
   14.835    2.6330
   14.850    2.6751
   14.865    2.6962
   14.880    2.7383
   14.895    2.6856
   14.910    2.7067
   14.925    2.6856
   14.940    2.8752
   14.955    2.8120
   14.970    2.8541
   14.985    2.9489
   15.000    2.7172
   15.015    2.6330
   15.030    2.7278
   15.045    2.8963
   15.060    2.5698
   15.075    2.8541
   15.090    2.9279
   15.105    2.7172
   15.120    2.7067
   15.135    2.9279
   15.150    2.8120
   15.165    3.0332
   15.180    2.6751
   15.195    2.6751
   15.210    2.6224
   15.225    2.9595
   15.240    2.8541
   15.255    2.9279
   15.270    2.8857
   15.285    2.5592
   15.300    2.9173
   15.315    3.0332
   15.330    3.1701
   15.345    2.8752
   15.360    2.8331
   15.375    2.7383
   15.390    2.7278
   15.405    2.6330
   15.420    2.8752
   15.435    2.4539
   15.450    2.6435
   15.465    2.5698
   15.480    2.7067
   15.495    2.4223
   15.510    2.7172
   15.525    2.7488
   15.540    2.8436
   15.555    2.7699
   15.570    2.9595
   15.585    2.8857
   15.600    2.9489
   15.615    2.8963
   15.630    2.6856
   15.645    2.6856
   15.660    2.6962
   15.675    2.5698
   15.690    2.6014
   15.705    2.9279
   15.720    2.7909
   15.735    2.7278
   15.750    2.9068
   15.765    2.6435
   15.780    2.6751
   15.795    2.7593
   15.810    2.6119
   15.825    2.6962
   15.840    2.7278
   15.855    2.5803
   15.870    2.9700
   15.885    2.8225
   15.900    2.7278
   15.915    2.6962
   15.930    2.5803
   15.945    2.8436
   15.960    2.7488
   15.975    2.5066
   15.990    2.5382
   16.005    2.5382
   16.020    2.5171
   16.035    2.4961
   16.050    2.8436
   16.065    2.6856
   16.080    2.5171
   16.095    2.4961
   16.110    2.2012
   16.125    2.5592
   16.140    2.6330
   16.155    2.6962
   16.170    2.7383
   16.185    2.8647
   16.200    2.9910
   16.215    2.9068
   16.230    2.5487
   16.245    2.5698
   16.260    2.4961
   16.275    2.4539
   16.290    2.8541
   16.305    2.8225
   16.320    2.8015
   16.335    3.1069
   16.350    2.8120
   16.365    2.6119
   16.380    2.5908
   16.395    2.5382
   16.410    2.6962
   16.425    2.4329
   16.440    2.4223
   16.455    2.4434
   16.470    2.5592
   16.485    2.5066
   16.500    2.5698
   16.515    2.7172
   16.530    2.4329
   16.545    2.4329
   16.560    2.4645
   16.575    2.6224
   16.590    2.7488
   16.605    2.6330
   16.620    2.3591
   16.635    2.7067
   16.650    2.6224
   16.665    2.6751
   16.680    2.6540
   16.695    2.5066
   16.710    2.6646
   16.725    2.3697
   16.740    2.5382
   16.755    2.4645
   16.770    2.6435
   16.785    2.6014
   16.800    2.5382
   16.815    2.6962
   16.830    2.6435
   16.845    2.5171
   16.860    2.7383
   16.875    2.5908
   16.890    2.5803
   16.905    2.5803
   16.920    2.4118
   16.935    2.3907
   16.950    2.4118
   16.965    2.5592
   16.980    2.7278
   16.995    2.6962
   17.010    2.4750
   17.025    2.5276
   17.040    2.6014
   17.055    2.6962
   17.070    2.6540
   17.085    2.5171
   17.100    2.7067
   17.115    2.5908
   17.130    2.4223
   17.145    2.6646
   17.160    2.5487
   17.175    2.2433
   17.190    2.5171
   17.205    2.5276
   17.220    2.4539
   17.235    2.4329
   17.250    2.2222
   17.265    2.4223
   17.280    2.4013
   17.295    2.5487
   17.310    2.5592
   17.325    2.5066
   17.340    2.5171
   17.355    2.2643
   17.370    2.5171
   17.385    2.5592
   17.400    2.4750
   17.415    2.5803
   17.430    2.4329
   17.445    2.4118
   17.460    2.4434
   17.475    2.4223
   17.490    2.5487
   17.505    2.7383
   17.520    2.6751
   17.535    2.3591
   17.550    2.4539
   17.565    2.3802
   17.580    2.3065
   17.595    2.3802
   17.610    2.5171
   17.625    2.3065
   17.640    2.5066
   17.655    2.5698
   17.670    2.3907
   17.685    2.5171
   17.700    2.5276
   17.715    2.5487
   17.730    2.5276
   17.745    2.3907
   17.760    2.5803
   17.775    2.1380
   17.790    2.3486
   17.805    2.2749
   17.820    2.4118
   17.835    2.5171
   17.850    2.7593
   17.865    2.4434
   17.880    2.5382
   17.895    2.2749
   17.910    2.4118
   17.925    2.4750
   17.940    2.5171
   17.955    2.3907
   17.970    2.4961
   17.985    2.3907
   18.000    2.3275
   18.015    2.5698
   18.030    2.3381
   18.045    2.3275
   18.060    2.5382
   18.075    2.3065
   18.090    2.2012
   18.105    2.5066
   18.120    2.2433
   18.135    2.4961
   18.150    2.4013
   18.165    2.3486
   18.180    2.1696
   18.195    2.2854
   18.210    2.2328
   18.225    2.5276
   18.240    2.5066
   18.255    2.2749
   18.270    2.2117
   18.285    2.2433
   18.300    2.1590
   18.315    2.2854
   18.330    2.4118
   18.345    2.3697
   18.360    2.5066
   18.375    2.3591
   18.390    2.4118
   18.405    2.4013
   18.420    2.2538
   18.435    2.2643
   18.450    2.1380
   18.465    2.0537
   18.480    2.2328
   18.495    2.3802
   18.510    2.3802
   18.525    2.3591
   18.540    2.2854
   18.555    2.1801
   18.570    2.2012
   18.585    2.3802
   18.600    2.5066
   18.615    2.5171
   18.630    2.3275
   18.645    2.3275
   18.660    2.4013
   18.675    2.5487
   18.690    2.3065
   18.705    2.2117
   18.720    2.2538
   18.735    2.2012
   18.750    2.1590
   18.765    2.3802
   18.780    2.0748
   18.795    1.9484
   18.810    2.0958
   18.825    2.3802
   18.840    2.2959
   18.855    1.9695
   18.870    2.2643
   18.885    2.1064
   18.900    2.2643
   18.915    2.2749
   18.930    2.0326
   18.945    2.0748
   18.960    2.1169
   18.975    2.3486
   18.990    2.2749
   19.005    2.3486
   19.020    2.2959
   19.035    2.4329
   19.050    2.4329
   19.065    2.1801
   19.080    2.1380
   19.095    2.1906
   19.110    2.3802
   19.125    2.3486
   19.140    2.2749
   19.155    2.1696
   19.170    2.2328
   19.185    2.2433
   19.200    2.3170
   19.215    2.0958
   19.230    2.1380
   19.245    2.2328
   19.260    2.3381
   19.275    2.3486
   19.290    2.3170
   19.305    2.2959
   19.320    2.3486
   19.335    2.3802
   19.350    2.2854
   19.365    2.1274
   19.380    2.2854
   19.395    2.4539
   19.410    2.2854
   19.425    2.2012
   19.440    2.1590
   19.455    2.2117
   19.470    2.3170
   19.485    2.2012
   19.500    2.0221
   19.515    2.1274
   19.530    2.0011
   19.545    2.0853
   19.560    2.0958
   19.575    2.3275
   19.590    2.3065
   19.605    2.1380
   19.620    2.3381
   19.635    2.0116
   19.650    2.0958
   19.665    1.9800
   19.680    2.0537
   19.695    2.1696
   19.710    2.1906
   19.725    1.7694
   19.740    1.9905
   19.755    2.3486
   19.770    2.2012
   19.785    2.1274
   19.800    2.2117
   19.815    2.0116
   19.830    2.0537
   19.845    2.2328
   19.860    2.1696
   19.875    2.1485
   19.890    2.0116
   19.905    1.7799
   19.920    2.0537
   19.935    2.1590
   19.950    1.9484
   19.965    2.3170
   19.980    2.1485
   19.995    2.0116
   20.010    2.1906
   20.025    2.0011
   20.040    2.2328
   20.055    2.1169
   20.070    2.1485
   20.085    2.1590
   20.100    2.2643
   20.115    1.9273
   20.130    2.0642
   20.145    2.0958
   20.160    2.0748
   20.175    2.2433
   20.190    2.2538
   20.205    2.3381
   20.220    2.1274
   20.235    2.0958
   20.250    2.0853
   20.265    2.1590
   20.280    2.1590
   20.295    2.1064
   20.310    2.1590
   20.325    2.0642
   20.340    2.2222
   20.355    2.0853
   20.370    2.2328
   20.385    1.9484
   20.400    2.2222
   20.415    1.9695
   20.430    2.0326
   20.445    2.0853
   20.460    2.0537
   20.475    2.2117
   20.490    2.2643
   20.505    2.0537
   20.520    2.0432
   20.535    2.2222
   20.550    2.0642
   20.565    2.0326
   20.580    1.8536
   20.595    2.1485
   20.610    1.9800
   20.625    1.9484
   20.640    2.1169
   20.655    1.9905
   20.670    2.1485
   20.685    2.2222
   20.700    1.9695
   20.715    2.0853
   20.730    1.8536
   20.745    2.0537
   20.760    2.0011
   20.775    1.9063
   20.790    1.9379
   20.805    2.0221
   20.820    1.8431
   20.835    1.8431
   20.850    2.0011
   20.865    1.9800
   20.880    2.0221
   20.895    1.9800
   20.910    1.9905
   20.925    2.1696
   20.940    1.9695
   20.955    1.8220
   20.970    1.9800
   20.985    1.8641
   21.000    1.9273
   21.015    1.9484
   21.030    1.9905
   21.045    1.8431
   21.060    2.0221
   21.075    2.0011
   21.090    2.0326
   21.105    1.9063
   21.120    2.2328
   21.135    2.0221
   21.150    2.0537
   21.165    1.8431
   21.180    2.0432
   21.195    1.9484
   21.210    1.8115
   21.225    1.7694
   21.240    1.8431
   21.255    2.0642
   21.270    1.7799
   21.285    1.8009
   21.300    1.9273
   21.315    1.9168
   21.330    1.9800
   21.345    1.9800
   21.360    1.7483
   21.375    2.2538
   21.390    2.1274
   21.405    1.9379
   21.420    2.2328
   21.435    2.0748
   21.450    1.8747
   21.465    2.0221
   21.480    1.8220
   21.495    1.8115
   21.510    1.7799
   21.525    1.9168
   21.540    1.9484
   21.555    2.1064
   21.570    2.0642
   21.585    1.7167
   21.600    2.0011
   21.615    1.8957
   21.630    1.8009
   21.645    2.0537
   21.660    1.9695
   21.675    1.8536
   21.690    1.7904
   21.705    1.9063
   21.720    1.9168
   21.735    2.0853
   21.750    1.7272
   21.765    1.7378
   21.780    1.8115
   21.795    1.9695
   21.810    1.9379
   21.825    2.0011
   21.840    1.9589
   21.855    1.8325
   21.870    1.7483
   21.885    1.9905
   21.900    1.9063
   21.915    1.8009
   21.930    1.8220
   21.945    1.8536
   21.960    1.8641
   21.975    1.8115
   21.990    1.8009
   22.005    1.8009
   22.020    1.8852
   22.035    1.8957
   22.050    2.0326
   22.065    1.7694
   22.080    1.7272
   22.095    1.7167
   22.110    1.8747
   22.125    2.0326
   22.140    2.0011
   22.155    1.7694
   22.170    1.8431
   22.185    1.7378
   22.200    1.8431
   22.215    1.7799
   22.230    1.8115
   22.245    1.8009
   22.260    1.7062
   22.275    1.8431
   22.290    1.9273
   22.305    1.8115
   22.320    1.7272
   22.335    1.6640
   22.350    1.8009
   22.365    1.8641
   22.380    1.8115
   22.395    1.9273
   22.410    1.8641
   22.425    1.9695
   22.440    2.1590
   22.455    1.9168
   22.470    1.7272
   22.485    1.8325
   22.500    1.8641
   22.515    1.8641
   22.530    1.7272
   22.545    1.6956
   22.560    1.6430
   22.575    1.6851
   22.590    2.0116
   22.605    1.9063
   22.620    1.6851
   22.635    1.7904
   22.650    1.9589
   22.665    2.0116
   22.680    1.8852
   22.695    1.9695
   22.710    1.7799
   22.725    1.7272
   22.740    1.8747
   22.755    1.9800
   22.770    1.9273
   22.785    1.7694
   22.800    1.8009
   22.815    1.7167
   22.830    1.7272
   22.845    1.8536
   22.860    1.7167
   22.875    1.6746
   22.890    1.8957
   22.905    1.7588
   22.920    1.8220
   22.935    1.9695
   22.950    1.8325
   22.965    1.7378
   22.980    1.6640
   22.995    1.7588
   23.010    1.8009
   23.025    1.8115
   23.040    1.8641
   23.055    1.7167
   23.070    1.7799
   23.085    1.7062
   23.100    1.7483
   23.115    1.8220
   23.130    1.8009
   23.145    1.6640
   23.160    1.8852
   23.175    1.6219
   23.190    1.5798
   23.205    1.6430
   23.220    1.9273
   23.235    1.7272
   23.250    1.7378
   23.265    1.6114
   23.280    1.7483
   23.295    1.7588
   23.310    1.6324
   23.325    1.5271
   23.340    1.6640
   23.355    1.8009
   23.370    1.6219
   23.385    1.7167
   23.400    1.9273
   23.415    1.8431
   23.430    1.6219
   23.445    1.4850
   23.460    1.5061
   23.475    1.4955
   23.490    1.6851
   23.505    1.6219
   23.520    1.7799
   23.535    1.6851
   23.550    1.6746
   23.565    1.7799
   23.580    1.6430
   23.595    1.5377
   23.610    1.5587
   23.625    1.6430
   23.640    1.6746
   23.655    1.6851
   23.670    1.5061
   23.685    1.7588
   23.700    1.7799
   23.715    1.5903
   23.730    1.6746
   23.745    1.7062
   23.760    1.7588
   23.775    1.8325
   23.790    1.7272
   23.805    1.5692
   23.820    1.3586
   23.835    1.3270
   23.850    1.3902
   23.865    1.4323
   23.880    1.7694
   23.895    1.5798
   23.910    1.7272
   23.925    1.7378
   23.940    1.5798
   23.955    1.6008
   23.970    1.6324
   23.985    1.5903
   24.000    1.6535
   24.015    1.8009
   24.030    1.6746
   24.045    1.6219
   24.060    1.7378
   24.075    1.6114
   24.090    1.5482
   24.105    1.5587
   24.120    1.6430
   24.135    1.7378
   24.150    1.5166
   24.165    1.6746
   24.180    1.6430
   24.195    1.6008
   24.210    1.5377
   24.225    1.4745
   24.240    1.5377
   24.255    1.6956
   24.270    1.5166
   24.285    1.3797
   24.300    1.4534
   24.315    1.5061
   24.330    1.6324
   24.345    1.6114
   24.360    1.5798
   24.375    1.7167
   24.390    1.6430
   24.405    1.7272
   24.420    1.5798
   24.435    1.5587
   24.450    1.4639
   24.465    1.4323
   24.480    1.4218
   24.495    1.5166
   24.510    1.7062
   24.525    1.7378
   24.540    1.5271
   24.555    1.6746
   24.570    1.6640
   24.585    1.5482
   24.600    1.6008
   24.615    1.3902
   24.630    1.4323
   24.645    1.5903
   24.660    1.7483
   24.675    1.6956
   24.690    1.5061
   24.705    1.4429
   24.720    1.5798
   24.735    1.6430
   24.750    1.7272
   24.765    1.6746
   24.780    1.3691
   24.795    1.4113
   24.810    1.4745
   24.825    1.6746
   24.840    1.5903
   24.855    1.7167
   24.870    1.5271
   24.885    1.6008
   24.900    1.7062
   24.915    1.5482
   24.930    1.3165
   24.945    1.2744
   24.960    1.5271
   24.975    1.5166
   24.990    1.7799
   25.005    1.6851
   25.020    1.7062
   25.035    1.6114
   25.050    1.4955
   25.065    1.5692
   25.080    1.5482
   25.095    1.4534
   25.110    1.4429
   25.125    1.2744
   25.140    1.5377
   25.155    1.4745
   25.170    1.4534
   25.185    1.4007
   25.200    1.5903
   25.215    1.5482
   25.230    1.4534
   25.245    1.3902
   25.260    1.5377
   25.275    1.4850
   25.290    1.5798
   25.305    1.5377
   25.320    1.3902
   25.335    1.7062
   25.350    1.6430
   25.365    1.2849
   25.380    1.5271
   25.395    1.5166
   25.410    1.4955
   25.425    1.3797
   25.440    1.5377
   25.455    1.6114
   25.470    1.5377
   25.485    1.3797
   25.500    1.5166
   25.515    1.4850
   25.530    1.4850
   25.545    1.6219
   25.560    1.5271
   25.575    1.6430
   25.590    1.3797
   25.605    1.5061
   25.620    1.2849
   25.635    1.3902
   25.650    1.3902
   25.665    1.2744
   25.680    1.4534
   25.695    1.7167
   25.710    1.5377
   25.725    1.3060
   25.740    1.3797
   25.755    1.3165
   25.770    1.2849
   25.785    1.2744
   25.800    1.6008
   25.815    1.4323
   25.830    1.3691
   25.845    1.3060
   25.860    1.4007
   25.875    1.4534
   25.890    1.3481
   25.905    1.2533
   25.920    1.4745
   25.935    1.4850
   25.950    1.4218
   25.965    1.3481
   25.980    1.3586
   25.995    1.5271
   26.010    1.4534
   26.025    1.4850
   26.040    1.5587
   26.055    1.5061
   26.070    1.3586
   26.085    1.3797
   26.100    1.4007
   26.115    1.4323
   26.130    1.4639
   26.145    1.3165
   26.160    1.3902
   26.175    1.5377
   26.190    1.4323
   26.205    1.3797
   26.220    1.3586
   26.235    1.5903
   26.250    1.3586
   26.265    1.3691
   26.280    1.5587
   26.295    1.4007
   26.310    1.2954
   26.325    1.3481
   26.340    1.3902
   26.355    1.4218
   26.370    1.4218
   26.385    1.3586
   26.400    1.3797
   26.415    1.4429
   26.430    1.3481
   26.445    1.2428
   26.460    1.2849
   26.475    1.2849
   26.490    1.2954
   26.505    1.5377
   26.520    1.4218
   26.535    1.4639
   26.550    1.5271
   26.565    1.3481
   26.580    1.3270
   26.595    1.2744
   26.610    1.3375
   26.625    1.4113
   26.640    1.4745
   26.655    1.2638
   26.670    1.2954
   26.685    1.4745
   26.700    1.4323
   26.715    1.3797
   26.730    1.4323
   26.745    1.4007
   26.760    1.2638
   26.775    1.2006
   26.790    1.3691
   26.805    1.4534
   26.820    1.2954
   26.835    1.3586
   26.850    1.5482
   26.865    1.4218
   26.880    1.5271
   26.895    1.4429
   26.910    1.4429
   26.925    1.4323
   26.940    1.5377
   26.955    1.4955
   26.970    1.4850
   26.985    1.3375
   27.000    1.2006
   27.015    1.2322
   27.030    1.2638
   27.045    1.4955
   27.060    1.4639
   27.075    1.4218
   27.090    1.3902
   27.105    1.4323
   27.120    1.4007
   27.135    1.4745
   27.150    1.3691
   27.165    1.2744
   27.180    1.4323
   27.195    1.3691
   27.210    1.2638
   27.225    1.3586
   27.240    1.3060
   27.255    1.2744
   27.270    1.3586
   27.285    1.4429
   27.300    1.4218
   27.315    1.4534
   27.330    1.1585
   27.345    1.2428
   27.360    1.3375
   27.375    1.4218
   27.390    1.3586
   27.405    1.3797
   27.420    1.2744
   27.435    1.2638
   27.450    1.2849
   27.465    1.2849
   27.480    1.3270
   27.495    1.2428
   27.510    1.2744
   27.525    1.2322
   27.540    1.4007
   27.555    1.2322
   27.570    1.3586
   27.585    1.2428
   27.600    1.3060
   27.615    1.2744
   27.630    1.2954
   27.645    1.3165
   27.660    1.4218
   27.675    1.2744
   27.690    1.2849
   27.705    1.2533
   27.720    1.2428
   27.735    1.2954
   27.750    1.3375
   27.765    1.1480
   27.780    1.2322
   27.795    1.4113
   27.810    1.2006
   27.825    1.1480
   27.840    1.3691
   27.855    1.4218
   27.870    1.4323
   27.885    1.2849
   27.900    1.1164
   27.915    1.1796
   27.930    1.3481
   27.945    1.1164
   27.960    1.1901
   27.975    1.1796
   27.990    1.1374
   28.005    1.2638
   28.020    1.2849
   28.035    1.3165
   28.050    1.3586
   28.065    1.2638
   28.080    1.4007
   28.095    1.2217
   28.110    1.2428
   28.125    1.3375
   28.140    1.0848
   28.155    1.2638
   28.170    1.2744
   28.185    1.1585
   28.200    1.0742
   28.215    1.0953
   28.230    1.1901
   28.245    1.0427
   28.260    1.2006
   28.275    1.2638
   28.290    1.2006
   28.305    1.3060
   28.320    1.4113
   28.335    1.2428
   28.350    1.1901
   28.365    1.1058
   28.380    1.0848
   28.395    1.1901
   28.410    1.3797
   28.425    1.2322
   28.440    1.2849
   28.455    1.3165
   28.470    1.2217
   28.485    1.2428
   28.500    1.2533
   28.515    1.2112
   28.530    1.2112
   28.545    1.3060
   28.560    1.3165
   28.575    1.1690
   28.590    1.0742
   28.605    1.2533
   28.620    1.3375
   28.635    1.0742
   28.650    1.2322
   28.665    1.2638
   28.680    1.2744
   28.695    1.1585
   28.710    1.1480
   28.725    1.0637
   28.740    0.9479
   28.755    1.1585
   28.770    1.2638
   28.785    1.1058
   28.800    1.1796
   28.815    1.2112
   28.830    1.2006
   28.845    1.1901
   28.860    1.1269
   28.875    1.2006
   28.890    1.0742
   28.905    0.9373
   28.920    1.1585
   28.935    1.0953
   28.950    1.1796
   28.965    1.1374
   28.980    1.2638
   28.995    1.0848
   29.010    1.1796
   29.025    1.2744
   29.040    1.1901
   29.055    1.1480
   29.070    1.2112
   29.085    1.1058
   29.100    1.0742
   29.115    1.0637
   29.130    1.0953
   29.145    1.0427
   29.160    1.2006
   29.175    0.9900
   29.190    0.9479
   29.205    1.1164
   29.220    1.0742
   29.235    1.0742
   29.250    1.1164
   29.265    1.2006
   29.280    1.0742
   29.295    1.0742
   29.310    1.2112
   29.325    1.0532
   29.340    1.0427
   29.355    1.0321
   29.370    0.9795
   29.385    1.0953
   29.400    1.1374
   29.415    1.0953
   29.430    1.0637
   29.445    1.1585
   29.460    0.9795
   29.475    1.0848
   29.490    1.1690
   29.505    1.1058
   29.520    1.0532
   29.535    1.1690
   29.550    1.0848
   29.565    1.0216
   29.580    1.0742
   29.595    1.1374
   29.610    1.1585
   29.625    1.1269
   29.640    1.0321
   29.655    1.0742
   29.670    1.0111
   29.685    1.1269
   29.700    0.9900
   29.715    1.2006
   29.730    1.2006
   29.745    1.0637
   29.760    1.1796
   29.775    1.0848
   29.790    1.0321
   29.805    1.0742
   29.820    1.0321
   29.835    0.9900
   29.850    1.1164
   29.865    1.2006
   29.880    1.0637
   29.895    1.0321
   29.910    1.1164
   29.925    1.1796
   29.940    1.0848
   29.955    1.2322
   29.970    1.1269
   29.985    0.9268
   30.000    1.1374
   30.015    1.0953
   30.030    1.2217
   30.045    1.0216
   30.060    1.0742
   30.075    1.0111
   30.090    0.9795
   30.105    1.1164
   30.120    1.0532
   30.135    1.0953
   30.150    0.9057
   30.165    0.9689
   30.180    1.2217
   30.195    1.0111
   30.210    0.9479
   30.225    0.9795
   30.240    1.0111
   30.255    1.0111
   30.270    1.0216
   30.285    1.0742
   30.300    1.0637
   30.315    1.0427
   30.330    1.0637
   30.345    1.0742
   30.360    1.0532
   30.375    1.0953
   30.390    1.1374
   30.405    1.1585
   30.420    1.0111
   30.435    1.0216
   30.450    1.0321
   30.465    1.1374
   30.480    1.1374
   30.495    1.2322
   30.510    0.9900
   30.525    1.0111
   30.540    1.1901
   30.555    1.1058
   30.570    1.0005
   30.585    0.9479
   30.600    1.0637
   30.615    0.9373
   30.630    1.0321
   30.645    1.0216
   30.660    1.0742
   30.675    1.0637
   30.690    1.0532
   30.705    0.9900
   30.720    1.1690
   30.735    1.0532
   30.750    1.0848
   30.765    0.9689
   30.780    1.0111
   30.795    1.0742
   30.810    0.8215
   30.825    1.0216
   30.840    1.0321
   30.855    1.0848
   30.870    1.0321
   30.885    1.0637
   30.900    1.0532
   30.915    0.9163
   30.930    0.8847
   30.945    0.9900
   30.960    0.8636
   30.975    1.0427
   30.990    0.9900
   31.005    0.9584
   31.020    0.9163
   31.035    0.9795
   31.050    1.0111
   31.065    0.9373
   31.080    0.9689
   31.095    1.0111
   31.110    1.0848
   31.125    0.9163
   31.140    0.9163
   31.155    0.8741
   31.170    0.9795
   31.185    1.0427
   31.200    0.8952
   31.215    0.8636
   31.230    1.1164
   31.245    0.8320
   31.260    0.8741
   31.275    1.0111
   31.290    0.9584
   31.305    0.9057
   31.320    0.8110
   31.335    1.0216
   31.350    1.0005
   31.365    1.0953
   31.380    0.8741
   31.395    0.9900
   31.410    1.0953
   31.425    0.8636
   31.440    1.1690
   31.455    1.1480
   31.470    1.0742
   31.485    0.9584
   31.500    0.9373
   31.515    1.0637
   31.530    0.8531
   31.545    0.9479
   31.560    1.0427
   31.575    0.9268
   31.590    0.9057
   31.605    0.9268
   31.620    0.8847
   31.635    0.8952
   31.650    1.0111
   31.665    0.8741
   31.680    0.8741
   31.695    0.9057
   31.710    0.9373
   31.725    0.9689
   31.740    0.8847
   31.755    0.9900
   31.770    0.9268
   31.785    0.8952
   31.800    1.0427
   31.815    0.9795
   31.830    1.0321
   31.845    1.0111
   31.860    0.8320
   31.875    0.9268
   31.890    0.9373
   31.905    0.9373
   31.920    1.0321
   31.935    1.0005
   31.950    0.9479
   31.965    0.9900
   31.980    0.8952
   31.995    0.9795
   32.010    1.0111
   32.025    0.9373
   32.040    0.9057
   32.055    1.0216
   32.070    0.9689
   32.085    0.8741
   32.100    0.9479
   32.115    0.9163
   32.130    0.8952
   32.145    0.8636
   32.160    0.9163
   32.175    0.8215
   32.190    0.7583
   32.205    0.9900
   32.220    1.0216
   32.235    0.8215
   32.250    0.8215
   32.265    0.8531
   32.280    0.9900
   32.295    0.9373
   32.310    0.8636
   32.325    0.9373
   32.340    1.0111
   32.355    1.0111
   32.370    0.8320
   32.385    0.7162
   32.400    0.7899
   32.415    0.8952
   32.430    0.8952
   32.445    0.8531
   32.460    0.9268
   32.475    0.8741
   32.490    0.9057
   32.505    0.9584
   32.520    0.9900
   32.535    0.8847
   32.550    0.8320
   32.565    0.8425
   32.580    0.7162
   32.595    0.7267
   32.610    0.8636
   32.625    0.9795
   32.640    0.8425
   32.655    0.9689
   32.670    0.8847
   32.685    0.9795
   32.700    1.0216
   32.715    0.8531
   32.730    1.0111
   32.745    0.8215
   32.760    0.7794
   32.775    0.8425
   32.790    0.8847
   32.805    0.8531
   32.820    0.8847
   32.835    0.8636
   32.850    0.8847
   32.865    0.8320
   32.880    0.8952
   32.895    0.9268
   32.910    0.8425
   32.925    0.8952
   32.940    0.7478
   32.955    0.8004
   32.970    0.8004
   32.985    0.8004
   33.000    0.7478
   33.015    0.8425
   33.030    0.9689
   33.045    0.9057
   33.060    1.0216
   33.075    0.8320
   33.090    0.8741
   33.105    1.0111
   33.120    0.9900
   33.135    0.9268
   33.150    0.8952
   33.165    1.0111
   33.180    1.0637
   33.195    0.7899
   33.210    0.8215
   33.225    0.7899
   33.240    0.8320
   33.255    0.8952
   33.270    0.8425
   33.285    0.8741
   33.300    0.7688
   33.315    0.7056
   33.330    0.8531
   33.345    0.9479
   33.360    0.8636
   33.375    0.8320
   33.390    0.8636
   33.405    0.7583
   33.420    0.9163
   33.435    0.8320
   33.450    0.8004
   33.465    0.6635
   33.480    0.6635
   33.495    0.7583
   33.510    0.7794
   33.525    0.9163
   33.540    0.8741
   33.555    0.7899
   33.570    0.7267
   33.585    0.8741
   33.600    0.8215
   33.615    0.8425
   33.630    0.7688
   33.645    0.6846
   33.660    0.7794
   33.675    0.7478
   33.690    0.7583
   33.705    0.8847
   33.720    0.8425
   33.735    0.7162
   33.750    0.8847
   33.765    0.8425
   33.780    0.7899
   33.795    0.8952
   33.810    0.8741
   33.825    0.7688
   33.840    0.8425
   33.855    0.7688
   33.870    0.7372
   33.885    0.8004
   33.900    0.9163
   33.915    0.8215
   33.930    0.8320
   33.945    0.8847
   33.960    0.9479
   33.975    0.8847
   33.990    0.8741
   34.005    0.9163
   34.020    0.8425
   34.035    0.8741
   34.050    0.8004
   34.065    0.7056
   34.080    0.7794
   34.095    1.0742
   34.110    0.9057
   34.125    0.7267
   34.140    0.8215
   34.155    0.7583
   34.170    0.8320
   34.185    0.9479
   34.200    0.9268
   34.215    0.8215
   34.230    0.8531
   34.245    0.8425
   34.260    0.8425
   34.275    0.9373
   34.290    0.8425
   34.305    0.7478
   34.320    0.8215
   34.335    0.8215
   34.350    0.7372
   34.365    0.8741
   34.380    0.7162
   34.395    0.8952
   34.410    0.8531
   34.425    0.8320
   34.440    0.9689
   34.455    0.8004
   34.470    0.7899
   34.485    0.8004
   34.500    0.7688
   34.515    0.6846
   34.530    0.6740
   34.545    0.7267
   34.560    0.6424
   34.575    0.6530
   34.590    0.6635
   34.605    0.7688
   34.620    0.7478
   34.635    0.7372
   34.650    0.8425
   34.665    0.7899
   34.680    0.7794
   34.695    0.7899
   34.710    0.8004
   34.725    0.7478
   34.740    0.6951
   34.755    0.7478
   34.770    0.8110
   34.785    0.7899
   34.800    0.8215
   34.815    0.8320
   34.830    0.8110
   34.845    0.7478
   34.860    0.6740
   34.875    0.7372
   34.890    0.8215
   34.905    0.9163
   34.920    0.7478
   34.935    0.6951
   34.950    0.7794
   34.965    0.8741
   34.980    0.7267
   34.995    0.8004
   35.010    0.7794
   35.025    0.8320
   35.040    0.8004
   35.055    0.7267
   35.070    0.8110
   35.085    0.8636
   35.100    0.8847
   35.115    0.8004
   35.130    0.7162
   35.145    0.7267
   35.160    0.7688
   35.175    0.5898
   35.190    0.8531
   35.205    0.8215
   35.220    0.6003
   35.235    0.8110
   35.250    0.7794
   35.265    0.7583
   35.280    0.8215
   35.295    0.7899
   35.310    0.6530
   35.325    0.7372
   35.340    0.8531
   35.355    0.7056
   35.370    0.7583
   35.385    0.7478
   35.400    0.8110
   35.415    0.7478
   35.430    0.7478
   35.445    0.6003
   35.460    0.7899
   35.475    0.8110
   35.490    0.7267
   35.505    0.6846
   35.520    0.7267
   35.535    0.7899
   35.550    0.7162
   35.565    0.7267
   35.580    0.8004
   35.595    0.8636
   35.610    0.6846
   35.625    0.6846
   35.640    0.8004
   35.655    0.7583
   35.670    0.7162
   35.685    0.7688
   35.700    0.6846
   35.715    0.7899
   35.730    0.6530
   35.745    0.6846
   35.760    0.8215
   35.775    0.7056
   35.790    0.7583
   35.805    0.7056
   35.820    0.7478
   35.835    0.7583
   35.850    0.7794
   35.865    0.7688
   35.880    0.8952
   35.895    0.6635
   35.910    0.7162
   35.925    0.8425
   35.940    0.6740
   35.955    0.7899
   35.970    0.6003
   35.985    0.5898
   36.000    0.7794
   36.015    0.8004
   36.030    0.7267
   36.045    0.7583
   36.060    0.8110
   36.075    0.7372
   36.090    0.7688
   36.105    0.7162
   36.120    0.6635
   36.135    0.7162
   36.150    0.6951
   36.165    0.7162
   36.180    0.7056
   36.195    0.8215
   36.210    0.8531
   36.225    0.7372
   36.240    0.8741
   36.255    0.8004
   36.270    0.6003
   36.285    0.6214
   36.300    0.7372
   36.315    0.7372
   36.330    0.7688
   36.345    0.7794
   36.360    0.8110
   36.375    0.7056
   36.390    0.7162
   36.405    0.6319
   36.420    0.5793
   36.435    0.7372
   36.450    0.8425
   36.465    0.7056
   36.480    0.7794
   36.495    0.7056
   36.510    0.6740
   36.525    0.8531
   36.540    0.6846
   36.555    0.6846
   36.570    0.6740
   36.585    0.6214
   36.600    0.6530
   36.615    0.7794
   36.630    0.7056
   36.645    0.7056
   36.660    0.7899
   36.675    0.7583
   36.690    0.6214
   36.705    0.7056
   36.720    0.8110
   36.735    0.7478
   36.750    0.7583
   36.765    0.6635
   36.780    0.7056
   36.795    0.8636
   36.810    0.7478
   36.825    0.5793
   36.840    0.6635
   36.855    0.7372
   36.870    0.6846
   36.885    0.5477
   36.900    0.6740
   36.915    0.6951
   36.930    0.6846
   36.945    0.7056
   36.960    0.6424
   36.975    0.5687
   36.990    0.7267
   37.005    0.6846
   37.020    0.6635
   37.035    0.7478
   37.050    0.8004
   37.065    0.6530
   37.080    0.5477
   37.095    0.6424
   37.110    0.5793
   37.125    0.6214
   37.140    0.6214
   37.155    0.7478
   37.170    0.7688
   37.185    0.7583
   37.200    0.6319
   37.215    0.6214
   37.230    0.5898
   37.245    0.6003
   37.260    0.6530
   37.275    0.4845
   37.290    0.7267
   37.305    0.7162
   37.320    0.6424
   37.335    0.5687
   37.350    0.5161
   37.365    0.6846
   37.380    0.6740
   37.395    0.6319
   37.410    0.6108
   37.425    0.5898
   37.440    0.6740
   37.455    0.5898
   37.470    0.6108
   37.485    0.6951
   37.500    0.7478
   37.515    0.6424
   37.530    0.5793
   37.545    0.5687
   37.560    0.5582
   37.575    0.6214
   37.590    0.6635
   37.605    0.6424
   37.620    0.5898
   37.635    0.6635
   37.650    0.7056
   37.665    0.6951
   37.680    0.7056
   37.695    0.6003
   37.710    0.5793
   37.725    0.6319
   37.740    0.6846
   37.755    0.5371
   37.770    0.5266
   37.785    0.5793
   37.800    0.5371
   37.815    0.5266
   37.830    0.5793
   37.845    0.5687
   37.860    0.6108
   37.875    0.5055
   37.890    0.5793
   37.905    0.6424
   37.920    0.6214
   37.935    0.6319
   37.950    0.6108
   37.965    0.5898
   37.980    0.6319
   37.995    0.6108
   38.010    0.6003
   38.025    0.4529
   38.040    0.5793
   38.055    0.7372
   38.070    0.7162
   38.085    0.5687
   38.100    0.5687
   38.115    0.6108
   38.130    0.6003
   38.145    0.6319
   38.160    0.7372
   38.175    0.5477
   38.190    0.7056
   38.205    0.7056
   38.220    0.6108
   38.235    0.7372
   38.250    0.6635
   38.265    0.5793
   38.280    0.6951
   38.295    0.7162
   38.310    0.7162
   38.325    0.6740
   38.340    0.6635
   38.355    0.5898
   38.370    0.6424
   38.385    0.5793
   38.400    0.5582
   38.415    0.5898
   38.430    0.4845
   38.445    0.5266
   38.460    0.5477
   38.475    0.5266
   38.490    0.5687
   38.505    0.5582
   38.520    0.6740
   38.535    0.6635
   38.550    0.5582
   38.565    0.6740
   38.580    0.6319
   38.595    0.6003
   38.610    0.5371
   38.625    0.5371
   38.640    0.6951
   38.655    0.6108
   38.670    0.6951
   38.685    0.5582
   38.700    0.4529
   38.715    0.7267
   38.730    0.6108
   38.745    0.6530
   38.760    0.7267
   38.775    0.6319
   38.790    0.5477
   38.805    0.6214
   38.820    0.6319
   38.835    0.5793
   38.850    0.5582
   38.865    0.4950
   38.880    0.5793
   38.895    0.6214
   38.910    0.5582
   38.925    0.5582
   38.940    0.4845
   38.955    0.6424
   38.970    0.7372
   38.985    0.6108
   39.000    0.5687
   39.015    0.5477
   39.030    0.5582
   39.045    0.5582
   39.060    0.6319
   39.075    0.5898
   39.090    0.6108
   39.105    0.6108
   39.120    0.6424
   39.135    0.5266
   39.150    0.4739
   39.165    0.6108
   39.180    0.6740
   39.195    0.4845
   39.210    0.5687
   39.225    0.4950
   39.240    0.4423
   39.255    0.5687
   39.270    0.5055
   39.285    0.6214
   39.300    0.5582
   39.315    0.6846
   39.330    0.7478
   39.345    0.6740
   39.360    0.6214
   39.375    0.7583
   39.390    0.4739
   39.405    0.4634
   39.420    0.6108
   39.435    0.6108
   39.450    0.5898
   39.465    0.5161
   39.480    0.6214
   39.495    0.5687
   39.510    0.6214
   39.525    0.5371
   39.540    0.4107
   39.555    0.5266
   39.570    0.5266
   39.585    0.6530
   39.600    0.6530
   39.615    0.6319
   39.630    0.5266
   39.645    0.5055
   39.660    0.5371
   39.675    0.5161
   39.690    0.5055
   39.705    0.5161
   39.720    0.5898
   39.735    0.5477
   39.750    0.6003
   39.765    0.5898
   39.780    0.6424
   39.795    0.4529
   39.810    0.5371
   39.825    0.6424
   39.840    0.6530
   39.855    0.6214
   39.870    0.6003
   39.885    0.5582
   39.900    0.4950
   39.915    0.5477
   39.930    0.6740
   39.945    0.5161
   39.960    0.6003
   39.975    0.5266
   39.990    0.4318
