    1.500   24.9184
    1.515   25.0132
    1.530   24.8236
    1.545   24.7920
    1.560   24.6761
    1.575   23.8336
    1.590   24.9078
    1.605   23.7388
    1.620   22.7488
    1.635   22.8647
    1.650   22.7804
    1.665   22.7593
    1.680   22.3065
    1.695   22.6856
    1.710   23.0016
    1.725   22.3381
    1.740   22.4434
    1.755   23.1069
    1.770   22.0537
    1.785   21.4534
    1.800   22.1064
    1.815   22.1064
    1.830   22.5382
    1.845   22.2854
    1.860   22.0748
    1.875   22.2854
    1.890   22.4118
    1.905   21.4007
    1.920   22.3697
    1.935   21.7588
    1.950   21.2006
    1.965   21.3691
    1.980   21.9273
    1.995   21.2533
    2.010   21.5166
    2.025   21.9695
    2.040   21.3586
    2.055   21.8220
    2.070   21.3165
    2.085   21.8431
    2.100   21.6746
    2.115   21.9800
    2.130   22.0853
    2.145   21.9800
    2.160   21.0005
    2.175   22.0432
    2.190   22.9805
    2.205   22.8857
    2.220   22.5171
    2.235   23.0437
    2.250   22.5171
    2.265   23.0753
    2.280   23.0858
    2.295   23.3913
    2.310   23.7704
    2.325   23.6440
    2.340   23.9810
    2.355   24.1074
    2.370   23.7493
    2.385   23.7704
    2.400   25.0974
    2.415   24.6340
    2.430   24.6656
    2.445   24.4760
    2.460   24.9605
    2.475   25.7188
    2.490   25.9189
    2.505   26.4560
    2.520   26.8773
    2.535   27.4039
    2.550   27.6251
    2.565   28.6361
    2.580   29.0995
    2.595   29.1311
    2.610   29.4155
    2.625   29.5208
    2.640   30.2791
    2.655   31.5324
    2.670   31.0374
    2.685   31.4587
    2.700   31.4587
    2.715   31.8905
    2.730   32.9647
    2.745   32.7646
    2.760   33.7125
    2.775   34.3655
    2.790   35.8610
    2.805   36.6825
    2.820   37.1564
    2.835   37.6409
    2.850   38.9047
    2.865   39.3997
    2.880   40.4634
    2.895   41.7799
    2.910   41.8957
    2.925   42.7909
    2.940   44.0548
    2.955   45.0342
    2.970   46.0769
    2.985   47.2249
    3.000   48.3728
    3.015   51.0690
    3.030   50.8689
    3.045   53.1438
    3.060   54.8394
    3.075   55.7662
    3.090   57.8410
    3.105   59.6735
    3.120   61.3376
    3.135   63.4439
    3.150   65.3397
    3.165   67.3196
    3.180   70.6161
    3.195   72.6804
    3.210   74.4602
    3.225   78.1675
    3.240   81.3902
    3.255   85.1080
    3.270   89.2470
    3.285   92.3855
    3.300   98.0305
    3.315  102.2538
    3.330  106.0874
    3.345  112.7120
    3.360  120.1369
    3.375  126.5192
    3.390  135.9137
    3.405  145.4450
    3.420  156.7562
    3.435  168.5203
    3.450  179.3681
    3.465  186.6772
    3.480  189.3312
    3.495  183.7704
    3.510  172.0695
    3.525  149.8578
    3.540  127.3407
    3.555  107.0353
    3.570   86.7931
    3.585   72.4065
    3.600   62.7804
    3.615   55.9452
    3.630   53.8810
    3.645   51.8799
    3.660   50.4265
    3.675   48.5940
    3.690   49.3102
    3.705   49.4576
    3.720   49.6051
    3.735   51.6377
    3.750   51.6588
    3.765   54.6709
    3.780   55.2080
    3.795   57.9884
    3.810   59.1680
    3.825   60.5266
    3.840   64.2127
    3.855   67.0985
    3.870   70.5740
    3.885   75.7241
    3.900   79.7578
    3.915   81.8536
    3.930   83.8441
    3.945   83.7809
    3.960   82.0116
    3.975   78.9889
    3.990   78.6309
    4.005   80.7899
    4.020   82.6751
    4.035   84.2443
    4.050   86.4455
    4.065   88.6467
    4.080   88.9732
    4.095   88.0253
    4.110   87.1617
    4.125   86.3507
    4.140   84.3181
    4.155   79.6525
    4.170   74.8605
    4.185   70.5951
    4.200   66.7615
    4.215   61.8852
    4.230   56.6509
    4.245   53.3228
    4.260   50.0790
    4.275   45.1817
    4.290   41.8852
    4.305   38.0200
    4.320   34.8078
    4.335   31.1743
    4.350   28.3518
    4.365   26.1085
    4.380   23.5598
    4.395   22.6435
    4.410   20.9057
    4.425   18.9784
    4.440   18.6098
    4.455   17.5987
    4.470   16.5666
    4.485   15.8715
    4.500   14.7446
    4.515   14.3760
    4.530   13.9652
    4.545   13.5229
    4.560   12.7962
    4.575   12.0274
    4.590   11.3744
    4.605   11.9221
    4.620   11.8589
    4.635   11.0269
    4.650   11.3323
    4.665   11.2480
    4.680   10.7952
    4.695   10.8794
    4.710   10.6056
    4.725   10.6372
    4.740    9.8262
    4.755    9.8368
    4.770    9.6472
    4.785   10.2686
    4.800    9.8473
    4.815    9.3312
    4.830    9.7104
    4.845    9.7420
    4.860    9.7841
    4.875    9.4471
    4.890    8.9521
    4.905    9.5419
    4.920    9.8999
    4.935    9.6893
    4.950    9.4681
    4.965    9.4892
    4.980    9.2786
    4.995    9.2048
    5.010    9.0469
    5.025    9.6051
    5.040    9.5524
    5.055    9.5419
    5.070    9.5313
    5.085    9.4892
    5.100    9.2575
    5.115    9.1206
    5.130    8.9731
    5.145    9.6261
    5.160    9.4155
    5.175    9.4050
    5.190    9.5208
    5.205    9.5208
    5.220    9.3523
    5.235    9.5524
    5.250    9.8894
    5.265    9.5208
    5.280   10.2791
    5.295   10.1527
    5.310    9.6998
    5.325    9.9526
    5.340    9.9526
    5.355   10.2159
    5.370   10.2580
    5.385   10.1843
    5.400   10.0474
    5.415   10.3739
    5.430   10.4897
    5.445   10.1632
    5.460   11.2902
    5.475   11.6482
    5.490   11.7536
    5.505   12.3855
    5.520   13.0279
    5.535   13.4492
    5.550   12.9753
    5.565   12.6277
    5.580   10.9426
    5.595    9.1206
    5.610    8.9731
    5.625    8.0674
    5.640    7.6567
    5.655    7.5935
    5.670    7.9937
    5.685    7.8673
    5.700    7.6567
    5.715    7.6461
    5.730    7.4671
    5.745    8.0990
    5.760    7.8568
    5.775    7.6040
    5.790    7.3091
    5.805    7.8673
    5.820    7.5935
    5.835    7.6145
    5.850    8.0990
    5.865    7.8568
    5.880    8.3096
    5.895    8.2464
    5.910    7.7514
    5.925    7.4882
    5.940    7.7409
    5.955    7.9621
    5.970    7.7304
    5.985    7.6672
    6.000    7.9410
    6.015    7.7093
    6.030    7.6040
    6.045    7.7830
    6.060    7.9937
    6.075    8.1938
    6.090    8.2675
    6.105    8.3518
    6.120    8.2043
    6.135    8.0569
    6.150    8.3096
    6.165    8.5308
    6.180    8.2675
    6.195    7.9094
    6.210    8.2043
    6.225    8.1411
    6.240    8.5519
    6.255    8.1306
    6.270    8.7414
    6.285    8.3307
    6.300    8.3518
    6.315    8.2675
    6.330    8.6783
    6.345    8.4781
    6.360    8.6151
    6.375    8.4676
    6.390    8.7730
    6.405    8.9521
    6.420    8.7098
    6.435    9.3628
    6.450    9.1732
    6.465    9.6367
    6.480    9.1627
    6.495    9.4997
    6.510    9.4892
    6.525    9.4997
    6.540   10.0053
    6.555   10.6582
    6.570   11.0479
    6.585   10.7952
    6.600   10.5740
    6.615   10.8268
    6.630   11.1954
    6.645   11.4692
    6.660   11.8378
    6.675   12.6172
    6.690   12.3328
    6.705   12.5645
    6.720   12.7962
    6.735   14.0074
    6.750   14.2812
    6.765   14.6393
    6.780   16.6298
    6.795   16.4297
    6.810   16.2296
    6.825   17.2828
    6.840   17.3986
    6.855   17.7778
    6.870   18.7046
    6.885   20.5371
    6.900   21.9905
    6.915   22.5171
    6.930   24.2549
    6.945   25.6872
    6.960   26.0242
    6.975   25.4660
    6.990   25.5187
    7.005   25.5819
    7.020   23.4123
    7.035   20.2949
    7.050   18.1464
    7.065   14.9552
    7.080   13.0595
    7.095   11.6798
    7.110   10.9426
    7.125    9.4787
    7.140    9.3102
    7.155    9.0785
    7.170    8.6783
    7.185    8.4466
    7.200    8.4255
    7.215    8.3202
    7.230    8.5097
    7.245    8.4044
    7.260    8.5097
    7.275    8.3307
    7.290    7.9831
    7.305    8.3412
    7.320    8.2675
    7.335    8.6361
    7.350    8.1517
    7.365    8.6256
    7.380    8.3307
    7.395    7.9621
    7.410    7.7514
    7.425    8.0674
    7.440    8.1727
    7.455    8.3307
    7.470    8.2991
    7.485    8.3623
    7.500    8.5835
    7.515    8.5097
    7.530    8.3307
    7.545    8.5624
    7.560    8.6783
    7.575    8.7941
    7.590    8.6888
    7.605    9.1627
    7.620    9.0153
    7.635    9.2786
    7.650    9.1311
    7.665    9.4471
    7.680    9.3628
    7.695    9.0363
    7.710    9.6472
    7.725    9.2259
    7.740    9.8684
    7.755   10.1422
    7.770   10.7214
    7.785   10.8373
    7.800   11.2270
    7.815   11.0058
    7.830   11.0163
    7.845   10.8899
    7.860   11.1532
    7.875   11.5219
    7.890   11.2796
    7.905   10.9637
    7.920   10.8162
    7.935   11.4692
    7.950   11.6272
    7.965   12.0800
    7.980   12.3117
    7.995   12.3328
    8.010   12.4592
    8.025   13.1754
    8.040   13.3860
    8.055   12.6909
    8.070   13.0595
    8.085   13.7967
    8.100   14.3233
    8.115   14.8289
    8.130   14.5866
    8.145   14.7657
    8.160   14.7551
    8.175   14.2707
    8.190   14.6603
    8.205   15.0606
    8.220   15.2185
    8.235   15.3449
    8.250   15.3344
    8.265   15.3239
    8.280   15.2185
    8.295   14.7235
    8.310   14.7762
    8.325   14.7867
    8.340   14.4708
    8.355   14.3023
    8.370   14.4392
    8.385   14.5445
    8.400   14.3023
    8.415   14.3444
    8.430   13.6177
    8.445   13.4281
    8.460   13.4176
    8.475   13.2491
    8.490   12.9542
    8.505   12.3855
    8.520   12.0800
    8.535   12.9542
    8.550   12.6488
    8.565   11.8799
    8.580   11.5429
    8.595   11.7536
    8.610   11.5534
    8.625   11.2270
    8.640   10.4581
    8.655   11.1638
    8.670   10.4265
    8.685   10.2580
    8.700   10.0158
    8.715    9.8684
    8.730    9.5103
    8.745    9.2786
    8.760    9.4997
    8.775    9.0469
    8.790    9.2996
    8.805    9.1206
    8.820    9.0258
    8.835    8.8046
    8.850    8.7098
    8.865    8.4044
    8.880    8.5940
    8.895    9.0047
    8.910    9.2048
    8.925    8.8573
    8.940    7.8778
    8.955    8.3307
    8.970    8.4887
    8.985    8.2570
    9.000    8.5835
    9.015    8.7414
    9.030    8.9942
    9.045    9.1838
    9.060    9.0995
    9.075    8.9626
    9.090    9.1838
    9.105    9.0363
    9.120    8.8994
    9.135    9.0679
    9.150    9.3312
    9.165    9.3944
    9.180    9.1838
    9.195    9.7104
    9.210   10.1422
    9.225    9.7841
    9.240    9.8157
    9.255   10.5108
    9.270   10.3633
    9.285   10.1001
    9.300   10.0895
    9.315   10.6582
    9.330    9.8578
    9.345    9.6472
    9.360    9.3312
    9.375    9.6156
    9.390    9.2470
    9.405    9.0363
    9.420    8.7414
    9.435    8.5519
    9.450    8.7836
    9.465    8.7836
    9.480    8.7941
    9.495    8.7309
    9.510    8.6572
    9.525    8.8046
    9.540    8.7730
    9.555    9.5735
    9.570    9.6156
    9.585    9.9105
    9.600    9.7946
    9.615    9.5419
    9.630    9.6788
    9.645    8.6467
    9.660    8.2359
    9.675    7.6672
    9.690    7.4776
    9.705    7.5724
    9.720    7.3828
    9.735    7.2143
    9.750    7.2775
    9.765    7.8252
    9.780    7.9831
    9.795    7.9726
    9.810    7.5619
    9.825    7.6145
    9.840    7.5829
    9.855    7.5092
    9.870    8.0885
    9.885    8.0253
    9.900    7.6461
    9.915    7.9094
    9.930    7.3828
    9.945    7.5197
    9.960    7.2354
    9.975    7.4250
    9.990    7.6461
   10.005    7.5513
   10.020    7.6145
   10.035    7.6461
   10.050    7.7725
   10.065    7.5724
   10.080    8.2886
   10.095    7.8673
   10.110    8.0779
   10.125    8.5729
   10.140    8.1833
   10.155    7.7830
   10.170    8.8784
   10.185    8.7309
   10.200    8.6993
   10.215    8.4255
   10.230    8.7730
   10.245    8.6572
   10.260    8.7520
   10.275    8.8152
   10.290    8.7520
   10.305    8.9731
   10.320    8.5624
   10.335    9.1417
   10.350    9.9210
   10.365    9.6893
   10.380    9.3312
   10.395    9.2680
   10.410    8.9731
   10.425    9.5735
   10.440    9.6472
   10.455    9.5419
   10.470    9.2364
   10.485    9.0890
   10.500    9.4050
   10.515    8.6572
   10.530    8.1727
   10.545    7.7830
   10.560    8.2359
   10.575    8.0463
   10.590    7.9516
   10.605    7.6356
   10.620    7.9726
   10.635    7.8357
   10.650    7.7304
   10.665    7.6461
   10.680    8.0042
   10.695    7.5513
   10.710    7.5724
   10.725    7.3934
   10.740    7.2459
   10.755    7.4987
   10.770    7.8989
   10.785    7.6988
   10.800    8.0463
   10.815    7.9410
   10.830    7.8884
   10.845    7.8884
   10.860    7.6567
   10.875    7.6145
   10.890    7.8357
   10.905    7.5197
   10.920    8.2043
   10.935    7.7830
   10.950    7.7725
   10.965    7.7514
   10.980    7.7830
   10.995    7.9305
   11.010    7.3934
   11.025    7.9516
   11.040    8.4781
   11.055    8.2464
   11.070    7.8568
   11.085    7.9305
   11.100    7.9094
   11.115    7.7830
   11.130    7.5408
   11.145    7.2565
   11.160    7.4039
   11.175    7.6777
   11.190    7.5197
   11.205    7.5724
   11.220    7.2880
   11.235    7.7620
   11.250    7.1511
   11.265    7.6567
   11.280    7.6040
   11.295    7.5619
   11.310    7.2143
   11.325    7.2459
   11.340    7.7409
   11.355    7.5513
   11.370    7.3618
   11.385    7.4776
   11.400    7.7093
   11.415    7.3091
   11.430    7.1933
   11.445    7.4039
   11.460    7.3934
   11.475    7.2775
   11.490    7.7725
   11.505    7.7725
   11.520    7.6461
   11.535    7.6145
   11.550    7.6883
   11.565    7.4882
   11.580    7.1617
   11.595    7.7304
   11.610    8.1411
   11.625    7.9726
   11.640    7.9094
   11.655    8.0358
   11.670    7.9726
   11.685    7.7093
   11.700    7.7409
   11.715    8.2254
   11.730    8.1727
   11.745    8.1411
   11.760    8.8046
   11.775    8.5413
   11.790    8.1306
   11.805    7.9621
   11.820    7.5092
   11.835    7.6040
   11.850    7.7830
   11.865    7.8357
   11.880    7.8989
   11.895    7.9200
   11.910    7.9305
   11.925    8.2254
   11.940    8.2149
   11.955    7.9516
   11.970    7.9305
   11.985    8.0885
   12.000    8.2149
   12.015    8.1727
   12.030    7.8673
   12.045    8.5097
   12.060    8.6783
   12.075    8.6256
   12.090    8.6993
   12.105    8.7204
   12.120    8.1938
   12.135    8.8257
   12.150    9.2048
   12.165    9.1732
   12.180    9.0890
   12.195    8.5519
   12.210    8.9100
   12.225    9.1943
   12.240    9.0995
   12.255    8.7730
   12.270    8.9310
   12.285    8.6888
   12.300    9.0890
   12.315    8.9521
   12.330    9.2891
   12.345    9.0890
   12.360    9.2470
   12.375    8.6783
   12.390    9.0785
   12.405    8.9942
   12.420    8.7414
   12.435    8.9415
   12.450    8.8573
   12.465    8.5097
   12.480    8.6572
   12.495    8.6467
   12.510    8.5835
   12.525    8.9731
   12.540    8.5097
   12.555    8.5097
   12.570    8.4676
   12.585    8.7309
   12.600    8.8362
   12.615    8.4992
   12.630    8.4466
   12.645    8.6256
   12.660    8.5835
   12.675    8.8046
   12.690    8.6045
   12.705    8.7625
   12.720    8.8994
   12.735    8.7730
   12.750    8.3939
   12.765    8.3623
   12.780    8.2780
   12.795    8.2570
   12.810    8.2359
   12.825    8.2043
   12.840    8.4887
   12.855    8.6888
   12.870    8.5413
   12.885    8.2149
   12.900    8.4781
   12.915    8.5940
   12.930    8.9205
   12.945    8.5097
   12.960    8.7625
   12.975    8.3412
   12.990    7.7830
   13.005    8.4781
   13.020    8.7730
   13.035    8.6151
   13.050    8.1411
   13.065    7.9937
   13.080    8.5519
   13.095    8.9837
   13.110    8.3202
   13.125    8.3412
   13.140    8.5097
   13.155    8.1833
   13.170    7.6672
   13.185    7.7093
   13.200    7.7936
   13.215    8.1833
   13.230    8.0358
   13.245    8.1833
   13.260    7.8884
   13.275    7.7936
   13.290    7.8462
   13.305    7.9831
   13.320    7.9200
   13.335    8.0569
   13.350    7.7199
   13.365    8.0569
   13.380    8.0990
   13.395    7.9937
   13.410    7.9621
   13.425    7.8568
   13.440    8.2991
   13.455    7.8884
   13.470    8.1095
   13.485    8.2043
   13.500    8.2464
   13.515    7.9831
   13.530    8.1622
   13.545    8.2675
   13.560    8.1727
   13.575    8.0463
   13.590    8.1938
   13.605    7.8252
   13.620    7.7620
   13.635    8.2570
   13.650    8.1095
   13.665    7.9200
   13.680    7.8252
   13.695    8.2570
   13.710    7.8778
   13.725    7.4355
   13.740    7.3934
   13.755    7.5513
   13.770    7.5935
   13.785    8.0779
   13.800    7.6988
   13.815    7.8146
   13.830    7.4144
   13.845    7.7725
   13.860    7.5724
   13.875    7.3934
   13.890    7.6040
   13.905    7.6988
   13.920    7.3618
   13.935    6.9826
   13.950    7.0985
   13.965    7.6567
   13.980    7.7830
   13.995    6.9194
   14.010    7.3723
   14.025    7.1617
   14.040    7.6883
   14.055    7.4776
   14.070    7.2670
   14.085    7.7093
   14.100    7.6567
   14.115    7.6145
   14.130    7.4882
   14.145    8.0885
   14.160    7.3934
   14.175    7.2354
   14.190    7.0458
   14.205    7.0248
   14.220    6.6245
   14.235    7.3828
   14.250    7.3091
   14.265    7.2986
   14.280    6.9721
   14.295    7.0037
   14.310    7.0248
   14.325    7.2565
   14.340    7.1090
   14.355    7.1617
   14.370    6.9932
   14.385    7.0353
   14.400    7.2775
   14.415    7.2143
   14.430    7.5408
   14.445    6.9089
   14.460    7.2038
   14.475    7.1406
   14.490    7.1722
   14.505    7.3723
   14.520    7.0669
   14.535    7.1090
   14.550    6.8457
   14.565    6.8246
   14.580    7.2038
   14.595    6.9826
   14.610    7.1090
   14.625    7.1617
   14.640    7.2038
   14.655    6.9194
   14.670    6.8984
   14.685    6.9932
   14.700    7.3196
   14.715    7.1617
   14.730    6.9405
   14.745    6.8562
   14.760    6.9300
   14.775    6.9616
   14.790    6.9405
   14.805    6.9826
   14.820    7.1511
   14.835    7.0774
   14.850    7.5935
   14.865    6.8984
   14.880    6.8773
   14.895    6.5824
   14.910    7.0458
   14.925    7.0669
   14.940    6.8352
   14.955    7.1617
   14.970    7.1617
   14.985    7.0879
   15.000    7.0458
   15.015    7.5513
   15.030    7.2249
   15.045    6.8878
   15.060    7.1933
   15.075    7.1406
   15.090    7.1301
   15.105    7.4250
   15.120    6.6877
   15.135    6.6351
   15.150    7.2143
   15.165    7.0985
   15.180    7.0458
   15.195    7.5513
   15.210    7.2459
   15.225    7.3512
   15.240    7.3302
   15.255    7.4776
   15.270    7.4566
   15.285    7.2986
   15.300    6.9721
   15.315    7.5303
   15.330    7.5935
   15.345    7.2249
   15.360    7.8778
   15.375    7.8252
   15.390    8.1833
   15.405    7.5513
   15.420    7.2986
   15.435    7.3407
   15.450    7.5408
   15.465    7.4776
   15.480    7.3828
   15.495    7.4355
   15.510    7.3196
   15.525    7.4566
   15.540    7.7304
   15.555    7.5619
   15.570    7.3618
   15.585    7.2143
   15.600    7.4671
   15.615    7.3302
   15.630    7.3618
   15.645    7.3618
   15.660    7.1722
   15.675    7.4776
   15.690    7.5724
   15.705    7.7620
   15.720    7.6356
   15.735    7.6777
   15.750    7.6777
   15.765    7.6461
   15.780    7.4882
   15.795    6.8773
   15.810    7.3512
   15.825    7.6883
   15.840    7.4250
   15.855    7.4144
   15.870    7.4039
   15.885    7.8146
   15.900    7.2354
   15.915    7.4987
   15.930    7.4671
   15.945    7.4355
   15.960    7.2038
   15.975    7.0142
   15.990    6.8878
   16.005    6.7299
   16.020    7.4776
   16.035    7.3934
   16.050    7.4250
   16.065    7.0142
   16.080    7.2354
   16.095    7.2775
   16.110    7.8357
   16.125    7.5829
   16.140    7.1722
   16.155    7.3407
   16.170    7.2775
   16.185    7.6672
   16.200    7.4776
   16.215    7.3302
   16.230    7.3407
   16.245    7.7409
   16.260    7.3512
   16.275    7.0985
   16.290    6.9721
   16.305    7.0353
   16.320    7.0037
   16.335    7.3407
   16.350    7.4460
   16.365    7.4987
   16.380    7.4355
   16.395    7.4460
   16.410    7.4776
   16.425    7.1827
   16.440    7.0774
   16.455    7.3196
   16.470    7.0248
   16.485    7.2670
   16.500    7.2986
   16.515    7.0142
   16.530    7.3407
   16.545    6.9194
   16.560    7.2986
   16.575    7.2354
   16.590    7.0879
   16.605    7.0248
   16.620    7.3196
   16.635    7.2565
   16.650    7.1933
   16.665    7.4250
   16.680    7.8041
   16.695    7.1090
   16.710    7.1511
   16.725    7.0142
   16.740    7.2459
   16.755    7.3512
   16.770    6.9932
   16.785    7.1933
   16.800    7.1722
   16.815    7.0142
   16.830    7.3512
   16.845    7.0774
   16.860    7.2565
   16.875    7.1301
   16.890    6.9932
   16.905    7.2775
   16.920    7.4460
   16.935    7.3934
   16.950    7.5829
   16.965    7.6672
   16.980    7.2038
   16.995    6.9194
   17.010    7.1827
   17.025    7.5197
   17.040    6.9194
   17.055    7.3723
   17.070    7.4144
   17.085    7.2880
   17.100    7.5197
   17.115    7.6040
   17.130    7.1827
   17.145    7.5408
   17.160    7.3828
   17.175    7.5619
   17.190    7.3828
   17.205    7.5513
   17.220    6.9405
   17.235    7.0142
   17.250    7.1722
   17.265    7.2670
   17.280    7.3196
   17.295    6.8036
   17.310    7.4250
   17.325    7.5197
   17.340    7.2143
   17.355    7.4671
   17.370    7.2986
   17.385    7.3828
   17.400    7.1301
   17.415    7.3196
   17.430    7.4250
   17.445    7.4882
   17.460    7.7514
   17.475    7.6988
   17.490    7.5935
   17.505    7.3512
   17.520    7.3723
   17.535    7.4460
   17.550    7.9305
   17.565    8.1938
   17.580    7.6672
   17.595    7.2249
   17.610    7.5724
   17.625    7.2038
   17.640    7.1722
   17.655    7.3196
   17.670    7.4987
   17.685    7.7620
   17.700    7.8041
   17.715    7.5829
   17.730    7.2354
   17.745    7.1617
   17.760    7.5513
   17.775    7.4566
   17.790    7.3723
   17.805    6.8352
   17.820    7.0458
   17.835    7.6040
   17.850    7.9516
   17.865    7.2880
   17.880    7.4987
   17.895    7.4987
   17.910    7.6040
   17.925    7.3512
   17.940    7.3091
   17.955    7.4882
   17.970    7.3934
   17.985    7.6356
   18.000    7.6672
   18.015    7.6672
   18.030    7.8146
   18.045    7.1195
   18.060    7.0879
   18.075    7.3934
   18.090    7.8673
   18.105    7.4987
   18.120    7.5619
   18.135    7.5513
   18.150    7.7830
   18.165    7.4566
   18.180    7.2880
   18.195    7.2880
   18.210    7.4460
   18.225    7.5092
   18.240    7.2249
   18.255    7.2986
   18.270    7.2775
   18.285    7.5092
   18.300    7.3618
   18.315    7.2565
   18.330    6.9826
   18.345    7.8884
   18.360    7.3091
   18.375    7.2249
   18.390    6.8878
   18.405    7.1827
   18.420    7.6251
   18.435    7.5619
   18.450    7.2354
   18.465    7.7093
   18.480    7.2249
   18.495    7.9516
   18.510    7.4039
   18.525    6.6351
   18.540    6.9826
   18.555    6.9826
   18.570    7.0248
   18.585    7.2354
   18.600    7.3618
   18.615    7.2986
   18.630    7.6672
   18.645    7.3512
   18.660    7.6040
   18.675    7.3512
   18.690    6.9826
   18.705    7.1827
   18.720    7.2775
   18.735    7.1090
   18.750    7.4039
   18.765    7.3196
   18.780    7.0353
   18.795    7.6251
   18.810    7.4566
   18.825    7.5408
   18.840    7.6356
   18.855    7.2775
   18.870    7.2775
   18.885    7.1301
   18.900    7.2565
   18.915    7.2249
   18.930    7.4250
   18.945    7.3302
   18.960    7.4144
   18.975    7.3723
   18.990    7.4250
   19.005    7.0985
   19.020    7.3302
   19.035    7.1933
   19.050    7.2354
   19.065    7.1090
   19.080    7.5197
   19.095    6.9300
   19.110    7.1511
   19.125    7.2038
   19.140    7.4460
   19.155    7.5935
   19.170    7.4250
   19.185    7.5513
   19.200    7.6356
   19.215    7.3828
   19.230    7.0037
   19.245    7.3196
   19.260    7.4355
   19.275    7.4355
   19.290    7.7830
   19.305    7.3934
   19.320    7.3302
   19.335    7.6356
   19.350    7.8041
   19.365    7.9305
   19.380    7.5829
   19.395    7.9621
   19.410    7.6988
   19.425    7.7093
   19.440    7.8884
   19.455    7.7830
   19.470    7.9094
   19.485    7.7093
   19.500    7.4987
   19.515    7.6567
   19.530    7.7409
   19.545    8.2043
   19.560    8.3939
   19.575    8.0990
   19.590    8.1938
   19.605    7.9937
   19.620    8.0990
   19.635    8.2254
   19.650    8.7098
   19.665    8.1095
   19.680    8.5624
   19.695    8.8468
   19.710    8.2464
   19.725    8.2254
   19.740    8.6151
   19.755    8.4887
   19.770    8.3939
   19.785    8.2570
   19.800    8.0990
   19.815    8.6467
   19.830    8.7520
   19.845    8.0990
   19.860    8.2991
   19.875    8.1727
   19.890    8.2149
   19.905    8.4255
   19.920    8.7204
   19.935    8.2464
   19.950    8.2464
   19.965    8.6572
   19.980    8.6572
   19.995    8.5308
   20.010    8.5203
   20.025    8.5413
   20.040    8.3096
   20.055    8.3939
   20.070    8.7098
   20.085    8.6467
   20.100    8.2149
   20.115    8.2359
   20.130    8.3834
   20.145    8.1622
   20.160    8.1411
   20.175    7.6567
   20.190    7.6672
   20.205    7.8462
   20.220    8.4781
   20.235    8.2254
   20.250    8.3202
   20.265    8.1833
   20.280    7.8568
   20.295    7.6883
   20.310    7.9937
   20.325    7.9937
   20.340    8.1201
   20.355    7.9726
   20.370    8.5097
   20.385    8.1095
   20.400    8.2254
   20.415    8.2675
   20.430    8.2464
   20.445    8.4360
   20.460    8.5308
   20.475    8.4571
   20.490    8.4360
   20.505    7.9410
   20.520    8.2886
   20.535    7.9410
   20.550    8.3939
   20.565    8.0674
   20.580    8.1095
   20.595    8.0779
   20.610    8.2991
   20.625    8.1622
   20.640    8.0147
   20.655    8.4781
   20.670    8.0358
   20.685    8.0147
   20.700    7.7304
   20.715    8.0990
   20.730    8.1727
   20.745    8.0779
   20.760    8.2991
   20.775    7.4566
   20.790    7.6251
   20.805    8.2780
   20.820    8.1411
   20.835    8.0779
   20.850    8.2149
   20.865    8.0463
   20.880    8.1727
   20.895    8.2675
   20.910    8.8889
   20.925    8.3939
   20.940    8.0147
   20.955    8.4360
   20.970    8.5097
   20.985    8.5097
   21.000    8.5203
   21.015    8.5413
   21.030    8.8889
   21.045    8.3202
   21.060    8.4571
   21.075    8.7309
   21.090    8.7414
   21.105    8.6677
   21.120    8.5624
   21.135    8.6151
   21.150    8.6677
   21.165    8.3412
   21.180    8.4466
   21.195    8.4571
   21.210    8.2991
   21.225    8.6256
   21.240    8.5203
   21.255    8.0253
   21.270    8.6361
   21.285    8.7204
   21.300    8.0885
   21.315    8.4887
   21.330    8.4676
   21.345    8.9310
   21.360    8.1938
   21.375    8.3202
   21.390    8.4150
   21.405    8.4781
   21.420    8.0674
   21.435    8.2570
   21.450    8.5729
   21.465    8.8257
   21.480    8.5308
   21.495    8.3202
   21.510    8.4150
   21.525    8.0990
   21.540    8.1306
   21.555    8.2464
   21.570    8.8468
   21.585    8.0358
   21.600    7.9937
   21.615    8.0569
   21.630    8.3307
   21.645    8.1411
   21.660    7.7199
   21.675    8.3096
   21.690    8.2254
   21.705    7.9410
   21.720    8.0990
   21.735    8.0569
   21.750    8.3939
   21.765    8.2254
   21.780    8.4255
   21.795    8.3096
   21.810    8.2149
   21.825    8.4676
   21.840    8.1306
   21.855    8.2570
   21.870    7.6567
   21.885    8.0253
   21.900    8.3096
   21.915    8.2991
   21.930    8.0779
   21.945    8.0358
   21.960    8.1622
   21.975    8.0779
   21.990    8.1727
   22.005    7.8673
   22.020    8.1622
   22.035    8.1727
   22.050    8.2149
   22.065    7.8568
   22.080    8.0358
   22.095    8.2991
   22.110    8.3202
   22.125    8.2675
   22.140    8.1517
   22.155    7.9726
   22.170    7.7514
   22.185    7.9305
   22.200    8.2043
   22.215    8.4044
   22.230    8.1201
   22.245    8.3307
   22.260    8.3834
   22.275    8.0674
   22.290    8.0147
   22.305    7.8462
   22.320    8.0990
   22.335    8.5729
   22.350    8.5308
   22.365    8.1833
   22.380    8.1306
   22.395    8.0042
   22.410    8.0358
   22.425    8.0358
   22.440    8.2149
   22.455    7.9200
   22.470    7.9831
   22.485    8.0569
   22.500    8.0147
   22.515    8.1833
   22.530    8.2254
   22.545    8.3518
   22.560    8.1833
   22.575    7.7725
   22.590    7.9305
   22.605    7.7409
   22.620    8.4571
   22.635    8.5203
   22.650    8.3307
   22.665    8.5835
   22.680    8.6151
   22.695    7.5724
   22.710    7.6777
   22.725    7.9410
   22.740    8.2886
   22.755    7.6251
   22.770    7.9621
   22.785    8.1727
   22.800    8.1938
   22.815    7.7830
   22.830    8.0569
   22.845    7.8462
   22.860    7.7936
   22.875    7.9516
   22.890    7.8041
   22.905    8.0253
   22.920    8.4887
   22.935    8.6256
   22.950    8.2149
   22.965    8.5203
   22.980    8.4360
   22.995    8.2254
   23.010    7.9621
   23.025    7.8884
   23.040    7.9094
   23.055    8.2675
   23.070    8.1306
   23.085    7.9937
   23.100    8.1727
   23.115    7.8989
   23.130    8.2359
   23.145    8.1411
   23.160    8.3728
   23.175    8.0147
   23.190    7.8989
   23.205    8.1306
   23.220    7.8673
   23.235    8.1201
   23.250    7.9410
   23.265    7.9937
   23.280    7.9726
   23.295    8.1938
   23.310    8.0463
   23.325    7.9621
   23.340    8.1727
   23.355    7.6461
   23.370    8.0147
   23.385    7.8778
   23.400    8.2464
   23.415    8.1727
   23.430    8.2149
   23.445    7.8462
   23.460    7.9831
   23.475    8.2464
   23.490    7.8357
   23.505    7.5513
   23.520    7.9410
   23.535    7.6883
   23.550    7.6988
   23.565    7.8462
   23.580    7.5724
   23.595    7.6145
   23.610    7.6461
   23.625    7.7409
   23.640    8.0885
   23.655    7.8357
   23.670    7.7830
   23.685    7.7409
   23.700    7.3723
   23.715    8.1201
   23.730    7.6672
   23.745    7.8673
   23.760    7.7725
   23.775    7.9621
   23.790    7.4882
   23.805    7.4987
   23.820    7.6988
   23.835    7.5829
   23.850    7.8041
   23.865    8.0674
   23.880    7.4250
   23.895    7.6988
   23.910    7.7514
   23.925    8.0253
   23.940    8.2359
   23.955    7.8568
   23.970    8.0463
   23.985    7.8146
   24.000    8.0147
   24.015    7.9516
   24.030    7.8462
   24.045    7.7304
   24.060    7.2880
   24.075    7.8357
   24.090    7.6461
   24.105    7.9410
   24.120    7.6145
   24.135    7.7409
   24.150    7.4039
   24.165    7.4355
   24.180    7.3512
   24.195    7.4355
   24.210    7.4250
   24.225    7.0985
   24.240    7.6567
   24.255    7.3828
   24.270    7.5303
   24.285    7.7409
   24.300    7.6777
   24.315    7.4776
   24.330    7.5935
   24.345    7.7409
   24.360    7.6461
   24.375    7.2775
   24.390    7.8146
   24.405    7.8462
   24.420    7.9621
   24.435    7.7199
   24.450    7.7830
   24.465    7.6567
   24.480    8.1095
   24.495    8.1622
   24.510    7.8252
   24.525    8.0990
   24.540    7.8884
   24.555    7.7093
   24.570    8.0147
   24.585    7.8989
   24.600    7.4039
   24.615    7.5197
   24.630    7.9937
   24.645    7.4987
   24.660    7.5513
   24.675    7.5303
   24.690    8.0463
   24.705    7.9516
   24.720    7.7093
   24.735    7.7620
   24.750    7.8568
   24.765    7.7936
   24.780    7.7304
   24.795    7.4144
   24.810    7.4250
   24.825    7.8357
   24.840    8.1201
   24.855    7.6356
   24.870    7.4671
   24.885    7.1090
   24.900    7.2354
   24.915    7.2038
   24.930    7.5724
   24.945    7.2775
   24.960    7.3512
   24.975    7.6777
   24.990    7.6356
   25.005    7.5935
   25.020    7.1933
   25.035    7.6145
   25.050    7.3091
   25.065    7.0669
   25.080    7.0142
   25.095    7.6461
   25.110    7.7620
   25.125    7.4460
   25.140    7.4250
   25.155    7.2670
   25.170    7.4566
   25.185    7.2775
   25.200    7.0669
   25.215    6.7720
   25.230    7.6567
   25.245    7.6251
   25.260    7.7514
   25.275    7.6145
   25.290    7.6145
   25.305    7.3618
   25.320    7.5197
   25.335    7.7304
   25.350    7.3512
   25.365    7.0985
   25.380    7.3512
   25.395    7.3407
   25.410    7.6883
   25.425    7.6251
   25.440    7.8673
   25.455    7.2354
   25.470    7.6883
   25.485    7.3196
   25.500    7.5092
   25.515    7.4144
   25.530    7.4460
   25.545    7.6040
   25.560    7.1827
   25.575    7.4566
   25.590    7.6988
   25.605    7.5092
   25.620    7.4250
   25.635    6.9194
   25.650    7.1511
   25.665    7.2354
   25.680    7.3723
   25.695    7.7936
   25.710    7.8462
   25.725    7.8146
   25.740    7.2354
   25.755    7.1722
   25.770    6.9932
   25.785    7.1090
   25.800    7.2038
   25.815    6.9721
   25.830    7.0774
   25.845    7.2670
   25.860    7.5935
   25.875    7.7830
   25.890    7.7936
   25.905    7.3512
   25.920    7.2459
   25.935    7.2775
   25.950    7.4671
   25.965    7.0669
   25.980    7.1195
   25.995    7.5197
   26.010    7.7093
   26.025    7.2775
   26.040    7.0563
   26.055    7.2038
   26.070    7.5092
   26.085    7.5303
   26.100    6.9405
   26.115    7.0037
   26.130    6.8562
   26.145    7.2143
   26.160    7.0353
   26.175    7.3618
   26.190    7.4250
   26.205    6.8246
   26.220    6.5613
   26.235    7.2038
   26.250    7.0985
   26.265    7.3723
   26.280    6.9932
   26.295    6.8141
   26.310    7.1617
   26.325    7.1195
   26.340    7.2354
   26.355    7.2354
   26.370    7.4355
   26.385    7.1511
   26.400    6.9405
   26.415    7.2565
   26.430    7.0458
   26.445    6.8352
   26.460    7.1301
   26.475    7.0563
   26.490    7.4144
   26.505    7.1617
   26.520    6.9826
   26.535    7.2670
   26.550    6.9721
   26.565    7.1301
   26.580    7.0774
   26.595    6.7825
   26.610    6.8878
   26.625    6.9300
   26.640    7.1933
   26.655    7.1511
   26.670    7.0142
   26.685    7.3828
   26.700    7.1511
   26.715    7.2038
   26.730    7.2143
   26.745    7.3196
   26.760    7.2459
   26.775    7.0985
   26.790    7.0353
   26.805    7.0985
   26.820    6.8878
   26.835    7.1933
   26.850    7.2670
   26.865    7.0037
   26.880    7.1406
   26.895    7.0985
   26.910    7.3828
   26.925    7.0248
   26.940    7.1511
   26.955    7.0353
   26.970    6.9089
   26.985    6.9616
   27.000    7.0669
   27.015    7.0037
   27.030    6.8246
   27.045    7.3723
   27.060    7.0669
   27.075    7.1722
   27.090    7.4039
   27.105    7.3723
   27.120    7.1406
   27.135    7.1617
   27.150    7.2038
   27.165    6.8984
   27.180    6.8878
   27.195    7.1511
   27.210    7.1090
   27.225    7.0353
   27.240    7.2249
   27.255    7.2459
   27.270    7.4144
   27.285    6.6561
   27.300    6.8457
   27.315    7.4566
   27.330    6.5929
   27.345    6.9300
   27.360    7.0985
   27.375    7.1933
   27.390    7.1195
   27.405    7.2459
   27.420    6.7615
   27.435    6.7825
   27.450    7.3723
   27.465    7.0879
   27.480    7.2880
   27.495    6.7088
   27.510    6.8984
   27.525    6.8352
   27.540    6.7193
   27.555    6.5403
   27.570    6.6456
   27.585    6.8773
   27.600    6.7720
   27.615    7.3512
   27.630    6.9405
   27.645    6.9405
   27.660    7.0037
   27.675    6.7299
   27.690    6.5192
   27.705    6.8878
   27.720    7.0563
   27.735    6.8352
   27.750    7.2459
   27.765    6.5719
   27.780    6.2665
   27.795    6.6140
   27.810    6.7930
   27.825    6.9300
   27.840    6.5824
   27.855    6.8352
   27.870    6.7615
   27.885    6.5298
   27.900    6.7193
   27.915    7.0458
   27.930    7.1301
   27.945    6.8036
   27.960    6.8878
   27.975    6.5929
   27.990    6.4244
   28.005    6.8773
   28.020    6.7509
   28.035    7.4460
   28.050    7.3723
   28.065    7.0669
   28.080    7.0985
   28.095    7.0669
   28.110    7.2670
   28.125    6.8668
   28.140    7.4250
   28.155    7.0985
   28.170    7.2670
   28.185    7.3302
   28.200    7.2249
   28.215    7.1933
   28.230    7.2459
   28.245    7.2880
   28.260    7.1090
   28.275    7.2249
   28.290    7.0037
   28.305    6.9721
   28.320    6.8878
   28.335    7.0669
   28.350    7.2354
   28.365    6.8668
   28.380    6.8562
   28.395    7.2354
   28.410    6.9194
   28.425    6.7930
   28.440    6.7720
   28.455    7.1722
   28.470    6.6351
   28.485    6.7615
   28.500    7.0353
   28.515    6.6877
   28.530    6.9089
   28.545    6.8562
   28.560    6.9089
   28.575    7.2249
   28.590    6.9616
   28.605    7.1195
   28.620    6.8562
   28.635    6.8773
   28.650    6.9194
   28.665    7.2565
   28.680    6.5508
   28.695    6.5298
   28.710    7.0774
   28.725    7.0353
   28.740    6.8562
   28.755    6.6351
   28.770    6.8141
   28.785    6.8352
   28.800    6.9510
   28.815    6.9194
   28.830    6.6140
   28.845    6.8878
   28.860    6.6245
   28.875    6.5929
   28.890    6.3402
   28.905    6.7193
   28.920    6.8668
   28.935    6.5298
   28.950    7.0353
   28.965    6.5403
   28.980    6.5298
   28.995    7.0774
   29.010    6.8246
   29.025    6.6561
   29.040    6.5298
   29.055    6.9721
   29.070    6.9194
   29.085    6.5929
   29.100    6.4771
   29.115    6.7930
   29.130    6.8246
   29.145    6.9300
   29.160    6.9300
   29.175    6.7299
   29.190    6.6035
   29.205    6.6877
   29.220    6.9194
   29.235    6.6561
   29.250    6.6561
   29.265    6.8036
   29.280    6.5824
   29.295    6.7930
   29.310    6.6245
   29.325    6.6772
   29.340    6.5508
   29.355    6.3507
   29.370    6.8141
   29.385    6.8352
   29.400    6.2770
   29.415    6.7615
   29.430    6.7193
   29.445    6.6561
   29.460    7.0353
   29.475    6.5403
   29.490    6.7930
   29.505    7.0037
   29.520    6.3823
   29.535    6.3612
   29.550    6.5613
   29.565    6.3928
   29.580    6.6351
   29.595    6.8773
   29.610    6.7509
   29.625    6.2138
   29.640    6.4244
   29.655    6.9932
   29.670    6.5824
   29.685    6.4876
   29.700    6.6561
   29.715    6.7720
   29.730    6.5719
   29.745    6.8562
   29.760    7.0142
   29.775    6.6772
   29.790    6.6351
   29.805    6.8878
   29.820    6.7930
   29.835    7.0774
   29.850    6.8352
   29.865    6.8562
   29.880    6.7509
   29.895    6.9510
   29.910    6.4139
   29.925    6.3086
   29.940    6.9300
   29.955    6.6561
   29.970    6.7193
   29.985    6.7088
   30.000    6.4982
   30.015    6.2770
   30.030    6.3823
   30.045    6.4982
   30.060    6.3086
   30.075    6.6877
   30.090    7.0563
   30.105    6.9510
   30.120    6.4560
   30.135    6.5613
   30.150    6.6245
   30.165    6.2981
   30.180    6.5613
   30.195    6.5824
   30.210    6.7825
   30.225    6.5508
   30.240    6.6667
   30.255    7.0248
   30.270    6.5929
   30.285    7.0985
   30.300    6.4034
   30.315    6.4666
   30.330    6.8457
   30.345    6.5824
   30.360    6.6561
   30.375    6.5298
   30.390    6.3718
   30.405    6.3402
   30.420    6.5087
   30.435    6.9405
   30.450    6.8141
   30.465    6.4455
   30.480    6.2981
   30.495    6.3402
   30.510    6.1506
   30.525    6.3612
   30.540    6.4560
   30.555    6.2138
   30.570    6.5508
   30.585    6.4982
   30.600    6.4139
   30.615    6.2243
   30.630    6.3823
   30.645    6.4455
   30.660    6.4350
   30.675    6.4455
   30.690    6.2349
   30.705    6.2559
   30.720    6.8141
   30.735    6.5192
   30.750    6.7404
   30.765    6.6035
   30.780    6.3086
   30.795    6.2033
   30.810    5.9610
   30.825    6.2033
   30.840    6.5613
   30.855    6.5087
   30.870    6.2349
   30.885    6.4350
   30.900    6.5508
   30.915    6.4771
   30.930    6.6351
   30.945    6.2559
   30.960    6.0769
   30.975    6.2454
   30.990    6.2875
   31.005    6.4876
   31.020    6.1611
   31.035    6.3296
   31.050    6.6772
   31.065    6.7299
   31.080    6.4876
   31.095    6.2454
   31.110    6.6140
   31.125    6.5192
   31.140    6.5298
   31.155    6.1927
   31.170    6.3928
   31.185    6.4350
   31.200    6.4034
   31.215    6.4350
   31.230    6.6456
   31.245    6.3402
   31.260    6.1190
   31.275    5.9084
   31.290    6.2770
   31.305    6.1190
   31.320    6.1085
   31.335    5.9505
   31.350    6.4876
   31.365    6.3612
   31.380    6.7193
   31.395    6.3718
   31.410    6.4771
   31.425    6.3612
   31.440    6.0032
   31.455    6.2981
   31.470    6.7299
   31.485    6.4244
   31.500    6.2665
   31.515    6.3928
   31.530    6.4244
   31.545    6.2349
   31.560    6.3296
   31.575    6.2349
   31.590    6.8036
   31.605    6.4455
   31.620    6.7615
   31.635    7.1511
   31.650    6.3507
   31.665    6.7299
   31.680    6.5087
   31.695    6.6245
   31.710    6.0979
   31.725    6.5087
   31.740    6.6245
   31.755    6.4666
   31.770    6.6983
   31.785    6.8036
   31.800    6.7509
   31.815    6.8773
   31.830    6.2349
   31.845    6.5824
   31.860    6.4876
   31.875    6.3718
   31.890    6.4982
   31.905    6.1927
   31.920    6.1611
   31.935    6.5508
   31.950    6.7509
   31.965    6.6456
   31.980    6.2243
   31.995    6.0664
   32.010    6.4244
   32.025    6.5298
   32.040    6.4876
   32.055    6.1295
   32.070    6.4034
   32.085    6.6245
   32.100    6.2665
   32.115    6.7720
   32.130    6.5298
   32.145    6.4139
   32.160    6.8352
   32.175    6.3928
   32.190    6.6245
   32.205    6.4244
   32.220    6.8141
   32.235    6.6245
   32.250    6.3191
   32.265    6.0874
   32.280    6.2875
   32.295    6.4034
   32.310    6.2770
   32.325    6.2981
   32.340    6.1506
   32.355    5.8873
   32.370    6.3928
   32.385    6.0979
   32.400    6.1295
   32.415    6.3086
   32.430    6.1927
   32.445    6.0769
   32.460    6.1295
   32.475    6.4771
   32.490    6.1190
   32.505    6.4244
   32.520    6.6561
   32.535    6.1927
   32.550    6.4982
   32.565    6.2033
   32.580    6.2981
   32.595    6.3823
   32.610    6.0348
   32.625    6.1611
   32.640    5.9084
   32.655    6.2454
   32.670    6.2243
   32.685    6.0558
   32.700    5.7609
   32.715    5.8768
   32.730    5.9821
   32.745    6.4244
   32.760    6.1717
   32.775    5.6029
   32.790    5.9294
   32.805    6.4350
   32.820    6.1822
   32.835    5.9610
   32.850    6.3507
   32.865    5.9189
   32.880    6.0558
   32.895    6.3086
   32.910    6.4771
   32.925    6.3191
   32.940    5.7925
   32.955    6.3928
   32.970    6.6667
   32.985    6.1927
   33.000    6.0558
   33.015    5.9821
   33.030    6.3296
   33.045    5.8978
   33.060    5.5924
   33.075    6.0874
   33.090    6.0453
   33.105    6.1190
   33.120    6.1611
   33.135    6.1611
   33.150    6.2454
   33.165    6.0769
   33.180    6.0664
   33.195    6.1506
   33.210    6.1295
   33.225    5.8662
   33.240    5.7925
   33.255    6.2033
   33.270    6.3612
   33.285    5.9716
   33.300    6.1085
   33.315    5.9294
   33.330    6.3296
   33.345    6.1085
   33.360    5.8347
   33.375    5.9505
   33.390    6.1295
   33.405    6.3718
   33.420    5.9821
   33.435    5.9189
   33.450    6.1401
   33.465    6.0979
   33.480    6.1190
   33.495    5.8136
   33.510    5.7083
   33.525    6.1190
   33.540    6.4139
   33.555    6.2981
   33.570    5.8873
   33.585    5.9926
   33.600    6.0979
   33.615    6.4876
   33.630    6.3402
   33.645    6.7088
   33.660    5.9294
   33.675    6.0453
   33.690    5.8031
   33.705    5.4871
   33.720    6.2454
   33.735    6.2454
   33.750    5.9505
   33.765    5.5924
   33.780    5.9400
   33.795    6.0348
   33.810    5.8873
   33.825    5.7609
   33.840    6.2243
   33.855    5.6029
   33.870    6.0558
   33.885    6.0453
   33.900    5.9189
   33.915    6.3928
   33.930    6.3402
   33.945    5.7504
   33.960    6.2875
   33.975    6.0453
   33.990    5.8768
   34.005    6.0137
   34.020    5.9926
   34.035    6.3191
   34.050    6.1611
   34.065    5.7293
   34.080    6.0242
   34.095    5.8768
   34.110    5.9294
   34.125    5.6240
   34.140    5.9716
   34.155    6.2033
   34.170    6.2033
   34.185    5.9505
   34.200    6.0874
   34.215    5.9505
   34.230    6.1717
   34.245    5.8136
   34.260    5.9505
   34.275    6.3086
   34.290    6.0242
   34.305    5.5503
   34.320    5.6556
   34.335    6.0769
   34.350    5.6977
   34.365    5.8662
   34.380    5.6451
   34.395    5.6135
   34.410    5.9821
   34.425    5.8662
   34.440    6.1506
   34.455    5.6872
   34.470    6.0242
   34.485    5.9610
   34.500    5.8452
   34.515    5.8873
   34.530    5.8136
   34.545    5.9505
   34.560    5.9189
   34.575    5.8768
   34.590    5.9716
   34.605    5.6872
   34.620    5.8662
   34.635    5.6345
   34.650    5.9400
   34.665    5.7925
   34.680    6.1085
   34.695    5.6345
   34.710    5.5819
   34.725    5.7188
   34.740    5.4450
   34.755    5.5819
   34.770    5.4976
   34.785    5.7925
   34.800    5.8662
   34.815    5.9926
   34.830    6.1717
   34.845    5.9926
   34.860    5.8031
   34.875    6.1506
   34.890    6.1506
   34.905    5.4344
   34.920    5.7609
   34.935    5.7925
   34.950    5.5187
   34.965    5.8241
   34.980    5.9189
   34.995    6.0137
   35.010    5.8978
   35.025    5.8662
   35.040    5.7293
   35.055    5.2659
   35.070    5.5503
   35.085    5.8241
   35.100    6.0242
   35.115    5.9084
   35.130    5.4555
   35.145    5.9189
   35.160    5.8662
   35.175    5.7399
   35.190    6.0242
   35.205    5.6872
   35.220    6.0242
   35.235    6.1822
   35.250    6.0979
   35.265    6.1295
   35.280    5.9610
   35.295    5.9294
   35.310    5.6345
   35.325    5.8136
   35.340    5.9400
   35.355    6.1506
   35.370    5.9400
   35.385    5.8241
   35.400    5.8136
   35.415    5.7925
   35.430    6.0558
   35.445    5.8452
   35.460    5.9400
   35.475    5.8347
   35.490    5.7504
   35.505    5.8136
   35.520    5.8978
   35.535    5.6345
   35.550    5.9821
   35.565    6.0664
   35.580    6.0874
   35.595    6.0769
   35.610    5.8136
   35.625    5.7399
   35.640    5.8557
   35.655    6.0242
   35.670    5.8031
   35.685    5.7293
   35.700    5.9505
   35.715    5.6135
   35.730    5.7083
   35.745    5.4766
   35.760    5.7399
   35.775    5.8241
   35.790    5.6977
   35.805    5.8347
   35.820    6.1295
   35.835    5.5608
   35.850    5.5608
   35.865    5.8557
   35.880    5.6451
   35.895    5.6135
   35.910    5.6029
   35.925    5.6767
   35.940    5.6135
   35.955    5.5819
   35.970    5.7188
   35.985    5.7083
   36.000    5.9505
   36.015    5.7399
   36.030    5.7293
   36.045    5.5292
   36.060    5.3818
   36.075    5.7609
   36.090    5.7504
   36.105    5.6135
   36.120    5.8768
   36.135    5.6451
   36.150    5.5819
   36.165    5.5398
   36.180    5.8241
   36.195    6.0664
   36.210    5.9084
   36.225    5.5503
   36.240    5.5714
   36.255    5.6135
   36.270    5.5503
   36.285    5.3186
   36.300    5.5398
   36.315    5.5082
   36.330    5.9189
   36.345    5.7609
   36.360    6.1611
   36.375    5.9189
   36.390    5.5714
   36.405    5.2554
   36.420    5.3186
   36.435    6.0242
   36.450    5.3818
   36.465    5.6135
   36.480    5.7399
   36.495    6.0558
   36.510    5.7399
   36.525    5.6767
   36.540    5.3712
   36.555    5.5292
   36.570    5.6661
   36.585    5.4344
   36.600    5.2765
   36.615    5.2659
   36.630    5.6345
   36.645    5.7188
   36.660    5.5819
   36.675    5.5714
   36.690    5.4450
   36.705    5.7083
   36.720    5.5082
   36.735    5.4660
   36.750    5.1817
   36.765    5.7715
   36.780    5.5714
   36.795    5.4871
   36.810    5.2554
   36.825    5.7188
   36.840    5.9821
   36.855    5.7820
   36.870    5.6556
   36.885    5.7715
   36.900    5.6451
   36.915    6.0453
   36.930    5.5398
   36.945    5.5082
   36.960    5.5398
   36.975    5.8978
   36.990    5.8136
   37.005    5.7083
   37.020    5.5819
   37.035    5.6872
   37.050    5.8136
   37.065    5.5819
   37.080    5.7083
   37.095    5.2765
   37.110    5.7399
   37.125    5.8241
   37.140    5.6135
   37.155    5.4450
   37.170    5.5292
   37.185    5.7083
   37.200    5.7609
   37.215    5.5292
   37.230    5.5398
   37.245    6.0137
   37.260    5.8347
   37.275    5.8241
   37.290    5.3397
   37.305    5.6661
   37.320    5.6767
   37.335    5.4976
   37.350    5.6240
   37.365    5.6556
   37.380    5.2027
   37.395    5.3607
   37.410    5.3923
   37.425    5.3607
   37.440    5.5398
   37.455    4.9921
   37.470    5.3397
   37.485    5.3712
   37.500    5.3923
   37.515    5.6872
   37.530    5.6135
   37.545    5.8662
   37.560    5.5924
   37.575    5.3712
   37.590    5.4028
   37.605    5.4766
   37.620    5.7293
   37.635    5.3186
   37.650    5.5292
   37.665    5.6977
   37.680    5.4239
   37.695    5.3186
   37.710    5.5187
   37.725    5.3607
   37.740    5.1395
   37.755    5.9400
   37.770    6.0769
   37.785    5.8347
   37.800    5.7820
   37.815    5.6029
   37.830    5.5187
   37.845    5.5924
   37.860    5.5187
   37.875    5.6029
   37.890    5.4239
   37.905    5.2343
   37.920    5.4344
   37.935    5.6135
   37.950    5.4555
   37.965    5.5187
   37.980    5.6556
   37.995    5.8873
   38.010    5.5187
   38.025    5.6135
   38.040    5.3607
   38.055    4.9921
   38.070    5.2765
   38.085    5.0764
   38.100    5.4766
   38.115    5.1290
   38.130    5.3186
   38.145    5.4766
   38.160    5.5714
   38.175    5.3818
   38.190    5.7504
   38.205    5.4344
   38.220    5.4660
   38.235    5.4871
   38.250    5.2238
   38.265    5.0869
   38.280    5.5503
   38.295    5.3923
   38.310    5.2027
   38.325    5.1606
   38.340    5.5503
   38.355    5.4555
   38.370    5.6872
   38.385    5.6240
   38.400    5.3081
   38.415    5.3502
   38.430    5.2870
   38.445    5.4976
   38.460    5.5714
   38.475    5.3397
   38.490    5.3397
   38.505    5.2027
   38.520    5.1606
   38.535    5.4660
   38.550    5.4976
   38.565    5.5292
   38.580    5.3291
   38.595    5.6345
   38.610    5.6135
   38.625    5.3712
   38.640    5.5292
   38.655    5.7820
   38.670    5.3712
   38.685    5.3081
   38.700    5.5503
   38.715    5.1395
   38.730    5.4555
   38.745    5.2765
   38.760    5.4134
   38.775    5.0553
   38.790    5.2238
   38.805    5.2870
   38.820    5.4555
   38.835    5.2870
   38.850    5.2449
   38.865    5.6872
   38.880    5.5924
   38.895    5.4344
   38.910    5.2765
   38.925    5.2027
   38.940    5.2133
   38.955    5.6240
   38.970    5.6451
   38.985    5.7715
   39.000    5.1817
   39.015    5.3291
   39.030    5.6451
   39.045    5.2238
   39.060    5.3502
   39.075    5.3923
   39.090    5.6451
   39.105    5.4239
   39.120    5.7293
   39.135    5.7293
   39.150    5.6872
   39.165    5.7504
   39.180    5.5187
   39.195    5.1395
   39.210    5.0869
   39.225    5.2659
   39.240    5.4028
   39.255    5.3712
   39.270    5.9084
   39.285    5.4976
   39.300    5.3081
   39.315    5.2449
   39.330    5.5398
   39.345    5.4028
   39.360    5.2133
   39.375    5.2238
   39.390    5.3818
   39.405    5.2449
   39.420    5.2870
   39.435    5.2659
   39.450    5.3291
   39.465    5.3502
   39.480    5.7083
   39.495    5.3397
   39.510    5.6977
   39.525    5.7399
   39.540    5.3923
   39.555    5.2449
   39.570    5.4555
   39.585    5.4976
   39.600    5.3923
   39.615    5.7820
   39.630    5.5924
   39.645    5.3186
   39.660    5.2238
   39.675    5.2659
   39.690    5.1290
   39.705    5.5187
   39.720    5.4134
   39.735    5.4555
   39.750    5.7399
   39.765    5.2554
   39.780    5.4239
   39.795    5.3081
   39.810    5.1606
   39.825    5.3186
   39.840    5.4555
   39.855    5.2449
   39.870    5.3186
   39.885    5.5819
   39.900    5.5608
   39.915    5.4028
   39.930    5.2554
   39.945    5.6345
   39.960    5.3712
   39.975    5.0237
   39.990    5.3397
