    1.500   22.6224
    1.515   22.9805
    1.530   22.2749
    1.545   22.1590
    1.560   21.9800
    1.575   21.7694
    1.590   21.6746
    1.605   21.5692
    1.620   21.6219
    1.635   21.2112
    1.650   20.5582
    1.665   20.2738
    1.680   20.2106
    1.695   20.1580
    1.710   19.8736
    1.725   19.5155
    1.740   19.5577
    1.755   20.0316
    1.770   19.2101
    1.785   18.9573
    1.800   19.1575
    1.815   18.6414
    1.830   18.6730
    1.845   18.7678
    1.860   17.7146
    1.875   17.5145
    1.890   17.7778
    1.905   18.4623
    1.920   18.1359
    1.935   17.5671
    1.950   17.6093
    1.965   18.1569
    1.980   17.7357
    1.995   17.9358
    2.010   17.2722
    2.025   17.4829
    2.040   17.1669
    2.055   17.6935
    2.070   17.3354
    2.085   16.8404
    2.100   16.4508
    2.115   17.0195
    2.130   16.4297
    2.145   16.5666
    2.160   17.5566
    2.175   16.7667
    2.190   16.8615
    2.205   16.7773
    2.220   16.1348
    2.235   16.5561
    2.250   16.1559
    2.265   16.0821
    2.280   16.7035
    2.295   15.9242
    2.310   15.9242
    2.325   15.8399
    2.340   16.0190
    2.355   15.9558
    2.370   16.1980
    2.385   15.9136
    2.400   15.9558
    2.415   15.9031
    2.430   16.5456
    2.445   16.1875
    2.460   16.6614
    2.475   16.5771
    2.490   16.7562
    2.505   17.0090
    2.520   16.9563
    2.535   16.4402
    2.550   16.5456
    2.565   16.2823
    2.580   16.4086
    2.595   16.9036
    2.610   16.6403
    2.625   16.6930
    2.640   16.4402
    2.655   17.0932
    2.670   16.7562
    2.685   16.7035
    2.700   17.0090
    2.715   16.9563
    2.730   17.1353
    2.745   17.7778
    2.760   17.9042
    2.775   18.1148
    2.790   17.7357
    2.805   18.2412
    2.820   18.1253
    2.835   18.1148
    2.850   18.4834
    2.865   18.5887
    2.880   18.8942
    2.895   19.4102
    2.910   19.6525
    2.925   19.0100
    2.940   19.8420
    2.955   19.2628
    2.970   19.2838
    2.985   20.9689
    3.000   21.2217
    3.015   21.2638
    3.030   21.8325
    3.045   22.0326
    3.060   21.4850
    3.075   21.8641
    3.090   22.3170
    3.105   22.7488
    3.120   23.4229
    3.135   23.4229
    3.150   23.5492
    3.165   23.7493
    3.180   24.2865
    3.195   24.8025
    3.210   25.9084
    3.225   25.7925
    3.240   26.3718
    3.255   27.2143
    3.270   27.6145
    3.285   28.9837
    3.300   29.5103
    3.315   29.9210
    3.330   30.9426
    3.345   31.1322
    3.360   32.5118
    3.375   32.9963
    3.390   33.3544
    3.405   34.5234
    3.420   35.9979
    3.435   36.9458
    3.450   37.1248
    3.465   38.8731
    3.480   39.9263
    3.495   41.1269
    3.510   42.4645
    3.525   43.5703
    3.540   45.6661
    3.555   47.7199
    3.570   48.9416
    3.585   50.4581
    3.600   53.4281
    3.615   55.5556
    3.630   57.8831
    3.645   59.3681
    3.660   63.6756
    3.675   66.6245
    3.690   70.4476
    3.705   73.8178
    3.720   77.3565
    3.735   81.7378
    3.750   87.3618
    3.765   94.0600
    3.780  101.9168
    3.795  109.7525
    3.810  118.5993
    3.825  135.2817
    3.840  151.9537
    3.855  168.2149
    3.870  177.0406
    3.885  172.5435
    3.900  154.3339
    3.915  125.4450
    3.930   88.1095
    3.945   53.9652
    3.960   34.4813
    3.975   25.3502
    3.990   20.5582
    4.005   18.0411
    4.020   16.1348
    4.035   14.4918
    4.050   13.0700
    4.065   13.1016
    4.080   11.9221
    4.095   12.0484
    4.110   11.3007
    4.125   11.1427
    4.140   10.9953
    4.155   11.0269
    4.170   10.3739
    4.185    9.9105
    4.200    9.7525
    4.215    9.7209
    4.230    9.6261
    4.245    9.6682
    4.260    9.3312
    4.275    9.2259
    4.290    9.4576
    4.305    9.7841
    4.320    9.5629
    4.335    9.2891
    4.350    8.8362
    4.365    9.0258
    4.380    8.9942
    4.395    8.6045
    4.410    9.3734
    4.425    9.2575
    4.440    8.8573
    4.455    9.1732
    4.470    9.2364
    4.485    8.9837
    4.500    9.1627
    4.515    9.1732
    4.530    9.1417
    4.545    9.5419
    4.560    9.3418
    4.575    8.9837
    4.590    9.1943
    4.605    9.4050
    4.620    9.1206
    4.635    9.2048
    4.650    9.2891
    4.665    9.2575
    4.680    9.1417
    4.695    9.2891
    4.710    9.4260
    4.725    9.8894
    4.740    9.5524
    4.755    9.6682
    4.770   10.1211
    4.785   10.0369
    4.800   10.1106
    4.815   10.0474
    4.830    9.7525
    4.845    9.8052
    4.860    9.6261
    4.875   10.1948
    4.890    9.8999
    4.905   10.2791
    4.920    9.7104
    4.935   10.3002
    4.950   10.4687
    4.965   10.4265
    4.980   10.8478
    4.995   10.9215
    5.010   10.6161
    5.025   10.9637
    5.040   11.0900
    5.055   11.7220
    5.070   11.7325
    5.085   11.7114
    5.100   11.9431
    5.115   12.1643
    5.130   12.1643
    5.145   12.3223
    5.160   12.9226
    5.175   12.9753
    5.190   13.3649
    5.205   14.0284
    5.220   14.1969
    5.235   14.8499
    5.250   14.5024
    5.265   15.4924
    5.280   15.7241
    5.295   16.5140
    5.310   17.2617
    5.325   17.9568
    5.340   18.7678
    5.355   19.8420
    5.370   20.7478
    5.385   21.8009
    5.400   23.6230
    5.415   24.0969
    5.430   27.1195
    5.445   29.2575
    5.460   31.6693
    5.475   35.8083
    5.490   36.5140
    5.505   35.6187
    5.520   33.1543
    5.535   28.6151
    5.550   22.6014
    5.565   16.8404
    5.580   13.3544
    5.595   11.1743
    5.610   10.4160
    5.625    9.4155
    5.640    8.9837
    5.655    8.9731
    5.670    8.8152
    5.685    7.9200
    5.700    7.7830
    5.715    8.1411
    5.730    8.4571
    5.745    7.8357
    5.760    8.0358
    5.775    8.3202
    5.790    8.1517
    5.805    8.1095
    5.820    7.8568
    5.835    7.8041
    5.850    7.9410
    5.865    7.8778
    5.880    7.6988
    5.895    7.7409
    5.910    7.9305
    5.925    7.9200
    5.940    7.7620
    5.955    7.8989
    5.970    7.6040
    5.985    7.6777
    6.000    7.7725
    6.015    7.8989
    6.030    7.9726
    6.045    8.5097
    6.060    7.9726
    6.075    8.1306
    6.090    8.2254
    6.105    7.9305
    6.120    7.6145
    6.135    7.7936
    6.150    7.6567
    6.165    8.3728
    6.180    8.3728
    6.195    7.9305
    6.210    7.6777
    6.225    7.6567
    6.240    7.8989
    6.255    8.2043
    6.270    8.0885
    6.285    8.0779
    6.300    8.0779
    6.315    8.3096
    6.330    8.1517
    6.345    7.8041
    6.360    7.8252
    6.375    8.3307
    6.390    8.2149
    6.405    8.0779
    6.420    8.2570
    6.435    8.0674
    6.450    8.2149
    6.465    8.6783
    6.480    8.3728
    6.495    8.8046
    6.510    8.8889
    6.525    9.2786
    6.540    8.7941
    6.555    8.8257
    6.570    8.9415
    6.585    8.7730
    6.600    8.8784
    6.615    9.5208
    6.630    9.6156
    6.645    9.7314
    6.660   10.1001
    6.675   10.2054
    6.690   10.4265
    6.705   11.3217
    6.720   12.1011
    6.735   11.6166
    6.750   12.1222
    6.765   11.4587
    6.780   10.6266
    6.795    9.8894
    6.810    9.1206
    6.825    8.5940
    6.840    8.2043
    6.855    7.9516
    6.870    7.7936
    6.885    7.7830
    6.900    7.8462
    6.915    7.8884
    6.930    7.8568
    6.945    7.7936
    6.960    7.7620
    6.975    7.4987
    6.990    7.2459
    7.005    7.8357
    7.020    7.4039
    7.035    7.9094
    7.050    7.6461
    7.065    7.2249
    7.080    7.2354
    7.095    7.3618
    7.110    7.5619
    7.125    7.0248
    7.140    7.8146
    7.155    7.7409
    7.170    7.7409
    7.185    8.0779
    7.200    7.2249
    7.215    7.7936
    7.230    7.6251
    7.245    7.8778
    7.260    8.0042
    7.275    8.0885
    7.290    7.7725
    7.305    8.2991
    7.320    8.5097
    7.335    8.0674
    7.350    7.8041
    7.365    7.9516
    7.380    8.0569
    7.395    8.5097
    7.410    8.6783
    7.425    8.1833
    7.440    8.0253
    7.455    8.1833
    7.470    8.3518
    7.485    8.5203
    7.500    8.6467
    7.515    8.5519
    7.530    8.6467
    7.545    8.9310
    7.560    8.3202
    7.575    8.4255
    7.590    9.0890
    7.605    9.3418
    7.620    9.5945
    7.635    9.9947
    7.650   10.2475
    7.665   10.5108
    7.680   10.4687
    7.695   10.9321
    7.710   11.2691
    7.725   11.7641
    7.740   12.5856
    7.755   13.2175
    7.770   14.1864
    7.785   15.1975
    7.800   14.8920
    7.815   13.8599
    7.830   12.3539
    7.845   11.2375
    7.860   10.0685
    7.875    9.4050
    7.890    7.9305
    7.905    7.8252
    7.920    7.6883
    7.935    8.1411
    7.950    7.6672
    7.965    7.6251
    7.980    7.6356
    7.995    7.6988
    8.010    7.8989
    8.025    8.0674
    8.040    7.9726
    8.055    7.3091
    8.070    7.4039
    8.085    7.3934
    8.100    7.4144
    8.115    7.3091
    8.130    7.4882
    8.145    7.6251
    8.160    7.7304
    8.175    7.6040
    8.190    7.4566
    8.205    7.4355
    8.220    7.4776
    8.235    7.1195
    8.250    7.3618
    8.265    7.6567
    8.280    7.7620
    8.295    7.8252
    8.310    7.5303
    8.325    7.4671
    8.340    7.5724
    8.355    7.6040
    8.370    7.5408
    8.385    7.7725
    8.400    7.7304
    8.415    7.4671
    8.430    7.2459
    8.445    7.5092
    8.460    7.5724
    8.475    7.9410
    8.490    8.0569
    8.505    7.8884
    8.520    7.7199
    8.535    7.5619
    8.550    7.5408
    8.565    7.3618
    8.580    8.0358
    8.595    8.1938
    8.610    7.6040
    8.625    7.8989
    8.640    7.7936
    8.655    7.8778
    8.670    7.9937
    8.685    7.8884
    8.700    8.4887
    8.715    8.2254
    8.730    8.0463
    8.745    8.1095
    8.760    7.4566
    8.775    7.6145
    8.790    7.8357
    8.805    7.9937
    8.820    7.9094
    8.835    8.1833
    8.850    8.2780
    8.865    7.8462
    8.880    8.1201
    8.895    7.8462
    8.910    7.5303
    8.925    7.8041
    8.940    8.0042
    8.955    7.7304
    8.970    7.6988
    8.985    7.2459
    9.000    7.6988
    9.015    7.5935
    9.030    7.4250
    9.045    7.5513
    9.060    7.6777
    9.075    7.7514
    9.090    7.8568
    9.105    7.8462
    9.120    7.7725
    9.135    8.2359
    9.150    8.3728
    9.165    8.0779
    9.180    8.6361
    9.195    8.4150
    9.210    8.4360
    9.225    8.3518
    9.240    8.8362
    9.255    9.2680
    9.270    9.0363
    9.285    9.0890
    9.300    9.0363
    9.315    9.0995
    9.330    9.4681
    9.345    9.7736
    9.360   10.1632
    9.375   10.6793
    9.390   11.5429
    9.405   11.7325
    9.420   11.9221
    9.435   12.9647
    9.450   13.4597
    9.465   14.0600
    9.480   14.8710
    9.495   16.0611
    9.510   17.6830
    9.525   18.9679
    9.540   20.0632
    9.555   20.7583
    9.570   20.7162
    9.585   19.4207
    9.600   16.6403
    9.615   14.7551
    9.630   12.3012
    9.645   10.8478
    9.660    9.0153
    9.675    8.7414
    9.690    8.2359
    9.705    8.3623
    9.720    8.1622
    9.735    7.9094
    9.750    8.0463
    9.765    8.0358
    9.780    8.0358
    9.795    7.9621
    9.810    7.7409
    9.825    7.5092
    9.840    7.7093
    9.855    7.5619
    9.870    7.4882
    9.885    7.9410
    9.900    8.0674
    9.915    7.6356
    9.930    7.9305
    9.945    7.9621
    9.960    7.7409
    9.975    7.8252
    9.990    7.7199
   10.005    8.1201
   10.020    7.9516
   10.035    8.1095
   10.050    8.0463
   10.065    8.7204
   10.080    8.3834
   10.095    7.9831
   10.110    8.3202
   10.125    8.8468
   10.140    8.7414
   10.155    8.5729
   10.170    9.0258
   10.185    8.9626
   10.200    9.4155
   10.215    9.6156
   10.230    9.8473
   10.245    9.7946
   10.260   10.4371
   10.275   10.5740
   10.290   11.0374
   10.305   11.5745
   10.320   11.9958
   10.335   11.8905
   10.350   12.2486
   10.365   11.8483
   10.380   10.7741
   10.395    9.5524
   10.410    8.5203
   10.425    8.2254
   10.440    7.8357
   10.455    7.6777
   10.470    7.7620
   10.485    7.9621
   10.500    7.7725
   10.515    7.7304
   10.530    7.6988
   10.545    7.7304
   10.560    7.8252
   10.575    7.4039
   10.590    7.4671
   10.605    7.4566
   10.620    7.5619
   10.635    7.7725
   10.650    7.6883
   10.665    8.1411
   10.680    7.4144
   10.695    7.6356
   10.710    7.4882
   10.725    7.3302
   10.740    7.7936
   10.755    7.8778
   10.770    7.8252
   10.785    7.7725
   10.800    8.1411
   10.815    7.8146
   10.830    8.1095
   10.845    8.1727
   10.860    7.7514
   10.875    8.6045
   10.890    8.5203
   10.905    8.5624
   10.920    8.7098
   10.935    8.8362
   10.950    9.4787
   10.965    9.1627
   10.980    9.0363
   10.995   10.1843
   11.010   10.4581
   11.025   10.7952
   11.040   10.8268
   11.055   10.7004
   11.070   10.3423
   11.085   10.6056
   11.100   10.4476
   11.115    9.3207
   11.130    8.5624
   11.145    8.0042
   11.160    7.5408
   11.175    7.0774
   11.190    7.4144
   11.205    7.7199
   11.220    7.7409
   11.235    7.2038
   11.250    7.0879
   11.265    7.4039
   11.280    7.2880
   11.295    7.3828
   11.310    7.4671
   11.325    7.7093
   11.340    7.3723
   11.355    7.3196
   11.370    7.5619
   11.385    7.4460
   11.400    7.2986
   11.415    7.4355
   11.430    7.7409
   11.445    8.0463
   11.460    7.8989
   11.475    7.7514
   11.490    8.2043
   11.505    7.7936
   11.520    7.8884
   11.535    8.2359
   11.550    8.1411
   11.565    8.5097
   11.580    8.6045
   11.595    8.8257
   11.610    9.2259
   11.625    9.3734
   11.640    9.6998
   11.655    9.8052
   11.670   10.5213
   11.685   10.4371
   11.700   10.9637
   11.715   11.4060
   11.730   11.2586
   11.745   11.1954
   11.760   10.4371
   11.775    9.7209
   11.790    8.4676
   11.805    7.8989
   11.820    8.0253
   11.835    8.0779
   11.850    7.6883
   11.865    7.6251
   11.880    7.6461
   11.895    7.6777
   11.910    7.1722
   11.925    7.1301
   11.940    7.4460
   11.955    6.9510
   11.970    7.2565
   11.985    7.0985
   12.000    7.2038
   12.015    7.1933
   12.030    7.1195
   12.045    7.2459
   12.060    7.3723
   12.075    7.0142
   12.090    6.6983
   12.105    6.9616
   12.120    6.9826
   12.135    6.6983
   12.150    6.8141
   12.165    6.9405
   12.180    7.0879
   12.195    7.0037
   12.210    7.4039
   12.225    7.1406
   12.240    7.0879
   12.255    7.1722
   12.270    6.9826
   12.285    7.5724
   12.300    7.4987
   12.315    7.2249
   12.330    7.5619
   12.345    7.5619
   12.360    7.8357
   12.375    7.6988
   12.390    7.7093
   12.405    7.3512
   12.420    7.3512
   12.435    7.5829
   12.450    7.0458
   12.465    7.1617
   12.480    6.9510
   12.495    7.0563
   12.510    6.7404
   12.525    6.6983
   12.540    7.0774
   12.555    6.8984
   12.570    6.9510
   12.585    6.6351
   12.600    6.9616
   12.615    7.0037
   12.630    7.3934
   12.645    7.0458
   12.660    6.9932
   12.675    7.3934
   12.690    7.2249
   12.705    6.8878
   12.720    6.9089
   12.735    7.0985
   12.750    7.0353
   12.765    7.2459
   12.780    7.3618
   12.795    7.5829
   12.810    7.7936
   12.825    7.6777
   12.840    8.0253
   12.855    7.9516
   12.870    8.0885
   12.885    8.3307
   12.900    8.5519
   12.915    9.1943
   12.930    9.4787
   12.945    9.6998
   12.960    9.8262
   12.975    9.6788
   12.990    9.4892
   13.005    9.2364
   13.020    8.4571
   13.035    8.1622
   13.050    7.5513
   13.065    7.4144
   13.080    7.3407
   13.095    7.1511
   13.110    7.3618
   13.125    7.0353
   13.140    6.7299
   13.155    7.2249
   13.170    7.1406
   13.185    6.8036
   13.200    6.8878
   13.215    6.7615
   13.230    7.0458
   13.245    7.0879
   13.260    7.2143
   13.275    6.9826
   13.290    7.1301
   13.305    6.8036
   13.320    6.7930
   13.335    6.8562
   13.350    6.9510
   13.365    7.0563
   13.380    7.6461
   13.395    7.5829
   13.410    7.6251
   13.425    7.1195
   13.440    7.5829
   13.455    7.5408
   13.470    8.0990
   13.485    7.8357
   13.500    8.1095
   13.515    8.8152
   13.530    8.6677
   13.545    8.1938
   13.560    8.0674
   13.575    7.8778
   13.590    7.8357
   13.605    7.8041
   13.620    7.4039
   13.635    7.4776
   13.650    6.9721
   13.665    7.3934
   13.680    6.8984
   13.695    6.7088
   13.710    6.8036
   13.725    7.0353
   13.740    6.8668
   13.755    6.7193
   13.770    7.0563
   13.785    6.8878
   13.800    6.9510
   13.815    6.5298
   13.830    6.9089
   13.845    6.9932
   13.860    6.7825
   13.875    6.8878
   13.890    7.0774
   13.905    7.4144
   13.920    7.4460
   13.935    7.0774
   13.950    7.3618
   13.965    7.6356
   13.980    7.6883
   13.995    7.6988
   14.010    7.6567
   14.025    7.7093
   14.040    8.0042
   14.055    8.3518
   14.070    8.7836
   14.085    8.8994
   14.100    9.0363
   14.115    9.4155
   14.130    8.9626
   14.145    8.7309
   14.160    8.1517
   14.175    7.4671
   14.190    7.5408
   14.205    7.5092
   14.220    7.0563
   14.235    7.1090
   14.250    6.8352
   14.265    6.6877
   14.280    6.7615
   14.295    6.6772
   14.310    6.9932
   14.325    6.7088
   14.340    6.6667
   14.355    6.7404
   14.370    6.7299
   14.385    6.7299
   14.400    6.9721
   14.415    6.6772
   14.430    6.8036
   14.445    6.9089
   14.460    6.5613
   14.475    6.6351
   14.490    6.5929
   14.505    6.8457
   14.520    6.7404
   14.535    6.8878
   14.550    6.7825
   14.565    6.4666
   14.580    6.3296
   14.595    6.9405
   14.610    7.1301
   14.625    6.9405
   14.640    6.7825
   14.655    6.4982
   14.670    6.8141
   14.685    6.8457
   14.700    6.4560
   14.715    6.6561
   14.730    6.7404
   14.745    6.4982
   14.760    6.9300
   14.775    6.7299
   14.790    6.9721
   14.805    6.6983
   14.820    6.6351
   14.835    6.8562
   14.850    6.8984
   14.865    6.6983
   14.880    6.7299
   14.895    6.5508
   14.910    6.6035
   14.925    6.7193
   14.940    6.8562
   14.955    7.1090
   14.970    7.0774
   14.985    7.1090
   15.000    7.1827
   15.015    6.8668
   15.030    6.5508
   15.045    6.8773
   15.060    6.9616
   15.075    6.9932
   15.090    7.0985
   15.105    6.7404
   15.120    6.9721
   15.135    7.4671
   15.150    7.2249
   15.165    7.4987
   15.180    7.3618
   15.195    7.0879
   15.210    7.1406
   15.225    7.1933
   15.240    7.2670
   15.255    7.0458
   15.270    7.2565
   15.285    7.2249
   15.300    6.9194
   15.315    7.1511
   15.330    6.8668
   15.345    6.8773
   15.360    6.7193
   15.375    6.8668
   15.390    6.4244
   15.405    6.6772
   15.420    6.8562
   15.435    6.7088
   15.450    6.9826
   15.465    6.8773
   15.480    6.8457
   15.495    7.0248
   15.510    6.8141
   15.525    6.9300
   15.540    6.6140
   15.555    6.9826
   15.570    7.2354
   15.585    6.8036
   15.600    6.5192
   15.615    6.9194
   15.630    6.9300
   15.645    7.0037
   15.660    7.1827
   15.675    7.0669
   15.690    6.9932
   15.705    6.6667
   15.720    7.0142
   15.735    7.0458
   15.750    7.2038
   15.765    6.9932
   15.780    7.0985
   15.795    6.6035
   15.810    6.6561
   15.825    7.1722
   15.840    7.0248
   15.855    7.2038
   15.870    7.2565
   15.885    7.0563
   15.900    6.7404
   15.915    7.4039
   15.930    7.3828
   15.945    7.2775
   15.960    6.9616
   15.975    7.4355
   15.990    7.6461
   16.005    7.5829
   16.020    7.7725
   16.035    7.6988
   16.050    7.4355
   16.065    7.7199
   16.080    7.8462
   16.095    7.9516
   16.110    8.2780
   16.125    8.5729
   16.140    8.5519
   16.155    8.0042
   16.170    8.1517
   16.185    8.3096
   16.200    8.4466
   16.215    7.6251
   16.230    7.6461
   16.245    8.3307
   16.260    7.6461
   16.275    7.4355
   16.290    7.4776
   16.305    7.2880
   16.320    6.8562
   16.335    7.6567
   16.350    7.6567
   16.365    7.2670
   16.380    7.1722
   16.395    7.1933
   16.410    7.7936
   16.425    7.5513
   16.440    7.0142
   16.455    7.4987
   16.470    7.3618
   16.485    7.2670
   16.500    7.6461
   16.515    7.4566
   16.530    7.7936
   16.545    7.3723
   16.560    7.6040
   16.575    7.6988
   16.590    7.9094
   16.605    7.7725
   16.620    8.3412
   16.635    8.6045
   16.650    7.9094
   16.665    8.0253
   16.680    7.8568
   16.695    7.2775
   16.710    7.2565
   16.725    7.2775
   16.740    7.2459
   16.755    6.9616
   16.770    7.0037
   16.785    7.1195
   16.800    7.1722
   16.815    7.1827
   16.830    7.2775
   16.845    7.1195
   16.860    7.6040
   16.875    7.4987
   16.890    7.5408
   16.905    7.5724
   16.920    7.6251
   16.935    7.6567
   16.950    7.5619
   16.965    7.8568
   16.980    8.0253
   16.995    8.1095
   17.010    8.3623
   17.025    8.3518
   17.040    8.5940
   17.055    8.8046
   17.070    9.0995
   17.085    9.2048
   17.100    9.0469
   17.115    8.6993
   17.130    8.7625
   17.145    8.0253
   17.160    7.9831
   17.175    7.7199
   17.190    7.6145
   17.205    7.5724
   17.220    7.1933
   17.235    7.0774
   17.250    6.7825
   17.265    6.9194
   17.280    6.7509
   17.295    6.5824
   17.310    6.8668
   17.325    6.9510
   17.340    7.1511
   17.355    6.8457
   17.370    6.9826
   17.385    7.2143
   17.400    7.0774
   17.415    6.7825
   17.430    7.4039
   17.445    7.1827
   17.460    7.3512
   17.475    7.3618
   17.490    7.3091
   17.505    7.3934
   17.520    7.2670
   17.535    7.0037
   17.550    6.8036
   17.565    7.4355
   17.580    7.0563
   17.595    7.0037
   17.610    7.3828
   17.625    7.2354
   17.640    7.2038
   17.655    6.7720
   17.670    6.4139
   17.685    7.1301
   17.700    7.0353
   17.715    6.9616
   17.730    6.8562
   17.745    7.1301
   17.760    7.0248
   17.775    6.9300
   17.790    6.9721
   17.805    7.4250
   17.820    7.2143
   17.835    7.0985
   17.850    6.8984
   17.865    6.9510
   17.880    7.1933
   17.895    6.9932
   17.910    7.0458
   17.925    7.5829
   17.940    7.4882
   17.955    7.7620
   17.970    7.4144
   17.985    7.5829
   18.000    7.4776
   18.015    7.3828
   18.030    7.2354
   18.045    6.8984
   18.060    7.0458
   18.075    7.1090
   18.090    6.7404
   18.105    7.1301
   18.120    6.9405
   18.135    7.5303
   18.150    7.0879
   18.165    7.2880
   18.180    7.1933
   18.195    7.4355
   18.210    6.9300
   18.225    7.3302
   18.240    6.7930
   18.255    6.8246
   18.270    6.9616
   18.285    6.9194
   18.300    7.3407
   18.315    6.9932
   18.330    6.9826
   18.345    7.2670
   18.360    7.3618
   18.375    7.4566
   18.390    7.4987
   18.405    7.4355
   18.420    7.3934
   18.435    7.4987
   18.450    7.3828
   18.465    7.1722
   18.480    7.1933
   18.495    7.0353
   18.510    7.0985
   18.525    7.2775
   18.540    7.0458
   18.555    6.6983
   18.570    6.8878
   18.585    7.2670
   18.600    7.3091
   18.615    7.0669
   18.630    7.4671
   18.645    6.9826
   18.660    6.4455
   18.675    6.9089
   18.690    6.9616
   18.705    6.8141
   18.720    6.9510
   18.735    6.8984
   18.750    7.0037
   18.765    6.8457
   18.780    7.2249
   18.795    7.7514
   18.810    7.4882
   18.825    7.3512
   18.840    7.3828
   18.855    7.5197
   18.870    7.0248
   18.885    7.4566
   18.900    7.0248
   18.915    7.2459
   18.930    7.6461
   18.945    7.5513
   18.960    7.2670
   18.975    7.3091
   18.990    7.3512
   19.005    7.2249
   19.020    7.1195
   19.035    7.1195
   19.050    7.3302
   19.065    7.1933
   19.080    7.2670
   19.095    6.9300
   19.110    6.7930
   19.125    6.9405
   19.140    7.2565
   19.155    7.1195
   19.170    7.2565
   19.185    6.8773
   19.200    6.9932
   19.215    7.3302
   19.230    7.2670
   19.245    7.1090
   19.260    6.7615
   19.275    6.5298
   19.290    6.9405
   19.305    7.1195
   19.320    6.9721
   19.335    7.0142
   19.350    6.7615
   19.365    7.2249
   19.380    6.5929
   19.395    7.1511
   19.410    7.1722
   19.425    6.8457
   19.440    6.9721
   19.455    7.4671
   19.470    7.1722
   19.485    7.3512
   19.500    7.2670
   19.515    7.0985
   19.530    7.2775
   19.545    7.6251
   19.560    7.3091
   19.575    7.1933
   19.590    7.4250
   19.605    7.8989
   19.620    7.3618
   19.635    7.3723
   19.650    7.6145
   19.665    7.5092
   19.680    7.6672
   19.695    7.8778
   19.710    7.6251
   19.725    7.3407
   19.740    7.0037
   19.755    7.0879
   19.770    7.1301
   19.785    6.8036
   19.800    7.0669
   19.815    7.0353
   19.830    6.8352
   19.845    6.8562
   19.860    7.0353
   19.875    7.1090
   19.890    7.0248
   19.905    7.0353
   19.920    7.2143
   19.935    7.2249
   19.950    7.4882
   19.965    6.8352
   19.980    6.7930
   19.995    6.6351
   20.010    7.2038
   20.025    7.4987
   20.040    7.6461
   20.055    7.3196
   20.070    6.8352
   20.085    7.4355
   20.100    7.4039
   20.115    7.3618
   20.130    7.0563
   20.145    7.2459
   20.160    7.4671
   20.175    7.0142
   20.190    6.7088
   20.205    6.9194
   20.220    7.7830
   20.235    7.5829
   20.250    7.5724
   20.265    7.5935
   20.280    7.8252
   20.295    7.3828
   20.310    7.9305
   20.325    7.5935
   20.340    8.4360
   20.355    8.5624
   20.370    8.4044
   20.385    8.2043
   20.400    8.9310
   20.415    8.4887
   20.430    8.6256
   20.445    8.2254
   20.460    8.2464
   20.475    8.2570
   20.490    8.0779
   20.505    7.1617
   20.520    7.3934
   20.535    7.2565
   20.550    6.9826
   20.565    7.1195
   20.580    6.8773
   20.595    7.0985
   20.610    7.1195
   20.625    6.7299
   20.640    6.7404
   20.655    6.6561
   20.670    6.9616
   20.685    7.7199
   20.700    7.4144
   20.715    6.8668
   20.730    6.9194
   20.745    7.1933
   20.760    7.0985
   20.775    7.0985
   20.790    6.8457
   20.805    7.2143
   20.820    6.6983
   20.835    6.9194
   20.850    7.2143
   20.865    6.9089
   20.880    7.1511
   20.895    7.3828
   20.910    6.9300
   20.925    6.8773
   20.940    7.0037
   20.955    6.8878
   20.970    6.9089
   20.985    6.5403
   21.000    6.6877
   21.015    6.7509
   21.030    6.8878
   21.045    6.7720
   21.060    6.9089
   21.075    7.1406
   21.090    6.7509
   21.105    6.8246
   21.120    7.2459
   21.135    6.9405
   21.150    7.0774
   21.165    7.1090
   21.180    7.2459
   21.195    7.3407
   21.210    7.3091
   21.225    7.1195
   21.240    7.1722
   21.255    7.3723
   21.270    7.0458
   21.285    7.1406
   21.300    7.0985
   21.315    6.8562
   21.330    7.2986
   21.345    6.7615
   21.360    7.0774
   21.375    7.3196
   21.390    7.1827
   21.405    7.0563
   21.420    6.8878
   21.435    6.8457
   21.450    6.6877
   21.465    7.3091
   21.480    6.9721
   21.495    6.9932
   21.510    7.0142
   21.525    7.1617
   21.540    7.3091
   21.555    6.8878
   21.570    7.4144
   21.585    7.0248
   21.600    6.6877
   21.615    6.6035
   21.630    6.6772
   21.645    6.8036
   21.660    6.9932
   21.675    7.0669
   21.690    7.1617
   21.705    7.0248
   21.720    6.8246
   21.735    6.9194
   21.750    6.9721
   21.765    7.0248
   21.780    7.4566
   21.795    7.4566
   21.810    7.6777
   21.825    7.3407
   21.840    7.5092
   21.855    7.6461
   21.870    7.8041
   21.885    7.6461
   21.900    7.7936
   21.915    7.5092
   21.930    7.6883
   21.945    7.7304
   21.960    7.8146
   21.975    7.9621
   21.990    7.4566
   22.005    7.5197
   22.020    7.0985
   22.035    6.9194
   22.050    6.9405
   22.065    6.9089
   22.080    7.2670
   22.095    7.2880
   22.110    7.3091
   22.125    7.0563
   22.140    7.2249
   22.155    7.3934
   22.170    7.1511
   22.185    7.6040
   22.200    7.7830
   22.215    7.6988
   22.230    7.7409
   22.245    7.5724
   22.260    7.7620
   22.275    7.5619
   22.290    7.6672
   22.305    7.5619
   22.320    7.5303
   22.335    7.3196
   22.350    6.9721
   22.365    7.3512
   22.380    7.5408
   22.395    7.3302
   22.410    7.3723
   22.425    7.4882
   22.440    7.6145
   22.455    7.8673
   22.470    7.8778
   22.485    7.9726
   22.500    8.1095
   22.515    8.3412
   22.530    8.4360
   22.545    8.9942
   22.560    8.4992
   22.575    8.9310
   22.590    8.7625
   22.605    8.9100
   22.620    8.8362
   22.635    8.8468
   22.650    8.5413
   22.665    8.4360
   22.680    8.4992
   22.695    8.1095
   22.710    7.7514
   22.725    7.4776
   22.740    7.5197
   22.755    7.6461
   22.770    7.6356
   22.785    7.6145
   22.800    7.7093
   22.815    7.2670
   22.830    7.2459
   22.845    8.1201
   22.860    8.5203
   22.875    8.3834
   22.890    9.1417
   22.905    8.8257
   22.920    9.8157
   22.935    9.7420
   22.950    9.0469
   22.965    9.1206
   22.980    9.0574
   22.995    8.7520
   23.010    9.0363
   23.025    8.1622
   23.040    7.8357
   23.055    7.6145
   23.070    7.3196
   23.085    7.2565
   23.100    7.5724
   23.115    7.4776
   23.130    7.1511
   23.145    7.2038
   23.160    7.4987
   23.175    7.8884
   23.190    7.7409
   23.205    7.5619
   23.220    7.5513
   23.235    7.7936
   23.250    7.7514
   23.265    7.6251
   23.280    7.8462
   23.295    7.7620
   23.310    8.0569
   23.325    7.5197
   23.340    7.6777
   23.355    7.1195
   23.370    7.1406
   23.385    7.0142
   23.400    7.0985
   23.415    7.1617
   23.430    7.2459
   23.445    7.2038
   23.460    7.0142
   23.475    7.0879
   23.490    7.1195
   23.505    7.0248
   23.520    7.5197
   23.535    7.5197
   23.550    6.8562
   23.565    7.3934
   23.580    6.8036
   23.595    7.0563
   23.610    7.1722
   23.625    7.3091
   23.640    6.9932
   23.655    7.0774
   23.670    7.0353
   23.685    7.2038
   23.700    7.5724
   23.715    7.3512
   23.730    7.3723
   23.745    7.6040
   23.760    7.4250
   23.775    6.8562
   23.790    7.1195
   23.805    7.2670
   23.820    7.5935
   23.835    7.1090
   23.850    7.0669
   23.865    7.2986
   23.880    7.8778
   23.895    7.5197
   23.910    7.4250
   23.925    7.6883
   23.940    7.5829
   23.955    7.5408
   23.970    7.3407
   23.985    7.3512
   24.000    7.3302
   24.015    7.2670
   24.030    7.1511
   24.045    7.0248
   24.060    6.6877
   24.075    6.9089
   24.090    7.2986
   24.105    7.0774
   24.120    7.2249
   24.135    7.3618
   24.150    6.9194
   24.165    7.4355
   24.180    7.0458
   24.195    6.9510
   24.210    7.2249
   24.225    7.1301
   24.240    6.9826
   24.255    7.3091
   24.270    6.7299
   24.285    6.7404
   24.300    7.0985
   24.315    7.0353
   24.330    7.0248
   24.345    7.3091
   24.360    7.0248
   24.375    7.0037
   24.390    6.4876
   24.405    6.6983
   24.420    7.1933
   24.435    6.8878
   24.450    6.9826
   24.465    6.8457
   24.480    6.7404
   24.495    6.9405
   24.510    6.9932
   24.525    7.0037
   24.540    6.9089
   24.555    6.9194
   24.570    7.1933
   24.585    7.1195
   24.600    6.7720
   24.615    7.0985
   24.630    7.1511
   24.645    6.9300
   24.660    6.6351
   24.675    7.1617
   24.690    7.0248
   24.705    6.8352
   24.720    6.9616
   24.735    6.8773
   24.750    6.9721
   24.765    7.2880
   24.780    7.0774
   24.795    6.9089
   24.810    6.9616
   24.825    7.1090
   24.840    6.8773
   24.855    7.3302
   24.870    7.1617
   24.885    6.7930
   24.900    6.8773
   24.915    6.8773
   24.930    7.2249
   24.945    7.2354
   24.960    6.8878
   24.975    7.1406
   24.990    7.0879
   25.005    6.9300
   25.020    6.9510
   25.035    7.2775
   25.050    6.9932
   25.065    6.8141
   25.080    6.6245
   25.095    6.9826
   25.110    6.8141
   25.125    6.8668
   25.140    7.0248
   25.155    6.9300
   25.170    6.7193
   25.185    7.2354
   25.200    7.5303
   25.215    7.0142
   25.230    7.2880
   25.245    7.0985
   25.260    7.3302
   25.275    7.1827
   25.290    7.0458
   25.305    6.9932
   25.320    7.1617
   25.335    7.0353
   25.350    7.3196
   25.365    7.3828
   25.380    7.0669
   25.395    6.7720
   25.410    7.4144
   25.425    6.8036
   25.440    6.9932
   25.455    7.3091
   25.470    7.1195
   25.485    7.1617
   25.500    7.4671
   25.515    6.9194
   25.530    7.1511
   25.545    7.4250
   25.560    6.8246
   25.575    6.7720
   25.590    7.2986
   25.605    6.9616
   25.620    6.9194
   25.635    7.2354
   25.650    7.0248
   25.665    7.1511
   25.680    7.2775
   25.695    7.3091
   25.710    7.4566
   25.725    7.3828
   25.740    7.4882
   25.755    7.7093
   25.770    7.7093
   25.785    8.0147
   25.800    7.8673
   25.815    8.2464
   25.830    8.0569
   25.845    8.0674
   25.860    7.9410
   25.875    7.8673
   25.890    7.8568
   25.905    7.8357
   25.920    7.7409
   25.935    7.9305
   25.950    7.4882
   25.965    7.4987
   25.980    7.4987
   25.995    7.3302
   26.010    7.1933
   26.025    7.4039
   26.040    7.1090
   26.055    6.8352
   26.070    6.7825
   26.085    6.6245
   26.100    7.1090
   26.115    6.9510
   26.130    6.7193
   26.145    7.1090
   26.160    6.9826
   26.175    6.8562
   26.190    7.2459
   26.205    7.2354
   26.220    7.1406
   26.235    6.6877
   26.250    6.8984
   26.265    7.0669
   26.280    6.9932
   26.295    7.1722
   26.310    6.9089
   26.325    6.6351
   26.340    6.9826
   26.355    7.0142
   26.370    7.0563
   26.385    7.4039
   26.400    7.4987
   26.415    7.2354
   26.430    7.2986
   26.445    7.3196
   26.460    7.4882
   26.475    7.2775
   26.490    7.0037
   26.505    6.9405
   26.520    6.9405
   26.535    6.7299
   26.550    6.9932
   26.565    6.9405
   26.580    6.3928
   26.595    6.7088
   26.610    6.6351
   26.625    6.8352
   26.640    6.7193
   26.655    6.9300
   26.670    6.6035
   26.685    6.5929
   26.700    6.4139
   26.715    6.5719
   26.730    6.5508
   26.745    6.7930
   26.760    7.2354
   26.775    6.6035
   26.790    6.8352
   26.805    7.2670
   26.820    6.3191
   26.835    6.6245
   26.850    6.7088
   26.865    6.9721
   26.880    6.7299
   26.895    6.8878
   26.910    6.7930
   26.925    6.6877
   26.940    6.5613
   26.955    7.1090
   26.970    7.0563
   26.985    7.2354
   27.000    7.4250
   27.015    7.7620
   27.030    7.6356
   27.045    7.5197
   27.060    7.5197
   27.075    7.1827
   27.090    7.1301
   27.105    7.0563
   27.120    7.0563
   27.135    7.2354
   27.150    7.0248
   27.165    7.0774
   27.180    6.9510
   27.195    7.1301
   27.210    6.4876
   27.225    6.7404
   27.240    7.0985
   27.255    6.6877
   27.270    6.8984
   27.285    7.3512
   27.300    6.8878
   27.315    6.6983
   27.330    7.0774
   27.345    7.0248
   27.360    6.9510
   27.375    6.6140
   27.390    6.9194
   27.405    6.4139
   27.420    6.6035
   27.435    6.4982
   27.450    6.6245
   27.465    6.6877
   27.480    6.4244
   27.495    6.6351
   27.510    6.5719
   27.525    6.6245
   27.540    7.0879
   27.555    6.5929
   27.570    6.7404
   27.585    6.7404
   27.600    6.9405
   27.615    7.0985
   27.630    7.3512
   27.645    6.8984
   27.660    7.1511
   27.675    7.3196
   27.690    7.2459
   27.705    7.2459
   27.720    6.9300
   27.735    6.7615
   27.750    7.1511
   27.765    7.0774
   27.780    6.9300
   27.795    6.8878
   27.810    6.7509
   27.825    6.8352
   27.840    7.0879
   27.855    7.1090
   27.870    7.0037
   27.885    7.1722
   27.900    7.1511
   27.915    7.1406
   27.930    7.2143
   27.945    7.1195
   27.960    7.3407
   27.975    7.5619
   27.990    7.1511
   28.005    7.2249
   28.020    7.0458
   28.035    7.0248
   28.050    6.7720
   28.065    7.0563
   28.080    6.8246
   28.095    7.0563
   28.110    7.0353
   28.125    6.8352
   28.140    6.8878
   28.155    6.8036
   28.170    6.9616
   28.185    7.1827
   28.200    7.3828
   28.215    6.8878
   28.230    7.2354
   28.245    7.3828
   28.260    7.3723
   28.275    7.0037
   28.290    7.0458
   28.305    6.8878
   28.320    6.9089
   28.335    6.6035
   28.350    6.8141
   28.365    6.8457
   28.380    7.2354
   28.395    7.2670
   28.410    7.1090
   28.425    7.1722
   28.440    7.0458
   28.455    7.1722
   28.470    6.9616
   28.485    7.0985
   28.500    7.2143
   28.515    7.0563
   28.530    6.8878
   28.545    6.8668
   28.560    7.2143
   28.575    7.2249
   28.590    6.8352
   28.605    6.5824
   28.620    6.4982
   28.635    6.4982
   28.650    6.7509
   28.665    6.9510
   28.680    6.6351
   28.695    6.2770
   28.710    6.3296
   28.725    6.5719
   28.740    6.6561
   28.755    6.8246
   28.770    7.2038
   28.785    7.0879
   28.800    6.8036
   28.815    6.9405
   28.830    6.6140
   28.845    6.4876
   28.860    6.3402
   28.875    6.3507
   28.890    6.6667
   28.905    6.3612
   28.920    6.5824
   28.935    6.8352
   28.950    6.9721
   28.965    6.7299
   28.980    6.6983
   28.995    6.7825
   29.010    6.9826
   29.025    6.8773
   29.040    6.6456
   29.055    6.3823
   29.070    6.5719
   29.085    6.5087
   29.100    6.6456
   29.115    6.5298
   29.130    6.6772
   29.145    6.4560
   29.160    7.0563
   29.175    6.9089
   29.190    6.7825
   29.205    6.9510
   29.220    6.8246
   29.235    6.4876
   29.250    6.4244
   29.265    6.7615
   29.280    7.0248
   29.295    7.2880
   29.310    7.3091
   29.325    7.1406
   29.340    6.9194
   29.355    6.7299
   29.370    6.9194
   29.385    6.8352
   29.400    6.4876
   29.415    6.6983
   29.430    6.7088
   29.445    6.8562
   29.460    6.9089
   29.475    6.4350
   29.490    6.5613
   29.505    6.3823
   29.520    6.1401
   29.535    6.2875
   29.550    6.1822
   29.565    6.6561
   29.580    6.6351
   29.595    6.5403
   29.610    6.3928
   29.625    6.1401
   29.640    6.6983
   29.655    6.6772
   29.670    6.5087
   29.685    6.6877
   29.700    6.4876
   29.715    6.3191
   29.730    6.2559
   29.745    6.6877
   29.760    6.4560
   29.775    6.7088
   29.790    6.5192
   29.805    6.5087
   29.820    6.8457
   29.835    6.8141
   29.850    6.3928
   29.865    6.7930
   29.880    6.8984
   29.895    6.9932
   29.910    6.9300
   29.925    6.5719
   29.940    6.5929
   29.955    6.6140
   29.970    6.9405
   29.985    6.6561
   30.000    6.9616
   30.015    6.8141
   30.030    6.3507
   30.045    6.1295
   30.060    6.5087
   30.075    6.7720
   30.090    6.6245
   30.105    6.5824
   30.120    6.3191
   30.135    6.4982
   30.150    6.8141
   30.165    6.6561
   30.180    6.7825
   30.195    6.4771
   30.210    6.4666
   30.225    6.5087
   30.240    6.5824
   30.255    6.7615
   30.270    6.5719
   30.285    6.6351
   30.300    6.4666
   30.315    6.3823
   30.330    6.7088
   30.345    6.7720
   30.360    6.5824
   30.375    6.5613
   30.390    6.6456
   30.405    6.7615
   30.420    6.1927
   30.435    6.4771
   30.450    6.4139
   30.465    6.7825
   30.480    6.4139
   30.495    6.0874
   30.510    6.3823
   30.525    6.6351
   30.540    6.3823
   30.555    6.2770
   30.570    6.7720
   30.585    6.5929
   30.600    6.5719
   30.615    6.4982
   30.630    6.8562
   30.645    6.7615
   30.660    6.6140
   30.675    6.3296
   30.690    6.4666
   30.705    7.0985
   30.720    6.5613
   30.735    6.7825
   30.750    6.4455
   30.765    6.1506
   30.780    6.5087
   30.795    6.6351
   30.810    6.6772
   30.825    6.5929
   30.840    6.8352
   30.855    6.7404
   30.870    6.7930
   30.885    6.4982
   30.900    6.4876
   30.915    6.2770
   30.930    6.3612
   30.945    6.3402
   30.960    6.2665
   30.975    6.4771
   30.990    6.2981
   31.005    6.2875
   31.020    6.2770
   31.035    6.4034
   31.050    6.5508
   31.065    6.6772
   31.080    6.6667
   31.095    6.4771
   31.110    6.3823
   31.125    6.0242
   31.140    6.4139
   31.155    6.3086
   31.170    6.1190
   31.185    5.9926
   31.200    6.2243
   31.215    6.5298
   31.230    6.0558
   31.245    6.3823
   31.260    6.7509
   31.275    6.9932
   31.290    6.8457
   31.305    6.5508
   31.320    6.5087
   31.335    6.7088
   31.350    6.5929
   31.365    6.5613
   31.380    6.8878
   31.395    6.8668
   31.410    6.3507
   31.425    6.4560
   31.440    6.6456
   31.455    6.6772
   31.470    6.4982
   31.485    6.7615
   31.500    6.4982
   31.515    6.2454
   31.530    6.3718
   31.545    6.5824
   31.560    6.6877
   31.575    6.4350
   31.590    6.6245
   31.605    6.4982
   31.620    6.3402
   31.635    6.6140
   31.650    6.4876
   31.665    6.4244
   31.680    6.7825
   31.695    6.5929
   31.710    6.7299
   31.725    6.7720
   31.740    6.8562
   31.755    6.7299
   31.770    7.0774
   31.785    6.8668
   31.800    6.5613
   31.815    6.5508
   31.830    6.8352
   31.845    6.6667
   31.860    7.0774
   31.875    6.5613
   31.890    6.7299
   31.905    7.0142
   31.920    6.8668
   31.935    6.8562
   31.950    6.7930
   31.965    7.0037
   31.980    6.9826
   31.995    6.7930
   32.010    6.4455
   32.025    7.0879
   32.040    6.9932
   32.055    7.2249
   32.070    7.1933
   32.085    7.0037
   32.100    7.0248
   32.115    7.1933
   32.130    7.1406
   32.145    6.9932
   32.160    7.1090
   32.175    6.9300
   32.190    6.8246
   32.205    6.2559
   32.220    6.5719
   32.235    6.4666
   32.250    6.4771
   32.265    6.3718
   32.280    6.2981
   32.295    6.0137
   32.310    6.2665
   32.325    6.5929
   32.340    6.2454
   32.355    6.3612
   32.370    6.1190
   32.385    6.2665
   32.400    6.1717
   32.415    6.4244
   32.430    6.3086
   32.445    6.5192
   32.460    6.2138
   32.475    6.4139
   32.490    6.4244
   32.505    6.3402
   32.520    6.0558
   32.535    6.4350
   32.550    6.3402
   32.565    6.6877
   32.580    6.5298
   32.595    6.2033
   32.610    6.5719
   32.625    6.1506
   32.640    6.2875
   32.655    6.0769
   32.670    6.2138
   32.685    5.9821
   32.700    6.3718
   32.715    6.4034
   32.730    6.4244
   32.745    6.4139
   32.760    6.2349
   32.775    6.4350
   32.790    6.5192
   32.805    6.0137
   32.820    6.0558
   32.835    5.9821
   32.850    6.2875
   32.865    5.9294
   32.880    6.0453
   32.895    6.0664
   32.910    6.1611
   32.925    6.6035
   32.940    6.4982
   32.955    6.1506
   32.970    6.2243
   32.985    6.4244
   33.000    6.5192
   33.015    6.6245
   33.030    6.5824
   33.045    6.4560
   33.060    6.1822
   33.075    6.0032
   33.090    6.3296
   33.105    5.9926
   33.120    5.7293
   33.135    5.8452
   33.150    5.9821
   33.165    6.1085
   33.180    5.9084
   33.195    5.9189
   33.210    5.9294
   33.225    6.0979
   33.240    5.8557
   33.255    5.7609
   33.270    6.1927
   33.285    5.7293
   33.300    6.0664
   33.315    6.0664
   33.330    6.1085
   33.345    5.9821
   33.360    5.8347
   33.375    5.8557
   33.390    5.7715
   33.405    5.7504
   33.420    6.0137
   33.435    6.3612
   33.450    6.0453
   33.465    5.9716
   33.480    5.7715
   33.495    5.9400
   33.510    5.9084
   33.525    6.4560
   33.540    6.1401
   33.555    6.1611
   33.570    5.9610
   33.585    5.7820
   33.600    6.0137
   33.615    6.3191
   33.630    6.0664
   33.645    5.8347
   33.660    6.4350
   33.675    6.0242
   33.690    6.0979
   33.705    6.2033
   33.720    6.0979
   33.735    6.1927
   33.750    6.2559
   33.765    6.6140
   33.780    6.5087
   33.795    6.0664
   33.810    6.1822
   33.825    6.5087
   33.840    6.3086
   33.855    6.6245
   33.870    6.5298
   33.885    6.0979
   33.900    6.1085
   33.915    6.1611
   33.930    6.6035
   33.945    6.2033
   33.960    6.0769
   33.975    6.2665
   33.990    5.8031
   34.005    6.0769
   34.020    6.2454
   34.035    6.0874
   34.050    5.9505
   34.065    6.1085
   34.080    6.2665
   34.095    5.8768
   34.110    6.1190
   34.125    6.0348
   34.140    5.6977
   34.155    5.4766
   34.170    5.9926
   34.185    5.7609
   34.200    6.2981
   34.215    6.1506
   34.230    5.8873
   34.245    5.6556
   34.260    5.9189
   34.275    6.1401
   34.290    5.8241
   34.305    5.6029
   34.320    5.6977
   34.335    5.9294
   34.350    5.8452
   34.365    5.9716
   34.380    5.9610
   34.395    5.8031
   34.410    5.8347
   34.425    5.7188
   34.440    6.3402
   34.455    6.0348
   34.470    6.2665
   34.485    5.9926
   34.500    6.0032
   34.515    5.8662
   34.530    5.8768
   34.545    5.9400
   34.560    5.9716
   34.575    6.1295
   34.590    5.9716
   34.605    6.2349
   34.620    6.3612
   34.635    6.0769
   34.650    5.6767
   34.665    5.6872
   34.680    5.8768
   34.695    5.8241
   34.710    6.0558
   34.725    6.0348
   34.740    5.9400
   34.755    5.3923
   34.770    5.7925
   34.785    5.9084
   34.800    6.0979
   34.815    5.9084
   34.830    6.1822
   34.845    5.4028
   34.860    6.0769
   34.875    6.2454
   34.890    6.1611
   34.905    5.7609
   34.920    5.6451
   34.935    5.7715
   34.950    5.9716
   34.965    5.8136
   34.980    6.0348
   34.995    5.8452
   35.010    5.9505
   35.025    5.9926
   35.040    5.8557
   35.055    5.9294
   35.070    5.8978
   35.085    5.5608
   35.100    5.3818
   35.115    5.4660
   35.130    5.7083
   35.145    5.7715
   35.160    5.7925
   35.175    5.7293
   35.190    5.6556
   35.205    5.7293
   35.220    5.7925
   35.235    5.8347
   35.250    5.8031
   35.265    5.9189
   35.280    5.9084
   35.295    5.8347
   35.310    5.4976
   35.325    6.0558
   35.340    5.6661
   35.355    5.5398
   35.370    5.4976
   35.385    5.8031
   35.400    6.2243
   35.415    5.8978
   35.430    5.6345
   35.445    5.7609
   35.460    5.7609
   35.475    5.9926
   35.490    5.7083
   35.505    5.5503
   35.520    5.9084
   35.535    5.8662
   35.550    5.6872
   35.565    5.8557
   35.580    5.9610
   35.595    5.8662
   35.610    5.7715
   35.625    5.6029
   35.640    5.9189
   35.655    5.6345
   35.670    5.6240
   35.685    5.9294
   35.700    5.9610
   35.715    5.9505
   35.730    5.8873
   35.745    6.1506
   35.760    5.8031
   35.775    5.8136
   35.790    5.2449
   35.805    5.7609
   35.820    6.3296
   35.835    6.0242
   35.850    5.6661
   35.865    5.8031
   35.880    5.7188
   35.895    5.7609
   35.910    5.6240
   35.925    6.0453
   35.940    6.2033
   35.955    5.9610
   35.970    6.0032
   35.985    6.1190
   36.000    5.7504
   36.015    5.3607
   36.030    5.6767
   36.045    5.5924
   36.060    5.7609
   36.075    5.8452
   36.090    5.3712
   36.105    5.9189
   36.120    5.7925
   36.135    5.4976
   36.150    5.7399
   36.165    6.0137
   36.180    5.4134
   36.195    5.7715
   36.210    5.7609
   36.225    5.7715
   36.240    5.9821
   36.255    5.9926
   36.270    5.9821
   36.285    6.1401
   36.300    5.7609
   36.315    5.9610
   36.330    5.9294
   36.345    5.6240
   36.360    5.6345
   36.375    5.7293
   36.390    5.8452
   36.405    5.6556
   36.420    5.8136
   36.435    5.7504
   36.450    5.9821
   36.465    5.7715
   36.480    5.9610
   36.495    5.9189
   36.510    6.0032
   36.525    5.8241
   36.540    5.6872
   36.555    5.7715
   36.570    5.6556
   36.585    5.8557
   36.600    5.5398
   36.615    5.6767
   36.630    6.0453
   36.645    6.0558
   36.660    5.6451
   36.675    5.7188
   36.690    5.8452
   36.705    5.6556
   36.720    5.5292
   36.735    5.3291
   36.750    5.7293
   36.765    5.5187
   36.780    5.6872
   36.795    5.4766
   36.810    5.5608
   36.825    5.7925
   36.840    5.9821
   36.855    5.7609
   36.870    5.4976
   36.885    5.4976
   36.900    5.9821
   36.915    5.3291
   36.930    5.2449
   36.945    5.6029
   36.960    5.4871
   36.975    5.6451
   36.990    5.7293
   37.005    5.6977
   37.020    5.8452
   37.035    5.8452
   37.050    6.1295
   37.065    5.7399
   37.080    5.7609
   37.095    5.8662
   37.110    6.1822
   37.125    6.0558
   37.140    5.8452
   37.155    5.6345
   37.170    6.1506
   37.185    5.7715
   37.200    5.6135
   37.215    6.0769
   37.230    5.7188
   37.245    6.0453
   37.260    5.7083
   37.275    6.1611
   37.290    5.8452
   37.305    5.8768
   37.320    5.7504
   37.335    5.7925
   37.350    5.5924
   37.365    5.5503
   37.380    5.8241
   37.395    5.6556
   37.410    5.7504
   37.425    5.7293
   37.440    5.5503
   37.455    5.6556
   37.470    5.5819
   37.485    5.6767
   37.500    5.5503
   37.515    6.0558
   37.530    5.7715
   37.545    5.7399
   37.560    5.6767
   37.575    5.7188
   37.590    5.9926
   37.605    6.0558
   37.620    6.2033
   37.635    5.9821
   37.650    5.5292
   37.665    5.6556
   37.680    6.0242
   37.695    5.4344
   37.710    5.7609
   37.725    5.4871
   37.740    5.7083
   37.755    5.7820
   37.770    5.5714
   37.785    5.5398
   37.800    5.7925
   37.815    5.8873
   37.830    5.9400
   37.845    5.5503
   37.860    5.6135
   37.875    5.7715
   37.890    5.7504
   37.905    5.6556
   37.920    5.8873
   37.935    5.7820
   37.950    5.6661
   37.965    5.6345
   37.980    5.3397
   37.995    5.5608
   38.010    5.9294
   38.025    5.6135
   38.040    5.8347
   38.055    5.6872
   38.070    5.9189
   38.085    5.5924
   38.100    5.7188
   38.115    5.9821
   38.130    6.0348
   38.145    5.5398
   38.160    5.5398
   38.175    5.6345
   38.190    5.4976
   38.205    6.1190
   38.220    5.9505
   38.235    5.8978
   38.250    5.8136
   38.265    5.5608
   38.280    5.6767
   38.295    5.6661
   38.310    5.6029
   38.325    6.3402
   38.340    5.9505
   38.355    5.9610
   38.370    6.0032
   38.385    5.7925
   38.400    5.8452
   38.415    5.5608
   38.430    5.8768
   38.445    5.8241
   38.460    5.4766
   38.475    5.7293
   38.490    6.0032
   38.505    5.7504
   38.520    5.6029
   38.535    5.7293
   38.550    5.9189
   38.565    5.9610
   38.580    5.5714
   38.595    5.9294
   38.610    5.5924
   38.625    5.9505
   38.640    6.2454
   38.655    5.9926
   38.670    5.9610
   38.685    5.7188
   38.700    5.8452
   38.715    5.8136
   38.730    5.8136
   38.745    5.7399
   38.760    6.0769
   38.775    5.5187
   38.790    5.8768
   38.805    5.7188
   38.820    5.6556
   38.835    5.8557
   38.850    5.8662
   38.865    5.7083
   38.880    5.6029
   38.895    6.0874
   38.910    6.1822
   38.925    6.0453
   38.940    5.9084
   38.955    5.5924
   38.970    5.8662
   38.985    6.0453
   39.000    5.8031
   39.015    6.2770
   39.030    6.0242
   39.045    5.6029
   39.060    5.8873
   39.075    5.7399
   39.090    5.8873
   39.105    6.0769
   39.120    5.8557
   39.135    5.9189
   39.150    6.2243
   39.165    5.9610
   39.180    5.9400
   39.195    5.6872
   39.210    6.1401
   39.225    6.2981
   39.240    6.1822
   39.255    6.5087
   39.270    6.1611
   39.285    6.1295
   39.300    6.2349
   39.315    5.9505
   39.330    6.0979
   39.345    5.9294
   39.360    5.9505
   39.375    6.2875
   39.390    6.2349
   39.405    6.1717
   39.420    6.1927
   39.435    6.1506
   39.450    6.1085
   39.465    5.8031
   39.480    5.7925
   39.495    5.8768
   39.510    6.0558
   39.525    6.0979
   39.540    5.9821
   39.555    5.7504
   39.570    5.7504
   39.585    5.4766
   39.600    5.8241
   39.615    5.8031
   39.630    6.0348
   39.645    5.8241
   39.660    5.5819
   39.675    5.5292
   39.690    5.5714
   39.705    5.5608
   39.720    5.8347
   39.735    5.7715
   39.750    5.6029
   39.765    5.3081
   39.780    5.7188
   39.795    5.8768
   39.810    5.6872
   39.825    5.7504
   39.840    5.9821
   39.855    5.6029
   39.870    5.2870
   39.885    5.5398
   39.900    5.4871
   39.915    5.4028
   39.930    5.6451
   39.945    5.9189
   39.960    5.6977
   39.975    6.0032
   39.990    5.8557
