    1.500   16.5526
    1.515   16.5350
    1.530   16.5701
    1.545   16.9212
    1.560   16.0260
    1.575   15.4994
    1.590   15.3414
    1.605   15.1132
    1.620   15.1483
    1.635   15.2361
    1.650   14.9552
    1.665   14.5691
    1.680   14.9903
    1.695   14.5515
    1.710   14.3584
    1.725   14.7973
    1.740   14.5164
    1.755   13.8845
    1.770   13.4281
    1.785   14.0425
    1.800   13.5685
    1.815   12.8489
    1.830   13.8318
    1.845   13.1473
    1.860   13.6739
    1.875   13.1824
    1.890   12.8840
    1.905   13.4281
    1.920   13.0595
    1.935   11.8834
    1.950   12.4627
    1.965   12.2872
    1.980   12.1116
    1.995   11.7255
    2.010   11.8132
    2.025   12.2345
    2.040   12.0765
    2.055   12.6207
    2.070   11.5499
    2.085   11.5850
    2.100   11.4797
    2.115   11.8132
    2.130   10.9707
    2.145   11.4622
    2.160   11.1989
    2.175   11.7606
    2.190   11.5324
    2.205   11.0585
    2.220   11.0585
    2.235   10.9531
    2.250   10.5845
    2.265   10.5845
    2.280   11.0058
    2.295   11.1638
    2.310   10.9356
    2.325   10.6723
    2.340   10.9707
    2.355   10.9356
    2.370   10.5143
    2.385   10.6372
    2.400   10.5845
    2.415   10.5143
    2.430   11.0058
    2.445   10.3037
    2.460   10.4090
    2.475   10.7425
    2.490    9.9526
    2.505   10.9005
    2.520   10.0228
    2.535    9.5489
    2.550    9.7244
    2.565   10.1632
    2.580    9.6191
    2.595   10.0228
    2.610   10.3739
    2.625   10.0053
    2.640   10.3739
    2.655   10.6723
    2.670   10.0228
    2.685    9.9526
    2.700    9.7946
    2.715    9.9526
    2.730    9.5489
    2.745    9.2856
    2.760    9.7069
    2.775   10.1281
    2.790    9.5313
    2.805    9.5313
    2.820    9.5664
    2.835    9.7420
    2.850    8.9872
    2.865    9.6191
    2.880    9.1803
    2.895    9.2505
    2.910    9.0925
    2.925    9.7595
    2.940    9.6191
    2.955    9.2856
    2.970    9.3734
    2.985    9.1276
    3.000    9.0574
    3.015    9.8824
    3.030    9.3734
    3.045    9.7420
    3.060    9.4436
    3.075    9.7595
    3.090    9.4436
    3.105    9.9877
    3.120   10.0404
    3.135    9.8648
    3.150   10.1457
    3.165   10.0755
    3.180   10.4968
    3.195    9.8473
    3.210    9.7595
    3.225   10.3739
    3.240   10.6723
    3.255   10.2686
    3.270   10.2335
    3.285   10.6898
    3.300   10.6547
    3.315   11.0936
    3.330   11.2515
    3.345   11.0936
    3.360   11.2866
    3.375   12.1994
    3.390   12.3925
    3.405   12.1994
    3.420   12.5680
    3.435   13.1999
    3.450   13.0771
    3.465   13.6739
    3.480   14.0425
    3.495   13.7090
    3.510   15.0781
    3.525   15.3063
    3.540   15.0957
    3.555   15.6574
    3.570   17.3074
    3.585   17.4478
    3.600   18.5536
    3.615   19.1855
    3.630   20.2387
    3.645   20.7653
    3.660   22.3100
    3.675   23.9600
    3.690   25.7153
    3.705   27.2073
    3.720   30.1738
    3.735   32.8243
    3.750   34.1232
    3.765   35.8259
    3.780   41.4429
    3.795   45.6030
    3.810   52.9226
    3.825   59.8385
    3.840   68.6677
    3.855   72.9507
    3.870   69.0714
    3.885   58.1534
    3.900   48.7625
    3.915   34.7727
    3.930   22.0291
    3.945   15.1132
    3.960   12.3223
    3.975   11.1989
    3.990   10.4090
    4.005    9.3558
    4.020    9.4085
    4.035    9.7420
    4.050   10.0228
    4.065    9.0047
    4.080    8.5484
    4.095    9.6893
    4.110    9.1978
    4.125    8.3377
    4.140    8.3728
    4.155    8.7239
    4.170    9.3382
    4.185    9.2680
    4.200    8.5133
    4.215    9.0925
    4.230    8.7765
    4.245    8.9696
    4.260    8.9696
    4.275    8.9872
    4.290    8.6888
    4.305    8.7414
    4.320    8.6361
    4.335    8.8117
    4.350    8.6888
    4.365    8.2851
    4.380    8.9872
    4.395    8.7414
    4.410    8.8819
    4.425    9.3734
    4.440    9.6015
    4.455    8.7239
    4.470    8.3553
    4.485    8.3553
    4.500    9.0925
    4.515    8.3553
    4.530    8.5308
    4.545    7.9867
    4.560    8.8117
    4.575    9.1101
    4.590    8.7941
    4.605    8.8468
    4.620    8.5308
    4.635    8.2675
    4.650    8.3026
    4.665    8.5308
    4.680    8.3026
    4.695    8.5659
    4.710    8.8292
    4.725    8.8292
    4.740    9.0223
    4.755    8.7765
    4.770    8.8117
    4.785    8.7765
    4.800    8.4781
    4.815    9.0574
    4.830    8.7414
    4.845    8.6888
    4.860    9.2680
    4.875    9.0750
    4.890    8.6537
    4.905    9.3558
    4.920    9.2505
    4.935    9.2505
    4.950    9.3909
    4.965    9.3207
    4.980    9.2856
    4.995    9.0223
    5.010    9.1627
    5.025    9.7595
    5.040    9.6191
    5.055   10.0579
    5.070    9.5138
    5.085   10.4441
    5.100    9.8648
    5.115   10.5319
    5.130   10.7249
    5.145   11.0058
    5.160   11.5148
    5.175   10.9356
    5.190   11.1638
    5.205   12.4276
    5.220   12.3925
    5.235   12.2521
    5.250   12.5329
    5.265   13.2877
    5.280   13.8143
    5.295   13.8494
    5.310   14.1478
    5.325   14.7095
    5.340   15.3590
    5.355   16.3419
    5.370   18.2903
    5.385   18.4132
    5.400   19.6068
    5.415   21.2217
    5.430   22.4855
    5.445   25.7328
    5.460   29.3312
    5.475   30.1387
    5.490   30.5248
    5.505   27.8217
    5.520   24.5743
    5.535   18.6940
    5.550   15.4116
    5.565   12.6558
    5.580   11.6904
    5.595   12.2170
    5.610   12.3574
    5.625   10.8829
    5.640   11.4797
    5.655   10.7249
    5.670   10.8654
    5.685   10.9531
    5.700   11.1462
    5.715   11.1111
    5.730   10.8654
    5.745   10.4968
    5.760   10.3037
    5.775    9.8824
    5.790    9.7946
    5.805   10.0053
    5.820    9.7771
    5.835    9.8122
    5.850    9.1452
    5.865    9.7069
    5.880    9.3031
    5.895    9.6191
    5.910    9.7771
    5.925    9.6542
    5.940    9.1101
    5.955    8.4781
    5.970    8.5484
    5.985    9.3909
    6.000    9.2505
    6.015    8.7765
    6.030    9.2329
    6.045    8.9696
    6.060    8.8292
    6.075    7.8989
    6.090    8.4606
    6.105    8.9696
    6.120    8.2324
    6.135    8.6010
    6.150    8.4606
    6.165    7.9340
    6.180    8.1622
    6.195    8.8292
    6.210    8.3553
    6.225    8.2149
    6.240    8.5484
    6.255    8.2675
    6.270    8.1271
    6.285    7.6707
    6.300    8.7941
    6.315    7.8989
    6.330    7.6707
    6.345    8.4079
    6.360    8.1797
    6.375    8.1797
    6.390    8.1446
    6.405    8.0218
    6.420    8.3728
    6.435    8.4430
    6.450    7.9340
    6.465    8.4957
    6.480    8.1446
    6.495    9.1803
    6.510    8.7590
    6.525    8.1271
    6.540    8.8994
    6.555    9.0223
    6.570    8.6010
    6.585    9.1101
    6.600    9.0047
    6.615    9.9175
    6.630   10.6898
    6.645   10.3914
    6.660   10.7776
    6.675   11.2691
    6.690   12.2872
    6.705   12.9717
    6.720   13.9196
    6.735   14.2005
    6.750   13.2350
    6.765   11.9010
    6.780   11.0409
    6.795    9.6542
    6.810    7.7936
    6.825    8.1271
    6.840    7.6180
    6.855    7.7585
    6.870    7.7058
    6.885    7.4776
    6.900    7.2319
    6.915    7.0915
    6.930    6.5122
    6.945    7.2845
    6.960    7.6180
    6.975    7.4601
    6.990    7.4250
    7.005    7.0212
    7.020    7.0563
    7.035    7.1968
    7.050    7.2494
    7.065    7.3899
    7.080    7.5478
    7.095    7.2494
    7.110    7.4074
    7.125    6.8106
    7.140    7.4250
    7.155    6.9510
    7.170    7.0212
    7.185    7.4074
    7.200    7.1441
    7.215    6.7404
    7.230    7.0739
    7.245    7.1441
    7.260    6.7404
    7.275    7.0212
    7.290    6.6000
    7.305    6.7930
    7.320    6.9686
    7.335    6.8457
    7.350    6.6000
    7.365    6.4946
    7.380    6.4595
    7.395    6.7228
    7.410    6.7930
    7.425    6.4595
    7.440    6.7755
    7.455    6.5824
    7.470    6.6877
    7.485    6.6702
    7.500    6.8633
    7.515    6.9686
    7.530    6.8106
    7.545    6.4420
    7.560    7.2494
    7.575    6.9335
    7.590    6.3718
    7.605    7.0037
    7.620    6.9861
    7.635    7.6005
    7.650    7.2494
    7.665    8.1095
    7.680    8.1797
    7.695    7.9691
    7.710    8.0042
    7.725    8.7239
    7.740    9.1276
    7.755    9.9175
    7.770   10.9707
    7.785   11.2866
    7.800    9.9877
    7.815    9.6191
    7.830    8.6888
    7.845    7.0915
    7.860    6.1085
    7.875    6.0383
    7.890    6.1085
    7.905    6.2665
    7.920    6.3542
    7.935    6.1436
    7.950    5.9505
    7.965    5.9505
    7.980    6.0207
    7.995    5.9856
    8.010    6.1962
    8.025    5.9681
    8.040    6.4771
    8.055    5.8276
    8.070    5.7750
    8.085    6.1611
    8.100    7.0037
    8.115    6.5298
    8.130    6.5122
    8.145    5.8452
    8.160    5.9329
    8.175    6.4244
    8.190    6.0032
    8.205    5.7925
    8.220    6.0558
    8.235    5.8627
    8.250    5.7574
    8.265    5.7399
    8.280    5.7048
    8.295    5.9681
    8.310    5.8803
    8.325    6.2313
    8.340    5.8803
    8.355    5.8276
    8.370    5.6170
    8.385    5.6345
    8.400    6.2138
    8.415    5.8627
    8.430    5.6872
    8.445    6.0032
    8.460    6.1787
    8.475    6.0734
    8.490    5.7925
    8.505    5.7750
    8.520    6.0383
    8.535    5.8452
    8.550    5.9681
    8.565    5.8803
    8.580    5.9505
    8.595    5.7574
    8.610    6.3542
    8.625    6.5824
    8.640    5.7925
    8.655    6.0909
    8.670    6.1260
    8.685    6.1962
    8.700    6.0734
    8.715    6.1611
    8.730    6.2665
    8.745    6.5473
    8.760    6.0032
    8.775    5.7574
    8.790    5.9329
    8.805    5.8627
    8.820    5.8978
    8.835    5.8101
    8.850    5.8452
    8.865    5.6697
    8.880    5.8276
    8.895    5.5994
    8.910    5.4239
    8.925    5.7925
    8.940    5.7223
    8.955    5.3712
    8.970    5.6345
    8.985    6.4069
    9.000    5.7223
    9.015    5.4590
    9.030    6.1260
    9.045    5.8452
    9.060    5.5468
    9.075    5.7925
    9.090    5.8276
    9.105    6.1260
    9.120    5.5994
    9.135    5.2484
    9.150    5.0553
    9.165    5.8101
    9.180    4.9500
    9.195    5.5643
    9.210    5.3537
    9.225    5.7048
    9.240    5.8101
    9.255    5.6170
    9.270    6.2138
    9.285    6.2489
    9.300    6.1260
    9.315    5.7223
    9.330    5.9681
    9.345    5.9154
    9.360    6.0383
    9.375    6.5122
    9.390    6.7228
    9.405    7.0037
    9.420    6.7404
    9.435    7.5127
    9.450    8.4255
    9.465    9.2329
    9.480   10.1983
    9.495   10.7600
    9.510   12.6733
    9.525   13.7265
    9.540   14.9728
    9.555   14.4813
    9.570   13.5685
    9.585   12.0590
    9.600   10.3739
    9.615    7.8813
    9.630    6.7053
    9.645    6.1436
    9.660    5.8101
    9.675    5.7925
    9.690    5.3537
    9.705    6.0383
    9.720    5.8101
    9.735    5.7399
    9.750    5.6872
    9.765    5.9154
    9.780    5.6872
    9.795    5.3712
    9.810    5.2835
    9.825    5.6697
    9.840    5.5994
    9.855    5.7048
    9.870    5.6521
    9.885    5.9505
    9.900    5.7750
    9.915    5.5468
    9.930    5.4415
    9.945    5.1080
    9.960    5.4766
    9.975    5.5468
    9.990    6.1962
   10.005    5.7574
   10.020    5.6170
   10.035    5.8978
   10.050    5.4239
   10.065    5.3361
   10.080    5.9154
   10.095    5.6170
   10.110    6.0558
   10.125    5.9681
   10.140    5.7399
   10.155    5.7574
   10.170    5.9681
   10.185    6.1611
   10.200    5.7750
   10.215    6.2665
   10.230    6.4244
   10.245    6.6877
   10.260    7.5829
   10.275    7.9691
   10.290    8.4079
   10.305    9.4260
   10.320    8.9872
   10.335    8.9345
   10.350    8.4079
   10.365    7.8638
   10.380    7.5829
   10.395    6.4420
   10.410    6.0032
   10.425    6.1085
   10.440    5.9681
   10.455    5.8627
   10.470    5.5468
   10.485    5.4064
   10.500    5.6170
   10.515    5.3186
   10.530    5.2835
   10.545    5.4239
   10.560    5.4941
   10.575    5.3537
   10.590    5.7399
   10.605    5.7925
   10.620    5.5643
   10.635    5.6521
   10.650    5.9154
   10.665    5.9505
   10.680    5.6345
   10.695    5.7574
   10.710    5.7574
   10.725    6.0558
   10.740    5.8978
   10.755    5.8803
   10.770    6.2840
   10.785    5.5468
   10.800    5.9856
   10.815    5.9154
   10.830    5.6872
   10.845    6.0909
   10.860    6.2489
   10.875    6.1962
   10.890    5.9856
   10.905    5.8627
   10.920    6.4595
   10.935    6.4420
   10.950    6.3893
   10.965    7.1968
   10.980    7.1441
   10.995    7.3021
   11.010    8.4606
   11.025    8.9521
   11.040    9.1452
   11.055    8.8819
   11.070    8.7063
   11.085    7.5654
   11.100    6.9686
   11.115    6.4069
   11.130    6.0032
   11.145    6.3542
   11.160    5.6521
   11.175    5.6872
   11.190    5.9681
   11.205    5.4941
   11.220    5.8452
   11.235    5.5819
   11.250    5.6872
   11.265    5.4590
   11.280    5.6872
   11.295    6.0207
   11.310    5.4064
   11.325    5.8978
   11.340    5.5643
   11.355    5.8276
   11.370    5.8101
   11.385    6.3016
   11.400    5.6345
   11.415    5.1782
   11.430    6.0909
   11.445    5.9856
   11.460    5.5819
   11.475    5.6697
   11.490    5.7399
   11.505    5.7048
   11.520    6.1085
   11.535    5.5643
   11.550    6.0734
   11.565    6.1787
   11.580    6.0032
   11.595    5.8276
   11.610    6.3367
   11.625    6.8457
   11.640    6.6175
   11.655    7.2670
   11.670    8.2149
   11.685    8.5484
   11.700    9.5138
   11.715    9.4085
   11.730    8.7941
   11.745    8.3202
   11.760    7.6356
   11.775    7.1617
   11.790    6.6877
   11.805    5.9505
   11.820    6.3367
   11.835    6.3718
   11.850    5.8978
   11.865    5.6170
   11.880    5.4941
   11.895    5.7925
   11.910    5.6345
   11.925    5.5117
   11.940    5.6697
   11.955    5.6345
   11.970    5.5643
   11.985    5.3888
   12.000    5.5117
   12.015    5.6872
   12.030    5.8978
   12.045    5.6170
   12.060    5.2484
   12.075    5.7223
   12.090    5.9329
   12.105    5.6345
   12.120    5.7223
   12.135    5.6170
   12.150    5.1957
   12.165    5.3361
   12.180    5.2133
   12.195    5.2133
   12.210    5.4064
   12.225    5.2308
   12.240    5.4239
   12.255    5.8627
   12.270    5.7048
   12.285    5.4064
   12.300    5.3888
   12.315    5.3888
   12.330    5.7750
   12.345    6.3542
   12.360    5.8978
   12.375    5.8803
   12.390    5.8101
   12.405    6.0207
   12.420    5.7750
   12.435    5.3537
   12.450    5.1080
   12.465    5.6345
   12.480    5.2659
   12.495    5.3010
   12.510    5.0904
   12.525    5.3537
   12.540    5.4239
   12.555    5.0553
   12.570    5.3186
   12.585    5.0026
   12.600    5.3537
   12.615    5.5292
   12.630    5.4415
   12.645    5.5468
   12.660    5.0553
   12.675    5.4590
   12.690    5.3010
   12.705    5.8276
   12.720    5.4415
   12.735    5.5117
   12.750    5.5117
   12.765    5.2484
   12.780    5.4941
   12.795    5.2133
   12.810    5.5819
   12.825    5.3361
   12.840    5.5643
   12.855    6.1260
   12.870    6.1787
   12.885    5.7574
   12.900    6.3016
   12.915    6.9159
   12.930    7.2494
   12.945    7.2845
   12.960    7.6180
   12.975    7.0388
   12.990    6.8457
   13.005    6.8106
   13.020    6.1085
   13.035    6.1260
   13.050    6.0734
   13.065    5.4941
   13.080    5.1606
   13.095    5.6345
   13.110    5.4064
   13.125    5.1957
   13.140    5.0904
   13.155    4.7920
   13.170    5.3712
   13.185    5.3888
   13.200    5.3712
   13.215    5.4064
   13.230    4.9324
   13.245    5.5292
   13.260    5.5468
   13.275    4.8973
   13.290    6.0032
   13.305    5.9329
   13.320    5.5292
   13.335    4.9500
   13.350    5.2484
   13.365    5.2484
   13.380    5.5117
   13.395    5.1782
   13.410    5.0553
   13.425    5.2308
   13.440    5.3010
   13.455    5.4941
   13.470    5.7048
   13.485    5.5994
   13.500    5.9856
   13.515    6.1085
   13.530    6.3367
   13.545    6.6175
   13.560    6.0207
   13.575    5.7574
   13.590    5.8276
   13.605    6.2489
   13.620    5.3186
   13.635    5.3888
   13.650    5.2835
   13.665    5.3010
   13.680    5.5117
   13.695    5.5643
   13.710    5.0202
   13.725    5.6872
   13.740    5.7574
   13.755    5.1957
   13.770    5.5292
   13.785    5.5643
   13.800    5.4941
   13.815    4.9324
   13.830    5.5117
   13.845    5.5643
   13.860    5.4590
   13.875    4.9149
   13.890    5.3888
   13.905    5.7048
   13.920    5.7223
   13.935    5.0728
   13.950    5.5468
   13.965    5.7223
   13.980    5.4415
   13.995    6.0032
   14.010    6.2138
   14.025    6.2840
   14.040    6.0558
   14.055    6.7579
   14.070    7.5127
   14.085    7.6180
   14.100    7.6532
   14.115    7.3021
   14.130    7.3196
   14.145    7.0563
   14.160    6.5649
   14.175    6.2840
   14.190    6.0558
   14.205    5.8276
   14.220    5.4239
   14.235    5.8803
   14.250    5.7925
   14.265    5.4239
   14.280    5.3888
   14.295    5.6697
   14.310    5.5117
   14.325    5.8627
   14.340    5.5994
   14.355    5.7574
   14.370    5.7925
   14.385    5.7223
   14.400    5.6521
   14.415    5.6697
   14.430    6.0558
   14.445    5.7574
   14.460    6.1436
   14.475    5.9681
   14.490    5.9856
   14.505    5.6697
   14.520    5.9329
   14.535    5.5468
   14.550    5.8276
   14.565    5.4064
   14.580    5.5819
   14.595    5.7223
   14.610    5.5994
   14.625    5.6697
   14.640    5.3010
   14.655    5.7223
   14.670    5.8101
   14.685    5.4590
   14.700    5.7048
   14.715    5.7223
   14.730    5.3186
   14.745    5.2133
   14.760    5.4415
   14.775    5.6872
   14.790    5.7399
   14.805    5.5643
   14.820    5.4766
   14.835    5.1957
   14.850    5.3010
   14.865    5.4590
   14.880    5.3361
   14.895    5.4239
   14.910    5.0904
   14.925    5.3712
   14.940    4.8447
   14.955    5.1080
   14.970    5.1957
   14.985    5.6697
   15.000    5.3712
   15.015    5.3186
   15.030    5.4239
   15.045    5.4064
   15.060    5.1255
   15.075    5.4941
   15.090    5.5292
   15.105    5.2133
   15.120    5.5468
   15.135    5.7750
   15.150    5.7223
   15.165    5.6521
   15.180    5.5117
   15.195    5.8978
   15.210    5.3888
   15.225    5.1606
   15.240    5.1782
   15.255    5.4766
   15.270    5.4766
   15.285    5.6170
   15.300    5.3361
   15.315    5.1255
   15.330    5.2659
   15.345    5.1782
   15.360    5.0202
   15.375    5.6345
   15.390    5.3537
   15.405    5.4590
   15.420    5.5643
   15.435    4.9324
   15.450    4.8095
   15.465    5.3712
   15.480    5.3537
   15.495    5.4941
   15.510    5.5468
   15.525    5.5643
   15.540    5.4941
   15.555    5.5117
   15.570    5.4064
   15.585    5.0553
   15.600    5.2659
   15.615    5.4064
   15.630    5.0904
   15.645    5.5819
   15.660    5.5117
   15.675    5.3186
   15.690    5.5117
   15.705    5.4064
   15.720    5.3888
   15.735    5.1431
   15.750    5.4239
   15.765    5.1255
   15.780    5.0026
   15.795    4.8447
   15.810    5.2835
   15.825    5.7048
   15.840    5.4766
   15.855    5.4590
   15.870    5.1255
   15.885    5.1080
   15.900    5.3712
   15.915    4.9324
   15.930    5.3186
   15.945    5.3712
   15.960    5.4415
   15.975    5.5994
   15.990    5.3186
   16.005    4.8271
   16.020    4.4936
   16.035    5.0202
   16.050    5.2133
   16.065    5.4415
   16.080    5.4766
   16.095    5.1606
   16.110    5.0202
   16.125    5.7925
   16.140    5.8276
   16.155    5.3186
   16.170    5.5643
   16.185    5.5292
   16.200    4.9675
   16.215    5.1255
   16.230    5.4415
   16.245    5.7925
   16.260    5.1080
   16.275    5.4590
   16.290    5.4415
   16.305    5.3888
   16.320    5.4941
   16.335    5.0904
   16.350    5.4415
   16.365    5.2133
   16.380    5.1957
   16.395    5.4766
   16.410    5.5994
   16.425    5.3010
   16.440    5.0728
   16.455    4.7920
   16.470    5.0728
   16.485    5.4766
   16.500    5.4239
   16.515    5.7574
   16.530    5.6345
   16.545    5.2133
   16.560    5.0728
   16.575    5.2835
   16.590    5.8978
   16.605    6.0909
   16.620    5.6872
   16.635    5.3888
   16.650    5.6170
   16.665    5.3010
   16.680    5.8627
   16.695    5.4239
   16.710    5.2835
   16.725    5.4415
   16.740    5.4590
   16.755    5.3010
   16.770    5.8978
   16.785    5.2659
   16.800    5.3712
   16.815    5.4239
   16.830    5.4064
   16.845    5.0553
   16.860    5.0377
   16.875    5.3537
   16.890    4.8095
   16.905    5.3712
   16.920    4.9675
   16.935    5.3537
   16.950    5.0202
   16.965    5.4415
   16.980    5.5643
   16.995    5.6697
   17.010    5.8803
   17.025    6.1611
   17.040    6.4595
   17.055    6.3893
   17.070    6.9159
   17.085    6.2138
   17.100    6.3893
   17.115    6.3893
   17.130    5.8627
   17.145    5.8803
   17.160    6.0032
   17.175    5.5819
   17.190    5.3010
   17.205    5.4590
   17.220    5.1431
   17.235    5.2484
   17.250    5.0728
   17.265    5.6170
   17.280    5.3186
   17.295    5.0904
   17.310    5.1431
   17.325    5.1606
   17.340    5.1080
   17.355    5.1080
   17.370    5.8452
   17.385    5.7048
   17.400    5.4239
   17.415    5.2484
   17.430    5.5292
   17.445    5.6170
   17.460    5.1782
   17.475    5.5468
   17.490    5.4239
   17.505    5.1957
   17.520    5.7925
   17.535    5.5819
   17.550    5.6697
   17.565    6.0032
   17.580    5.1431
   17.595    5.1255
   17.610    5.6345
   17.625    5.1255
   17.640    5.3537
   17.655    5.2308
   17.670    5.0904
   17.685    5.1957
   17.700    5.1080
   17.715    5.4590
   17.730    5.3361
   17.745    5.3361
   17.760    4.7920
   17.775    4.7744
   17.790    5.4239
   17.805    5.2659
   17.820    5.3712
   17.835    5.2484
   17.850    5.2835
   17.865    5.2308
   17.880    5.0202
   17.895    4.8095
   17.910    5.0553
   17.925    5.5643
   17.940    5.4766
   17.955    5.5819
   17.970    5.6872
   17.985    5.8101
   18.000    5.2835
   18.015    5.1431
   18.030    5.3010
   18.045    5.3010
   18.060    5.0202
   18.075    4.5463
   18.090    4.6516
   18.105    5.0202
   18.120    5.3361
   18.135    4.9324
   18.150    5.1431
   18.165    5.1782
   18.180    5.5117
   18.195    5.2835
   18.210    5.2133
   18.225    5.1080
   18.240    5.2308
   18.255    5.0728
   18.270    5.4415
   18.285    5.1782
   18.300    5.1606
   18.315    5.6521
   18.330    5.0553
   18.345    5.0377
   18.360    5.7048
   18.375    5.7925
   18.390    5.4941
   18.405    5.7048
   18.420    5.2133
   18.435    5.4239
   18.450    5.3010
   18.465    5.4239
   18.480    5.3712
   18.495    5.2484
   18.510    5.1782
   18.525    5.0377
   18.540    5.2133
   18.555    5.6345
   18.570    5.2308
   18.585    5.1606
   18.600    5.4590
   18.615    5.5819
   18.630    5.2659
   18.645    5.2835
   18.660    5.3888
   18.675    5.0904
   18.690    5.1782
   18.705    5.1782
   18.720    5.4415
   18.735    5.3186
   18.750    5.0553
   18.765    5.3888
   18.780    5.3712
   18.795    5.2835
   18.810    5.2835
   18.825    5.4415
   18.840    5.1431
   18.855    5.7048
   18.870    5.3888
   18.885    5.0202
   18.900    5.5819
   18.915    5.5819
   18.930    5.6345
   18.945    5.7399
   18.960    6.1787
   18.975    6.5824
   18.990    6.8457
   19.005    6.3893
   19.020    6.3367
   19.035    5.9505
   19.050    5.4239
   19.065    4.8095
   19.080    4.8798
   19.095    4.9851
   19.110    4.9149
   19.125    4.6867
   19.140    4.6516
   19.155    4.9851
   19.170    5.1431
   19.185    5.1431
   19.200    5.2659
   19.215    5.0377
   19.230    4.9851
   19.245    5.4239
   19.260    5.0377
   19.275    4.8622
   19.290    4.9149
   19.305    4.6165
   19.320    4.9500
   19.335    5.1080
   19.350    4.8973
   19.365    5.0553
   19.380    4.6165
   19.395    4.8798
   19.410    5.4415
   19.425    4.7920
   19.440    5.1782
   19.455    4.8095
   19.470    4.5814
   19.485    5.1957
   19.500    4.9149
   19.515    4.9500
   19.530    5.1080
   19.545    5.3186
   19.560    5.4239
   19.575    5.5819
   19.590    5.3010
   19.605    5.4590
   19.620    5.3888
   19.635    5.3010
   19.650    5.1957
   19.665    5.2835
   19.680    5.2133
   19.695    5.0553
   19.710    5.2659
   19.725    4.7393
   19.740    4.9500
   19.755    4.6516
   19.770    4.5463
   19.785    4.7920
   19.800    4.9675
   19.815    4.8447
   19.830    5.2133
   19.845    4.9149
   19.860    5.0377
   19.875    4.5638
   19.890    5.1255
   19.905    4.4936
   19.920    4.9851
   19.935    5.0026
   19.950    5.0377
   19.965    5.3361
   19.980    5.3010
   19.995    5.1782
   20.010    5.0026
   20.025    4.5287
   20.040    4.8271
   20.055    5.0377
   20.070    4.9675
   20.085    4.6691
   20.100    4.9675
   20.115    4.9500
   20.130    4.8095
   20.145    5.0026
   20.160    4.7042
   20.175    4.9324
   20.190    4.8271
   20.205    4.5287
   20.220    4.7393
   20.235    4.8271
   20.250    5.0728
   20.265    4.9500
   20.280    4.8095
   20.295    4.7042
   20.310    4.7744
   20.325    4.8798
   20.340    5.1255
   20.355    5.4064
   20.370    5.7048
   20.385    5.7750
   20.400    5.7223
   20.415    5.4941
   20.430    5.6345
   20.445    5.4590
   20.460    5.6872
   20.475    5.3186
   20.490    5.0026
   20.505    4.7042
   20.520    4.6691
   20.535    4.9500
   20.550    4.6691
   20.565    4.5638
   20.580    4.7393
   20.595    4.8973
   20.610    5.2484
   20.625    5.5117
   20.640    5.0026
   20.655    4.3181
   20.670    4.9149
   20.685    5.5117
   20.700    4.9324
   20.715    4.8447
   20.730    4.5814
   20.745    4.8447
   20.760    4.3356
   20.775    4.5814
   20.790    4.4409
   20.805    4.5638
   20.820    4.9500
   20.835    4.7744
   20.850    5.1957
   20.865    5.0904
   20.880    4.8095
   20.895    4.5814
   20.910    4.5638
   20.925    4.9149
   20.940    4.4409
   20.955    4.7393
   20.970    4.6340
   20.985    4.8447
   21.000    4.4936
   21.015    4.5814
   21.030    4.6691
   21.045    4.8271
   21.060    4.5463
   21.075    4.8271
   21.090    4.9324
   21.105    5.0026
   21.120    4.4409
   21.135    5.1080
   21.150    5.0202
   21.165    4.9851
   21.180    4.7744
   21.195    4.4409
   21.210    4.6691
   21.225    4.7744
   21.240    4.9149
   21.255    4.9675
   21.270    4.7920
   21.285    4.9675
   21.300    4.8798
   21.315    4.5814
   21.330    4.2478
   21.345    4.6165
   21.360    4.3532
   21.375    4.7218
   21.390    4.4058
   21.405    5.0202
   21.420    4.6516
   21.435    4.4058
   21.450    4.6516
   21.465    4.9500
   21.480    4.5111
   21.495    4.4585
   21.510    4.5287
   21.525    4.8271
   21.540    4.7920
   21.555    4.7744
   21.570    5.0202
   21.585    4.5463
   21.600    4.8798
   21.615    4.7920
   21.630    4.8095
   21.645    4.7569
   21.660    4.7218
   21.675    4.4936
   21.690    4.7744
   21.705    4.9149
   21.720    4.5814
   21.735    4.7042
   21.750    4.7393
   21.765    5.2133
   21.780    4.8798
   21.795    4.8271
   21.810    4.8622
   21.825    4.9851
   21.840    5.1431
   21.855    4.7744
   21.870    5.3888
   21.885    5.2133
   21.900    4.8447
   21.915    5.0553
   21.930    5.3010
   21.945    4.6516
   21.960    4.7218
   21.975    4.9851
   21.990    5.0904
   22.005    4.5111
   22.020    4.8095
   22.035    4.8447
   22.050    4.5287
   22.065    4.1074
   22.080    4.5111
   22.095    4.6516
   22.110    4.6165
   22.125    4.4058
   22.140    4.6516
   22.155    4.6340
   22.170    4.9675
   22.185    5.0202
   22.200    5.0377
   22.215    4.7393
   22.230    4.8622
   22.245    4.5989
   22.260    4.7042
   22.275    4.9324
   22.290    4.5638
   22.305    4.6165
   22.320    4.6340
   22.335    4.4058
   22.350    4.3005
   22.365    4.5287
   22.380    4.8798
   22.395    4.6516
   22.410    4.5814
   22.425    4.7569
   22.440    4.9149
   22.455    4.5287
   22.470    4.9324
   22.485    4.8271
   22.500    4.9324
   22.515    4.9500
   22.530    5.0202
   22.545    5.3186
   22.560    5.8978
   22.575    6.1436
   22.590    6.6526
   22.605    5.7223
   22.620    5.5643
   22.635    5.2484
   22.650    5.1606
   22.665    4.4234
   22.680    4.7042
   22.695    5.1782
   22.710    4.7920
   22.725    4.5638
   22.740    4.7393
   22.755    4.5814
   22.770    4.0723
   22.785    4.2478
   22.800    4.4234
   22.815    4.4234
   22.830    4.6165
   22.845    4.9675
   22.860    4.6340
   22.875    4.7920
   22.890    5.0026
   22.905    5.2835
   22.920    5.5468
   22.935    5.7223
   22.950    5.5292
   22.965    5.5643
   22.980    5.6345
   22.995    5.4590
   23.010    4.8973
   23.025    4.9851
   23.040    4.5463
   23.055    4.5638
   23.070    5.0377
   23.085    4.9324
   23.100    4.7744
   23.115    5.1782
   23.130    5.0377
   23.145    4.7218
   23.160    4.7218
   23.175    4.7569
   23.190    4.6691
   23.205    5.0728
   23.220    4.8095
   23.235    4.4585
   23.250    4.6165
   23.265    4.8622
   23.280    5.0202
   23.295    5.1080
   23.310    5.0202
   23.325    4.5287
   23.340    4.4585
   23.355    4.5111
   23.370    4.5463
   23.385    4.4936
   23.400    4.0899
   23.415    4.1074
   23.430    4.4409
   23.445    4.6691
   23.460    4.2830
   23.475    4.4585
   23.490    4.2478
   23.505    4.3883
   23.520    4.2478
   23.535    4.5638
   23.550    4.4760
   23.565    3.8090
   23.580    4.3883
   23.595    4.6165
   23.610    4.3532
   23.625    4.3883
   23.640    4.3532
   23.655    4.2654
   23.670    4.5814
   23.685    4.5638
   23.700    4.3532
   23.715    4.4585
   23.730    3.9319
   23.745    4.0372
   23.760    4.2127
   23.775    4.6165
   23.790    4.1250
   23.805    4.2127
   23.820    4.5463
   23.835    4.3707
   23.850    4.3883
   23.865    4.3707
   23.880    4.0723
   23.895    4.0372
   23.910    4.1952
   23.925    4.7744
   23.940    4.5463
   23.955    4.7569
   23.970    4.9149
   23.985    4.4058
   24.000    4.5638
   24.015    4.3883
   24.030    4.1425
   24.045    4.3883
   24.060    4.0372
   24.075    4.1601
   24.090    4.5111
   24.105    4.1425
   24.120    4.3707
   24.135    4.0899
   24.150    4.4058
   24.165    4.1425
   24.180    3.9143
   24.195    4.0021
   24.210    3.8968
   24.225    4.1601
   24.240    4.2303
   24.255    3.8441
   24.270    4.5111
   24.285    4.6516
   24.300    4.1074
   24.315    4.0548
   24.330    3.9670
   24.345    3.5984
   24.360    4.2127
   24.375    4.2127
   24.390    4.1250
   24.405    3.9494
   24.420    4.3356
   24.435    4.1425
   24.450    4.2654
   24.465    4.1601
   24.480    4.4585
   24.495    4.6340
   24.510    4.6867
   24.525    4.2478
   24.540    4.0723
   24.555    3.7915
   24.570    3.8968
   24.585    4.3181
   24.600    4.4234
   24.615    4.0723
   24.630    4.0899
   24.645    3.9670
   24.660    4.0021
   24.675    4.2127
   24.690    4.7218
   24.705    4.5463
   24.720    4.1776
   24.735    4.0372
   24.750    4.2478
   24.765    4.2478
   24.780    4.2478
   24.795    3.8968
   24.810    4.3005
   24.825    3.9846
   24.840    3.7037
   24.855    4.2303
   24.870    4.5111
   24.885    3.8968
   24.900    4.3707
   24.915    4.3356
   24.930    4.1952
   24.945    4.3532
   24.960    4.4936
   24.975    4.1074
   24.990    4.2303
   25.005    3.4755
   25.020    3.9143
   25.035    4.0197
   25.050    4.3005
   25.065    3.9846
   25.080    3.9494
   25.095    4.0548
   25.110    4.2830
   25.125    4.2303
   25.140    4.0723
   25.155    4.0372
   25.170    4.0372
   25.185    4.2830
   25.200    3.8441
   25.215    3.9319
   25.230    4.3532
   25.245    4.2478
   25.260    4.3707
   25.275    4.2654
   25.290    4.2830
   25.305    3.8968
   25.320    3.7037
   25.335    4.3532
   25.350    3.9670
   25.365    4.0899
   25.380    4.0723
   25.395    3.8090
   25.410    3.7564
   25.425    4.1250
   25.440    4.0021
   25.455    3.8968
   25.470    3.8266
   25.485    3.9143
   25.500    4.4058
   25.515    4.4058
   25.530    4.2830
   25.545    4.4409
   25.560    4.4409
   25.575    4.5638
   25.590    4.2478
   25.605    3.9846
   25.620    4.2654
   25.635    3.6862
   25.650    3.8792
   25.665    4.1250
   25.680    4.3532
   25.695    4.0372
   25.710    3.9670
   25.725    4.2127
   25.740    4.2303
   25.755    4.4936
   25.770    4.3707
   25.785    4.6340
   25.800    4.2830
   25.815    5.1431
   25.830    5.1606
   25.845    5.2659
   25.860    4.8447
   25.875    4.8447
   25.890    5.2835
   25.905    4.7569
   25.920    4.5814
   25.935    4.3005
   25.950    4.0548
   25.965    4.4234
   25.980    4.3005
   25.995    4.6165
   26.010    4.3532
   26.025    3.9494
   26.040    3.8792
   26.055    4.2303
   26.070    4.0899
   26.085    4.1425
   26.100    4.3532
   26.115    4.0723
   26.130    3.6686
   26.145    3.9494
   26.160    4.1776
   26.175    4.4409
   26.190    4.0723
   26.205    4.3532
   26.220    3.9846
   26.235    4.2830
   26.250    4.1425
   26.265    3.9319
   26.280    4.2830
   26.295    4.2830
   26.310    3.6862
   26.325    3.5984
   26.340    3.9143
   26.355    4.4234
   26.370    4.0899
   26.385    3.7213
   26.400    3.7739
   26.415    3.6862
   26.430    4.3532
   26.445    4.1074
   26.460    3.9670
   26.475    3.9494
   26.490    3.8792
   26.505    3.8792
   26.520    4.1776
   26.535    4.0021
   26.550    3.6510
   26.565    3.7915
   26.580    4.0372
   26.595    3.9319
   26.610    4.1776
   26.625    3.9494
   26.640    3.4404
   26.655    3.7564
   26.670    3.9494
   26.685    4.1601
   26.700    3.6862
   26.715    3.4931
   26.730    3.9670
   26.745    3.6686
   26.760    4.0548
   26.775    4.0899
   26.790    3.8266
   26.805    4.1074
   26.820    4.1601
   26.835    3.6159
   26.850    3.6510
   26.865    3.8792
   26.880    3.7564
   26.895    3.8441
   26.910    3.9846
   26.925    3.8441
   26.940    3.8792
   26.955    3.6159
   26.970    4.1952
   26.985    4.3005
   27.000    4.2654
   27.015    4.3356
   27.030    3.9143
   27.045    4.4234
   27.060    4.4585
   27.075    4.0548
   27.090    4.3707
   27.105    4.2654
   27.120    3.6510
   27.135    4.0372
   27.150    3.9670
   27.165    3.6510
   27.180    3.8090
   27.195    3.7564
   27.210    4.0372
   27.225    3.7915
   27.240    3.8617
   27.255    3.4755
   27.270    3.6510
   27.285    3.7388
   27.300    4.0021
   27.315    3.6686
   27.330    3.7388
   27.345    3.5633
   27.360    3.6159
   27.375    3.7037
   27.390    3.8792
   27.405    3.5808
   27.420    3.6335
   27.435    3.7564
   27.450    3.6510
   27.465    3.8441
   27.480    3.6862
   27.495    3.8441
   27.510    3.6335
   27.525    3.6159
   27.540    3.8441
   27.555    3.8792
   27.570    4.1250
   27.585    3.8792
   27.600    3.7037
   27.615    3.8968
   27.630    4.1074
   27.645    4.3356
   27.660    4.2303
   27.675    3.8090
   27.690    3.9670
   27.705    3.8266
   27.720    3.6159
   27.735    3.4580
   27.750    3.4931
   27.765    3.7037
   27.780    3.8617
   27.795    3.6335
   27.810    3.7388
   27.825    3.7915
   27.840    3.3702
   27.855    3.4931
   27.870    3.4229
   27.885    3.5984
   27.900    4.1425
   27.915    3.9143
   27.930    4.1601
   27.945    4.2478
   27.960    4.5638
   27.975    5.1606
   27.990    5.1431
   28.005    4.7393
   28.020    4.8095
   28.035    4.4058
   28.050    4.0548
   28.065    4.2654
   28.080    3.9143
   28.095    3.7915
   28.110    3.6510
   28.125    3.6862
   28.140    4.0021
   28.155    3.8441
   28.170    3.9494
   28.185    4.0723
   28.200    4.1601
   28.215    4.1250
   28.230    4.1250
   28.245    3.7037
   28.260    4.0021
   28.275    3.6510
   28.290    3.9494
   28.305    3.6862
   28.320    3.5633
   28.335    3.7213
   28.350    3.5984
   28.365    3.8441
   28.380    4.1601
   28.395    3.6686
   28.410    3.7739
   28.425    3.7915
   28.440    3.8617
   28.455    4.0021
   28.470    3.9319
   28.485    4.3532
   28.500    4.0197
   28.515    4.0372
   28.530    3.7739
   28.545    3.8441
   28.560    3.8968
   28.575    3.6510
   28.590    3.6510
   28.605    3.4229
   28.620    3.6686
   28.635    3.6862
   28.650    3.6686
   28.665    3.7388
   28.680    3.5457
   28.695    3.5984
   28.710    3.7915
   28.725    3.8090
   28.740    3.6510
   28.755    3.5633
   28.770    3.7915
   28.785    3.4931
   28.800    3.6335
   28.815    3.5282
   28.830    3.5282
   28.845    3.5457
   28.860    3.6862
   28.875    3.8792
   28.890    4.0372
   28.905    4.4409
   28.920    4.3005
   28.935    4.8271
   28.950    5.1957
   28.965    5.2308
   28.980    4.9851
   28.995    4.7218
   29.010    4.5638
   29.025    4.0197
   29.040    4.2127
   29.055    3.6686
   29.070    3.9670
   29.085    4.1601
   29.100    3.7037
   29.115    3.3351
   29.130    3.6335
   29.145    3.6510
   29.160    3.5808
   29.175    3.7564
   29.190    3.6159
   29.205    3.9143
   29.220    3.9494
   29.235    3.6335
   29.250    3.5808
   29.265    3.6510
   29.280    3.7037
   29.295    3.5282
   29.310    3.8441
   29.325    3.7037
   29.340    3.8617
   29.355    3.7213
   29.370    3.9494
   29.385    4.2654
   29.400    4.0899
   29.415    3.7564
   29.430    3.7739
   29.445    3.8968
   29.460    3.5633
   29.475    3.4404
   29.490    3.5808
   29.505    3.2824
   29.520    3.8792
   29.535    3.2824
   29.550    3.5633
   29.565    3.6686
   29.580    3.7739
   29.595    3.5282
   29.610    3.4580
   29.625    3.3175
   29.640    3.2298
   29.655    3.4755
   29.670    3.4404
   29.685    3.6510
   29.700    3.6159
   29.715    3.3175
   29.730    3.0367
   29.745    2.8612
   29.760    3.2473
   29.775    3.2824
   29.790    3.4229
   29.805    3.4755
   29.820    3.5106
   29.835    3.4755
   29.850    3.5984
   29.865    3.5282
   29.880    3.6159
   29.895    3.3351
   29.910    3.4229
   29.925    3.1947
   29.940    3.2473
   29.955    3.2122
   29.970    3.3526
   29.985    3.2824
   30.000    2.9314
   30.015    3.3000
   30.030    3.2473
   30.045    3.3175
   30.060    3.1420
   30.075    3.1947
   30.090    3.1245
   30.105    3.5106
   30.120    3.3000
   30.135    3.2473
   30.150    3.2122
   30.165    3.3526
   30.180    3.3175
   30.195    3.0367
   30.210    2.9489
   30.225    3.4229
   30.240    3.2473
   30.255    3.4755
   30.270    3.1245
   30.285    3.1420
   30.300    3.1069
   30.315    3.2473
   30.330    3.1420
   30.345    3.2649
   30.360    3.3351
   30.375    3.0191
   30.390    3.0718
   30.405    3.3351
   30.420    2.8963
   30.435    3.1947
   30.450    3.0893
   30.465    3.4931
   30.480    3.4580
   30.495    2.7207
   30.510    2.7909
   30.525    3.2649
   30.540    3.1771
   30.555    3.0016
   30.570    3.1245
   30.585    3.4229
   30.600    3.1947
   30.615    3.4755
   30.630    3.4053
   30.645    3.3175
   30.660    3.4580
   30.675    2.8260
   30.690    3.0542
   30.705    3.3526
   30.720    3.3702
   30.735    3.0542
   30.750    3.1420
   30.765    3.2122
   30.780    3.3000
   30.795    3.0542
   30.810    3.0367
   30.825    3.4755
   30.840    3.5633
   30.855    2.8787
   30.870    3.0191
   30.885    3.2473
   30.900    3.5457
   30.915    3.0367
   30.930    3.1069
   30.945    2.9489
   30.960    3.2122
   30.975    3.4229
   30.990    3.3877
   31.005    3.0893
   31.020    3.0367
   31.035    2.6505
   31.050    2.8260
   31.065    2.5276
   31.080    3.3526
   31.095    3.3351
   31.110    3.1771
   31.125    3.4404
   31.140    3.1596
   31.155    2.8963
   31.170    3.0542
   31.185    3.0542
   31.200    2.9489
   31.215    3.4404
   31.230    3.3526
   31.245    3.0542
   31.260    3.1596
   31.275    3.0718
   31.290    3.0893
   31.305    3.1771
   31.320    3.2473
   31.335    3.1420
   31.350    3.2824
   31.365    3.0542
   31.380    3.0893
   31.395    3.4580
   31.410    3.1947
   31.425    3.0718
   31.440    3.0016
   31.455    3.3877
   31.470    3.1420
   31.485    2.8787
   31.500    2.8436
   31.515    3.2473
   31.530    2.9138
   31.545    3.0016
   31.560    3.1420
   31.575    3.3351
   31.590    3.4053
   31.605    3.0191
   31.620    2.9489
   31.635    2.7909
   31.650    3.1596
   31.665    2.8260
   31.680    2.9489
   31.695    2.6154
   31.710    3.2824
   31.725    3.1069
   31.740    3.0718
   31.755    3.0367
   31.770    3.6335
   31.785    3.5457
   31.800    3.5282
   31.815    3.5106
   31.830    3.4755
   31.845    3.5457
   31.860    3.4229
   31.875    2.7558
   31.890    3.2122
   31.905    3.2122
   31.920    3.4755
   31.935    3.1771
   31.950    3.1947
   31.965    3.1069
   31.980    3.2298
   31.995    3.1771
   32.010    3.4053
   32.025    3.1420
   32.040    3.3702
   32.055    4.2127
   32.070    4.8798
   32.085    5.0904
   32.100    5.5117
   32.115    5.5643
   32.130    5.3537
   32.145    4.8447
   32.160    3.8090
   32.175    3.8617
   32.190    3.2298
   32.205    3.0191
   32.220    3.0542
   32.235    3.0016
   32.250    3.0367
   32.265    3.0191
   32.280    3.3526
   32.295    3.1245
   32.310    2.8612
   32.325    3.1245
   32.340    2.9489
   32.355    2.9314
   32.370    3.2298
   32.385    3.0542
   32.400    3.0191
   32.415    3.0016
   32.430    3.2122
   32.445    2.8436
   32.460    3.2649
   32.475    3.1771
   32.490    2.6154
   32.505    2.6856
   32.520    2.8260
   32.535    2.7032
   32.550    2.7032
   32.565    2.6856
   32.580    2.7909
   32.595    3.1596
   32.610    3.1596
   32.625    3.1069
   32.640    2.9489
   32.655    3.1069
   32.670    3.1245
   32.685    3.0718
   32.700    3.0367
   32.715    2.8436
   32.730    2.8963
   32.745    2.6681
   32.760    2.5979
   32.775    3.0367
   32.790    3.2649
   32.805    3.0191
   32.820    2.8787
   32.835    3.0016
   32.850    2.9665
   32.865    2.7909
   32.880    3.0542
   32.895    2.7734
   32.910    3.3000
   32.925    2.9314
   32.940    3.3000
   32.955    2.9489
   32.970    2.7383
   32.985    2.9665
   33.000    2.8787
   33.015    2.8963
   33.030    2.5803
   33.045    2.7383
   33.060    3.0191
   33.075    3.1947
   33.090    2.9138
   33.105    3.1069
   33.120    2.9138
   33.135    2.7558
   33.150    3.1596
   33.165    2.9489
   33.180    3.0191
   33.195    2.9665
   33.210    2.8260
   33.225    2.8787
   33.240    2.8963
   33.255    2.5979
   33.270    2.7909
   33.285    2.4574
   33.300    2.9489
   33.315    2.3872
   33.330    2.5628
   33.345    2.8085
   33.360    2.8085
   33.375    2.6681
   33.390    2.8787
   33.405    2.7909
   33.420    2.9314
   33.435    2.6154
   33.450    2.5276
   33.465    2.6856
   33.480    3.0718
   33.495    2.3872
   33.510    2.6154
   33.525    2.5628
   33.540    3.0367
   33.555    2.7734
   33.570    2.7558
   33.585    2.4048
   33.600    2.8963
   33.615    2.9665
   33.630    2.9665
   33.645    3.1596
   33.660    2.9840
   33.675    2.8787
   33.690    3.0718
   33.705    2.7383
   33.720    3.1245
   33.735    3.0191
   33.750    3.0191
   33.765    3.0718
   33.780    3.1420
   33.795    3.3175
   33.810    3.7564
   33.825    3.6686
   33.840    3.7564
   33.855    3.9670
   33.870    3.1771
   33.885    3.0718
   33.900    2.9138
   33.915    2.9489
   33.930    2.8963
   33.945    2.9489
   33.960    2.9665
   33.975    2.8612
   33.990    2.9138
   34.005    2.7909
   34.020    3.4404
   34.035    3.1420
   34.050    2.7734
   34.065    2.6681
   34.080    2.5628
   34.095    2.9138
   34.110    2.7207
   34.125    2.9840
   34.140    2.7207
   34.155    2.7734
   34.170    2.7207
   34.185    2.5101
   34.200    3.0893
   34.215    3.0016
   34.230    2.8260
   34.245    2.5101
   34.260    2.7909
   34.275    2.6681
   34.290    2.7207
   34.305    2.5803
   34.320    2.7383
   34.335    2.8085
   34.350    2.3346
   34.365    2.8260
   34.380    2.6856
   34.395    2.8787
   34.410    2.5979
   34.425    2.7383
   34.440    2.4750
   34.455    2.5101
   34.470    2.6505
   34.485    2.8085
   34.500    2.4399
   34.515    2.8260
   34.530    2.7734
   34.545    2.8260
   34.560    2.7383
   34.575    2.8085
   34.590    2.8085
   34.605    2.7734
   34.620    2.7558
   34.635    2.9138
   34.650    2.8436
   34.665    2.5803
   34.680    2.7032
   34.695    2.2468
   34.710    2.5803
   34.725    2.8260
   34.740    2.6154
   34.755    2.6681
   34.770    2.5628
   34.785    2.6681
   34.800    2.8085
   34.815    3.0718
   34.830    2.7909
   34.845    2.5276
   34.860    2.8260
   34.875    2.9314
   34.890    2.9138
   34.905    2.5276
   34.920    2.4750
   34.935    2.7383
   34.950    2.8260
   34.965    2.8260
   34.980    2.4574
   34.995    2.5276
   35.010    2.7558
   35.025    2.7558
   35.040    2.6330
   35.055    2.7909
   35.070    2.6154
   35.085    2.3521
   35.100    2.3521
   35.115    2.4750
   35.130    2.7032
   35.145    2.7383
   35.160    3.0893
   35.175    2.9314
   35.190    2.7558
   35.205    3.1245
   35.220    2.7558
   35.235    2.7383
   35.250    2.8612
   35.265    2.5628
   35.280    2.8612
   35.295    2.7734
   35.310    2.5628
   35.325    2.7558
   35.340    2.8260
   35.355    2.9840
   35.370    2.9489
   35.385    2.8085
   35.400    2.7207
   35.415    2.5101
   35.430    2.5803
   35.445    2.5276
   35.460    2.8260
   35.475    2.4223
   35.490    2.7383
   35.505    2.8787
   35.520    2.6154
   35.535    2.8963
   35.550    2.3872
   35.565    2.5979
   35.580    2.8085
   35.595    2.8260
   35.610    2.7558
   35.625    2.6154
   35.640    2.4925
   35.655    2.4399
   35.670    2.4399
   35.685    2.4399
   35.700    2.5452
   35.715    2.3346
   35.730    2.5276
   35.745    2.5452
   35.760    2.9665
   35.775    2.9138
   35.790    2.7383
   35.805    2.8085
   35.820    2.5803
   35.835    3.0542
   35.850    3.2649
   35.865    2.6856
   35.880    2.5979
   35.895    2.5979
   35.910    2.7734
   35.925    2.5979
   35.940    2.7558
   35.955    2.7909
   35.970    2.4399
   35.985    2.5979
   36.000    2.4574
   36.015    2.4399
   36.030    3.0542
   36.045    2.6330
   36.060    2.8436
   36.075    2.6856
   36.090    2.6681
   36.105    2.5628
   36.120    2.3521
   36.135    2.4750
   36.150    2.4223
   36.165    2.6681
   36.180    2.8963
   36.195    3.1069
   36.210    2.8085
   36.225    3.0191
   36.240    2.5628
   36.255    2.8963
   36.270    2.6856
   36.285    2.6154
   36.300    2.7734
   36.315    2.8260
   36.330    2.8085
   36.345    2.8436
   36.360    2.6505
   36.375    2.6856
   36.390    2.5276
   36.405    2.7383
   36.420    2.5803
   36.435    2.7558
   36.450    2.3872
   36.465    2.5628
   36.480    2.6154
   36.495    2.5101
   36.510    2.9665
   36.525    2.7909
   36.540    2.9489
   36.555    2.5101
   36.570    2.4750
   36.585    2.6154
   36.600    2.7207
   36.615    2.7558
   36.630    2.5803
   36.645    2.7207
   36.660    2.7383
   36.675    3.0718
   36.690    3.0367
   36.705    2.6154
   36.720    2.8787
   36.735    2.5628
   36.750    2.5979
   36.765    2.6681
   36.780    2.7207
   36.795    2.7558
   36.810    2.5979
   36.825    2.5628
   36.840    2.5803
   36.855    2.9138
   36.870    2.8612
   36.885    2.6154
   36.900    2.6154
   36.915    2.7207
   36.930    2.2995
   36.945    2.6330
   36.960    2.7558
   36.975    2.8787
   36.990    2.7383
   37.005    2.5276
   37.020    2.6681
   37.035    2.7032
   37.050    2.7909
   37.065    2.8260
   37.080    2.8787
   37.095    2.9840
   37.110    2.7383
   37.125    2.5628
   37.140    2.5452
   37.155    2.9665
   37.170    2.2819
   37.185    2.3170
   37.200    2.6856
   37.215    2.6856
   37.230    2.4750
   37.245    3.2298
   37.260    2.7032
   37.275    2.4574
   37.290    2.4750
   37.305    2.7032
   37.320    2.6154
   37.335    2.9314
   37.350    2.8436
   37.365    2.6330
   37.380    2.4750
   37.395    2.7734
   37.410    2.6681
   37.425    2.5276
   37.440    2.6505
   37.455    2.5101
   37.470    2.5452
   37.485    2.8085
   37.500    2.7734
   37.515    2.5452
   37.530    2.4750
   37.545    2.5101
   37.560    2.4223
   37.575    2.8787
   37.590    2.4574
   37.605    2.2643
   37.620    2.6330
   37.635    2.7734
   37.650    2.6856
   37.665    2.7734
   37.680    2.5979
   37.695    2.6505
   37.710    2.8085
   37.725    2.4925
   37.740    2.5803
   37.755    2.8085
   37.770    2.6681
   37.785    2.6856
   37.800    2.9665
   37.815    2.9314
   37.830    2.5628
   37.845    2.5803
   37.860    2.4925
   37.875    2.5628
   37.890    2.4925
   37.905    2.5276
   37.920    2.6856
   37.935    2.4574
   37.950    2.4048
   37.965    2.8436
   37.980    2.9314
   37.995    2.9314
   38.010    2.6681
   38.025    2.3521
   38.040    2.7383
   38.055    2.6856
   38.070    2.7734
   38.085    2.6681
   38.100    2.7032
   38.115    2.5101
   38.130    2.2468
   38.145    2.4223
   38.160    2.1590
   38.175    2.3697
   38.190    2.5979
   38.205    2.5628
   38.220    2.3697
   38.235    2.2117
   38.250    2.3521
   38.265    2.6154
   38.280    2.7909
   38.295    2.8787
   38.310    2.8085
   38.325    2.9489
   38.340    2.8963
   38.355    2.7734
   38.370    2.7383
   38.385    2.5101
   38.400    2.5452
   38.415    2.3346
   38.430    2.4574
   38.445    2.5628
   38.460    2.5101
   38.475    2.5452
   38.490    2.5452
   38.505    2.5276
   38.520    2.5276
   38.535    2.5979
   38.550    2.7032
   38.565    2.8260
   38.580    3.2473
   38.595    3.3702
   38.610    3.7213
   38.625    3.2473
   38.640    3.2473
   38.655    3.0367
   38.670    2.9665
   38.685    2.6856
   38.700    2.4750
   38.715    2.3346
   38.730    2.6330
   38.745    2.8963
   38.760    2.7909
   38.775    2.4750
   38.790    2.4399
   38.805    2.6330
   38.820    2.3170
   38.835    2.3521
   38.850    2.3346
   38.865    2.7909
   38.880    2.4399
   38.895    2.2643
   38.910    2.7558
   38.925    2.7558
   38.940    3.0367
   38.955    2.3872
   38.970    2.4048
   38.985    2.5452
   39.000    2.6154
   39.015    2.5276
   39.030    2.4750
   39.045    2.3872
   39.060    2.6154
   39.075    2.5628
   39.090    2.1239
   39.105    2.4399
   39.120    2.6856
   39.135    2.6505
   39.150    2.4048
   39.165    2.4574
   39.180    2.5979
   39.195    2.5101
   39.210    2.4925
   39.225    2.5803
   39.240    2.4574
   39.255    2.9840
   39.270    2.6154
   39.285    2.3872
   39.300    2.3521
   39.315    2.4750
   39.330    2.6330
   39.345    2.6681
   39.360    2.7383
   39.375    2.7558
   39.390    2.4223
   39.405    2.4750
   39.420    2.6681
   39.435    2.6330
   39.450    2.6154
   39.465    2.8085
   39.480    2.8436
   39.495    2.9314
   39.510    2.6856
   39.525    2.4925
   39.540    2.5628
   39.555    2.7383
   39.570    2.7383
   39.585    2.6154
   39.600    2.7032
   39.615    2.1941
   39.630    2.8963
   39.645    2.7032
   39.660    2.4750
   39.675    2.5628
   39.690    2.2995
   39.705    2.3170
   39.720    2.6154
   39.735    2.7734
   39.750    2.6856
   39.765    3.0016
   39.780    2.5803
   39.795    2.7383
   39.810    2.6856
   39.825    2.4925
   39.840    2.7383
   39.855    2.5979
   39.870    2.6505
   39.885    2.4750
   39.900    2.4925
   39.915    2.7558
   39.930    2.6154
   39.945    2.5803
   39.960    2.5979
   39.975    2.3872
   39.990    2.4574
