    1.500   12.4276
    1.515   12.8594
    1.530   11.9958
    1.545   11.8589
    1.560   11.5640
    1.575   11.8167
    1.590   11.4481
    1.605   11.5429
    1.620   11.2796
    1.635   11.3323
    1.650   11.0795
    1.665   10.9637
    1.680   11.0479
    1.695   10.4581
    1.710   10.1527
    1.725   10.1316
    1.740   10.1001
    1.755   10.4160
    1.770   10.2475
    1.785   10.0895
    1.800    9.8473
    1.815    9.3418
    1.830    9.2891
    1.845    9.2680
    1.860    8.9837
    1.875    9.4997
    1.890    9.6472
    1.905    9.1627
    1.920    8.8784
    1.935    9.4892
    1.950    8.9837
    1.965    8.2043
    1.980    8.7098
    1.995    8.7520
    2.010    8.5729
    2.025    8.6045
    2.040    8.4781
    2.055    8.6361
    2.070    8.1517
    2.085    8.2464
    2.100    8.0674
    2.115    8.0779
    2.130    8.1201
    2.145    7.7830
    2.160    8.0147
    2.175    8.0042
    2.190    8.0253
    2.205    7.8884
    2.220    8.0147
    2.235    8.0147
    2.250    7.7725
    2.265    7.4250
    2.280    7.1406
    2.295    7.5513
    2.310    7.7936
    2.325    7.3196
    2.340    7.4144
    2.355    7.4460
    2.370    7.4987
    2.385    7.6145
    2.400    7.3302
    2.415    7.4460
    2.430    7.1617
    2.445    7.1406
    2.460    7.2459
    2.475    7.0353
    2.490    6.7088
    2.505    6.9932
    2.520    6.8036
    2.535    6.9932
    2.550    7.1933
    2.565    7.1511
    2.580    7.0669
    2.595    7.0248
    2.610    6.9405
    2.625    6.8562
    2.640    6.9194
    2.655    6.3718
    2.670    6.4455
    2.685    6.5613
    2.700    6.5192
    2.715    6.8036
    2.730    7.1406
    2.745    6.7615
    2.760    6.2138
    2.775    6.4350
    2.790    6.4350
    2.805    6.5719
    2.820    6.7088
    2.835    6.7825
    2.850    6.1822
    2.865    6.3191
    2.880    6.0979
    2.895    6.2243
    2.910    6.0137
    2.925    6.0032
    2.940    5.9505
    2.955    6.1717
    2.970    6.4666
    2.985    5.8873
    3.000    6.3507
    3.015    5.9505
    3.030    6.1085
    3.045    6.2138
    3.060    5.9610
    3.075    6.1717
    3.090    6.5298
    3.105    6.6140
    3.120    6.0874
    3.135    6.0664
    3.150    6.0242
    3.165    6.0664
    3.180    6.2033
    3.195    5.8241
    3.210    6.1401
    3.225    5.8662
    3.240    6.1611
    3.255    6.1401
    3.270    5.9400
    3.285    5.9821
    3.300    6.2981
    3.315    5.9294
    3.330    5.8136
    3.345    6.0874
    3.360    6.1401
    3.375    5.9400
    3.390    5.7609
    3.405    5.4134
    3.420    6.0348
    3.435    5.7293
    3.450    5.5819
    3.465    6.0348
    3.480    5.6661
    3.495    5.4976
    3.510    5.7083
    3.525    5.8452
    3.540    5.9084
    3.555    6.0032
    3.570    5.9400
    3.585    5.4976
    3.600    5.9084
    3.615    5.6135
    3.630    5.8557
    3.645    5.6661
    3.660    5.6977
    3.675    5.9821
    3.690    5.8136
    3.705    5.6977
    3.720    5.4660
    3.735    5.9610
    3.750    5.8136
    3.765    5.5187
    3.780    5.4871
    3.795    5.8031
    3.810    5.6977
    3.825    5.7188
    3.840    5.6345
    3.855    5.8452
    3.870    5.6029
    3.885    5.4766
    3.900    5.8241
    3.915    6.0664
    3.930    5.8557
    3.945    5.9821
    3.960    5.7820
    3.975    6.0769
    3.990    5.7083
    4.005    5.6872
    4.020    5.4555
    4.035    5.4660
    4.050    5.4766
    4.065    5.2133
    4.080    5.8557
    4.095    5.7609
    4.110    5.5503
    4.125    5.6661
    4.140    5.7609
    4.155    5.5292
    4.170    5.6135
    4.185    5.8557
    4.200    5.8768
    4.215    5.5082
    4.230    5.8452
    4.245    5.4134
    4.260    5.3397
    4.275    5.6029
    4.290    5.5187
    4.305    5.6135
    4.320    5.2659
    4.335    5.3712
    4.350    5.6977
    4.365    5.6556
    4.380    5.6029
    4.395    5.4028
    4.410    5.4976
    4.425    5.4766
    4.440    5.7820
    4.455    5.6556
    4.470    5.6029
    4.485    5.7188
    4.500    5.7504
    4.515    5.5503
    4.530    5.6345
    4.545    5.6135
    4.560    5.6661
    4.575    5.6556
    4.590    5.5608
    4.605    5.3397
    4.620    5.4871
    4.635    5.7504
    4.650    5.8031
    4.665    5.4976
    4.680    5.4660
    4.695    5.5608
    4.710    5.3923
    4.725    5.5398
    4.740    5.7925
    4.755    5.5924
    4.770    5.6029
    4.785    5.6767
    4.800    5.7609
    4.815    5.5608
    4.830    5.6767
    4.845    5.9189
    4.860    5.5187
    4.875    5.6872
    4.890    5.8136
    4.905    5.6451
    4.920    6.2454
    4.935    5.7293
    4.950    5.7715
    4.965    5.5714
    4.980    6.0032
    4.995    5.9926
    5.010    6.5192
    5.025    5.9400
    5.040    5.7820
    5.055    5.8452
    5.070    6.1295
    5.085    5.9821
    5.100    6.2138
    5.115    6.0137
    5.130    6.2981
    5.145    6.4876
    5.160    6.5613
    5.175    6.0137
    5.190    6.3402
    5.205    6.3402
    5.220    6.5613
    5.235    6.7825
    5.250    6.4560
    5.265    6.7825
    5.280    6.5824
    5.295    6.8141
    5.310    6.6245
    5.325    6.4666
    5.340    6.6245
    5.355    6.7509
    5.370    6.9194
    5.385    6.8773
    5.400    7.2986
    5.415    7.1617
    5.430    7.5197
    5.445    7.4776
    5.460    7.6461
    5.475    7.4566
    5.490    7.3828
    5.505    6.8246
    5.520    7.3196
    5.535    7.0879
    5.550    7.3723
    5.565    6.9932
    5.580    7.4250
    5.595    7.2670
    5.610    6.9721
    5.625    7.1301
    5.640    7.5303
    5.655    7.2670
    5.670    6.8352
    5.685    6.6561
    5.700    6.8246
    5.715    6.9194
    5.730    6.3823
    5.745    6.4876
    5.760    6.9089
    5.775    7.3618
    5.790    6.4771
    5.805    6.2665
    5.820    6.6877
    5.835    6.5508
    5.850    6.8036
    5.865    6.2138
    5.880    6.2875
    5.895    6.0242
    5.910    5.8662
    5.925    5.8557
    5.940    5.8978
    5.955    6.0348
    5.970    5.8136
    5.985    5.6872
    6.000    5.6872
    6.015    5.6661
    6.030    5.6872
    6.045    5.4239
    6.060    5.5082
    6.075    5.5187
    6.090    5.1711
    6.105    5.5608
    6.120    5.4871
    6.135    5.5398
    6.150    5.2659
    6.165    5.2027
    6.180    5.2554
    6.195    5.4766
    6.210    5.2870
    6.225    5.0448
    6.240    5.4450
    6.255    5.5187
    6.270    5.1395
    6.285    5.1080
    6.300    4.9921
    6.315    4.8868
    6.330    4.6972
    6.345    5.1922
    6.360    4.8657
    6.375    4.8657
    6.390    4.9289
    6.405    4.8763
    6.420    4.7815
    6.435    5.0132
    6.450    5.0342
    6.465    4.9289
    6.480    5.0658
    6.495    4.9500
    6.510    5.2133
    6.525    5.3291
    6.540    5.2765
    6.555    5.2238
    6.570    4.8552
    6.585    5.0869
    6.600    4.9605
    6.615    4.8131
    6.630    4.9921
    6.645    4.8341
    6.660    4.6235
    6.675    4.5498
    6.690    5.0342
    6.705    4.8131
    6.720    4.4234
    6.735    4.4655
    6.750    4.7393
    6.765    4.5919
    6.780    4.6130
    6.795    4.6867
    6.810    4.5076
    6.825    4.2443
    6.840    4.4760
    6.855    4.4550
    6.870    4.4866
    6.885    4.1706
    6.900    4.2443
    6.915    4.4023
    6.930    4.4234
    6.945    4.5182
    6.960    4.2338
    6.975    4.1285
    6.990    4.3602
    7.005    4.6024
    7.020    4.5708
    7.035    4.4655
    7.050    4.2654
    7.065    4.4866
    7.080    4.3075
    7.095    4.4971
    7.110    4.1180
    7.125    4.4234
    7.140    4.3497
    7.155    4.2654
    7.170    4.3286
    7.185    4.0758
    7.200    3.9284
    7.215    4.0653
    7.230    4.0021
    7.245    3.8125
    7.260    3.9179
    7.275    3.7388
    7.290    3.4755
    7.305    3.7599
    7.320    3.7704
    7.335    3.8125
    7.350    4.2443
    7.365    3.9389
    7.380    4.0548
    7.395    3.6546
    7.410    3.8231
    7.425    3.9916
    7.440    3.9916
    7.455    3.8757
    7.470    3.7283
    7.485    3.8336
    7.500    4.0021
    7.515    3.8020
    7.530    3.6651
    7.545    3.4650
    7.560    3.7915
    7.575    3.8336
    7.590    3.8863
    7.605    3.9600
    7.620    3.9705
    7.635    3.8125
    7.650    3.7704
    7.665    4.1390
    7.680    3.8863
    7.695    3.4966
    7.710    3.2965
    7.725    3.5176
    7.740    3.6335
    7.755    3.3913
    7.770    3.5387
    7.785    3.6651
    7.800    3.5598
    7.815    3.5282
    7.830    3.4860
    7.845    3.5808
    7.860    3.7704
    7.875    3.4229
    7.890    3.3913
    7.905    3.3913
    7.920    3.2754
    7.935    3.5176
    7.950    3.5176
    7.965    3.3386
    7.980    3.3281
    7.995    3.4439
    8.010    3.7704
    8.025    3.4755
    8.040    3.1385
    8.055    3.2754
    8.070    3.4018
    8.085    3.4860
    8.100    3.3281
    8.115    3.4018
    8.130    3.3491
    8.145    3.4229
    8.160    3.1806
    8.175    3.1912
    8.190    3.4544
    8.205    3.2122
    8.220    3.1806
    8.235    3.5492
    8.250    3.2438
    8.265    3.0858
    8.280    3.1701
    8.295    3.2017
    8.310    3.4544
    8.325    3.5598
    8.340    3.2017
    8.355    3.2122
    8.370    3.1069
    8.385    3.4334
    8.400    3.2859
    8.415    3.2438
    8.430    3.3597
    8.445    3.4123
    8.460    3.0121
    8.475    3.2438
    8.490    3.2017
    8.505    3.2017
    8.520    3.1385
    8.535    3.0226
    8.550    3.0542
    8.565    2.8647
    8.580    3.0964
    8.595    3.2227
    8.610    3.1069
    8.625    3.4334
    8.640    3.3491
    8.655    3.1490
    8.670    3.2122
    8.685    3.2965
    8.700    3.4334
    8.715    3.3597
    8.730    3.2543
    8.745    3.0542
    8.760    3.2017
    8.775    3.0542
    8.790    3.2649
    8.805    3.3491
    8.820    3.0753
    8.835    3.0648
    8.850    3.2227
    8.865    3.2754
    8.880    3.0437
    8.895    3.0437
    8.910    3.1385
    8.925    3.1596
    8.940    3.1280
    8.955    3.0121
    8.970    2.9805
    8.985    3.1069
    9.000    3.2438
    9.015    3.1596
    9.030    2.9595
    9.045    3.2017
    9.060    3.1069
    9.075    3.1596
    9.090    3.0332
    9.105    3.3070
    9.120    3.1174
    9.135    3.0753
    9.150    3.0858
    9.165    3.1490
    9.180    3.0226
    9.195    3.2122
    9.210    2.9910
    9.225    2.8963
    9.240    3.0121
    9.255    2.8120
    9.270    3.1280
    9.285    3.0648
    9.300    3.2438
    9.315    3.0964
    9.330    3.3281
    9.345    3.0858
    9.360    3.3386
    9.375    3.4334
    9.390    3.0753
    9.405    2.9700
    9.420    2.8015
    9.435    2.9700
    9.450    3.0648
    9.465    2.9700
    9.480    2.8436
    9.495    2.9068
    9.510    2.8647
    9.525    2.7278
    9.540    2.8225
    9.555    3.0016
    9.570    2.9384
    9.585    3.1280
    9.600    2.8436
    9.615    2.9384
    9.630    3.1069
    9.645    2.9700
    9.660    3.0437
    9.675    2.8120
    9.690    2.7383
    9.705    2.8857
    9.720    2.8752
    9.735    2.9910
    9.750    3.0121
    9.765    2.9805
    9.780    2.6751
    9.795    2.8225
    9.810    2.9910
    9.825    3.1280
    9.840    3.0753
    9.855    2.8752
    9.870    3.1490
    9.885    3.0332
    9.900    3.0542
    9.915    3.0121
    9.930    3.2543
    9.945    3.2859
    9.960    3.3913
    9.975    3.2438
    9.990    3.1806
   10.005    2.9700
   10.020    2.9910
   10.035    3.4123
   10.050    3.2017
   10.065    2.8963
   10.080    2.8541
   10.095    3.0858
   10.110    2.8541
   10.125    3.2017
   10.140    2.7488
   10.155    2.9489
   10.170    3.1174
   10.185    3.1280
   10.200    3.3281
   10.215    3.1490
   10.230    2.9384
   10.245    3.2333
   10.260    3.2859
   10.275    3.0016
   10.290    3.4123
   10.305    3.3702
   10.320    3.0753
   10.335    2.9068
   10.350    2.7699
   10.365    3.1701
   10.380    3.1174
   10.395    2.9384
   10.410    3.0542
   10.425    3.0964
   10.440    3.2649
   10.455    3.2438
   10.470    3.1174
   10.485    3.0648
   10.500    3.2333
   10.515    3.2754
   10.530    3.1701
   10.545    3.0332
   10.560    3.3491
   10.575    2.9700
   10.590    3.1912
   10.605    3.0121
   10.620    3.2333
   10.635    3.2017
   10.650    2.7699
   10.665    3.0016
   10.680    3.3281
   10.695    3.2543
   10.710    3.3281
   10.725    3.3386
   10.740    3.3702
   10.755    3.0858
   10.770    3.0121
   10.785    3.4544
   10.800    3.1806
   10.815    3.1490
   10.830    3.5176
   10.845    3.4018
   10.860    3.2754
   10.875    3.4544
   10.890    3.3491
   10.905    3.0121
   10.920    3.1912
   10.935    3.2543
   10.950    3.5071
   10.965    3.2438
   10.980    3.3807
   10.995    3.5492
   11.010    3.3281
   11.025    3.2227
   11.040    3.3070
   11.055    3.2859
   11.070    3.1806
   11.085    3.0964
   11.100    3.4229
   11.115    3.2859
   11.130    3.2649
   11.145    3.2543
   11.160    3.1280
   11.175    3.0332
   11.190    2.9384
   11.205    3.1490
   11.220    3.1701
   11.235    3.3702
   11.250    3.2438
   11.265    3.0016
   11.280    3.4439
   11.295    3.3597
   11.310    3.2649
   11.325    3.2965
   11.340    3.0226
   11.355    3.2859
   11.370    3.1701
   11.385    3.1912
   11.400    3.3386
   11.415    3.4544
   11.430    3.2333
   11.445    3.3913
   11.460    3.2122
   11.475    3.2227
   11.490    3.3281
   11.505    3.3807
   11.520    3.1912
   11.535    3.0542
   11.550    3.0753
   11.565    3.3807
   11.580    3.1806
   11.595    3.3913
   11.610    3.3281
   11.625    3.3597
   11.640    3.3281
   11.655    3.0437
   11.670    2.9279
   11.685    3.1385
   11.700    3.0648
   11.715    2.8647
   11.730    3.2017
   11.745    3.2965
   11.760    3.0121
   11.775    2.9910
   11.790    3.2017
   11.805    3.4544
   11.820    3.1385
   11.835    3.1069
   11.850    2.9489
   11.865    3.1174
   11.880    3.2438
   11.895    3.0437
   11.910    3.0964
   11.925    3.1385
   11.940    3.1596
   11.955    3.0964
   11.970    3.4544
   11.985    3.3913
   12.000    3.2859
   12.015    2.9489
   12.030    3.2227
   12.045    3.0964
   12.060    3.1912
   12.075    3.1806
   12.090    3.0753
   12.105    3.2754
   12.120    3.1490
   12.135    3.1069
   12.150    3.0226
   12.165    3.2333
   12.180    3.1701
   12.195    3.3175
   12.210    3.1806
   12.225    3.0121
   12.240    3.4650
   12.255    3.3070
   12.270    3.2017
   12.285    3.0016
   12.300    2.9595
   12.315    2.8541
   12.330    2.8963
   12.345    2.9700
   12.360    3.1174
   12.375    3.0964
   12.390    3.1596
   12.405    3.0858
   12.420    3.1385
   12.435    3.2543
   12.450    3.0753
   12.465    3.0332
   12.480    3.3175
   12.495    2.8963
   12.510    3.0016
   12.525    3.0016
   12.540    3.0648
   12.555    3.2965
   12.570    3.1806
   12.585    3.2438
   12.600    3.0121
   12.615    3.0121
   12.630    2.6646
   12.645    2.7909
   12.660    3.0542
   12.675    3.2754
   12.690    3.0016
   12.705    2.9173
   12.720    2.9910
   12.735    3.2227
   12.750    3.1596
   12.765    3.2333
   12.780    3.1069
   12.795    2.9068
   12.810    3.0437
   12.825    3.0753
   12.840    2.9910
   12.855    3.1912
   12.870    3.2543
   12.885    3.3386
   12.900    2.9910
   12.915    2.8120
   12.930    2.8436
   12.945    2.7383
   12.960    2.7593
   12.975    2.8752
   12.990    3.1912
   13.005    3.1174
   13.020    3.1701
   13.035    2.9173
   13.050    3.0226
   13.065    3.1280
   13.080    3.0858
   13.095    3.1174
   13.110    3.0332
   13.125    3.0016
   13.140    3.1490
   13.155    3.2859
   13.170    3.1596
   13.185    2.9805
   13.200    3.0332
   13.215    2.8857
   13.230    3.1280
   13.245    3.2122
   13.260    3.2754
   13.275    3.3281
   13.290    3.1069
   13.305    3.0121
   13.320    3.1280
   13.335    3.0437
   13.350    3.0437
   13.365    3.1806
   13.380    3.2438
   13.395    2.9805
   13.410    3.1069
   13.425    3.1490
   13.440    3.1069
   13.455    3.1806
   13.470    3.1280
   13.485    3.1806
   13.500    3.3491
   13.515    3.1280
   13.530    3.2859
   13.545    3.1280
   13.560    2.7909
   13.575    2.9910
   13.590    2.9279
   13.605    2.7804
   13.620    3.1701
   13.635    3.4229
   13.650    3.4439
   13.665    3.2543
   13.680    2.9805
   13.695    3.1385
   13.710    3.2227
   13.725    3.0332
   13.740    3.3070
   13.755    3.2754
   13.770    3.1385
   13.785    2.9068
   13.800    3.1069
   13.815    2.9805
   13.830    3.4439
   13.845    3.1806
   13.860    3.0016
   13.875    3.2754
   13.890    3.2122
   13.905    3.0858
   13.920    3.0964
   13.935    3.0648
   13.950    3.0964
   13.965    2.9700
   13.980    3.1701
   13.995    3.2438
   14.010    3.2227
   14.025    3.2543
   14.040    3.2017
   14.055    3.0226
   14.070    3.2438
   14.085    3.2649
   14.100    3.2754
   14.115    3.1806
   14.130    3.4439
   14.145    3.3597
   14.160    3.4439
   14.175    3.6019
   14.190    3.4650
   14.205    3.1490
   14.220    3.0121
   14.235    3.6019
   14.250    3.1912
   14.265    3.3702
   14.280    3.6124
   14.295    3.7072
   14.310    3.7388
   14.325    3.5808
   14.340    3.2333
   14.355    3.5176
   14.370    3.5282
   14.385    3.2543
   14.400    3.4544
   14.415    3.4018
   14.430    3.2227
   14.445    3.4334
   14.460    3.5387
   14.475    3.5492
   14.490    3.4123
   14.505    3.3281
   14.520    3.4123
   14.535    3.1701
   14.550    3.3070
   14.565    3.2227
   14.580    3.4544
   14.595    3.6019
   14.610    3.6335
   14.625    3.4018
   14.640    3.5808
   14.655    3.3175
   14.670    3.1806
   14.685    3.2859
   14.700    3.3070
   14.715    3.4334
   14.730    3.3386
   14.745    3.3386
   14.760    3.2965
   14.775    3.4123
   14.790    3.6756
   14.805    2.9805
   14.820    3.0542
   14.835    3.3175
   14.850    3.3597
   14.865    2.9700
   14.880    3.0226
   14.895    3.1385
   14.910    3.0964
   14.925    3.0226
   14.940    3.0121
   14.955    3.0964
   14.970    3.0542
   14.985    3.1806
   15.000    2.8963
   15.015    3.2965
   15.030    2.9805
   15.045    3.2333
   15.060    3.1912
   15.075    3.0016
   15.090    2.8331
   15.105    2.9595
   15.120    3.1069
   15.135    3.0753
   15.150    2.9595
   15.165    2.9910
   15.180    2.9279
   15.195    3.0648
   15.210    3.1280
   15.225    3.2649
   15.240    3.3597
   15.255    3.1912
   15.270    3.2122
   15.285    2.7909
   15.300    2.8541
   15.315    2.8541
   15.330    2.9700
   15.345    3.1385
   15.360    2.9700
   15.375    3.2017
   15.390    3.1174
   15.405    2.9805
   15.420    2.8436
   15.435    2.8331
   15.450    3.0753
   15.465    3.2754
   15.480    3.2965
   15.495    3.1806
   15.510    3.0858
   15.525    3.0858
   15.540    2.9173
   15.555    3.0332
   15.570    3.1806
   15.585    3.2122
   15.600    3.1069
   15.615    3.0648
   15.630    2.9068
   15.645    2.8331
   15.660    2.9068
   15.675    3.0226
   15.690    3.4439
   15.705    3.1912
   15.720    3.0648
   15.735    3.2543
   15.750    3.2754
   15.765    3.2122
   15.780    3.1174
   15.795    3.1280
   15.810    2.9489
   15.825    3.0016
   15.840    2.8436
   15.855    3.1912
   15.870    3.2333
   15.885    3.0542
   15.900    2.7593
   15.915    3.0753
   15.930    3.1701
   15.945    3.0226
   15.960    3.1806
   15.975    3.3386
   15.990    2.9279
   16.005    2.8331
   16.020    3.0648
   16.035    2.8752
   16.050    2.9910
   16.065    3.0648
   16.080    3.2227
   16.095    3.1912
   16.110    3.1174
   16.125    2.9805
   16.140    3.2649
   16.155    3.0226
   16.170    3.1385
   16.185    3.1280
   16.200    3.1069
   16.215    3.0542
   16.230    3.3597
   16.245    3.3070
   16.260    3.2859
   16.275    3.1912
   16.290    3.0016
   16.305    2.8963
   16.320    3.1069
   16.335    3.3702
   16.350    3.3807
   16.365    3.1596
   16.380    3.2017
   16.395    3.2438
   16.410    3.1385
   16.425    2.7909
   16.440    2.9700
   16.455    2.9279
   16.470    3.3070
   16.485    2.9279
   16.500    2.9489
   16.515    3.1385
   16.530    3.2859
   16.545    3.1490
   16.560    3.0016
   16.575    3.2754
   16.590    3.1490
   16.605    3.0332
   16.620    3.1069
   16.635    3.0121
   16.650    3.2333
   16.665    3.1490
   16.680    3.0753
   16.695    3.0542
   16.710    2.8331
   16.725    3.2122
   16.740    3.1701
   16.755    3.0437
   16.770    3.1912
   16.785    3.1912
   16.800    2.8541
   16.815    2.8331
   16.830    2.9910
   16.845    3.0226
   16.860    2.8752
   16.875    2.9173
   16.890    2.9910
   16.905    2.8752
   16.920    3.0648
   16.935    2.9489
   16.950    2.8647
   16.965    2.9173
   16.980    3.1385
   16.995    3.1806
   17.010    3.1385
   17.025    2.9805
   17.040    3.1912
   17.055    2.7909
   17.070    3.1596
   17.085    3.1596
   17.100    3.0648
   17.115    2.8857
   17.130    3.1490
   17.145    3.1385
   17.160    3.1596
   17.175    3.0542
   17.190    3.0121
   17.205    2.9173
   17.220    3.0753
   17.235    3.0753
   17.250    2.9805
   17.265    2.8857
   17.280    3.0121
   17.295    3.0753
   17.310    3.1280
   17.325    3.1280
   17.340    2.9279
   17.355    2.9489
   17.370    3.0648
   17.385    3.1596
   17.400    3.0437
   17.415    2.8857
   17.430    3.1490
   17.445    3.0016
   17.460    2.8963
   17.475    3.2965
   17.490    3.2333
   17.505    3.2438
   17.520    3.2754
   17.535    2.9595
   17.550    2.9173
   17.565    3.2017
   17.580    3.0226
   17.595    2.8857
   17.610    2.9384
   17.625    2.9700
   17.640    3.0542
   17.655    2.9489
   17.670    2.7172
   17.685    2.9489
   17.700    3.1069
   17.715    3.0753
   17.730    3.0226
   17.745    2.8331
   17.760    2.8331
   17.775    3.1596
   17.790    3.0016
   17.805    2.9595
   17.820    2.8963
   17.835    3.1280
   17.850    3.2227
   17.865    3.1806
   17.880    2.9805
   17.895    3.2227
   17.910    3.1490
   17.925    2.8963
   17.940    3.1701
   17.955    3.0964
   17.970    2.7909
   17.985    3.1069
   18.000    3.1806
   18.015    3.0437
   18.030    2.9910
   18.045    3.0016
   18.060    3.2649
   18.075    3.3807
   18.090    3.1280
   18.105    3.1280
   18.120    3.0121
   18.135    3.0437
   18.150    3.1174
   18.165    3.0121
   18.180    3.0226
   18.195    3.1912
   18.210    3.0753
   18.225    3.0332
   18.240    2.9068
   18.255    2.7699
   18.270    3.0542
   18.285    3.0437
   18.300    2.8541
   18.315    2.9068
   18.330    2.8752
   18.345    3.0542
   18.360    3.0332
   18.375    2.7067
   18.390    3.0858
   18.405    3.2333
   18.420    3.1385
   18.435    3.0226
   18.450    2.9700
   18.465    2.8331
   18.480    2.9595
   18.495    2.7383
   18.510    2.7172
   18.525    3.1701
   18.540    3.2227
   18.555    3.0332
   18.570    2.8647
   18.585    2.7593
   18.600    3.2122
   18.615    3.2649
   18.630    2.8963
   18.645    3.1069
   18.660    3.0437
   18.675    3.0437
   18.690    3.4123
   18.705    3.0437
   18.720    3.0332
   18.735    2.9489
   18.750    2.8752
   18.765    2.9489
   18.780    3.0858
   18.795    2.8331
   18.810    2.9384
   18.825    3.0964
   18.840    2.9384
   18.855    3.0542
   18.870    2.9805
   18.885    2.9910
   18.900    3.1701
   18.915    3.2649
   18.930    3.5492
   18.945    3.8336
   18.960    4.1390
   18.975    4.1496
   18.990    4.3075
   19.005    4.2233
   19.020    4.2443
   19.035    3.7493
   19.050    3.2017
   19.065    3.2438
   19.080    3.0542
   19.095    2.8647
   19.110    3.0226
   19.125    2.9384
   19.140    3.0332
   19.155    2.9068
   19.170    2.8120
   19.185    2.9910
   19.200    2.7699
   19.215    2.9700
   19.230    3.1701
   19.245    3.0964
   19.260    3.1280
   19.275    3.0016
   19.290    2.7067
   19.305    2.9173
   19.320    2.8752
   19.335    2.9910
   19.350    3.1280
   19.365    2.9279
   19.380    3.0226
   19.395    2.6646
   19.410    2.7593
   19.425    2.4961
   19.440    2.6646
   19.455    2.8541
   19.470    2.8541
   19.485    2.9384
   19.500    2.7909
   19.515    2.6962
   19.530    2.8436
   19.545    2.9595
   19.560    2.8120
   19.575    2.8225
   19.590    3.0542
   19.605    2.8120
   19.620    2.7804
   19.635    2.7172
   19.650    2.7067
   19.665    2.9384
   19.680    3.1596
   19.695    2.6856
   19.710    2.7488
   19.725    2.6540
   19.740    2.5803
   19.755    2.8963
   19.770    3.0437
   19.785    2.8752
   19.800    2.9384
   19.815    2.7278
   19.830    2.6751
   19.845    2.6224
   19.860    2.8541
   19.875    3.0332
   19.890    3.0226
   19.905    2.9595
   19.920    3.0016
   19.935    2.6540
   19.950    3.0542
   19.965    2.7699
   19.980    2.8015
   19.995    2.8120
   20.010    3.0332
   20.025    2.9595
   20.040    2.8331
   20.055    2.6962
   20.070    2.8225
   20.085    2.7172
   20.100    2.9700
   20.115    2.9595
   20.130    2.7488
   20.145    2.8647
   20.160    2.6330
   20.175    2.8752
   20.190    2.8225
   20.205    3.1280
   20.220    2.6119
   20.235    2.3486
   20.250    2.5698
   20.265    2.6856
   20.280    2.8225
   20.295    2.4750
   20.310    2.6646
   20.325    2.8541
   20.340    2.8963
   20.355    2.4961
   20.370    2.6646
   20.385    3.0648
   20.400    2.7488
   20.415    2.6540
   20.430    2.6646
   20.445    2.8120
   20.460    2.7278
   20.475    2.6646
   20.490    2.7383
   20.505    2.9068
   20.520    2.7909
   20.535    2.8120
   20.550    2.5592
   20.565    2.8541
   20.580    3.0016
   20.595    2.6435
   20.610    2.7383
   20.625    2.6435
   20.640    2.5803
   20.655    2.3381
   20.670    2.4750
   20.685    2.6330
   20.700    2.7172
   20.715    2.3907
   20.730    2.5908
   20.745    2.9068
   20.760    2.6962
   20.775    2.8015
   20.790    2.7172
   20.805    2.7383
   20.820    2.4855
   20.835    2.5276
   20.850    2.6646
   20.865    2.6330
   20.880    2.6435
   20.895    2.7172
   20.910    2.8331
   20.925    2.8225
   20.940    2.9279
   20.955    2.7172
   20.970    2.6646
   20.985    2.3381
   21.000    2.4434
   21.015    2.5487
   21.030    2.6646
   21.045    2.7488
   21.060    2.7383
   21.075    2.6435
   21.090    2.5276
   21.105    2.7804
   21.120    2.4750
   21.135    2.5171
   21.150    2.5908
   21.165    2.4855
   21.180    2.6435
   21.195    2.7699
   21.210    2.7909
   21.225    2.6224
   21.240    2.8120
   21.255    2.6330
   21.270    2.4855
   21.285    2.6119
   21.300    2.4539
   21.315    2.6224
   21.330    2.8857
   21.345    2.7804
   21.360    2.7067
   21.375    2.5908
   21.390    2.5066
   21.405    2.7593
   21.420    2.6856
   21.435    2.5908
   21.450    2.9805
   21.465    2.9595
   21.480    2.6962
   21.495    2.8963
   21.510    2.7488
   21.525    2.4013
   21.540    2.5592
   21.555    2.4855
   21.570    2.7067
   21.585    2.6014
   21.600    2.6119
   21.615    2.7488
   21.630    2.5698
   21.645    2.7488
   21.660    2.6646
   21.675    2.4539
   21.690    2.6856
   21.705    2.5382
   21.720    2.5908
   21.735    2.4223
   21.750    2.4855
   21.765    2.7488
   21.780    2.5908
   21.795    2.4645
   21.810    2.5171
   21.825    2.8963
   21.840    2.6751
   21.855    2.4961
   21.870    2.6224
   21.885    2.7383
   21.900    2.4118
   21.915    2.5487
   21.930    2.7699
   21.945    2.4645
   21.960    2.5908
   21.975    2.4434
   21.990    2.2012
   22.005    2.4750
   22.020    2.3486
   22.035    2.3907
   22.050    2.4539
   22.065    2.6435
   22.080    2.6330
   22.095    2.4750
   22.110    2.6751
   22.125    2.5908
   22.140    2.5592
   22.155    2.4118
   22.170    2.6962
   22.185    2.3275
   22.200    2.4013
   22.215    2.6014
   22.230    2.6014
   22.245    2.3275
   22.260    2.3381
   22.275    2.4645
   22.290    2.3802
   22.305    2.5592
   22.320    2.6962
   22.335    2.6540
   22.350    2.6014
   22.365    2.4750
   22.380    2.2643
   22.395    2.6540
   22.410    2.6330
   22.425    2.5066
   22.440    2.3697
   22.455    2.4434
   22.470    2.5382
   22.485    2.5487
   22.500    2.4013
   22.515    2.5908
   22.530    2.4961
   22.545    2.4013
   22.560    2.4329
   22.575    2.5382
   22.590    2.5908
   22.605    2.4645
   22.620    2.1590
   22.635    2.4855
   22.650    2.7172
   22.665    2.6751
   22.680    2.4434
   22.695    2.4434
   22.710    2.7067
   22.725    2.6119
   22.740    2.2959
   22.755    2.3907
   22.770    2.3275
   22.785    2.2854
   22.800    2.4645
   22.815    2.2433
   22.830    2.3170
   22.845    2.5066
   22.860    2.4539
   22.875    2.2117
   22.890    2.5066
   22.905    2.4013
   22.920    2.3170
   22.935    2.3486
   22.950    2.2328
   22.965    2.3907
   22.980    2.3381
   22.995    2.2854
   23.010    2.2328
   23.025    2.3486
   23.040    2.4855
   23.055    2.6014
   23.070    2.6646
   23.085    2.6540
   23.100    2.7067
   23.115    3.1280
   23.130    2.9384
   23.145    2.5592
   23.160    2.3697
   23.175    2.5066
   23.190    2.4855
   23.205    2.3802
   23.220    2.3170
   23.235    2.2749
   23.250    2.2538
   23.265    2.3907
   23.280    2.1169
   23.295    2.3591
   23.310    2.2222
   23.325    1.9800
   23.340    2.3170
   23.355    2.5592
   23.370    2.4223
   23.385    2.3170
   23.400    2.1169
   23.415    2.3907
   23.430    2.3907
   23.445    2.2538
   23.460    2.1274
   23.475    2.3486
   23.490    2.4013
   23.505    2.3170
   23.520    2.5698
   23.535    2.3591
   23.550    2.4855
   23.565    2.5382
   23.580    2.5276
   23.595    2.7383
   23.610    2.6330
   23.625    2.3802
   23.640    2.3486
   23.655    2.3697
   23.670    2.3275
   23.685    2.2854
   23.700    2.2643
   23.715    2.0853
   23.730    2.4539
   23.745    2.4118
   23.760    2.2643
   23.775    2.3907
   23.790    2.3275
   23.805    2.1906
   23.820    2.0432
   23.835    2.1380
   23.850    2.2538
   23.865    2.0011
   23.880    2.0011
   23.895    2.2854
   23.910    2.3065
   23.925    2.1590
   23.940    2.2328
   23.955    2.2222
   23.970    2.2854
   23.985    2.1696
   24.000    2.2433
   24.015    2.0748
   24.030    2.0748
   24.045    1.8747
   24.060    1.8957
   24.075    2.0116
   24.090    2.2222
   24.105    2.4329
   24.120    2.1590
   24.135    2.0116
   24.150    2.1696
   24.165    2.0853
   24.180    2.2117
   24.195    2.1380
   24.210    2.0748
   24.225    2.1064
   24.240    2.1696
   24.255    2.1169
   24.270    2.2117
   24.285    2.2433
   24.300    2.2433
   24.315    2.2012
   24.330    1.9168
   24.345    1.8220
   24.360    2.0432
   24.375    1.8852
   24.390    1.9695
   24.405    2.2222
   24.420    2.0642
   24.435    1.9168
   24.450    2.0116
   24.465    2.0011
   24.480    1.9800
   24.495    2.0748
   24.510    2.0642
   24.525    2.1274
   24.540    2.1590
   24.555    2.2012
   24.570    2.1590
   24.585    2.0116
   24.600    2.0326
   24.615    1.9695
   24.630    2.2012
   24.645    2.2643
   24.660    2.0537
   24.675    2.0853
   24.690    1.9484
   24.705    1.9484
   24.720    1.9063
   24.735    2.1380
   24.750    2.1590
   24.765    2.1485
   24.780    2.0432
   24.795    2.0116
   24.810    2.1590
   24.825    2.0642
   24.840    2.1274
   24.855    2.2433
   24.870    2.2012
   24.885    2.1274
   24.900    2.0221
   24.915    2.1696
   24.930    2.2854
   24.945    2.0221
   24.960    2.0958
   24.975    2.1274
   24.990    2.2749
   25.005    2.0537
   25.020    1.9484
   25.035    2.0221
   25.050    1.9273
   25.065    1.9589
   25.080    2.0642
   25.095    1.9484
   25.110    2.0116
   25.125    1.9484
   25.140    1.8957
   25.155    2.0853
   25.170    1.9379
   25.185    1.9273
   25.200    2.0011
   25.215    2.1274
   25.230    1.8747
   25.245    1.8747
   25.260    2.0221
   25.275    1.9905
   25.290    2.2433
   25.305    2.2222
   25.320    2.0221
   25.335    2.0853
   25.350    2.1380
   25.365    1.9168
   25.380    1.7694
   25.395    1.9484
   25.410    2.0748
   25.425    2.0853
   25.440    2.2328
   25.455    2.2643
   25.470    2.1801
   25.485    2.3275
   25.500    2.6224
   25.515    2.4750
   25.530    2.1380
   25.545    2.2012
   25.560    2.1380
   25.575    2.3065
   25.590    2.0642
   25.605    2.0116
   25.620    1.9273
   25.635    2.0011
   25.650    1.9063
   25.665    1.8747
   25.680    1.9800
   25.695    2.0326
   25.710    2.1380
   25.725    1.8957
   25.740    1.9273
   25.755    1.9273
   25.770    2.0432
   25.785    1.8115
   25.800    1.9273
   25.815    1.9379
   25.830    1.8220
   25.845    1.8536
   25.860    1.8852
   25.875    2.1696
   25.890    2.0011
   25.905    1.8536
   25.920    1.9273
   25.935    1.9800
   25.950    1.9063
   25.965    1.9063
   25.980    1.8957
   25.995    2.0011
   26.010    1.9379
   26.025    1.8115
   26.040    1.9589
   26.055    2.0221
   26.070    2.0642
   26.085    2.0537
   26.100    2.1485
   26.115    2.1696
   26.130    1.9800
   26.145    1.8747
   26.160    1.8957
   26.175    1.7588
   26.190    1.9484
   26.205    1.8536
   26.220    1.9168
   26.235    1.9168
   26.250    2.0221
   26.265    2.0326
   26.280    1.8852
   26.295    2.1169
   26.310    1.9168
   26.325    2.0748
   26.340    2.0642
   26.355    1.9168
   26.370    1.7378
   26.385    1.9379
   26.400    2.1485
   26.415    2.0748
   26.430    1.9273
   26.445    2.0537
   26.460    1.9063
   26.475    1.9273
   26.490    1.9905
   26.505    2.0432
   26.520    1.8747
   26.535    1.7378
   26.550    2.0221
   26.565    1.7694
   26.580    2.0326
   26.595    1.9063
   26.610    1.8852
   26.625    1.8957
   26.640    2.0642
   26.655    1.8852
   26.670    1.9695
   26.685    1.8957
   26.700    1.9589
   26.715    1.7694
   26.730    1.9063
   26.745    1.6956
   26.760    1.6008
   26.775    1.8009
   26.790    1.7167
   26.805    1.8325
   26.820    1.7799
   26.835    1.8220
   26.850    1.9273
   26.865    1.9063
   26.880    1.7483
   26.895    1.8536
   26.910    1.8536
   26.925    1.8009
   26.940    1.7378
   26.955    1.7483
   26.970    1.8747
   26.985    1.9168
   27.000    1.9484
   27.015    1.8325
   27.030    1.8431
   27.045    1.9063
   27.060    1.7378
   27.075    1.6640
   27.090    1.8009
   27.105    1.8431
   27.120    1.7483
   27.135    1.6008
   27.150    1.7062
   27.165    1.7062
   27.180    1.6640
   27.195    1.7799
   27.210    1.9273
   27.225    1.9273
   27.240    1.6219
   27.255    1.6956
   27.270    1.7588
   27.285    1.7062
   27.300    1.6324
   27.315    1.5798
   27.330    1.7062
   27.345    1.6746
   27.360    1.8009
   27.375    1.6851
   27.390    1.8852
   27.405    1.8431
   27.420    1.7904
   27.435    1.7272
   27.450    1.7588
   27.465    1.7904
   27.480    1.8431
   27.495    1.7799
   27.510    1.8852
   27.525    1.9589
   27.540    1.6956
   27.555    1.7799
   27.570    1.8536
   27.585    1.8957
   27.600    1.6430
   27.615    1.5377
   27.630    1.6430
   27.645    1.7799
   27.660    1.7588
   27.675    1.9905
   27.690    1.7904
   27.705    1.7062
   27.720    1.6640
   27.735    1.6430
   27.750    1.7799
   27.765    1.7062
   27.780    1.4850
   27.795    1.5798
   27.810    1.6219
   27.825    1.7062
   27.840    1.8220
   27.855    1.6324
   27.870    1.7167
   27.885    1.6640
   27.900    1.7799
   27.915    1.7588
   27.930    1.8115
   27.945    2.2433
   27.960    2.6751
   27.975    3.0858
   27.990    3.1069
   28.005    3.0437
   28.020    2.8541
   28.035    2.3697
   28.050    2.1696
   28.065    1.6746
   28.080    1.6324
   28.095    1.6851
   28.110    1.7378
   28.125    1.6114
   28.140    1.6324
   28.155    1.6640
   28.170    1.7272
   28.185    1.5587
   28.200    1.4745
   28.215    1.5061
   28.230    1.6008
   28.245    1.7694
   28.260    1.9695
   28.275    1.6430
   28.290    1.5377
   28.305    1.7167
   28.320    1.5166
   28.335    1.6219
   28.350    1.6324
   28.365    1.4745
   28.380    1.6219
   28.395    1.6324
   28.410    1.7378
   28.425    1.6219
   28.440    1.5061
   28.455    1.6114
   28.470    1.6114
   28.485    1.7483
   28.500    1.6324
   28.515    1.8747
   28.530    1.5903
   28.545    1.6324
   28.560    1.6746
   28.575    1.5798
   28.590    1.5061
   28.605    1.5903
   28.620    1.6640
   28.635    1.6430
   28.650    1.7904
   28.665    1.7272
   28.680    1.6851
   28.695    1.6430
   28.710    1.5482
   28.725    1.5587
   28.740    1.8641
   28.755    1.8009
   28.770    1.7272
   28.785    1.8220
   28.800    1.7167
   28.815    1.7483
   28.830    1.8009
   28.845    1.6956
   28.860    1.6640
   28.875    1.7167
   28.890    2.0432
   28.905    2.0748
   28.920    2.7067
   28.935    3.6124
   28.950    3.4966
   28.965    3.9284
   28.980    3.2122
   28.995    2.5276
   29.010    2.1064
   29.025    1.8852
   29.040    1.8325
   29.055    1.6114
   29.070    1.5061
   29.085    1.4534
   29.100    1.6746
   29.115    1.6851
   29.130    1.7167
   29.145    1.4639
   29.160    1.5377
   29.175    1.7272
   29.190    1.8009
   29.205    1.8009
   29.220    1.7272
   29.235    1.6640
   29.250    1.7272
   29.265    1.5587
   29.280    1.6324
   29.295    1.5903
   29.310    1.6114
   29.325    1.3165
   29.340    1.4850
   29.355    1.5482
   29.370    1.6956
   29.385    1.7062
   29.400    1.5377
   29.415    1.6956
   29.430    1.6746
   29.445    1.5061
   29.460    1.5166
   29.475    1.4850
   29.490    1.5377
   29.505    1.4745
   29.520    1.3586
   29.535    1.4639
   29.550    1.5798
   29.565    1.3797
   29.580    1.5692
   29.595    1.5377
   29.610    1.3586
   29.625    1.6008
   29.640    1.5798
   29.655    1.4113
   29.670    1.5798
   29.685    1.5377
   29.700    1.5798
   29.715    1.4955
   29.730    1.6430
   29.745    1.5271
   29.760    1.2954
   29.775    1.5587
   29.790    1.4955
   29.805    1.4639
   29.820    1.4218
   29.835    1.5903
   29.850    1.4323
   29.865    1.4218
   29.880    1.3586
   29.895    1.4323
   29.910    1.5482
   29.925    1.3797
   29.940    1.3691
   29.955    1.4745
   29.970    1.5482
   29.985    1.7904
   30.000    1.4534
   30.015    1.4218
   30.030    1.5377
   30.045    1.5271
   30.060    1.5482
   30.075    1.3481
   30.090    1.3797
   30.105    1.3375
   30.120    1.3797
   30.135    1.2322
   30.150    1.3060
   30.165    1.4639
   30.180    1.4955
   30.195    1.4113
   30.210    1.4534
   30.225    1.5061
   30.240    1.4007
   30.255    1.4850
   30.270    1.5587
   30.285    1.3797
   30.300    1.1901
   30.315    1.3481
   30.330    1.5061
   30.345    1.5692
   30.360    1.3691
   30.375    1.5798
   30.390    1.2954
   30.405    1.4113
   30.420    1.4534
   30.435    1.2428
   30.450    1.3902
   30.465    1.4007
   30.480    1.4639
   30.495    1.4113
   30.510    1.3060
   30.525    1.3902
   30.540    1.2428
   30.555    1.3902
   30.570    1.3586
   30.585    1.2112
   30.600    1.1901
   30.615    1.3375
   30.630    1.2533
   30.645    1.2533
   30.660    1.3797
   30.675    1.3797
   30.690    1.4218
   30.705    1.2744
   30.720    1.2428
   30.735    1.3060
   30.750    1.3691
   30.765    1.2638
   30.780    1.3902
   30.795    1.2954
   30.810    1.2428
   30.825    1.4323
   30.840    1.3060
   30.855    1.2533
   30.870    1.3060
   30.885    1.4007
   30.900    1.4745
   30.915    1.3797
   30.930    1.3902
   30.945    1.4113
   30.960    1.2954
   30.975    1.0848
   30.990    1.2954
   31.005    1.4534
   31.020    1.3165
   31.035    1.1058
   31.050    1.1901
   31.065    1.3165
   31.080    1.4534
   31.095    1.2217
   31.110    1.1796
   31.125    1.3270
   31.140    1.0742
   31.155    1.0742
   31.170    1.2322
   31.185    1.3165
   31.200    1.3165
   31.215    1.3586
   31.230    1.4639
   31.245    1.2849
   31.260    1.2112
   31.275    1.1796
   31.290    1.3060
   31.305    1.1585
   31.320    1.5377
   31.335    1.4218
   31.350    1.3586
   31.365    1.2112
   31.380    1.2744
   31.395    1.2112
   31.410    1.2954
   31.425    1.3481
   31.440    1.2533
   31.455    1.2428
   31.470    1.1901
   31.485    1.3270
   31.500    1.4534
   31.515    1.2849
   31.530    1.2217
   31.545    1.2112
   31.560    1.1690
   31.575    1.1690
   31.590    1.1901
   31.605    1.0111
   31.620    1.4007
   31.635    1.2322
   31.650    1.1164
   31.665    1.2533
   31.680    1.3375
   31.695    1.3165
   31.710    1.4218
   31.725    1.5377
   31.740    1.6324
   31.755    1.7272
   31.770    1.8852
   31.785    1.8536
   31.800    1.7167
   31.815    1.7799
   31.830    1.5587
   31.845    1.6324
   31.860    1.5377
   31.875    1.3481
   31.890    1.2744
   31.905    1.2744
   31.920    1.2006
   31.935    1.3165
   31.950    1.1901
   31.965    1.1269
   31.980    1.2322
   31.995    1.4534
   32.010    1.4955
   32.025    1.8852
   32.040    2.4329
   32.055    3.2017
   32.070    3.8336
   32.085    4.3707
   32.100    4.0232
   32.115    3.3702
   32.130    2.6646
   32.145    1.8747
   32.160    1.2954
   32.175    1.3165
   32.190    1.3060
   32.205    1.2849
   32.220    1.1480
   32.235    1.1901
   32.250    1.2428
   32.265    1.1690
   32.280    1.0953
   32.295    0.9795
   32.310    1.2006
   32.325    1.1585
   32.340    1.3165
   32.355    1.0532
   32.370    1.0532
   32.385    1.1164
   32.400    1.1585
   32.415    1.1058
   32.430    1.0848
   32.445    1.0742
   32.460    1.1058
   32.475    1.1585
   32.490    1.1901
   32.505    1.0848
   32.520    1.1901
   32.535    1.2428
   32.550    1.1690
   32.565    0.8741
   32.580    1.0321
   32.595    1.2112
   32.610    1.0953
   32.625    1.1269
   32.640    1.2006
   32.655    1.2638
   32.670    1.2533
   32.685    1.1269
   32.700    1.0953
   32.715    1.2112
   32.730    1.0848
   32.745    0.9479
   32.760    1.0427
   32.775    1.1480
   32.790    1.1796
   32.805    1.0848
   32.820    1.0637
   32.835    1.1058
   32.850    0.9900
   32.865    1.0111
   32.880    1.0742
   32.895    1.1901
   32.910    1.2533
   32.925    1.3797
   32.940    1.2954
   32.955    1.1796
   32.970    1.2322
   32.985    1.0321
   33.000    0.9584
   33.015    1.0321
   33.030    1.2217
   33.045    1.3060
   33.060    1.2744
   33.075    1.1164
   33.090    0.9795
   33.105    0.8531
   33.120    0.9057
   33.135    1.1058
   33.150    1.0953
   33.165    1.1269
   33.180    1.1164
   33.195    1.1164
   33.210    1.0742
   33.225    0.9373
   33.240    1.0005
   33.255    1.0742
   33.270    1.0427
   33.285    0.9584
   33.300    1.0005
   33.315    1.0216
   33.330    1.1058
   33.345    1.1690
   33.360    1.0637
   33.375    1.1585
   33.390    1.0953
   33.405    1.0742
   33.420    1.1374
   33.435    1.0953
   33.450    0.9689
   33.465    0.8847
   33.480    0.8952
   33.495    1.0216
   33.510    1.0742
   33.525    1.0321
   33.540    1.1690
   33.555    1.0742
   33.570    1.0637
   33.585    0.9584
   33.600    0.9900
   33.615    1.1269
   33.630    1.1374
   33.645    1.1269
   33.660    0.8741
   33.675    1.0427
   33.690    1.0637
   33.705    1.1164
   33.720    1.0953
   33.735    1.2217
   33.750    1.2428
   33.765    1.6219
   33.780    1.7588
   33.795    1.9905
   33.810    2.1696
   33.825    1.9905
   33.840    1.7272
   33.855    1.5166
   33.870    1.3902
   33.885    1.1796
   33.900    1.2954
   33.915    1.2638
   33.930    1.3165
   33.945    1.3586
   33.960    1.4218
   33.975    1.3270
   33.990    1.3902
   34.005    1.2533
   34.020    1.3060
   34.035    1.1901
   34.050    1.0427
   34.065    1.0637
   34.080    0.9584
   34.095    1.1374
   34.110    1.0637
   34.125    1.0005
   34.140    1.0111
   34.155    0.9900
   34.170    1.0532
   34.185    1.1796
   34.200    0.9268
   34.215    1.0321
   34.230    1.1058
   34.245    1.0848
   34.260    1.1690
   34.275    1.0427
   34.290    0.9057
   34.305    0.8425
   34.320    0.9268
   34.335    0.9057
   34.350    1.1690
   34.365    1.0742
   34.380    1.1269
   34.395    0.9689
   34.410    1.1164
   34.425    1.0848
   34.440    0.9479
   34.455    1.0216
   34.470    0.9479
   34.485    1.1058
   34.500    1.0532
   34.515    1.0637
   34.530    1.1269
   34.545    0.8636
   34.560    1.0637
   34.575    1.1058
   34.590    0.9057
   34.605    0.8425
   34.620    0.9057
   34.635    0.9900
   34.650    1.0532
   34.665    1.0321
   34.680    1.1901
   34.695    1.1690
   34.710    0.9689
   34.725    0.8952
   34.740    0.8952
   34.755    0.9057
   34.770    0.9373
   34.785    0.8425
   34.800    0.8320
   34.815    1.1374
   34.830    1.1796
   34.845    1.1690
   34.860    1.0637
   34.875    0.9479
   34.890    0.9900
   34.905    1.0111
   34.920    1.3165
   34.935    1.1901
   34.950    1.1058
   34.965    1.0005
   34.980    1.0848
   34.995    0.9900
   35.010    0.9795
   35.025    1.1269
   35.040    1.2533
   35.055    0.9373
   35.070    0.9584
   35.085    1.1058
   35.100    1.0321
   35.115    1.0216
   35.130    1.0216
   35.145    0.9584
   35.160    1.0111
   35.175    1.0005
   35.190    0.8425
   35.205    0.9689
   35.220    0.9584
   35.235    0.8215
   35.250    0.8636
   35.265    1.0005
   35.280    1.0532
   35.295    1.0111
   35.310    0.8215
   35.325    0.9689
   35.340    1.0637
   35.355    0.9479
   35.370    1.0427
   35.385    0.9584
   35.400    1.0111
   35.415    1.0742
   35.430    0.8215
   35.445    1.0216
   35.460    1.1058
   35.475    1.0216
   35.490    1.0321
   35.505    1.0427
   35.520    0.8741
   35.535    0.9373
   35.550    0.8425
   35.565    0.9900
   35.580    0.8952
   35.595    0.8531
   35.610    0.8952
   35.625    1.1058
   35.640    1.1164
   35.655    1.0321
   35.670    1.0953
   35.685    0.9584
   35.700    1.0742
   35.715    1.1690
   35.730    1.0848
   35.745    1.0637
   35.760    0.8952
   35.775    0.9479
   35.790    0.9584
   35.805    0.8636
   35.820    0.9584
   35.835    1.0427
   35.850    1.0005
   35.865    1.1374
   35.880    1.0111
   35.895    0.9900
   35.910    1.0427
   35.925    0.9795
   35.940    1.0637
   35.955    0.9057
   35.970    1.0321
   35.985    1.1480
   36.000    1.0111
   36.015    0.9268
   36.030    0.9479
   36.045    1.0848
   36.060    1.0216
   36.075    0.9057
   36.090    0.8531
   36.105    1.0216
   36.120    0.9163
   36.135    0.9689
   36.150    0.9584
   36.165    0.9584
   36.180    1.0005
   36.195    0.9795
   36.210    0.8741
   36.225    0.9057
   36.240    1.0742
   36.255    1.0848
   36.270    0.8531
   36.285    0.8110
   36.300    0.9163
   36.315    1.0637
   36.330    1.0111
   36.345    0.8847
   36.360    0.8636
   36.375    0.8425
   36.390    0.9268
   36.405    1.0216
   36.420    0.8952
   36.435    0.9584
   36.450    1.1374
   36.465    0.9373
   36.480    0.9373
   36.495    1.0532
   36.510    1.0637
   36.525    1.0637
   36.540    1.0321
   36.555    0.8952
   36.570    1.0005
   36.585    0.8425
   36.600    1.0216
   36.615    0.9795
   36.630    1.0111
   36.645    1.1058
   36.660    1.1164
   36.675    1.1480
   36.690    0.9795
   36.705    0.9479
   36.720    1.0216
   36.735    0.9584
   36.750    0.9689
   36.765    0.9479
   36.780    0.9479
   36.795    0.8847
   36.810    0.8425
   36.825    0.7478
   36.840    0.7688
   36.855    0.8636
   36.870    1.0321
   36.885    0.9795
   36.900    0.9057
   36.915    0.9268
   36.930    0.9057
   36.945    1.0848
   36.960    1.0111
   36.975    1.0005
   36.990    0.8004
   37.005    0.9900
   37.020    0.8320
   37.035    0.9689
   37.050    1.0427
   37.065    0.9795
   37.080    0.9268
   37.095    1.0321
   37.110    0.9795
   37.125    0.9900
   37.140    0.8636
   37.155    1.0111
   37.170    1.0005
   37.185    0.9373
   37.200    0.7794
   37.215    0.8004
   37.230    0.9584
   37.245    1.1164
   37.260    1.0111
   37.275    0.8847
   37.290    0.7478
   37.305    1.0216
   37.320    0.9373
   37.335    0.9268
   37.350    0.8004
   37.365    0.7899
   37.380    0.8636
   37.395    0.8425
   37.410    0.8636
   37.425    0.8636
   37.440    0.9900
   37.455    1.0742
   37.470    1.1269
   37.485    1.1164
   37.500    0.8531
   37.515    0.8847
   37.530    0.8636
   37.545    0.7899
   37.560    0.8425
   37.575    0.8531
   37.590    0.9479
   37.605    1.0532
   37.620    0.9373
   37.635    0.8952
   37.650    0.9900
   37.665    1.0216
   37.680    1.0005
   37.695    1.0111
   37.710    0.9584
   37.725    1.0111
   37.740    1.1164
   37.755    0.9689
   37.770    0.8110
   37.785    0.8531
   37.800    0.9479
   37.815    1.0742
   37.830    0.9373
   37.845    0.9795
   37.860    0.9689
   37.875    1.0427
   37.890    1.0427
   37.905    0.9057
   37.920    0.9268
   37.935    0.9795
   37.950    1.0111
   37.965    0.8215
   37.980    0.9795
   37.995    1.1690
   38.010    0.9584
   38.025    0.9163
   38.040    0.9057
   38.055    0.8847
   38.070    0.9057
   38.085    0.9900
   38.100    0.9268
   38.115    0.9689
   38.130    0.8110
   38.145    0.9373
   38.160    0.9163
   38.175    1.0953
   38.190    0.8847
   38.205    0.8636
   38.220    0.8425
   38.235    0.8952
   38.250    1.0005
   38.265    1.0216
   38.280    1.0742
   38.295    1.1269
   38.310    1.0427
   38.325    1.0321
   38.340    0.9795
   38.355    0.8425
   38.370    0.9795
   38.385    0.9163
   38.400    0.8531
   38.415    0.8425
   38.430    1.0216
   38.445    0.7899
   38.460    0.9268
   38.475    1.1058
   38.490    0.9163
   38.505    0.9900
   38.520    0.9900
   38.535    1.1901
   38.550    1.3375
   38.565    1.3270
   38.580    1.3586
   38.595    1.5271
   38.610    1.2954
   38.625    1.1058
   38.640    0.9584
   38.655    0.8531
   38.670    0.8425
   38.685    0.9584
   38.700    0.8425
   38.715    1.0005
   38.730    1.0216
   38.745    0.9584
   38.760    0.8320
   38.775    0.9268
   38.790    0.8215
   38.805    0.8636
   38.820    0.8320
   38.835    0.8320
   38.850    0.8320
   38.865    0.8741
   38.880    0.8636
   38.895    0.8215
   38.910    0.9795
   38.925    0.9584
   38.940    0.7583
   38.955    0.8636
   38.970    0.9479
   38.985    1.0111
   39.000    0.8320
   39.015    0.8425
   39.030    0.9689
   39.045    0.9479
   39.060    1.0216
   39.075    1.0111
   39.090    0.8847
   39.105    0.9373
   39.120    0.8636
   39.135    0.8320
   39.150    0.9057
   39.165    0.9057
   39.180    0.9163
   39.195    0.9479
   39.210    0.9900
   39.225    0.9373
   39.240    0.8215
   39.255    0.7794
   39.270    1.0005
   39.285    0.8320
   39.300    0.7794
   39.315    0.7162
   39.330    0.7583
   39.345    0.8215
   39.360    0.8952
   39.375    0.8004
   39.390    0.9268
   39.405    0.8531
   39.420    0.8320
   39.435    0.9795
   39.450    0.8636
   39.465    0.8952
   39.480    0.9479
   39.495    0.9057
   39.510    0.9268
   39.525    0.9584
   39.540    0.9163
   39.555    0.8425
   39.570    0.8320
   39.585    0.7899
   39.600    0.8004
   39.615    0.7478
   39.630    0.8215
   39.645    0.8636
   39.660    0.9163
   39.675    0.7899
   39.690    0.7899
   39.705    0.7372
   39.720    0.8110
   39.735    0.8425
   39.750    0.9479
   39.765    1.0111
   39.780    0.7056
   39.795    0.6740
   39.810    0.8741
   39.825    0.8741
   39.840    0.7267
   39.855    0.9373
   39.870    0.8847
   39.885    0.9373
   39.900    0.8636
   39.915    0.8110
   39.930    0.7267
   39.945    0.9373
   39.960    0.7794
   39.975    0.7478
   39.990    0.8636
