    1.500   17.7813
    1.515   18.1499
    1.530   17.3951
    1.545   17.3776
    1.560   17.3951
    1.575   16.3068
    1.590   16.8334
    1.605   16.3770
    1.620   15.7978
    1.635   15.8153
    1.650   15.9909
    1.665   15.2887
    1.680   15.3590
    1.695   15.9207
    1.710   14.2005
    1.725   14.0600
    1.740   14.5691
    1.755   13.6739
    1.770   14.0249
    1.785   13.9372
    1.800   14.4462
    1.815   14.2180
    1.830   13.6739
    1.845   13.3930
    1.860   13.3228
    1.875   13.0068
    1.890   12.8664
    1.905   12.6909
    1.920   12.4978
    1.935   12.6382
    1.950   12.6382
    1.965   11.5499
    1.980   12.4978
    1.995   11.8483
    2.010   11.6904
    2.025   11.9712
    2.040   11.9537
    2.055   11.3393
    2.070   11.3393
    2.085   11.3920
    2.100   10.9882
    2.115   12.1292
    2.130   11.3569
    2.145   11.1989
    2.160   11.1813
    2.175   11.8483
    2.190   11.2164
    2.205   11.0936
    2.220   11.3569
    2.235   11.0760
    2.250   10.7249
    2.265   11.2691
    2.280    9.8297
    2.295   10.1632
    2.310   11.1287
    2.325   11.3569
    2.340   10.3739
    2.355    9.8999
    2.370   10.1281
    2.385    9.8648
    2.400   10.7600
    2.415   10.4792
    2.430   10.3914
    2.445   10.0404
    2.460   10.1106
    2.475   10.0755
    2.490   10.7074
    2.505    9.9526
    2.520    9.8122
    2.535   10.1106
    2.550    9.9175
    2.565    9.8999
    2.580    9.3382
    2.595    9.4611
    2.610    9.6191
    2.625   10.0404
    2.640    9.9877
    2.655    9.6542
    2.670    9.4260
    2.685    9.4611
    2.700    9.3909
    2.715    9.3558
    2.730    9.5840
    2.745    9.5313
    2.760    9.5664
    2.775    9.4260
    2.790    9.3382
    2.805    9.1452
    2.820    9.1803
    2.835    9.6367
    2.850    9.7946
    2.865    9.6542
    2.880    9.2856
    2.895    9.1803
    2.910    9.3031
    2.925    9.4787
    2.940    9.4611
    2.955    9.4787
    2.970    9.0574
    2.985    9.0574
    3.000    9.0223
    3.015    9.1101
    3.030    9.2856
    3.045    9.2329
    3.060    8.9696
    3.075    8.9521
    3.090    9.0574
    3.105    9.4436
    3.120    9.1978
    3.135    8.7414
    3.150    8.7941
    3.165    8.6888
    3.180    9.6191
    3.195    9.1276
    3.210    9.2856
    3.225    9.1978
    3.240    8.6888
    3.255    8.3904
    3.270    8.8994
    3.285    8.4957
    3.300    8.2149
    3.315    8.7941
    3.330    8.8994
    3.345    8.3553
    3.360    8.4606
    3.375    8.3553
    3.390    8.9170
    3.405    8.5308
    3.420    8.3728
    3.435    8.4430
    3.450    8.6888
    3.465    8.6186
    3.480    8.7941
    3.495    7.7936
    3.510    8.4957
    3.525    8.5659
    3.540    8.5133
    3.555    8.8117
    3.570    8.7239
    3.585    9.1276
    3.600    9.5138
    3.615    9.6718
    3.630    9.0574
    3.645    8.5133
    3.660    8.7239
    3.675    8.5659
    3.690    8.0569
    3.705    8.6010
    3.720    8.9521
    3.735    8.4781
    3.750    8.1095
    3.765    8.2324
    3.780    8.6010
    3.795    8.0744
    3.810    8.6537
    3.825    8.6186
    3.840    8.3553
    3.855    8.4781
    3.870    8.4255
    3.885    8.8819
    3.900    8.9521
    3.915    9.2680
    3.930    8.8994
    3.945    9.3382
    3.960    9.3382
    3.975    8.9345
    3.990    8.7063
    4.005    8.8994
    4.020    8.9696
    4.035    9.0574
    4.050    8.5133
    4.065    8.8292
    4.080    8.5835
    4.095    8.4957
    4.110    8.3728
    4.125    8.9521
    4.140    8.9521
    4.155    8.9170
    4.170    8.4255
    4.185    8.7414
    4.200    8.4430
    4.215    8.3377
    4.230    8.9872
    4.245    8.8643
    4.260    8.5133
    4.275    8.3553
    4.290    8.4430
    4.305    8.6537
    4.320    8.7765
    4.335    8.8292
    4.350    8.4957
    4.365    8.9696
    4.380    8.7590
    4.395    8.7765
    4.410    8.8819
    4.425    9.2329
    4.440    8.7590
    4.455    8.9170
    4.470    9.0398
    4.485    8.6712
    4.500    8.8292
    4.515    7.9867
    4.530    8.3377
    4.545    8.8468
    4.560    9.0047
    4.575    8.6010
    4.590    8.5835
    4.605    8.8117
    4.620    8.9170
    4.635    8.7590
    4.650    8.7941
    4.665    8.0744
    4.680    8.8819
    4.695    8.6186
    4.710    8.5308
    4.725    9.6191
    4.740    9.4260
    4.755    8.9696
    4.770    9.0398
    4.785    9.2856
    4.800    9.1803
    4.815    8.8468
    4.830    8.8994
    4.845    9.2154
    4.860    8.3202
    4.875    8.7063
    4.890    8.9872
    4.905    9.4611
    4.920    9.6191
    4.935    9.4260
    4.950    9.6015
    4.965    8.7941
    4.980    9.7420
    4.995    9.4787
    5.010   10.2159
    5.025    9.5664
    5.040    8.7941
    5.055    9.7946
    5.070    9.8122
    5.085    9.7420
    5.100    9.9526
    5.115    9.2856
    5.130    9.9702
    5.145    9.6718
    5.160   10.0228
    5.175    9.6718
    5.190    9.6893
    5.205    9.7244
    5.220   10.6723
    5.235    9.8648
    5.250   10.3914
    5.265   10.9005
    5.280   10.7952
    5.295   10.1983
    5.310    9.9702
    5.325   10.1281
    5.340   11.0585
    5.355   10.6547
    5.370   11.0409
    5.385   10.7600
    5.400   10.9882
    5.415   10.7776
    5.430   11.2691
    5.445   10.8127
    5.460   11.1638
    5.475   10.8303
    5.490   11.1287
    5.505   10.9531
    5.520   11.6377
    5.535   10.8829
    5.550   11.2340
    5.565   11.9712
    5.580   11.6377
    5.595   10.8829
    5.610   11.2691
    5.625   10.9531
    5.640   10.7249
    5.655   11.2691
    5.670   10.6372
    5.685   10.8303
    5.700   10.6723
    5.715   10.5670
    5.730   10.8654
    5.745   10.1457
    5.760   10.7425
    5.775   10.1632
    5.790   10.4792
    5.805   10.6898
    5.820   10.3563
    5.835   10.3388
    5.850   10.0404
    5.865    9.2680
    5.880    9.4436
    5.895    9.2505
    5.910    9.3558
    5.925    9.1101
    5.940    9.2154
    5.955    8.8994
    5.970    9.5313
    5.985    9.3031
    6.000    9.0223
    6.015    8.7941
    6.030    9.0223
    6.045    9.1978
    6.060    8.8292
    6.075    8.7590
    6.090    8.6010
    6.105    8.3202
    6.120    8.8468
    6.135    8.7941
    6.150    8.6010
    6.165    8.2851
    6.180    8.5484
    6.195    8.2324
    6.210    8.2675
    6.225    8.3728
    6.240    8.6361
    6.255    8.0744
    6.270    8.9872
    6.285    8.2851
    6.300    8.3026
    6.315    8.2149
    6.330    8.3553
    6.345    8.3728
    6.360    8.5659
    6.375    7.8462
    6.390    8.0744
    6.405    8.1446
    6.420    8.1622
    6.435    8.3904
    6.450    7.8813
    6.465    8.2324
    6.480    8.0393
    6.495    7.5303
    6.510    8.5133
    6.525    8.1973
    6.540    7.8111
    6.555    7.1792
    6.570    7.7936
    6.585    8.0744
    6.600    8.4957
    6.615    8.2149
    6.630    8.5308
    6.645    7.8638
    6.660    7.4601
    6.675    7.3372
    6.690    7.8813
    6.705    7.7058
    6.720    7.6883
    6.735    7.7936
    6.750    7.7234
    6.765    6.7930
    6.780    8.0393
    6.795    7.9516
    6.810    8.0744
    6.825    7.6180
    6.840    7.2319
    6.855    7.3372
    6.870    7.5127
    6.885    7.4074
    6.900    6.9686
    6.915    7.3021
    6.930    7.1090
    6.945    7.3372
    6.960    7.4250
    6.975    7.5127
    6.990    7.3899
    7.005    7.6180
    7.020    7.4425
    7.035    7.0212
    7.050    7.1968
    7.065    7.8287
    7.080    7.6532
    7.095    6.9510
    7.110    6.8457
    7.125    6.8984
    7.140    7.1441
    7.155    6.6702
    7.170    7.2143
    7.185    7.4776
    7.200    7.2845
    7.215    7.5127
    7.230    7.3723
    7.245    7.3899
    7.260    7.2845
    7.275    6.8282
    7.290    7.2845
    7.305    7.3899
    7.320    7.2319
    7.335    7.1441
    7.350    7.3372
    7.365    7.3021
    7.380    6.5298
    7.395    6.5473
    7.410    7.1266
    7.425    7.4074
    7.440    6.8106
    7.455    6.3367
    7.470    6.3191
    7.485    7.0388
    7.500    7.1266
    7.515    6.7755
    7.530    6.6000
    7.545    6.6175
    7.560    6.7404
    7.575    7.0037
    7.590    7.0739
    7.605    7.3547
    7.620    7.0563
    7.635    6.4069
    7.650    6.2138
    7.665    6.4244
    7.680    6.7053
    7.695    6.2489
    7.710    6.4595
    7.725    6.3542
    7.740    6.6526
    7.755    7.1266
    7.770    6.9335
    7.785    7.1090
    7.800    7.1792
    7.815    6.9510
    7.830    6.7579
    7.845    6.1611
    7.860    6.3718
    7.875    6.7579
    7.890    6.6000
    7.905    6.7228
    7.920    6.6000
    7.935    6.4771
    7.950    6.1085
    7.965    6.1085
    7.980    6.7579
    7.995    6.7755
    8.010    6.6351
    8.025    6.5298
    8.040    6.5298
    8.055    6.1787
    8.070    6.5824
    8.085    6.2313
    8.100    6.5824
    8.115    6.0207
    8.130    6.2665
    8.145    5.9505
    8.160    6.6877
    8.175    6.2840
    8.190    6.3016
    8.205    6.5649
    8.220    6.7404
    8.235    6.2138
    8.250    6.3367
    8.265    6.0207
    8.280    6.5122
    8.295    6.4595
    8.310    6.4771
    8.325    6.3718
    8.340    6.2138
    8.355    6.0032
    8.370    5.9856
    8.385    6.0558
    8.400    6.7579
    8.415    6.6702
    8.430    6.5649
    8.445    5.6872
    8.460    6.1962
    8.475    6.0734
    8.490    6.0734
    8.505    5.7574
    8.520    6.1085
    8.535    6.4946
    8.550    6.0207
    8.565    6.4771
    8.580    6.0207
    8.595    6.0734
    8.610    5.9329
    8.625    5.5819
    8.640    5.7750
    8.655    6.3191
    8.670    6.1962
    8.685    6.9510
    8.700    6.4946
    8.715    6.1260
    8.730    6.2138
    8.745    5.9154
    8.760    6.1436
    8.775    5.8452
    8.790    6.0558
    8.805    6.0558
    8.820    6.1611
    8.835    6.0558
    8.850    6.0383
    8.865    5.2484
    8.880    6.0383
    8.895    6.2840
    8.910    6.1787
    8.925    6.3367
    8.940    6.2840
    8.955    5.5994
    8.970    6.1611
    8.985    6.3718
    9.000    6.0383
    9.015    6.4420
    9.030    5.8627
    9.045    6.0558
    9.060    5.9505
    9.075    5.6521
    9.090    6.3191
    9.105    6.6351
    9.120    6.3542
    9.135    5.9681
    9.150    5.8978
    9.165    6.2138
    9.180    5.8627
    9.195    5.7048
    9.210    6.0383
    9.225    5.7574
    9.240    6.0032
    9.255    5.9154
    9.270    6.0032
    9.285    5.8803
    9.300    6.0032
    9.315    5.9154
    9.330    6.1260
    9.345    6.0032
    9.360    6.2489
    9.375    6.0558
    9.390    6.2665
    9.405    6.5649
    9.420    6.0734
    9.435    5.6170
    9.450    6.0383
    9.465    6.2665
    9.480    6.2840
    9.495    6.0734
    9.510    5.7399
    9.525    6.0734
    9.540    6.0734
    9.555    6.5824
    9.570    6.2138
    9.585    6.0032
    9.600    6.0734
    9.615    5.8803
    9.630    6.1436
    9.645    6.2138
    9.660    5.6170
    9.675    6.5298
    9.690    6.6351
    9.705    6.4069
    9.720    6.3191
    9.735    6.0558
    9.750    6.2665
    9.765    6.5649
    9.780    6.6351
    9.795    6.3367
    9.810    6.1436
    9.825    6.3893
    9.840    6.0734
    9.855    6.0909
    9.870    6.1787
    9.885    6.6000
    9.900    6.1085
    9.915    6.0734
    9.930    6.0383
    9.945    6.1611
    9.960    6.0558
    9.975    6.0558
    9.990    5.9681
   10.005    5.8978
   10.020    6.4420
   10.035    6.1611
   10.050    6.4069
   10.065    6.2840
   10.080    6.5122
   10.095    6.5649
   10.110    5.8803
   10.125    6.4946
   10.140    6.0909
   10.155    6.0207
   10.170    6.2138
   10.185    5.9505
   10.200    6.0558
   10.215    6.3893
   10.230    6.6526
   10.245    6.2840
   10.260    6.0558
   10.275    6.1085
   10.290    6.1962
   10.305    5.9154
   10.320    6.0032
   10.335    6.3191
   10.350    6.2138
   10.365    6.0383
   10.380    6.1085
   10.395    6.0909
   10.410    6.5298
   10.425    6.5122
   10.440    5.9329
   10.455    5.8803
   10.470    6.1085
   10.485    6.4420
   10.500    6.0032
   10.515    6.4420
   10.530    6.4771
   10.545    6.2313
   10.560    6.3191
   10.575    6.3367
   10.590    6.2138
   10.605    6.0909
   10.620    6.3893
   10.635    6.5473
   10.650    6.4771
   10.665    7.1266
   10.680    6.5824
   10.695    5.7925
   10.710    5.8978
   10.725    5.8101
   10.740    5.8978
   10.755    6.3893
   10.770    6.6175
   10.785    6.5122
   10.800    6.7053
   10.815    6.5473
   10.830    6.4595
   10.845    6.4595
   10.860    6.5122
   10.875    6.4420
   10.890    6.2138
   10.905    6.4244
   10.920    6.4946
   10.935    6.8106
   10.950    6.5824
   10.965    6.1260
   10.980    6.3016
   10.995    6.3191
   11.010    6.5298
   11.025    6.1260
   11.040    6.2840
   11.055    6.1962
   11.070    5.9681
   11.085    6.1962
   11.100    6.6000
   11.115    6.3718
   11.130    5.8452
   11.145    6.2313
   11.160    6.1260
   11.175    5.6697
   11.190    6.1260
   11.205    6.3367
   11.220    6.1787
   11.235    6.3367
   11.250    6.2840
   11.265    6.0207
   11.280    6.6526
   11.295    6.0383
   11.310    5.9681
   11.325    6.0558
   11.340    6.6000
   11.355    6.4946
   11.370    6.0558
   11.385    6.0734
   11.400    6.4595
   11.415    6.5473
   11.430    6.2313
   11.445    6.1085
   11.460    6.2138
   11.475    6.1962
   11.490    5.8978
   11.505    5.8978
   11.520    5.8452
   11.535    6.3367
   11.550    6.2489
   11.565    6.0558
   11.580    5.9329
   11.595    6.3016
   11.610    6.0032
   11.625    6.6526
   11.640    6.5473
   11.655    6.4771
   11.670    6.4420
   11.685    6.3542
   11.700    6.1962
   11.715    5.9505
   11.730    6.0207
   11.745    5.9154
   11.760    5.7925
   11.775    6.1787
   11.790    6.5824
   11.805    6.2138
   11.820    5.7223
   11.835    5.6170
   11.850    6.2138
   11.865    6.0207
   11.880    6.3016
   11.895    6.1611
   11.910    5.8978
   11.925    5.8803
   11.940    5.8452
   11.955    6.1611
   11.970    6.4595
   11.985    6.2313
   12.000    6.1962
   12.015    6.0383
   12.030    6.4771
   12.045    6.7930
   12.060    6.2313
   12.075    5.8978
   12.090    6.1260
   12.105    6.3367
   12.120    6.2665
   12.135    5.9154
   12.150    6.1436
   12.165    5.3537
   12.180    5.6697
   12.195    5.9681
   12.210    6.2138
   12.225    6.0734
   12.240    5.7750
   12.255    5.7223
   12.270    6.2313
   12.285    6.1787
   12.300    5.3361
   12.315    5.8803
   12.330    6.3367
   12.345    5.7925
   12.360    6.0558
   12.375    5.6872
   12.390    5.4064
   12.405    6.2138
   12.420    6.1787
   12.435    5.8627
   12.450    5.7574
   12.465    5.6521
   12.480    5.7399
   12.495    6.1260
   12.510    5.5292
   12.525    5.5994
   12.540    6.0558
   12.555    5.5819
   12.570    5.6345
   12.585    5.6521
   12.600    6.2840
   12.615    5.8452
   12.630    5.5819
   12.645    5.4239
   12.660    6.1260
   12.675    6.4946
   12.690    5.9681
   12.705    5.7399
   12.720    5.8101
   12.735    5.8101
   12.750    6.2840
   12.765    5.5468
   12.780    5.9681
   12.795    5.7750
   12.810    5.6170
   12.825    5.7048
   12.840    5.8276
   12.855    5.4415
   12.870    5.6872
   12.885    5.5117
   12.900    5.9154
   12.915    5.6170
   12.930    5.9329
   12.945    6.0909
   12.960    5.4415
   12.975    5.8978
   12.990    5.4590
   13.005    5.7925
   13.020    5.9856
   13.035    5.8276
   13.050    5.7048
   13.065    5.7925
   13.080    5.6170
   13.095    5.3712
   13.110    5.7750
   13.125    5.5994
   13.140    5.5643
   13.155    6.0734
   13.170    5.8276
   13.185    5.5117
   13.200    5.4415
   13.215    5.1080
   13.230    5.5819
   13.245    5.5292
   13.260    5.6521
   13.275    5.5292
   13.290    5.5994
   13.305    5.5994
   13.320    5.9154
   13.335    5.5292
   13.350    5.5468
   13.365    5.4766
   13.380    5.4590
   13.395    5.6697
   13.410    6.2489
   13.425    5.8101
   13.440    5.8276
   13.455    6.2665
   13.470    5.5468
   13.485    5.7048
   13.500    5.6170
   13.515    6.0207
   13.530    5.8101
   13.545    5.1606
   13.560    5.9329
   13.575    6.0032
   13.590    5.5994
   13.605    5.9856
   13.620    5.8452
   13.635    5.4766
   13.650    5.9505
   13.665    6.3718
   13.680    5.9505
   13.695    6.0032
   13.710    6.3893
   13.725    5.6521
   13.740    5.7399
   13.755    5.5117
   13.770    5.7048
   13.785    5.1431
   13.800    5.4415
   13.815    5.4941
   13.830    5.8276
   13.845    5.9681
   13.860    5.7574
   13.875    6.0207
   13.890    5.6697
   13.905    5.6872
   13.920    5.5643
   13.935    5.6170
   13.950    5.5117
   13.965    5.5643
   13.980    5.2133
   13.995    5.8803
   14.010    5.6872
   14.025    6.1260
   14.040    5.8276
   14.055    5.7048
   14.070    6.1962
   14.085    5.8101
   14.100    5.7048
   14.115    5.1782
   14.130    5.6521
   14.145    6.0558
   14.160    5.5994
   14.175    6.0032
   14.190    5.8627
   14.205    6.4069
   14.220    5.9681
   14.235    6.2489
   14.250    5.9681
   14.265    5.8803
   14.280    6.3016
   14.295    6.2840
   14.310    6.4420
   14.325    6.6702
   14.340    6.1260
   14.355    5.9505
   14.370    5.9505
   14.385    6.7579
   14.400    6.3718
   14.415    5.9154
   14.430    5.8452
   14.445    6.2489
   14.460    6.1787
   14.475    5.8627
   14.490    5.9329
   14.505    6.5473
   14.520    5.8276
   14.535    5.7925
   14.550    6.3191
   14.565    5.9681
   14.580    6.0734
   14.595    6.0032
   14.610    6.0032
   14.625    6.6000
   14.640    6.0734
   14.655    5.9505
   14.670    6.0909
   14.685    6.0558
   14.700    5.9856
   14.715    5.9681
   14.730    6.4595
   14.745    6.4069
   14.760    6.0207
   14.775    5.8627
   14.790    5.5994
   14.805    5.6872
   14.820    5.9505
   14.835    6.0734
   14.850    6.0032
   14.865    5.8276
   14.880    5.8978
   14.895    5.7925
   14.910    6.0383
   14.925    5.7750
   14.940    5.6345
   14.955    5.7750
   14.970    6.0032
   14.985    6.0909
   15.000    5.5643
   15.015    6.0734
   15.030    5.8627
   15.045    6.1962
   15.060    5.7925
   15.075    5.7223
   15.090    6.1085
   15.105    5.7399
   15.120    5.5117
   15.135    5.9681
   15.150    6.1962
   15.165    6.1436
   15.180    6.1436
   15.195    5.8627
   15.210    5.5643
   15.225    5.5994
   15.240    5.4941
   15.255    6.1436
   15.270    5.9681
   15.285    5.7223
   15.300    5.9154
   15.315    5.8978
   15.330    5.3888
   15.345    5.7925
   15.360    5.8627
   15.375    5.9505
   15.390    5.3361
   15.405    5.3361
   15.420    5.7223
   15.435    5.4766
   15.450    5.3888
   15.465    5.5117
   15.480    5.5643
   15.495    5.9505
   15.510    5.8101
   15.525    5.8452
   15.540    5.3186
   15.555    5.4590
   15.570    5.5117
   15.585    5.3361
   15.600    5.7048
   15.615    5.4590
   15.630    6.2489
   15.645    5.8978
   15.660    5.8452
   15.675    6.1085
   15.690    5.5994
   15.705    5.8452
   15.720    5.7399
   15.735    5.8452
   15.750    5.4766
   15.765    4.8973
   15.780    5.2308
   15.795    5.6170
   15.810    5.5117
   15.825    5.6170
   15.840    6.0558
   15.855    5.3537
   15.870    5.3888
   15.885    5.4941
   15.900    5.9856
   15.915    5.9856
   15.930    5.3537
   15.945    5.4941
   15.960    5.9856
   15.975    5.4239
   15.990    5.5819
   16.005    5.4941
   16.020    5.8101
   16.035    5.3361
   16.050    5.6170
   16.065    5.8276
   16.080    5.3888
   16.095    5.7223
   16.110    5.5994
   16.125    5.7574
   16.140    6.1260
   16.155    6.2138
   16.170    6.0909
   16.185    5.4590
   16.200    5.3010
   16.215    5.6170
   16.230    5.5292
   16.245    5.6872
   16.260    5.1606
   16.275    5.7574
   16.290    5.6170
   16.305    5.5819
   16.320    5.3361
   16.335    5.7750
   16.350    6.1436
   16.365    5.5994
   16.380    5.3186
   16.395    5.6170
   16.410    5.2484
   16.425    5.5819
   16.440    6.1611
   16.455    6.1260
   16.470    5.8452
   16.485    5.7925
   16.500    5.3186
   16.515    5.7399
   16.530    5.8452
   16.545    5.7574
   16.560    5.7574
   16.575    5.2133
   16.590    5.5643
   16.605    5.9154
   16.620    5.2835
   16.635    5.6872
   16.650    5.8627
   16.665    5.2133
   16.680    4.8973
   16.695    5.3010
   16.710    5.5643
   16.725    6.1611
   16.740    5.5117
   16.755    5.2484
   16.770    5.4415
   16.785    5.8101
   16.800    5.7750
   16.815    5.3712
   16.830    5.0904
   16.845    5.0377
   16.860    5.3010
   16.875    5.5468
   16.890    5.8101
   16.905    5.6697
   16.920    5.2484
   16.935    4.7744
   16.950    5.2133
   16.965    5.5643
   16.980    5.7399
   16.995    5.4941
   17.010    5.6170
   17.025    5.7399
   17.040    5.5468
   17.055    5.6521
   17.070    5.8803
   17.085    5.5292
   17.100    5.1606
   17.115    5.4941
   17.130    5.4064
   17.145    5.7223
   17.160    5.3010
   17.175    5.2835
   17.190    5.4941
   17.205    5.4415
   17.220    6.0383
   17.235    5.6345
   17.250    5.3361
   17.265    5.4064
   17.280    5.2835
   17.295    5.8452
   17.310    5.6170
   17.325    5.6697
   17.340    5.5468
   17.355    5.5994
   17.370    5.4415
   17.385    5.8276
   17.400    5.3712
   17.415    5.9329
   17.430    5.9154
   17.445    5.5468
   17.460    5.9329
   17.475    5.2484
   17.490    5.3712
   17.505    5.5643
   17.520    5.0377
   17.535    5.1255
   17.550    5.3537
   17.565    5.3186
   17.580    5.2484
   17.595    5.0377
   17.610    5.2484
   17.625    5.5468
   17.640    5.4064
   17.655    5.5819
   17.670    5.3537
   17.685    5.7574
   17.700    5.3537
   17.715    4.7569
   17.730    5.4415
   17.745    5.3361
   17.760    5.5117
   17.775    5.8101
   17.790    5.2659
   17.805    5.3186
   17.820    5.4064
   17.835    5.4239
   17.850    5.2484
   17.865    5.5468
   17.880    4.9500
   17.895    5.7223
   17.910    5.7223
   17.925    6.0032
   17.940    5.4239
   17.955    5.0728
   17.970    5.4239
   17.985    5.5819
   18.000    5.3361
   18.015    5.3888
   18.030    5.0553
   18.045    5.7750
   18.060    5.5468
   18.075    5.5117
   18.090    5.0904
   18.105    5.3888
   18.120    5.5468
   18.135    5.1957
   18.150    5.3186
   18.165    5.4064
   18.180    4.8798
   18.195    5.2835
   18.210    5.5994
   18.225    5.5819
   18.240    5.4590
   18.255    5.6170
   18.270    5.5643
   18.285    5.4415
   18.300    5.7048
   18.315    5.4590
   18.330    5.4064
   18.345    5.6170
   18.360    5.1606
   18.375    5.7750
   18.390    5.3537
   18.405    5.8803
   18.420    5.5819
   18.435    5.5468
   18.450    5.5643
   18.465    5.4590
   18.480    5.1255
   18.495    5.1431
   18.510    5.0202
   18.525    5.1431
   18.540    5.3712
   18.555    5.6697
   18.570    5.9154
   18.585    5.5994
   18.600    5.1431
   18.615    5.4590
   18.630    5.7048
   18.645    5.7048
   18.660    5.3537
   18.675    5.5994
   18.690    5.4415
   18.705    6.0207
   18.720    5.2484
   18.735    5.3712
   18.750    5.5468
   18.765    5.4941
   18.780    5.3186
   18.795    5.7399
   18.810    5.4239
   18.825    5.3186
   18.840    5.8101
   18.855    5.2835
   18.870    5.4590
   18.885    5.6697
   18.900    5.9681
   18.915    5.7399
   18.930    5.1606
   18.945    5.5468
   18.960    5.3361
   18.975    5.1782
   18.990    5.3537
   19.005    4.8798
   19.020    5.0377
   19.035    5.1606
   19.050    5.4064
   19.065    5.7223
   19.080    5.4766
   19.095    5.4239
   19.110    5.4590
   19.125    5.9329
   19.140    5.3712
   19.155    5.4415
   19.170    5.4415
   19.185    5.2133
   19.200    5.0728
   19.215    5.2484
   19.230    5.3010
   19.245    5.4239
   19.260    5.2835
   19.275    5.5819
   19.290    5.7048
   19.305    5.5468
   19.320    4.9851
   19.335    5.1255
   19.350    5.2484
   19.365    5.1431
   19.380    5.4590
   19.395    5.0904
   19.410    5.5292
   19.425    5.1255
   19.440    5.3010
   19.455    5.1957
   19.470    4.9675
   19.485    5.0728
   19.500    5.3712
   19.515    5.7048
   19.530    5.1431
   19.545    5.3361
   19.560    5.4590
   19.575    5.1782
   19.590    5.1606
   19.605    5.5994
   19.620    5.6521
   19.635    5.1606
   19.650    5.2133
   19.665    5.3888
   19.680    5.5117
   19.695    4.8798
   19.710    4.9851
   19.725    5.6170
   19.740    5.1782
   19.755    5.3888
   19.770    5.3361
   19.785    5.2133
   19.800    5.5468
   19.815    5.3361
   19.830    4.9500
   19.845    5.0026
   19.860    5.1606
   19.875    5.1606
   19.890    5.0026
   19.905    4.6340
   19.920    5.0904
   19.935    5.3186
   19.950    5.6345
   19.965    5.3888
   19.980    4.7920
   19.995    5.0553
   20.010    5.1431
   20.025    5.4766
   20.040    4.9851
   20.055    4.6516
   20.070    5.7223
   20.085    5.1606
   20.100    4.7744
   20.115    5.1080
   20.130    5.3712
   20.145    5.3186
   20.160    4.8973
   20.175    5.3712
   20.190    5.3361
   20.205    5.0553
   20.220    5.4941
   20.235    5.4239
   20.250    5.0026
   20.265    5.5117
   20.280    5.3537
   20.295    5.0904
   20.310    5.3712
   20.325    5.1957
   20.340    5.3712
   20.355    5.2484
   20.370    5.2484
   20.385    4.9675
   20.400    5.0553
   20.415    4.9149
   20.430    5.0728
   20.445    4.6691
   20.460    4.7393
   20.475    5.2835
   20.490    5.4239
   20.505    5.1957
   20.520    4.9149
   20.535    5.2308
   20.550    4.9500
   20.565    5.0377
   20.580    5.4766
   20.595    5.6872
   20.610    5.5819
   20.625    5.1255
   20.640    4.7744
   20.655    4.9675
   20.670    4.7218
   20.685    5.3888
   20.700    5.0377
   20.715    4.8798
   20.730    5.1606
   20.745    4.9675
   20.760    5.2308
   20.775    5.0728
   20.790    5.2133
   20.805    5.0553
   20.820    5.0026
   20.835    4.9500
   20.850    5.3888
   20.865    5.3361
   20.880    5.1431
   20.895    5.4415
   20.910    5.0553
   20.925    4.7569
   20.940    5.1255
   20.955    4.9675
   20.970    4.8271
   20.985    4.7569
   21.000    5.3186
   21.015    5.3186
   21.030    5.2659
   21.045    4.8973
   21.060    5.2835
   21.075    5.3712
   21.090    4.8447
   21.105    4.9500
   21.120    5.1782
   21.135    5.5292
   21.150    4.8973
   21.165    5.0377
   21.180    5.0553
   21.195    5.1431
   21.210    5.0377
   21.225    5.3361
   21.240    5.7223
   21.255    5.0377
   21.270    5.0553
   21.285    5.5468
   21.300    5.6872
   21.315    4.9149
   21.330    5.1782
   21.345    4.8973
   21.360    4.5814
   21.375    4.5111
   21.390    4.7393
   21.405    4.8622
   21.420    4.9324
   21.435    4.8447
   21.450    5.1431
   21.465    5.3361
   21.480    5.2835
   21.495    4.9500
   21.510    5.1255
   21.525    5.1255
   21.540    4.8622
   21.555    4.9500
   21.570    4.7393
   21.585    4.9500
   21.600    4.8447
   21.615    5.1255
   21.630    5.1782
   21.645    4.8798
   21.660    4.9500
   21.675    5.1255
   21.690    5.2659
   21.705    5.1080
   21.720    5.1782
   21.735    5.4064
   21.750    5.3186
   21.765    5.3010
   21.780    5.5819
   21.795    5.2133
   21.810    4.9500
   21.825    4.8447
   21.840    4.8798
   21.855    4.8271
   21.870    5.4766
   21.885    5.3712
   21.900    4.4585
   21.915    4.7393
   21.930    4.6867
   21.945    5.0904
   21.960    5.1431
   21.975    4.8798
   21.990    4.9324
   22.005    5.0202
   22.020    4.7920
   22.035    4.8271
   22.050    5.2308
   22.065    5.0026
   22.080    4.8095
   22.095    5.1431
   22.110    4.9500
   22.125    4.7218
   22.140    5.0202
   22.155    4.8271
   22.170    5.0377
   22.185    4.8271
   22.200    5.2484
   22.215    4.9851
   22.230    5.0553
   22.245    5.1782
   22.260    5.0904
   22.275    4.9149
   22.290    4.5287
   22.305    4.5814
   22.320    4.4936
   22.335    5.0026
   22.350    4.7569
   22.365    4.5463
   22.380    4.5989
   22.395    4.8271
   22.410    5.0202
   22.425    4.7569
   22.440    5.1080
   22.455    5.0377
   22.470    4.9324
   22.485    4.8798
   22.500    4.7920
   22.515    4.8973
   22.530    5.2659
   22.545    4.9324
   22.560    4.6165
   22.575    5.0202
   22.590    5.0728
   22.605    4.8798
   22.620    4.6516
   22.635    4.5814
   22.650    4.8973
   22.665    4.9500
   22.680    5.0553
   22.695    4.5989
   22.710    4.6516
   22.725    4.9675
   22.740    4.7920
   22.755    4.4409
   22.770    5.2308
   22.785    4.7393
   22.800    4.4936
   22.815    4.4585
   22.830    4.4409
   22.845    5.2835
   22.860    4.6165
   22.875    4.5111
   22.890    4.6867
   22.905    4.6165
   22.920    4.4234
   22.935    4.4936
   22.950    4.8271
   22.965    5.1080
   22.980    4.6691
   22.995    4.7569
   23.010    4.8622
   23.025    4.8271
   23.040    4.4234
   23.055    4.5814
   23.070    5.1957
   23.085    4.6867
   23.100    4.9324
   23.115    4.6165
   23.130    4.8973
   23.145    4.9500
   23.160    5.4239
   23.175    4.9851
   23.190    4.5463
   23.205    4.5814
   23.220    4.8447
   23.235    4.7744
   23.250    4.5814
   23.265    4.6165
   23.280    4.5638
   23.295    4.3532
   23.310    4.8447
   23.325    4.8095
   23.340    5.0202
   23.355    4.7042
   23.370    5.0026
   23.385    4.6867
   23.400    4.8798
   23.415    4.5814
   23.430    4.2654
   23.445    4.5287
   23.460    4.1776
   23.475    4.4058
   23.490    5.1080
   23.505    4.8447
   23.520    4.7569
   23.535    4.7042
   23.550    4.9149
   23.565    4.6516
   23.580    4.6691
   23.595    4.8973
   23.610    4.7920
   23.625    4.6691
   23.640    4.7744
   23.655    4.5463
   23.670    4.9851
   23.685    4.5463
   23.700    4.8622
   23.715    4.8095
   23.730    4.4409
   23.745    4.3532
   23.760    4.8622
   23.775    4.7042
   23.790    4.5638
   23.805    4.7569
   23.820    4.6340
   23.835    4.4409
   23.850    4.6516
   23.865    3.9319
   23.880    4.3356
   23.895    4.4585
   23.910    4.4234
   23.925    4.7744
   23.940    4.7920
   23.955    4.4409
   23.970    4.6165
   23.985    4.7042
   24.000    4.5989
   24.015    4.4936
   24.030    4.9324
   24.045    4.8973
   24.060    4.6516
   24.075    4.6867
   24.090    4.4234
   24.105    4.4409
   24.120    4.6165
   24.135    4.6165
   24.150    4.1074
   24.165    4.2830
   24.180    4.4760
   24.195    4.1425
   24.210    4.5463
   24.225    4.6691
   24.240    4.6340
   24.255    4.7393
   24.270    4.4409
   24.285    4.7920
   24.300    4.7393
   24.315    4.6516
   24.330    4.3707
   24.345    4.1250
   24.360    4.1776
   24.375    4.4585
   24.390    4.7042
   24.405    4.7218
   24.420    4.6867
   24.435    4.1776
   24.450    4.3532
   24.465    4.6340
   24.480    4.4585
   24.495    4.2127
   24.510    4.5463
   24.525    4.7569
   24.540    4.4058
   24.555    4.2303
   24.570    4.5989
   24.585    4.4585
   24.600    4.0021
   24.615    4.5989
   24.630    4.2478
   24.645    4.4058
   24.660    4.3356
   24.675    4.1601
   24.690    3.8617
   24.705    4.2303
   24.720    4.1952
   24.735    4.0899
   24.750    4.3005
   24.765    4.3005
   24.780    4.5989
   24.795    4.0723
   24.810    4.0372
   24.825    4.3005
   24.840    4.6340
   24.855    4.3707
   24.870    4.8271
   24.885    4.8271
   24.900    4.5287
   24.915    4.4234
   24.930    4.6516
   24.945    4.2654
   24.960    4.3356
   24.975    4.4585
   24.990    4.1074
   25.005    4.1250
   25.020    4.6165
   25.035    4.5287
   25.050    4.3005
   25.065    4.3356
   25.080    4.7042
   25.095    4.0548
   25.110    4.0723
   25.125    4.4409
   25.140    4.6867
   25.155    4.8622
   25.170    4.7393
   25.185    4.2654
   25.200    4.3356
   25.215    4.6867
   25.230    4.5638
   25.245    4.5463
   25.260    4.3181
   25.275    4.9324
   25.290    4.5111
   25.305    4.5989
   25.320    4.3883
   25.335    4.4234
   25.350    4.5111
   25.365    4.6340
   25.380    4.2127
   25.395    4.3883
   25.410    4.3356
   25.425    4.3707
   25.440    3.9670
   25.455    4.1601
   25.470    4.6867
   25.485    4.5111
   25.500    4.4760
   25.515    4.4234
   25.530    4.2654
   25.545    4.5814
   25.560    4.9851
   25.575    4.4058
   25.590    4.4058
   25.605    4.2127
   25.620    3.9319
   25.635    4.1952
   25.650    4.3707
   25.665    4.1074
   25.680    4.5814
   25.695    4.5638
   25.710    4.4058
   25.725    4.4409
   25.740    4.4936
   25.755    4.3005
   25.770    4.2303
   25.785    4.2654
   25.800    4.7393
   25.815    4.5111
   25.830    4.4058
   25.845    4.3883
   25.860    4.5989
   25.875    4.2303
   25.890    4.2127
   25.905    4.0899
   25.920    4.1425
   25.935    4.5287
   25.950    4.2654
   25.965    3.8617
   25.980    3.8792
   25.995    4.2127
   26.010    4.5287
   26.025    4.2303
   26.040    4.1074
   26.055    4.2654
   26.070    4.1250
   26.085    4.4760
   26.100    4.1425
   26.115    4.4234
   26.130    4.1776
   26.145    4.6516
   26.160    4.2303
   26.175    4.4234
   26.190    4.4234
   26.205    4.1601
   26.220    4.0723
   26.235    4.0723
   26.250    4.2127
   26.265    4.0372
   26.280    4.4936
   26.295    4.1074
   26.310    4.2654
   26.325    4.2478
   26.340    4.3005
   26.355    4.7042
   26.370    4.4760
   26.385    3.9319
   26.400    3.9670
   26.415    4.3532
   26.430    4.4760
   26.445    4.4409
   26.460    4.1250
   26.475    4.0899
   26.490    4.2127
   26.505    4.4936
   26.520    4.4760
   26.535    4.2127
   26.550    4.0723
   26.565    4.2830
   26.580    4.4585
   26.595    4.4936
   26.610    4.0723
   26.625    4.2127
   26.640    4.2830
   26.655    4.2127
   26.670    3.9494
   26.685    4.4936
   26.700    4.3532
   26.715    4.1601
   26.730    4.1952
   26.745    4.4760
   26.760    4.0548
   26.775    3.8792
   26.790    3.6335
   26.805    4.1952
   26.820    4.0548
   26.835    3.9143
   26.850    4.1601
   26.865    3.8266
   26.880    3.7915
   26.895    4.2478
   26.910    4.3356
   26.925    4.0548
   26.940    4.2127
   26.955    4.2654
   26.970    4.1250
   26.985    4.2127
   27.000    3.8441
   27.015    3.9143
   27.030    4.3883
   27.045    3.9846
   27.060    4.1074
   27.075    3.9143
   27.090    4.1952
   27.105    4.2830
   27.120    4.2654
   27.135    4.3532
   27.150    4.2830
   27.165    3.8792
   27.180    4.0723
   27.195    4.1074
   27.210    4.1776
   27.225    4.2127
   27.240    3.8968
   27.255    4.0899
   27.270    3.7739
   27.285    4.0372
   27.300    4.0372
   27.315    4.4058
   27.330    4.1776
   27.345    4.1601
   27.360    3.8792
   27.375    4.0021
   27.390    4.0899
   27.405    3.5282
   27.420    3.9494
   27.435    4.0372
   27.450    4.0197
   27.465    3.8792
   27.480    3.8792
   27.495    4.1425
   27.510    3.8090
   27.525    4.3181
   27.540    4.2303
   27.555    4.1250
   27.570    4.0372
   27.585    3.5984
   27.600    3.5457
   27.615    4.0372
   27.630    3.9494
   27.645    3.6510
   27.660    3.6335
   27.675    3.2298
   27.690    3.6862
   27.705    3.7915
   27.720    3.5457
   27.735    3.9494
   27.750    3.8090
   27.765    3.7739
   27.780    4.0021
   27.795    4.1601
   27.810    3.9494
   27.825    4.0723
   27.840    4.1952
   27.855    4.0899
   27.870    3.9143
   27.885    3.6335
   27.900    3.8266
   27.915    3.6335
   27.930    3.7564
   27.945    3.9670
   27.960    3.9846
   27.975    4.0723
   27.990    3.9846
   28.005    3.9319
   28.020    3.9494
   28.035    3.7915
   28.050    3.4580
   28.065    3.6686
   28.080    3.5633
   28.095    3.5633
   28.110    3.6159
   28.125    3.7564
   28.140    4.5287
   28.155    3.7915
   28.170    3.7564
   28.185    4.0372
   28.200    3.8792
   28.215    3.5633
   28.230    3.5633
   28.245    3.8266
   28.260    3.8792
   28.275    3.5808
   28.290    3.5457
   28.305    3.7915
   28.320    3.7037
   28.335    3.7213
   28.350    3.8266
   28.365    3.5106
   28.380    3.9670
   28.395    4.2303
   28.410    4.1250
   28.425    3.7915
   28.440    3.9143
   28.455    3.5106
   28.470    3.7213
   28.485    3.9143
   28.500    3.9846
   28.515    3.4755
   28.530    3.5633
   28.545    3.5457
   28.560    4.0021
   28.575    4.0372
   28.590    3.8090
   28.605    3.3175
   28.620    3.7388
   28.635    3.7564
   28.650    3.7739
   28.665    3.9319
   28.680    3.7037
   28.695    3.4053
   28.710    4.0899
   28.725    3.8090
   28.740    3.7388
   28.755    3.3351
   28.770    3.5984
   28.785    3.8266
   28.800    4.1776
   28.815    3.8441
   28.830    3.8968
   28.845    3.9494
   28.860    3.6159
   28.875    3.7388
   28.890    3.4229
   28.905    4.1250
   28.920    3.7564
   28.935    3.8968
   28.950    3.4580
   28.965    3.4755
   28.980    3.4053
   28.995    4.0899
   29.010    3.6686
   29.025    3.8792
   29.040    4.0548
   29.055    3.6335
   29.070    3.7213
   29.085    3.5457
   29.100    3.6510
   29.115    4.0899
   29.130    3.6686
   29.145    3.8090
   29.160    3.5282
   29.175    3.5457
   29.190    3.7037
   29.205    4.0197
   29.220    3.8441
   29.235    3.8792
   29.250    3.6686
   29.265    4.0197
   29.280    3.5633
   29.295    3.2122
   29.310    3.4404
   29.325    3.8441
   29.340    3.6335
   29.355    3.6862
   29.370    3.9319
   29.385    3.5984
   29.400    3.7037
   29.415    3.5106
   29.430    3.6159
   29.445    3.6686
   29.460    3.5633
   29.475    3.3877
   29.490    3.6686
   29.505    3.9494
   29.520    3.6862
   29.535    3.5984
   29.550    3.3351
   29.565    3.3351
   29.580    3.7213
   29.595    3.7388
   29.610    3.6686
   29.625    3.8617
   29.640    3.6159
   29.655    3.5282
   29.670    3.3351
   29.685    3.4755
   29.700    3.3877
   29.715    3.5984
   29.730    3.5282
   29.745    3.5282
   29.760    3.3175
   29.775    3.3175
   29.790    3.6686
   29.805    3.5106
   29.820    3.4755
   29.835    3.5282
   29.850    3.6335
   29.865    3.0367
   29.880    3.7564
   29.895    3.3877
   29.910    3.3526
   29.925    3.1771
   29.940    3.3702
   29.955    3.3526
   29.970    3.3175
   29.985    3.4053
   30.000    3.5984
   30.015    3.7037
   30.030    3.6159
   30.045    3.4580
   30.060    3.2473
   30.075    3.3877
   30.090    3.1947
   30.105    3.6862
   30.120    3.6510
   30.135    3.4053
   30.150    3.4053
   30.165    3.3877
   30.180    3.4404
   30.195    3.2824
   30.210    3.1420
   30.225    3.4755
   30.240    3.3351
   30.255    3.3702
   30.270    3.4580
   30.285    3.7564
   30.300    3.7564
   30.315    3.0367
   30.330    3.8617
   30.345    3.4580
   30.360    3.5282
   30.375    3.6159
   30.390    3.2649
   30.405    3.0191
   30.420    3.3351
   30.435    3.4229
   30.450    3.1069
   30.465    3.3877
   30.480    3.3877
   30.495    3.2473
   30.510    2.9665
   30.525    3.2298
   30.540    3.1245
   30.555    2.8787
   30.570    3.5106
   30.585    3.3526
   30.600    2.9840
   30.615    3.2824
   30.630    3.4580
   30.645    3.3702
   30.660    3.2473
   30.675    3.5106
   30.690    3.2298
   30.705    3.2122
   30.720    3.6862
   30.735    3.4755
   30.750    3.1771
   30.765    3.3000
   30.780    2.8963
   30.795    3.3351
   30.810    3.1947
   30.825    3.1947
   30.840    3.0016
   30.855    3.1420
   30.870    3.4053
   30.885    2.9138
   30.900    3.0893
   30.915    3.4053
   30.930    3.6510
   30.945    3.4053
   30.960    3.3000
   30.975    3.3175
   30.990    3.0893
   31.005    3.3000
   31.020    2.8963
   31.035    3.2473
   31.050    3.4404
   31.065    3.4229
   31.080    3.2298
   31.095    3.1771
   31.110    3.1947
   31.125    2.9138
   31.140    3.3351
   31.155    3.3175
   31.170    3.1947
   31.185    3.4229
   31.200    3.1596
   31.215    2.8787
   31.230    3.0367
   31.245    3.4580
   31.260    3.1771
   31.275    3.1947
   31.290    3.0718
   31.305    3.2122
   31.320    3.2473
   31.335    3.1420
   31.350    3.0893
   31.365    3.3000
   31.380    3.1771
   31.395    2.9489
   31.410    3.1596
   31.425    3.0367
   31.440    2.9138
   31.455    3.0191
   31.470    3.0367
   31.485    2.8436
   31.500    3.0367
   31.515    2.9138
   31.530    2.9489
   31.545    3.1771
   31.560    3.3702
   31.575    2.9665
   31.590    3.0893
   31.605    3.1947
   31.620    3.1771
   31.635    3.0718
   31.650    3.0191
   31.665    3.1245
   31.680    2.8436
   31.695    3.0542
   31.710    2.9489
   31.725    3.2122
   31.740    2.9489
   31.755    3.0542
   31.770    3.2824
   31.785    2.7558
   31.800    3.0016
   31.815    2.9840
   31.830    3.0367
   31.845    2.8436
   31.860    3.1245
   31.875    3.1947
   31.890    3.0542
   31.905    3.0718
   31.920    3.0367
   31.935    2.7909
   31.950    2.9314
   31.965    2.9138
   31.980    3.0893
   31.995    3.0367
   32.010    2.8612
   32.025    2.8787
   32.040    3.1771
   32.055    2.8963
   32.070    2.8260
   32.085    3.1420
   32.100    3.1596
   32.115    3.2298
   32.130    3.0718
   32.145    3.0718
   32.160    3.3175
   32.175    3.2122
   32.190    3.2298
   32.205    2.8787
   32.220    3.1596
   32.235    3.4053
   32.250    2.7909
   32.265    3.0191
   32.280    2.9138
   32.295    3.1069
   32.310    3.0016
   32.325    2.8963
   32.340    3.0016
   32.355    2.9489
   32.370    2.9489
   32.385    2.9840
   32.400    2.9314
   32.415    3.0542
   32.430    2.9840
   32.445    3.1245
   32.460    2.9314
   32.475    3.0191
   32.490    2.9840
   32.505    2.7909
   32.520    3.2122
   32.535    3.1947
   32.550    3.2649
   32.565    3.2122
   32.580    3.0542
   32.595    2.8963
   32.610    2.8612
   32.625    2.7734
   32.640    2.9138
   32.655    3.0016
   32.670    2.9665
   32.685    2.8436
   32.700    2.7383
   32.715    2.8260
   32.730    2.8085
   32.745    2.7734
   32.760    2.5101
   32.775    2.7558
   32.790    3.0367
   32.805    2.9138
   32.820    2.9314
   32.835    2.8260
   32.850    2.7909
   32.865    2.8963
   32.880    2.7032
   32.895    2.8085
   32.910    3.0893
   32.925    2.8612
   32.940    2.8436
   32.955    3.0718
   32.970    2.8612
   32.985    2.5628
   33.000    2.7909
   33.015    3.0367
   33.030    3.1420
   33.045    3.2649
   33.060    2.8436
   33.075    3.2298
   33.090    3.0191
   33.105    2.9138
   33.120    3.0191
   33.135    3.0542
   33.150    2.9665
   33.165    3.0718
   33.180    2.9840
   33.195    2.7558
   33.210    2.6681
   33.225    2.7383
   33.240    3.2649
   33.255    3.2824
   33.270    2.7032
   33.285    2.9138
   33.300    3.0367
   33.315    2.7909
   33.330    2.7558
   33.345    2.7383
   33.360    3.0542
   33.375    2.5803
   33.390    2.9138
   33.405    3.0893
   33.420    2.8085
   33.435    3.1069
   33.450    2.9840
   33.465    2.8612
   33.480    2.8787
   33.495    2.8260
   33.510    2.8085
   33.525    2.7207
   33.540    2.9138
   33.555    2.8260
   33.570    2.9665
   33.585    3.1069
   33.600    2.6154
   33.615    2.8085
   33.630    2.8787
   33.645    3.1596
   33.660    2.8963
   33.675    2.6330
   33.690    2.5979
   33.705    2.4750
   33.720    2.8085
   33.735    2.7734
   33.750    2.8787
   33.765    2.8436
   33.780    2.7909
   33.795    2.5979
   33.810    2.6330
   33.825    2.7207
   33.840    2.5979
   33.855    2.7207
   33.870    2.4574
   33.885    2.7558
   33.900    2.9314
   33.915    2.9840
   33.930    3.1771
   33.945    2.7909
   33.960    2.9665
   33.975    3.1245
   33.990    2.9138
   34.005    2.8260
   34.020    2.6681
   34.035    2.9489
   34.050    3.1420
   34.065    3.1245
   34.080    2.7909
   34.095    2.5276
   34.110    2.7734
   34.125    3.0016
   34.140    3.0191
   34.155    2.8260
   34.170    2.7909
   34.185    2.6505
   34.200    2.9314
   34.215    2.7032
   34.230    2.6681
   34.245    2.5979
   34.260    2.4925
   34.275    2.8963
   34.290    2.7558
   34.305    2.5276
   34.320    2.4750
   34.335    2.6856
   34.350    2.7734
   34.365    2.6330
   34.380    3.0191
   34.395    2.9665
   34.410    2.7734
   34.425    3.0191
   34.440    2.7032
   34.455    2.8260
   34.470    2.8963
   34.485    2.8436
   34.500    2.8085
   34.515    2.7734
   34.530    2.7383
   34.545    2.9489
   34.560    2.8963
   34.575    3.1420
   34.590    2.8963
   34.605    2.6856
   34.620    2.7383
   34.635    2.3346
   34.650    2.6856
   34.665    2.8260
   34.680    2.9314
   34.695    2.6681
   34.710    2.3697
   34.725    2.8436
   34.740    2.7909
   34.755    3.0542
   34.770    2.9489
   34.785    2.7909
   34.800    2.4574
   34.815    2.6856
   34.830    2.6154
   34.845    2.7909
   34.860    2.5803
   34.875    2.4925
   34.890    2.9138
   34.905    3.1947
   34.920    2.9665
   34.935    2.1064
   34.950    2.7383
   34.965    2.5628
   34.980    2.6154
   34.995    2.8612
   35.010    2.6154
   35.025    2.7207
   35.040    3.1947
   35.055    2.9489
   35.070    2.6505
   35.085    2.5803
   35.100    2.7734
   35.115    2.7207
   35.130    2.7032
   35.145    2.6330
   35.160    3.2824
   35.175    3.2473
   35.190    2.8260
   35.205    2.8436
   35.220    2.7032
   35.235    2.7558
   35.250    2.7383
   35.265    2.8085
   35.280    2.5452
   35.295    2.8436
   35.310    2.7032
   35.325    2.5101
   35.340    2.6681
   35.355    2.9840
   35.370    2.8612
   35.385    2.8787
   35.400    3.0718
   35.415    2.8260
   35.430    2.8436
   35.445    2.7558
   35.460    2.3872
   35.475    2.4574
   35.490    2.7032
   35.505    2.8787
   35.520    2.9138
   35.535    2.8612
   35.550    2.7207
   35.565    2.8085
   35.580    2.6330
   35.595    2.7734
   35.610    2.7207
   35.625    2.4750
   35.640    2.6505
   35.655    2.5979
   35.670    2.8260
   35.685    2.6681
   35.700    2.5803
   35.715    2.5803
   35.730    2.8787
   35.745    2.4750
   35.760    2.7032
   35.775    2.7558
   35.790    2.5979
   35.805    2.8612
   35.820    2.7909
   35.835    2.5452
   35.850    2.8612
   35.865    2.5101
   35.880    2.7032
   35.895    2.5979
   35.910    2.6154
   35.925    2.4574
   35.940    2.7734
   35.955    2.6154
   35.970    2.9489
   35.985    2.9138
   36.000    2.7207
   36.015    2.8963
   36.030    2.4925
   36.045    2.7207
   36.060    2.8612
   36.075    3.0191
   36.090    2.7383
   36.105    2.6330
   36.120    2.4750
   36.135    2.7558
   36.150    2.8612
   36.165    2.9489
   36.180    2.6505
   36.195    2.6681
   36.210    2.9138
   36.225    2.7734
   36.240    2.5276
   36.255    2.5803
   36.270    2.7032
   36.285    2.7383
   36.300    2.4925
   36.315    2.4750
   36.330    2.6330
   36.345    2.8085
   36.360    2.7032
   36.375    2.4223
   36.390    2.8787
   36.405    3.2649
   36.420    3.0893
   36.435    3.0016
   36.450    2.7032
   36.465    2.5979
   36.480    2.5979
   36.495    2.5628
   36.510    2.5979
   36.525    2.4750
   36.540    2.9138
   36.555    2.7909
   36.570    2.8787
   36.585    2.5803
   36.600    2.6154
   36.615    2.8436
   36.630    2.6505
   36.645    2.7558
   36.660    2.7032
   36.675    2.6856
   36.690    2.4750
   36.705    2.6154
   36.720    2.7909
   36.735    2.7032
   36.750    2.8612
   36.765    2.9314
   36.780    2.5628
   36.795    2.6154
   36.810    2.9840
   36.825    2.8612
   36.840    2.4048
   36.855    2.8787
   36.870    2.9314
   36.885    3.0893
   36.900    2.6681
   36.915    2.7207
   36.930    2.6681
   36.945    2.7383
   36.960    2.8436
   36.975    2.7558
   36.990    2.5803
   37.005    2.8436
   37.020    2.9489
   37.035    2.3697
   37.050    2.7383
   37.065    3.1771
   37.080    2.9665
   37.095    3.0191
   37.110    2.7032
   37.125    2.5276
   37.140    2.5628
   37.155    2.4574
   37.170    2.8436
   37.185    2.5803
   37.200    2.4925
   37.215    2.7558
   37.230    2.5803
   37.245    2.8085
   37.260    2.5452
   37.275    2.8085
   37.290    2.7207
   37.305    2.6856
   37.320    2.4048
   37.335    2.9138
   37.350    2.8787
   37.365    2.4750
   37.380    2.8612
   37.395    2.3521
   37.410    2.6856
   37.425    2.6856
   37.440    2.4925
   37.455    2.6505
   37.470    2.8436
   37.485    2.5101
   37.500    2.4048
   37.515    2.8436
   37.530    2.7558
   37.545    2.5979
   37.560    2.4925
   37.575    2.6330
   37.590    2.8085
   37.605    2.8963
   37.620    2.5452
   37.635    2.5628
   37.650    2.6681
   37.665    2.7909
   37.680    2.3697
   37.695    2.5101
   37.710    2.2819
   37.725    2.6681
   37.740    2.4574
   37.755    2.4048
   37.770    2.7032
   37.785    2.7558
   37.800    2.5101
   37.815    2.7558
   37.830    2.7558
   37.845    2.4750
   37.860    2.8085
   37.875    2.8436
   37.890    2.5979
   37.905    2.5979
   37.920    2.7558
   37.935    2.6681
   37.950    2.5276
   37.965    2.7734
   37.980    2.8260
   37.995    2.5803
   38.010    2.5276
   38.025    2.7558
   38.040    2.5628
   38.055    2.7909
   38.070    2.4925
   38.085    2.4925
   38.100    2.2995
   38.115    2.7734
   38.130    2.5101
   38.145    2.8085
   38.160    3.1069
   38.175    2.5979
   38.190    2.5803
   38.205    2.5803
   38.220    2.5628
   38.235    2.5628
   38.250    2.5452
   38.265    2.8612
   38.280    2.6505
   38.295    2.3170
   38.310    2.4750
   38.325    2.7734
   38.340    2.5803
   38.355    2.8436
   38.370    2.8085
   38.385    2.7734
   38.400    2.5628
   38.415    2.9138
   38.430    2.5803
   38.445    2.2995
   38.460    2.4399
   38.475    3.0718
   38.490    2.5803
   38.505    2.1941
   38.520    2.5452
   38.535    2.6330
   38.550    2.7207
   38.565    2.6154
   38.580    2.4750
   38.595    2.5452
   38.610    2.6330
   38.625    2.7032
   38.640    2.5276
   38.655    2.6154
   38.670    2.8260
   38.685    2.4750
   38.700    2.9840
   38.715    2.6681
   38.730    2.4399
   38.745    2.6681
   38.760    2.3521
   38.775    2.2643
   38.790    2.2117
   38.805    2.6856
   38.820    2.7558
   38.835    2.6330
   38.850    2.6681
   38.865    2.7558
   38.880    2.5452
   38.895    2.3872
   38.910    2.6154
   38.925    2.9665
   38.940    2.6154
   38.955    2.5628
   38.970    2.3521
   38.985    2.3872
   39.000    2.6154
   39.015    2.9840
   39.030    2.5979
   39.045    2.3170
   39.060    2.6856
   39.075    2.5101
   39.090    2.8260
   39.105    2.8260
   39.120    2.5803
   39.135    2.4399
   39.150    2.8612
   39.165    2.7558
   39.180    2.5452
   39.195    2.5803
   39.210    2.7909
   39.225    2.7032
   39.240    2.8260
   39.255    2.6856
   39.270    2.6330
   39.285    2.6856
   39.300    2.9489
   39.315    2.5628
   39.330    2.4048
   39.345    2.8260
   39.360    2.8612
   39.375    2.8260
   39.390    2.6681
   39.405    2.7032
   39.420    2.8260
   39.435    2.7207
   39.450    2.5979
   39.465    2.5628
   39.480    2.4048
   39.495    2.4399
   39.510    2.5628
   39.525    2.5276
   39.540    2.4223
   39.555    2.4223
   39.570    2.6681
   39.585    2.7383
   39.600    2.7734
   39.615    2.4048
   39.630    2.3170
   39.645    2.5276
   39.660    2.5979
   39.675    2.5276
   39.690    2.5276
   39.705    2.6330
   39.720    2.6154
   39.735    2.5979
   39.750    2.8260
   39.765    2.7734
   39.780    2.6505
   39.795    2.9840
   39.810    2.6505
   39.825    2.6154
   39.840    2.5452
   39.855    2.2643
   39.870    2.7032
   39.885    2.7032
   39.900    2.5628
   39.915    2.3346
   39.930    2.6330
   39.945    2.5276
   39.960    2.7032
   39.975    2.7558
   39.990    2.5452
