    1.500   45.6030
    1.515   46.2875
    1.530   44.9289
    1.545   43.4018
    1.560   43.1385
    1.575   42.1590
    1.590   42.3697
    1.605   41.1164
    1.620   40.8531
    1.635   40.1896
    1.650   39.7367
    1.665   40.4634
    1.680   40.0316
    1.695   38.2622
    1.710   37.9568
    1.725   37.2723
    1.740   37.1037
    1.755   35.9663
    1.770   36.7351
    1.785   35.5766
    1.800   35.0079
    1.815   34.8815
    1.830   35.3660
    1.845   33.9863
    1.860   33.9231
    1.875   33.4913
    1.890   33.3965
    1.905   33.5440
    1.920   33.5018
    1.935   33.4281
    1.950   32.4908
    1.965   32.4171
    1.980   31.6377
    1.995   31.6482
    2.010   32.5013
    2.025   30.9426
    2.040   30.2896
    2.055   30.4792
    2.070   29.8262
    2.085   30.3002
    2.100   29.7525
    2.115   29.1311
    2.130   28.9837
    2.145   29.4365
    2.160   29.3839
    2.175   29.4681
    2.190   28.9626
    2.205   27.7409
    2.220   28.7414
    2.235   28.1517
    2.250   28.2254
    2.265   27.8462
    2.280   28.3728
    2.295   28.3728
    2.310   27.5513
    2.325   28.4466
    2.340   29.1522
    2.355   28.3623
    2.370   27.9621
    2.385   27.1090
    2.400   27.9832
    2.415   28.1622
    2.430   28.0358
    2.445   27.7199
    2.460   28.0885
    2.475   28.3412
    2.490   27.5197
    2.505   28.1727
    2.520   27.9726
    2.535   27.6883
    2.550   26.9300
    2.565   28.7309
    2.580   27.8357
    2.595   28.1201
    2.610   28.4571
    2.625   29.1943
    2.640   29.1838
    2.655   28.9626
    2.670   29.2575
    2.685   29.1311
    2.700   28.8784
    2.715   29.1733
    2.730   29.2259
    2.745   30.0263
    2.760   30.3002
    2.775   30.8689
    2.790   30.3633
    2.805   30.9321
    2.820   31.8273
    2.835   31.2164
    2.850   31.2375
    2.865   30.9953
    2.880   31.8589
    2.895   32.8594
    2.910   33.0068
    2.925   32.6593
    2.940   33.4913
    2.955   34.5761
    2.970   34.7235
    2.985   35.0290
    3.000   35.9452
    3.015   34.6182
    3.030   36.0821
    3.045   36.5350
    3.060   37.8726
    3.075   38.1253
    3.090   38.4413
    3.105   38.8099
    3.120   39.6209
    3.135   40.5687
    3.150   41.1164
    3.165   41.6430
    3.180   42.9384
    3.195   43.3702
    3.210   44.5182
    3.225   45.8452
    3.240   45.9821
    3.255   47.3196
    3.270   49.3628
    3.285   50.6477
    3.300   50.9005
    3.315   53.0700
    3.330   53.9758
    3.345   53.9652
    3.360   56.2507
    3.375   58.1991
    3.390   61.6008
    3.405   62.7699
    3.420   63.8125
    3.435   65.9821
    3.450   67.3196
    3.465   67.9937
    3.480   67.6883
    3.495   66.8562
    3.510   65.2975
    3.525   63.0542
    3.540   61.2744
    3.555   57.6303
    3.570   54.2812
    3.585   52.6804
    3.600   50.0579
    3.615   46.7299
    3.630   45.0026
    3.645   44.5814
    3.660   42.8857
    3.675   41.1585
    3.690   40.4845
    3.705   39.9684
    3.720   40.5055
    3.735   40.9479
    3.750   40.6214
    3.765   41.0005
    3.780   40.2001
    3.795   39.6314
    3.810   39.6314
    3.825   39.5471
    3.840   39.1680
    3.855   39.1469
    3.870   38.3676
    3.885   38.4939
    3.900   37.5671
    3.915   36.3244
    3.930   35.6187
    3.945   34.0390
    3.960   33.2912
    3.975   32.2275
    3.990   32.1327
    4.005   31.0374
    4.020   29.0363
    4.035   28.1727
    4.050   27.4460
    4.065   26.6351
    4.080   25.9610
    4.095   23.7388
    4.110   22.7278
    4.125   22.1064
    4.140   21.2217
    4.155   20.4950
    4.170   19.7051
    4.185   19.1785
    4.200   18.3360
    4.215   17.9147
    4.230   17.9147
    4.245   16.9984
    4.260   16.7141
    4.275   16.6509
    4.290   16.5877
    4.305   16.2401
    4.320   15.6819
    4.335   15.6293
    4.350   15.3976
    4.365   14.6288
    4.380   14.3023
    4.395   14.6077
    4.410   14.4602
    4.425   14.4181
    4.440   13.7230
    4.455   13.6809
    4.470   13.0806
    4.485   13.7125
    4.500   13.4071
    4.515   13.3544
    4.530   12.8699
    4.545   12.8805
    4.560   12.9858
    4.575   13.0279
    4.590   12.9542
    4.605   13.0384
    4.620   12.9963
    4.635   12.5434
    4.650   12.3960
    4.665   12.5329
    4.680   12.0695
    4.695   11.9115
    4.710   12.0274
    4.725   11.9326
    4.740   11.9642
    4.755   12.0484
    4.770   12.5329
    4.785   11.5429
    4.800   11.3217
    4.815   11.3955
    4.830   11.3533
    4.845   11.0269
    4.860   11.1216
    4.875   11.4271
    4.890   11.4903
    4.905   11.3849
    4.920   11.4903
    4.935   11.3428
    4.950   11.1322
    4.965   10.8794
    4.980   11.3955
    4.995   11.2586
    5.010   10.9110
    5.025   10.6161
    5.040   11.0374
    5.055   10.8899
    5.070   10.6477
    5.085   11.1532
    5.100   11.4165
    5.115   11.1322
    5.130   10.4687
    5.145   10.9110
    5.160   10.5108
    5.175   10.3212
    5.190   10.7214
    5.205   10.8057
    5.220   10.3002
    5.235   11.0269
    5.250   10.4792
    5.265   10.8373
    5.280   10.7530
    5.295   10.8583
    5.310   10.4371
    5.325   10.7214
    5.340   10.8478
    5.355   10.8478
    5.370   10.5108
    5.385   10.0579
    5.400   10.0895
    5.415   10.2370
    5.430   10.2475
    5.445   10.0474
    5.460    9.8684
    5.475    9.4576
    5.490   10.3107
    5.505    9.8894
    5.520    9.6788
    5.535   10.1632
    5.550   10.1316
    5.565   10.4371
    5.580    9.8473
    5.595   10.1527
    5.610    9.8262
    5.625   10.1211
    5.640   10.2896
    5.655   10.0579
    5.670    9.8262
    5.685    9.2891
    5.700    9.7314
    5.715    9.5419
    5.730    9.3944
    5.745    9.6893
    5.760   10.0474
    5.775    9.9210
    5.790    9.9631
    5.805   10.0158
    5.820    9.6577
    5.835    9.6788
    5.850    9.1522
    5.865    9.7420
    5.880    9.5945
    5.895    9.9105
    5.910    9.7104
    5.925    9.3628
    5.940    9.2154
    5.955    9.5313
    5.970    9.8157
    5.985    9.7314
    6.000    9.5524
    6.015   10.0895
    6.030    9.4892
    6.045    9.2786
    6.060    9.7209
    6.075    9.4997
    6.090    9.8578
    6.105    9.9737
    6.120    9.3944
    6.135    9.2154
    6.150    9.9526
    6.165    9.8052
    6.180    9.9631
    6.195    9.7841
    6.210    9.4260
    6.225    9.6261
    6.240    9.2680
    6.255    9.3734
    6.270    9.8157
    6.285    9.9210
    6.300    9.6577
    6.315    9.8789
    6.330   10.0685
    6.345   10.1632
    6.360   10.1106
    6.375   10.3107
    6.390   10.2370
    6.405   10.1422
    6.420   10.1422
    6.435    9.8578
    6.450   10.3002
    6.465   10.4055
    6.480   10.9426
    6.495   10.9847
    6.510   10.3633
    6.525   10.6266
    6.540   10.3633
    6.555   10.9005
    6.570   11.1006
    6.585   10.7425
    6.600   11.1427
    6.615   11.3639
    6.630   11.5008
    6.645   11.6798
    6.660   12.3749
    6.675   11.8905
    6.690   11.7536
    6.705   12.3855
    6.720   12.1959
    6.735   12.9121
    6.750   13.0068
    6.765   13.0174
    6.780   13.2491
    6.795   13.2596
    6.810   14.1969
    6.825   13.9547
    6.840   13.8810
    6.855   14.1654
    6.870   14.9131
    6.885   14.7867
    6.900   15.8715
    6.915   15.5345
    6.930   15.8715
    6.945   15.9136
    6.960   16.4297
    6.975   16.2717
    6.990   16.7562
    7.005   17.1459
    7.020   16.3770
    7.035   15.6082
    7.050   15.1869
    7.065   14.6603
    7.080   14.9552
    7.095   13.7441
    7.110   13.6072
    7.125   13.3544
    7.140   12.6382
    7.155   12.2275
    7.170   12.1748
    7.185   12.1432
    7.200   12.1222
    7.215   11.4165
    7.230   11.7746
    7.245   11.6693
    7.260   11.1427
    7.275   11.1322
    7.290   10.9742
    7.305   11.5745
    7.320   10.9531
    7.335   10.8583
    7.350   10.9110
    7.365   11.1216
    7.380   11.5324
    7.395   10.9637
    7.410   10.6056
    7.425   10.7741
    7.440   10.9742
    7.455   11.4481
    7.470   11.3323
    7.485   11.6588
    7.500   11.5640
    7.515   11.3323
    7.530   11.3744
    7.545   11.8483
    7.560   11.4587
    7.575   12.0484
    7.590   11.9221
    7.605   12.2275
    7.620   12.6593
    7.635   12.1538
    7.650   12.2696
    7.665   12.8067
    7.680   13.2701
    7.695   13.5229
    7.710   13.0384
    7.725   13.7546
    7.740   14.3444
    7.755   14.3865
    7.770   14.7867
    7.785   14.5761
    7.800   13.9126
    7.815   14.3233
    7.830   14.9552
    7.845   14.4181
    7.860   14.4497
    7.875   15.6609
    7.890   15.7767
    7.905   15.7241
    7.920   15.0184
    7.935   14.9026
    7.950   14.8499
    7.965   14.3128
    7.980   14.4076
    7.995   14.3128
    8.010   14.8078
    8.025   14.4497
    8.040   14.2285
    8.055   13.1859
    8.070   13.7967
    8.085   13.6914
    8.100   13.2491
    8.115   12.5961
    8.130   11.8378
    8.145   12.0590
    8.160   11.6904
    8.175   11.9221
    8.190   11.5008
    8.205   11.4797
    8.220   11.5113
    8.235   11.4060
    8.250   10.7952
    8.265   10.3949
    8.280   10.9426
    8.295   10.7214
    8.310   10.8373
    8.325   10.8794
    8.340   10.5213
    8.355   10.9110
    8.370   10.3633
    8.385    9.9842
    8.400    9.8368
    8.415    9.3418
    8.430    9.8999
    8.445   10.2159
    8.460    9.3523
    8.475    9.4787
    8.490    9.7630
    8.505    9.5103
    8.520    9.2575
    8.535    9.8578
    8.550    9.8684
    8.565    9.5945
    8.580    9.8684
    8.595    9.4787
    8.610    9.5629
    8.625    9.3418
    8.640    9.6893
    8.655    9.5419
    8.670    9.9737
    8.685    9.4576
    8.700    9.2575
    8.715    8.8573
    8.730    9.6577
    8.745    9.6156
    8.760    9.2575
    8.775    8.9205
    8.790    9.4892
    8.805    9.1732
    8.820    9.2154
    8.835    9.1838
    8.850    9.9842
    8.865    9.5945
    8.880    9.2575
    8.895    9.3312
    8.910    9.3418
    8.925    9.2786
    8.940    9.4681
    8.955    9.1943
    8.970    9.0153
    8.985    9.5735
    9.000    9.5419
    9.015    9.1417
    9.030    9.2154
    9.045    9.4997
    9.060    9.5313
    9.075    9.1311
    9.090    9.3207
    9.105    9.1943
    9.120    9.3944
    9.135    9.1627
    9.150    9.5629
    9.165    9.0258
    9.180    9.6156
    9.195    9.5313
    9.210    9.3418
    9.225    9.8999
    9.240    9.4471
    9.255    9.5945
    9.270    9.2680
    9.285    9.2259
    9.300    9.1732
    9.315    9.2259
    9.330    9.4365
    9.345    9.4365
    9.360    8.9837
    9.375    9.2996
    9.390    9.3523
    9.405    9.5103
    9.420    9.0574
    9.435    9.2996
    9.450    9.3418
    9.465    9.2680
    9.480    9.6156
    9.495    9.4155
    9.510    9.4787
    9.525    9.9526
    9.540    9.0469
    9.555    8.9942
    9.570    8.9837
    9.585    9.3839
    9.600    9.3102
    9.615    9.1627
    9.630    9.0153
    9.645    8.9521
    9.660    8.6045
    9.675    9.1943
    9.690    9.4576
    9.705    9.2786
    9.720    9.1732
    9.735    9.3523
    9.750    9.2048
    9.765    9.2680
    9.780    8.5729
    9.795    9.4365
    9.810    9.3628
    9.825    8.9837
    9.840    9.4787
    9.855    9.6998
    9.870    9.2891
    9.885    9.5103
    9.900    9.3944
    9.915    9.3523
    9.930    9.4365
    9.945    9.3839
    9.960    9.2575
    9.975    9.4471
    9.990    9.4576
   10.005    9.5735
   10.020    9.7630
   10.035   10.0579
   10.050    9.4365
   10.065    9.5419
   10.080    9.2048
   10.095    9.1101
   10.110    9.2575
   10.125    9.2786
   10.140    9.4997
   10.155    9.4471
   10.170    9.8684
   10.185    9.3523
   10.200    9.5208
   10.215    9.3523
   10.230    9.3734
   10.245    9.6577
   10.260    9.8684
   10.275    9.5840
   10.290    9.3628
   10.305   10.0263
   10.320   10.0053
   10.335    9.4681
   10.350    9.3944
   10.365    9.3734
   10.380    9.8684
   10.395   10.0790
   10.410   10.0685
   10.425   10.0685
   10.440   10.0158
   10.455   10.0685
   10.470    9.7736
   10.485   10.1106
   10.500    9.9210
   10.515    9.9631
   10.530   10.4265
   10.545    9.8157
   10.560    9.6682
   10.575    9.5313
   10.590    9.8999
   10.605    9.6261
   10.620    9.6577
   10.635    9.7946
   10.650    9.7736
   10.665   10.1527
   10.680    9.8368
   10.695    9.5103
   10.710    9.7420
   10.725    9.8368
   10.740    9.7314
   10.755    9.7525
   10.770    9.5208
   10.785    9.6367
   10.800    9.3418
   10.815    9.8473
   10.830   10.0895
   10.845    9.0258
   10.860    9.0258
   10.875    8.9521
   10.890    9.6156
   10.905    9.5313
   10.920    9.3102
   10.935    9.6051
   10.950    9.4997
   10.965    9.1522
   10.980    8.8257
   10.995    9.2259
   11.010    9.2996
   11.025    8.9415
   11.040    9.0363
   11.055    8.9942
   11.070    9.1627
   11.085    9.0363
   11.100    8.8257
   11.115    8.8784
   11.130    8.6572
   11.145    9.2575
   11.160    8.9205
   11.175    8.6151
   11.190    8.8046
   11.205    9.0469
   11.220    9.1101
   11.235    8.9942
   11.250    8.9731
   11.265    8.8784
   11.280    8.9942
   11.295    9.0785
   11.310    8.9100
   11.325    8.9415
   11.340    9.0047
   11.355    9.1101
   11.370    9.1206
   11.385    9.0363
   11.400    9.2786
   11.415    8.8257
   11.430    8.9626
   11.445    9.4787
   11.460    9.6893
   11.475    9.4155
   11.490    9.3207
   11.505    9.7209
   11.520    9.0047
   11.535    9.3734
   11.550    9.4471
   11.565    8.7941
   11.580    8.8468
   11.595    8.8573
   11.610    9.0047
   11.625    9.5208
   11.640    9.1838
   11.655    9.1522
   11.670    9.2575
   11.685    9.7104
   11.700    9.2575
   11.715    9.1732
   11.730    9.5103
   11.745    9.2575
   11.760    8.7941
   11.775    8.8678
   11.790    9.4997
   11.805    9.1417
   11.820    9.0574
   11.835    9.4471
   11.850    9.8262
   11.865    9.5735
   11.880    9.2470
   11.895    9.4997
   11.910    9.2364
   11.925    9.2575
   11.940    9.2259
   11.955    9.1838
   11.970    9.7736
   11.985    9.5103
   12.000    9.6261
   12.015    9.1206
   12.030    9.3734
   12.045    9.3523
   12.060    9.2575
   12.075    9.1838
   12.090    9.0047
   12.105    8.7941
   12.120    8.7414
   12.135    9.0469
   12.150    9.3523
   12.165    9.1311
   12.180    8.9310
   12.195    8.5308
   12.210    8.9415
   12.225    9.0785
   12.240    8.6151
   12.255    8.9942
   12.270    8.8889
   12.285    9.2154
   12.300    8.9100
   12.315    8.8889
   12.330    8.7520
   12.345    9.0785
   12.360    9.2048
   12.375    8.8152
   12.390    8.6467
   12.405    8.4992
   12.420    8.5308
   12.435    9.2470
   12.450    8.8678
   12.465    8.5940
   12.480    8.8994
   12.495    8.8257
   12.510    8.8046
   12.525    8.8362
   12.540    9.3944
   12.555    8.5519
   12.570    8.5940
   12.585    9.1627
   12.600    8.8784
   12.615    8.8468
   12.630    8.5203
   12.645    8.4360
   12.660    8.5203
   12.675    8.3834
   12.690    8.8362
   12.705    8.7098
   12.720    8.7836
   12.735    8.7730
   12.750    8.7625
   12.765    8.0990
   12.780    8.9205
   12.795    8.6993
   12.810    8.6888
   12.825    8.6888
   12.840    8.9942
   12.855    8.6361
   12.870    9.0363
   12.885    8.8573
   12.900    8.5835
   12.915    8.6045
   12.930    9.0469
   12.945    8.5519
   12.960    8.5519
   12.975    8.8784
   12.990    8.6572
   13.005    8.3834
   13.020    7.9094
   13.035    8.3728
   13.050    7.9094
   13.065    8.4992
   13.080    8.7520
   13.095    8.1833
   13.110    8.1938
   13.125    8.7098
   13.140    8.4466
   13.155    8.4676
   13.170    8.6151
   13.185    8.3202
   13.200    8.1938
   13.215    8.2675
   13.230    8.2464
   13.245    8.8362
   13.260    8.6151
   13.275    8.2991
   13.290    7.9516
   13.305    8.5203
   13.320    8.1095
   13.335    8.2886
   13.350    8.5519
   13.365    8.7730
   13.380    8.4150
   13.395    8.4676
   13.410    8.6467
   13.425    8.5729
   13.440    8.7309
   13.455    8.8678
   13.470    8.5519
   13.485    8.6361
   13.500    8.4781
   13.515    8.2991
   13.530    8.3518
   13.545    9.0785
   13.560    8.6572
   13.575    8.3939
   13.590    8.2254
   13.605    8.3412
   13.620    8.4781
   13.635    8.3412
   13.650    8.6467
   13.665    8.7414
   13.680    8.5203
   13.695    8.3412
   13.710    8.4887
   13.725    8.2464
   13.740    8.4992
   13.755    8.4466
   13.770    8.1095
   13.785    8.5097
   13.800    8.6677
   13.815    8.7414
   13.830    8.4887
   13.845    8.4150
   13.860    8.5097
   13.875    8.4466
   13.890    8.6467
   13.905    8.0885
   13.920    7.8568
   13.935    8.1517
   13.950    8.1411
   13.965    7.8989
   13.980    8.2149
   13.995    8.0990
   14.010    8.2464
   14.025    8.1411
   14.040    8.0674
   14.055    8.2886
   14.070    8.6361
   14.085    8.9310
   14.100    8.5097
   14.115    8.6783
   14.130    8.0253
   14.145    7.6251
   14.160    8.0885
   14.175    8.0358
   14.190    8.1833
   14.205    7.8673
   14.220    7.8357
   14.235    7.8568
   14.250    7.9831
   14.265    8.1622
   14.280    8.0569
   14.295    8.3623
   14.310    7.8568
   14.325    8.0779
   14.340    8.1201
   14.355    8.3307
   14.370    7.9937
   14.385    8.1411
   14.400    8.5519
   14.415    8.0253
   14.430    7.6567
   14.445    8.1306
   14.460    8.6256
   14.475    8.3307
   14.490    7.9831
   14.505    7.9305
   14.520    8.0779
   14.535    8.5624
   14.550    8.2886
   14.565    7.9726
   14.580    8.2675
   14.595    8.3412
   14.610    8.4571
   14.625    8.2991
   14.640    8.4781
   14.655    8.7414
   14.670    8.2991
   14.685    8.3307
   14.700    8.1517
   14.715    7.9937
   14.730    7.6567
   14.745    8.3623
   14.760    8.1517
   14.775    8.2464
   14.790    8.4781
   14.805    8.3623
   14.820    8.3202
   14.835    7.7936
   14.850    8.2886
   14.865    8.0779
   14.880    7.7514
   14.895    7.8778
   14.910    8.1306
   14.925    8.3412
   14.940    8.2149
   14.955    8.3518
   14.970    8.5308
   14.985    8.4360
   15.000    8.2570
   15.015    7.8568
   15.030    7.8252
   15.045    8.1727
   15.060    8.4466
   15.075    8.1411
   15.090    8.3307
   15.105    8.6467
   15.120    8.2991
   15.135    8.2780
   15.150    8.3834
   15.165    7.8568
   15.180    7.7725
   15.195    8.0463
   15.210    8.3939
   15.225    8.0779
   15.240    8.5940
   15.255    7.9937
   15.270    7.9410
   15.285    8.0463
   15.300    7.9516
   15.315    8.1833
   15.330    8.4466
   15.345    8.6045
   15.360    7.9516
   15.375    8.3412
   15.390    7.9410
   15.405    7.9831
   15.420    8.0463
   15.435    8.2886
   15.450    8.1833
   15.465    8.5097
   15.480    8.2570
   15.495    8.4887
   15.510    8.6993
   15.525    8.3518
   15.540    8.5203
   15.555    8.4781
   15.570    8.2570
   15.585    8.2464
   15.600    8.3096
   15.615    8.1727
   15.630    7.9726
   15.645    8.2886
   15.660    8.3412
   15.675    8.2570
   15.690    8.2675
   15.705    8.5835
   15.720    8.1095
   15.735    8.2254
   15.750    8.3412
   15.765    8.0358
   15.780    8.4571
   15.795    8.5203
   15.810    8.0569
   15.825    8.0042
   15.840    8.4676
   15.855    8.6677
   15.870    8.5940
   15.885    8.4992
   15.900    8.4360
   15.915    8.3202
   15.930    8.3096
   15.945    8.8468
   15.960    8.4466
   15.975    8.4676
   15.990    8.8678
   16.005    8.8362
   16.020    8.6888
   16.035    8.4255
   16.050    8.3939
   16.065    8.5729
   16.080    8.2780
   16.095    8.3834
   16.110    8.8468
   16.125    8.2886
   16.140    8.4255
   16.155    8.4887
   16.170    8.1095
   16.185    8.6256
   16.200    8.4150
   16.215    8.5203
   16.230    8.9100
   16.245    8.3834
   16.260    7.8673
   16.275    8.2675
   16.290    8.2464
   16.305    8.4676
   16.320    8.6467
   16.335    8.5519
   16.350    8.4466
   16.365    7.7514
   16.380    8.2043
   16.395    8.3412
   16.410    8.5097
   16.425    8.1095
   16.440    8.1201
   16.455    8.0042
   16.470    8.1411
   16.485    8.4360
   16.500    7.9831
   16.515    8.1727
   16.530    8.2043
   16.545    8.2780
   16.560    8.0463
   16.575    7.7304
   16.590    7.9937
   16.605    7.8462
   16.620    7.6040
   16.635    8.1833
   16.650    8.4360
   16.665    8.1306
   16.680    8.2886
   16.695    8.2991
   16.710    8.2780
   16.725    8.0885
   16.740    8.4571
   16.755    8.1517
   16.770    8.1306
   16.785    8.3939
   16.800    8.4466
   16.815    8.4781
   16.830    7.8252
   16.845    7.5408
   16.860    8.0569
   16.875    8.5308
   16.890    8.0463
   16.905    8.1938
   16.920    8.1622
   16.935    8.3096
   16.950    8.3518
   16.965    8.2149
   16.980    8.2149
   16.995    7.7620
   17.010    8.1517
   17.025    8.4255
   17.040    7.9831
   17.055    7.9937
   17.070    8.0358
   17.085    8.3096
   17.100    8.6572
   17.115    8.5097
   17.130    7.9937
   17.145    8.2149
   17.160    8.3834
   17.175    7.7725
   17.190    8.4150
   17.205    8.4044
   17.220    8.1727
   17.235    8.2886
   17.250    8.0674
   17.265    7.8146
   17.280    8.2570
   17.295    8.1306
   17.310    7.9621
   17.325    7.9621
   17.340    7.8884
   17.355    8.3834
   17.370    8.8573
   17.385    8.4571
   17.400    7.9200
   17.415    8.1306
   17.430    8.7941
   17.445    8.3728
   17.460    8.1201
   17.475    8.1411
   17.490    7.9831
   17.505    8.2254
   17.520    8.5835
   17.535    8.6256
   17.550    8.2043
   17.565    8.5308
   17.580    8.5413
   17.595    8.5519
   17.610    8.3939
   17.625    8.4571
   17.640    8.3518
   17.655    8.1411
   17.670    8.3939
   17.685    8.3939
   17.700    8.0990
   17.715    8.4571
   17.730    8.3307
   17.745    8.1833
   17.760    8.6783
   17.775    8.6572
   17.790    8.4255
   17.805    8.3202
   17.820    8.0463
   17.835    8.5308
   17.850    8.3623
   17.865    8.5308
   17.880    8.3518
   17.895    8.5308
   17.910    8.5624
   17.925    8.6783
   17.940    7.9200
   17.955    8.2254
   17.970    8.1622
   17.985    8.1622
   18.000    8.2780
   18.015    8.2359
   18.030    8.6256
   18.045    8.6045
   18.060    7.9410
   18.075    8.6045
   18.090    8.4992
   18.105    8.6045
   18.120    8.8257
   18.135    8.1411
   18.150    8.5624
   18.165    8.3834
   18.180    8.2780
   18.195    8.1201
   18.210    8.2254
   18.225    8.3834
   18.240    8.6045
   18.255    8.2675
   18.270    8.2254
   18.285    8.4150
   18.300    8.3623
   18.315    8.2991
   18.330    8.3623
   18.345    8.1201
   18.360    8.2570
   18.375    8.6045
   18.390    8.6572
   18.405    8.6045
   18.420    8.3202
   18.435    8.5097
   18.450    8.2780
   18.465    8.0779
   18.480    8.2254
   18.495    8.0885
   18.510    8.4781
   18.525    8.4992
   18.540    7.9410
   18.555    7.9831
   18.570    8.8362
   18.585    8.6677
   18.600    8.6993
   18.615    8.6572
   18.630    8.4992
   18.645    8.3623
   18.660    8.6677
   18.675    8.8362
   18.690    8.6045
   18.705    8.4992
   18.720    8.9310
   18.735    8.5835
   18.750    8.3202
   18.765    8.1095
   18.780    8.3939
   18.795    8.1095
   18.810    8.2043
   18.825    8.2780
   18.840    8.3939
   18.855    8.6572
   18.870    8.9521
   18.885    8.4044
   18.900    8.2780
   18.915    8.3307
   18.930    8.3518
   18.945    8.4466
   18.960    8.8152
   18.975    8.6993
   18.990    8.3307
   19.005    8.9205
   19.020    8.3202
   19.035    8.3096
   19.050    8.5413
   19.065    8.3939
   19.080    8.4044
   19.095    8.6256
   19.110    8.5308
   19.125    8.8362
   19.140    8.5413
   19.155    8.5203
   19.170    8.6151
   19.185    8.7309
   19.200    8.7520
   19.215    8.2149
   19.230    8.2991
   19.245    7.8778
   19.260    8.2043
   19.275    8.6045
   19.290    8.5519
   19.305    8.2149
   19.320    8.6256
   19.335    8.9626
   19.350    8.6572
   19.365    8.8468
   19.380    8.6467
   19.395    9.1838
   19.410    8.5519
   19.425    8.5203
   19.440    8.8889
   19.455    8.8784
   19.470    8.8257
   19.485    8.6993
   19.500    8.6151
   19.515    8.3939
   19.530    8.9415
   19.545    8.6572
   19.560    8.4992
   19.575    8.5519
   19.590    8.2464
   19.605    8.0779
   19.620    8.3412
   19.635    9.0785
   19.650    8.7625
   19.665    8.4466
   19.680    8.7309
   19.695    8.8046
   19.710    8.8889
   19.725    8.5308
   19.740    8.4992
   19.755    8.7625
   19.770    8.4887
   19.785    8.9205
   19.800    8.9942
   19.815    8.6256
   19.830    8.4676
   19.845    9.2470
   19.860    8.9626
   19.875    9.1943
   19.890    9.3102
   19.905    8.9731
   19.920    8.8573
   19.935    9.1522
   19.950    9.0153
   19.965    9.3312
   19.980    9.3207
   19.995    9.1522
   20.010    8.5097
   20.025    8.5519
   20.040    8.3728
   20.055    8.8678
   20.070    8.9310
   20.085    8.7730
   20.100    8.8889
   20.115    8.8362
   20.130    8.5413
   20.145    8.9415
   20.160    9.4471
   20.175    8.9942
   20.190    8.8889
   20.205    9.0363
   20.220    8.5940
   20.235    8.9100
   20.250    9.0363
   20.265    9.2786
   20.280    9.6156
   20.295    8.8784
   20.310    9.0995
   20.325    9.2048
   20.340    8.8152
   20.355    9.0047
   20.370    9.5840
   20.385    9.3312
   20.400    9.0047
   20.415    9.0258
   20.430    9.2575
   20.445    9.2786
   20.460    9.0258
   20.475    8.8678
   20.490    8.9310
   20.505    8.6045
   20.520    8.9100
   20.535    9.0574
   20.550    9.2470
   20.565    9.3839
   20.580    9.4050
   20.595    9.1417
   20.610    9.1943
   20.625    9.1732
   20.640    8.9310
   20.655    9.3944
   20.670    8.9521
   20.685    9.1732
   20.700    9.0574
   20.715    9.8368
   20.730    9.4787
   20.745    9.3944
   20.760    8.9731
   20.775    9.2048
   20.790    9.0363
   20.805    8.4466
   20.820    8.5624
   20.835    9.0047
   20.850    8.8362
   20.865    8.9731
   20.880    8.7309
   20.895    9.0574
   20.910    8.9731
   20.925    8.7836
   20.940    9.0258
   20.955    9.3944
   20.970    9.0785
   20.985    8.7730
   21.000    8.8573
   21.015    9.0047
   21.030    9.1101
   21.045    8.9100
   21.060    9.5629
   21.075    8.9731
   21.090    9.0258
   21.105    9.1732
   21.120    9.5419
   21.135    9.3312
   21.150    8.8678
   21.165    8.9731
   21.180    8.5940
   21.195    8.9731
   21.210    8.7941
   21.225    9.4155
   21.240    9.1417
   21.255    9.2470
   21.270    8.9415
   21.285    8.6572
   21.300    8.6572
   21.315    9.0258
   21.330    9.2575
   21.345    8.8152
   21.360    8.6993
   21.375    9.3207
   21.390    9.3418
   21.405    9.2259
   21.420    8.8152
   21.435    8.8152
   21.450    8.9205
   21.465    9.0574
   21.480    8.8573
   21.495    8.8362
   21.510    9.2364
   21.525    8.9942
   21.540    9.0258
   21.555    8.8678
   21.570    9.0574
   21.585    8.9415
   21.600    8.8678
   21.615    9.4471
   21.630    9.0153
   21.645    8.7941
   21.660    9.1627
   21.675    9.2786
   21.690    9.2154
   21.705    9.2996
   21.720    9.0785
   21.735    9.0995
   21.750    9.1311
   21.765    8.6888
   21.780    9.3523
   21.795    9.3523
   21.810    8.9415
   21.825    8.8678
   21.840    9.0995
   21.855    8.9626
   21.870    8.6256
   21.885    9.0047
   21.900    9.5313
   21.915    9.5419
   21.930    8.9626
   21.945    8.6783
   21.960    9.3102
   21.975    9.3523
   21.990    9.3734
   22.005    9.2048
   22.020    9.1101
   22.035    9.2996
   22.050    8.8889
   22.065    9.1522
   22.080    9.4471
   22.095    9.3207
   22.110    9.3102
   22.125    8.9942
   22.140    9.2048
   22.155    9.5208
   22.170    9.5313
   22.185    8.8994
   22.200    9.4576
   22.215    9.2048
   22.230    9.1417
   22.245    8.9521
   22.260    8.7414
   22.275    9.4681
   22.290    9.5735
   22.305    8.7941
   22.320    8.9415
   22.335    9.4471
   22.350    9.3102
   22.365    9.4260
   22.380    9.4997
   22.395    9.2786
   22.410    8.9731
   22.425    9.4997
   22.440    9.4365
   22.455    9.2470
   22.470    9.0047
   22.485    8.8468
   22.500    8.8784
   22.515    8.9100
   22.530    9.1417
   22.545    9.2680
   22.560    9.1101
   22.575    9.4576
   22.590    9.2786
   22.605    9.5208
   22.620    8.9310
   22.635    9.0469
   22.650    9.4997
   22.665    9.1522
   22.680    9.0995
   22.695    9.5208
   22.710    9.2048
   22.725    8.9415
   22.740    9.3734
   22.755    9.0574
   22.770    9.0679
   22.785    9.3734
   22.800    9.2470
   22.815    9.2996
   22.830    8.8468
   22.845    8.8889
   22.860    9.4892
   22.875    9.6051
   22.890    9.0890
   22.905    9.1838
   22.920    9.5419
   22.935    9.5208
   22.950    8.7836
   22.965    9.1206
   22.980    9.1627
   22.995    8.8573
   23.010    9.0679
   23.025    9.2048
   23.040    9.1522
   23.055    8.7941
   23.070    8.9837
   23.085    8.8573
   23.100    9.0995
   23.115    9.2786
   23.130    8.7414
   23.145    8.8362
   23.160    8.9731
   23.175    8.7836
   23.190    9.0258
   23.205    8.6572
   23.220    9.1838
   23.235    8.8889
   23.250    8.6151
   23.265    9.0574
   23.280    9.1311
   23.295    8.6256
   23.310    9.2891
   23.325    9.0785
   23.340    8.8362
   23.355    9.1311
   23.370    9.1732
   23.385    9.0679
   23.400    8.6993
   23.415    9.3523
   23.430    9.0469
   23.445    9.0785
   23.460    9.0258
   23.475    8.8362
   23.490    8.6572
   23.505    8.8468
   23.520    8.7414
   23.535    8.6783
   23.550    8.7098
   23.565    8.7414
   23.580    8.9626
   23.595    8.4992
   23.610    8.5835
   23.625    9.2154
   23.640    8.6256
   23.655    8.1622
   23.670    8.6677
   23.685    8.6993
   23.700    8.4571
   23.715    8.6467
   23.730    9.0258
   23.745    8.7520
   23.760    8.4887
   23.775    9.1101
   23.790    8.5308
   23.805    8.5308
   23.820    8.5940
   23.835    8.8362
   23.850    9.1311
   23.865    8.6888
   23.880    8.8889
   23.895    8.6993
   23.910    8.5203
   23.925    8.3834
   23.940    8.4992
   23.955    8.6888
   23.970    8.2886
   23.985    8.3412
   24.000    9.0890
   24.015    8.2780
   24.030    8.6045
   24.045    8.9731
   24.060    8.9205
   24.075    8.9100
   24.090    8.5519
   24.105    8.7204
   24.120    8.7625
   24.135    8.9731
   24.150    8.7836
   24.165    8.5624
   24.180    8.2886
   24.195    8.4466
   24.210    8.7309
   24.225    9.0363
   24.240    8.2780
   24.255    8.6993
   24.270    8.6572
   24.285    8.6572
   24.300    8.6572
   24.315    8.7414
   24.330    8.3202
   24.345    8.4676
   24.360    8.9731
   24.375    8.4044
   24.390    8.4044
   24.405    8.2464
   24.420    8.6993
   24.435    8.6256
   24.450    8.6045
   24.465    9.0890
   24.480    9.1732
   24.495    9.1732
   24.510    8.7098
   24.525    8.9731
   24.540    8.7625
   24.555    8.9521
   24.570    8.8362
   24.585    8.3834
   24.600    8.6572
   24.615    9.1206
   24.630    8.6677
   24.645    8.3728
   24.660    8.6151
   24.675    8.8573
   24.690    8.4992
   24.705    8.7309
   24.720    8.6256
   24.735    8.5413
   24.750    8.7836
   24.765    8.6677
   24.780    8.7414
   24.795    8.3834
   24.810    8.6572
   24.825    8.4781
   24.840    8.6045
   24.855    8.7520
   24.870    8.1727
   24.885    8.3412
   24.900    8.5203
   24.915    8.5940
   24.930    8.8362
   24.945    8.4466
   24.960    8.9100
   24.975    8.0147
   24.990    8.2570
   25.005    8.0885
   25.020    8.2464
   25.035    8.5308
   25.050    8.5624
   25.065    8.4360
   25.080    8.3096
   25.095    8.4044
   25.110    8.6256
   25.125    8.1306
   25.140    8.3623
   25.155    8.5835
   25.170    8.6677
   25.185    8.4044
   25.200    8.2359
   25.215    8.3096
   25.230    8.2464
   25.245    7.9516
   25.260    8.2149
   25.275    7.9410
   25.290    8.2149
   25.305    8.2464
   25.320    8.5519
   25.335    8.4676
   25.350    8.5097
   25.365    8.6045
   25.380    8.3939
   25.395    8.4992
   25.410    8.2991
   25.425    8.5097
   25.440    8.5519
   25.455    8.6045
   25.470    8.3202
   25.485    8.3834
   25.500    8.2254
   25.515    8.4571
   25.530    8.3834
   25.545    8.1201
   25.560    7.9305
   25.575    8.0358
   25.590    7.8462
   25.605    7.9094
   25.620    7.8146
   25.635    7.7830
   25.650    7.9094
   25.665    8.2991
   25.680    8.5519
   25.695    8.5203
   25.710    8.1938
   25.725    7.9410
   25.740    7.5303
   25.755    7.9305
   25.770    7.9621
   25.785    7.8357
   25.800    8.2780
   25.815    8.2991
   25.830    8.1517
   25.845    8.1095
   25.860    8.4044
   25.875    7.8568
   25.890    7.9516
   25.905    8.2464
   25.920    8.5203
   25.935    8.6677
   25.950    8.3623
   25.965    7.8778
   25.980    8.1833
   25.995    7.8884
   26.010    7.9094
   26.025    8.0463
   26.040    7.5303
   26.055    8.0674
   26.070    7.9621
   26.085    7.8989
   26.100    8.1938
   26.115    8.1517
   26.130    7.9410
   26.145    8.1727
   26.160    8.1306
   26.175    8.3834
   26.190    8.2570
   26.205    7.9831
   26.220    8.1622
   26.235    8.1833
   26.250    8.2359
   26.265    8.1622
   26.280    7.8252
   26.295    7.6567
   26.310    7.8146
   26.325    8.1833
   26.340    8.0358
   26.355    7.7620
   26.370    7.7514
   26.385    7.8146
   26.400    7.8778
   26.415    8.2359
   26.430    7.8357
   26.445    7.7936
   26.460    8.0463
   26.475    7.7304
   26.490    7.9516
   26.505    8.0885
   26.520    8.3412
   26.535    7.6040
   26.550    7.8884
   26.565    7.9516
   26.580    7.8989
   26.595    7.8989
   26.610    8.1517
   26.625    7.9937
   26.640    8.0463
   26.655    8.0042
   26.670    7.1511
   26.685    7.4776
   26.700    7.7199
   26.715    7.6251
   26.730    7.8673
   26.745    7.8673
   26.760    7.7725
   26.775    8.1411
   26.790    7.9305
   26.805    8.1201
   26.820    8.0253
   26.835    7.5935
   26.850    8.3939
   26.865    8.1622
   26.880    8.0253
   26.895    7.6356
   26.910    7.6145
   26.925    7.4144
   26.940    7.7830
   26.955    8.0569
   26.970    7.4671
   26.985    7.9200
   27.000    7.8041
   27.015    7.8673
   27.030    7.6356
   27.045    7.8252
   27.060    7.8252
   27.075    7.6988
   27.090    7.4460
   27.105    8.0779
   27.120    8.3834
   27.135    8.0779
   27.150    7.7199
   27.165    7.6567
   27.180    7.6883
   27.195    7.9305
   27.210    8.1095
   27.225    8.1201
   27.240    7.5829
   27.255    7.6356
   27.270    7.7830
   27.285    7.7725
   27.300    7.8252
   27.315    7.5724
   27.330    7.4039
   27.345    7.8041
   27.360    7.6461
   27.375    7.3407
   27.390    7.5619
   27.405    7.6040
   27.420    7.6251
   27.435    8.0042
   27.450    7.9200
   27.465    7.8884
   27.480    7.9516
   27.495    7.5829
   27.510    7.7093
   27.525    7.4987
   27.540    7.9200
   27.555    8.0147
   27.570    7.6672
   27.585    7.9200
   27.600    8.1201
   27.615    7.8989
   27.630    7.9305
   27.645    7.9937
   27.660    8.0253
   27.675    7.8673
   27.690    8.0042
   27.705    7.5197
   27.720    7.8146
   27.735    7.6356
   27.750    7.6567
   27.765    7.8041
   27.780    8.1622
   27.795    7.8146
   27.810    7.7093
   27.825    7.7725
   27.840    7.7093
   27.855    7.7199
   27.870    7.5513
   27.885    7.7620
   27.900    8.0147
   27.915    7.6883
   27.930    7.6777
   27.945    7.8146
   27.960    7.2249
   27.975    7.9410
   27.990    7.3512
   28.005    7.6567
   28.020    7.9094
   28.035    7.8568
   28.050    7.8884
   28.065    7.7199
   28.080    7.6251
   28.095    7.9200
   28.110    7.7199
   28.125    7.4671
   28.140    7.6251
   28.155    8.1622
   28.170    7.8989
   28.185    7.6251
   28.200    7.6567
   28.215    7.6461
   28.230    7.0563
   28.245    7.3196
   28.260    7.6356
   28.275    7.4776
   28.290    8.0042
   28.305    8.0042
   28.320    7.5303
   28.335    7.5619
   28.350    7.7514
   28.365    7.5935
   28.380    7.8673
   28.395    7.7725
   28.410    8.1095
   28.425    8.0569
   28.440    7.3091
   28.455    7.6040
   28.470    7.7725
   28.485    8.6045
   28.500    7.9200
   28.515    7.3618
   28.530    7.7304
   28.545    7.6356
   28.560    7.6777
   28.575    7.6567
   28.590    7.5724
   28.605    7.5724
   28.620    7.9831
   28.635    7.5303
   28.650    7.5935
   28.665    7.2986
   28.680    7.2986
   28.695    7.4039
   28.710    7.3196
   28.725    7.5829
   28.740    7.7093
   28.755    7.4776
   28.770    7.6988
   28.785    7.3828
   28.800    7.3302
   28.815    7.6988
   28.830    7.4987
   28.845    7.4776
   28.860    7.7725
   28.875    7.4882
   28.890    7.4566
   28.905    7.1827
   28.920    7.2459
   28.935    7.3723
   28.950    7.2986
   28.965    7.2354
   28.980    7.6145
   28.995    7.4776
   29.010    7.4144
   29.025    7.1090
   29.040    7.1617
   29.055    7.6251
   29.070    7.3091
   29.085    7.3828
   29.100    7.2986
   29.115    7.2459
   29.130    7.2775
   29.145    7.3302
   29.160    7.0563
   29.175    7.0879
   29.190    7.5829
   29.205    7.3618
   29.220    7.1301
   29.235    7.4882
   29.250    7.2986
   29.265    7.4144
   29.280    7.2038
   29.295    7.3828
   29.310    7.3302
   29.325    7.1195
   29.340    6.9089
   29.355    6.7825
   29.370    7.3196
   29.385    7.3091
   29.400    7.0037
   29.415    7.0353
   29.430    7.6356
   29.445    7.3407
   29.460    7.5724
   29.475    7.5724
   29.490    7.3302
   29.505    7.5513
   29.520    7.3512
   29.535    7.2038
   29.550    7.6356
   29.565    7.1617
   29.580    7.3407
   29.595    7.7199
   29.610    7.6145
   29.625    7.1195
   29.640    7.4355
   29.655    6.9089
   29.670    7.2880
   29.685    7.6672
   29.700    7.3302
   29.715    7.0879
   29.730    7.3091
   29.745    7.8041
   29.760    7.3828
   29.775    6.9826
   29.790    7.0037
   29.805    7.3723
   29.820    7.3196
   29.835    7.6567
   29.850    7.3512
   29.865    7.2143
   29.880    7.8989
   29.895    7.3828
   29.910    7.5724
   29.925    7.3407
   29.940    7.3091
   29.955    6.8668
   29.970    7.0037
   29.985    7.8673
   30.000    7.7199
   30.015    7.4250
   30.030    6.9405
   30.045    7.0142
   30.060    7.4039
   30.075    7.1511
   30.090    6.9932
   30.105    7.3828
   30.120    7.0985
   30.135    6.9932
   30.150    7.1301
   30.165    7.2143
   30.180    7.2986
   30.195    7.6251
   30.210    7.3196
   30.225    7.2038
   30.240    7.3512
   30.255    7.6461
   30.270    7.2143
   30.285    7.0563
   30.300    6.8141
   30.315    7.0353
   30.330    7.3618
   30.345    7.0248
   30.360    7.4250
   30.375    7.2670
   30.390    7.4355
   30.405    6.9616
   30.420    6.8668
   30.435    7.0669
   30.450    7.2143
   30.465    7.0248
   30.480    7.3934
   30.495    7.4882
   30.510    6.8562
   30.525    6.9405
   30.540    6.9721
   30.555    7.3512
   30.570    7.2354
   30.585    7.1195
   30.600    6.9089
   30.615    6.9932
   30.630    7.0037
   30.645    6.9616
   30.660    7.3407
   30.675    7.4671
   30.690    7.0774
   30.705    7.3723
   30.720    6.8984
   30.735    7.2038
   30.750    7.0458
   30.765    7.1406
   30.780    7.0037
   30.795    7.2249
   30.810    7.2143
   30.825    7.0353
   30.840    6.9089
   30.855    6.8562
   30.870    7.1827
   30.885    7.0142
   30.900    7.0458
   30.915    7.2038
   30.930    7.3091
   30.945    7.4776
   30.960    7.3934
   30.975    7.2670
   30.990    7.3196
   31.005    7.3512
   31.020    7.0353
   31.035    6.9405
   31.050    6.8562
   31.065    6.7825
   31.080    7.1827
   31.095    7.3407
   31.110    7.1827
   31.125    6.9932
   31.140    7.0248
   31.155    7.1722
   31.170    7.5829
   31.185    7.2038
   31.200    6.9510
   31.215    7.2249
   31.230    7.1406
   31.245    6.4350
   31.260    6.8878
   31.275    7.2670
   31.290    6.8878
   31.305    7.0563
   31.320    7.2143
   31.335    7.2775
   31.350    6.8457
   31.365    6.9510
   31.380    6.9300
   31.395    7.4039
   31.410    7.2354
   31.425    7.2459
   31.440    7.3618
   31.455    7.1090
   31.470    6.7825
   31.485    6.8562
   31.500    7.0037
   31.515    7.1933
   31.530    7.4355
   31.545    7.1406
   31.560    7.0458
   31.575    6.8878
   31.590    6.4771
   31.605    6.8246
   31.620    7.1933
   31.635    7.0879
   31.650    7.3196
   31.665    7.2880
   31.680    7.2775
   31.695    7.1090
   31.710    6.9194
   31.725    6.8668
   31.740    6.7720
   31.755    7.3302
   31.770    7.0458
   31.785    7.1195
   31.800    7.1090
   31.815    6.8668
   31.830    6.7299
   31.845    6.8984
   31.860    6.6667
   31.875    6.9405
   31.890    7.2249
   31.905    7.0248
   31.920    7.1511
   31.935    7.0353
   31.950    7.0563
   31.965    6.9089
   31.980    7.0458
   31.995    7.4882
   32.010    7.3512
   32.025    6.7299
   32.040    6.7088
   32.055    6.5719
   32.070    6.6772
   32.085    6.8246
   32.100    6.9089
   32.115    7.1406
   32.130    6.8457
   32.145    7.3407
   32.160    7.0563
   32.175    6.8457
   32.190    6.6351
   32.205    6.9826
   32.220    7.2775
   32.235    6.4455
   32.250    6.8562
   32.265    6.5403
   32.280    6.9932
   32.295    7.1406
   32.310    7.2775
   32.325    7.0774
   32.340    6.9194
   32.355    6.7930
   32.370    6.9194
   32.385    6.9194
   32.400    7.0037
   32.415    6.8036
   32.430    7.0458
   32.445    6.8773
   32.460    6.6140
   32.475    6.6561
   32.490    6.7299
   32.505    6.6983
   32.520    6.7404
   32.535    6.7930
   32.550    7.0669
   32.565    7.2880
   32.580    7.0037
   32.595    6.9932
   32.610    6.9721
   32.625    6.9405
   32.640    6.8878
   32.655    6.9510
   32.670    7.0142
   32.685    7.0563
   32.700    6.8773
   32.715    6.8246
   32.730    7.3512
   32.745    6.8878
   32.760    6.5192
   32.775    6.4455
   32.790    6.6561
   32.805    6.6351
   32.820    6.6140
   32.835    6.7404
   32.850    6.4982
   32.865    6.5719
   32.880    6.8352
   32.895    6.8773
   32.910    6.7825
   32.925    6.8036
   32.940    6.6877
   32.955    6.5087
   32.970    6.6561
   32.985    6.7720
   33.000    6.8457
   33.015    6.7193
   33.030    6.9300
   33.045    7.0037
   33.060    6.7088
   33.075    6.5719
   33.090    6.5613
   33.105    6.9300
   33.120    6.6140
   33.135    6.7193
   33.150    6.5508
   33.165    6.7509
   33.180    7.0774
   33.195    6.5613
   33.210    6.6456
   33.225    6.8878
   33.240    6.6456
   33.255    6.5087
   33.270    6.3296
   33.285    6.2875
   33.300    6.4982
   33.315    6.9405
   33.330    6.4982
   33.345    6.8246
   33.360    6.8562
   33.375    6.4666
   33.390    6.5087
   33.405    6.2349
   33.420    6.4982
   33.435    6.6983
   33.450    6.7193
   33.465    6.9089
   33.480    6.6877
   33.495    6.8773
   33.510    6.3402
   33.525    6.3612
   33.540    6.6561
   33.555    6.9194
   33.570    6.7825
   33.585    6.4455
   33.600    6.5087
   33.615    6.6667
   33.630    6.7720
   33.645    6.7404
   33.660    6.2138
   33.675    6.5403
   33.690    6.6351
   33.705    6.6772
   33.720    6.6983
   33.735    6.6245
   33.750    6.6561
   33.765    6.5824
   33.780    6.4560
   33.795    6.7615
   33.810    6.3402
   33.825    6.6561
   33.840    6.7509
   33.855    6.6140
   33.870    6.4876
   33.885    6.6983
   33.900    6.4034
   33.915    6.4455
   33.930    6.6351
   33.945    6.5508
   33.960    6.3086
   33.975    6.0979
   33.990    6.1190
   34.005    6.1295
   34.020    6.5298
   34.035    6.5508
   34.050    6.4350
   34.065    7.0985
   34.080    6.3612
   34.095    6.4244
   34.110    6.8141
   34.125    6.7193
   34.140    6.6035
   34.155    6.5929
   34.170    6.4982
   34.185    6.2559
   34.200    6.3296
   34.215    6.2454
   34.230    6.5719
   34.245    6.3507
   34.260    6.2981
   34.275    6.5192
   34.290    6.4560
   34.305    6.5508
   34.320    6.5719
   34.335    6.2349
   34.350    5.8241
   34.365    6.5087
   34.380    6.4350
   34.395    6.6561
   34.410    6.3928
   34.425    6.2349
   34.440    6.6983
   34.455    6.5824
   34.470    6.2454
   34.485    6.3507
   34.500    6.4455
   34.515    6.2770
   34.530    6.6035
   34.545    6.8036
   34.560    6.2665
   34.575    6.3612
   34.590    6.7509
   34.605    6.4350
   34.620    6.2033
   34.635    6.5403
   34.650    6.2138
   34.665    6.7299
   34.680    6.5613
   34.695    6.8562
   34.710    6.6140
   34.725    6.2349
   34.740    6.3402
   34.755    6.5403
   34.770    6.8246
   34.785    6.5192
   34.800    6.2770
   34.815    6.2033
   34.830    6.3718
   34.845    6.6140
   34.860    6.6351
   34.875    6.7930
   34.890    6.7509
   34.905    6.6561
   34.920    6.5403
   34.935    6.4560
   34.950    6.4876
   34.965    6.5508
   34.980    6.7720
   34.995    6.5508
   35.010    6.4350
   35.025    6.5298
   35.040    6.0769
   35.055    6.5298
   35.070    6.2243
   35.085    6.0242
   35.100    6.2875
   35.115    6.3928
   35.130    5.9610
   35.145    5.9400
   35.160    6.3823
   35.175    6.2138
   35.190    6.0558
   35.205    6.2138
   35.220    6.4666
   35.235    6.5508
   35.250    6.5192
   35.265    6.1295
   35.280    6.7930
   35.295    6.3296
   35.310    6.3296
   35.325    6.2243
   35.340    6.1295
   35.355    6.2770
   35.370    6.2559
   35.385    6.5613
   35.400    6.1717
   35.415    5.9610
   35.430    6.4560
   35.445    6.4876
   35.460    6.1927
   35.475    6.3507
   35.490    6.2243
   35.505    6.2243
   35.520    6.4139
   35.535    6.1611
   35.550    6.2243
   35.565    6.0032
   35.580    5.9610
   35.595    6.2875
   35.610    6.3191
   35.625    6.2243
   35.640    6.6877
   35.655    6.3823
   35.670    6.0664
   35.685    5.8978
   35.700    6.4139
   35.715    6.1717
   35.730    6.5298
   35.745    6.4139
   35.760    6.3191
   35.775    6.5719
   35.790    6.4560
   35.805    6.0558
   35.820    6.2033
   35.835    6.2875
   35.850    5.8873
   35.865    6.1085
   35.880    6.3191
   35.895    6.2454
   35.910    6.1295
   35.925    6.2981
   35.940    6.0769
   35.955    6.0979
   35.970    6.2981
   35.985    6.2770
   36.000    6.0137
   36.015    6.0664
   36.030    6.3402
   36.045    5.9294
   36.060    5.7609
   36.075    5.9400
   36.090    6.1085
   36.105    6.4771
   36.120    6.7088
   36.135    6.5403
   36.150    6.1506
   36.165    6.0979
   36.180    6.7193
   36.195    6.5929
   36.210    6.4350
   36.225    6.4455
   36.240    6.3086
   36.255    6.2454
   36.270    6.5403
   36.285    6.3823
   36.300    6.3296
   36.315    6.0032
   36.330    6.3191
   36.345    5.8768
   36.360    5.9821
   36.375    6.6035
   36.390    6.3296
   36.405    6.0558
   36.420    6.0453
   36.435    6.1401
   36.450    6.1401
   36.465    6.0032
   36.480    6.2033
   36.495    5.7925
   36.510    6.0453
   36.525    6.1611
   36.540    6.1506
   36.555    6.2454
   36.570    6.3402
   36.585    6.2665
   36.600    6.7404
   36.615    6.5298
   36.630    6.2033
   36.645    6.1611
   36.660    5.8347
   36.675    5.9926
   36.690    6.4350
   36.705    6.2665
   36.720    6.1506
   36.735    6.1927
   36.750    6.0137
   36.765    5.8768
   36.780    6.0874
   36.795    6.0769
   36.810    6.4876
   36.825    6.2138
   36.840    6.4034
   36.855    6.5298
   36.870    5.8136
   36.885    5.6872
   36.900    6.2349
   36.915    6.0453
   36.930    5.9716
   36.945    6.1822
   36.960    5.9926
   36.975    6.1401
   36.990    6.1927
   37.005    6.2349
   37.020    6.5929
   37.035    6.3402
   37.050    6.2770
   37.065    6.2138
   37.080    6.6561
   37.095    6.2770
   37.110    5.7925
   37.125    6.1295
   37.140    6.0558
   37.155    6.3928
   37.170    6.4244
   37.185    6.3718
   37.200    5.9926
   37.215    6.3402
   37.230    6.4139
   37.245    6.4876
   37.260    6.2138
   37.275    6.2559
   37.290    6.1295
   37.305    6.3823
   37.320    6.1927
   37.335    6.1506
   37.350    5.8978
   37.365    6.1611
   37.380    5.8662
   37.395    6.2770
   37.410    6.0664
   37.425    6.2033
   37.440    6.1927
   37.455    6.4244
   37.470    6.3612
   37.485    6.2559
   37.500    5.9400
   37.515    6.1190
   37.530    6.2770
   37.545    6.3191
   37.560    6.2770
   37.575    6.0979
   37.590    5.8978
   37.605    6.0242
   37.620    5.9084
   37.635    6.1927
   37.650    5.9716
   37.665    6.1822
   37.680    6.0769
   37.695    5.6240
   37.710    6.1085
   37.725    6.4139
   37.740    6.2454
   37.755    6.1190
   37.770    5.9821
   37.785    6.0769
   37.800    6.1401
   37.815    5.9926
   37.830    6.1506
   37.845    6.0874
   37.860    5.9084
   37.875    6.1927
   37.890    5.9294
   37.905    6.4034
   37.920    6.2665
   37.935    5.9294
   37.950    5.8978
   37.965    6.2770
   37.980    6.2243
   37.995    5.8452
   38.010    6.1190
   38.025    5.8768
   38.040    5.8241
   38.055    6.2033
   38.070    6.0242
   38.085    5.9084
   38.100    6.1822
   38.115    5.9505
   38.130    5.7925
   38.145    6.0348
   38.160    5.8557
   38.175    5.6977
   38.190    5.8978
   38.205    5.8031
   38.220    6.0664
   38.235    6.1085
   38.250    6.1717
   38.265    5.6977
   38.280    6.2770
   38.295    6.1401
   38.310    6.0348
   38.325    6.2559
   38.340    6.1506
   38.355    6.0032
   38.370    6.0242
   38.385    5.9926
   38.400    5.9505
   38.415    6.1822
   38.430    6.1506
   38.445    6.0979
   38.460    6.2559
   38.475    6.2665
   38.490    6.0032
   38.505    5.8662
   38.520    6.1190
   38.535    6.1506
   38.550    6.2138
   38.565    6.4139
   38.580    5.8978
   38.595    5.9926
   38.610    6.4455
   38.625    6.1190
   38.640    6.1927
   38.655    6.5087
   38.670    6.2033
   38.685    6.1611
   38.700    6.0874
   38.715    5.6872
   38.730    5.9400
   38.745    6.0348
   38.760    6.0769
   38.775    5.8452
   38.790    5.5819
   38.805    5.6872
   38.820    5.9084
   38.835    5.6767
   38.850    6.0558
   38.865    5.8557
   38.880    6.1085
   38.895    5.8347
   38.910    5.6661
   38.925    5.7925
   38.940    6.3191
   38.955    6.1611
   38.970    5.9294
   38.985    5.9084
   39.000    6.2138
   39.015    6.0137
   39.030    6.1822
   39.045    6.3086
   39.060    6.0453
   39.075    6.4666
   39.090    6.1611
   39.105    6.4139
   39.120    6.3191
   39.135    6.2981
   39.150    5.9400
   39.165    6.1506
   39.180    5.9294
   39.195    5.8662
   39.210    6.0137
   39.225    6.3086
   39.240    6.2454
   39.255    6.2033
   39.270    5.9505
   39.285    6.0348
   39.300    6.3296
   39.315    6.1611
   39.330    5.9716
   39.345    5.7925
   39.360    6.0032
   39.375    5.9610
   39.390    5.9610
   39.405    5.5924
   39.420    5.9400
   39.435    6.2349
   39.450    6.2770
   39.465    6.1611
   39.480    6.2243
   39.495    6.1085
   39.510    6.0874
   39.525    6.0032
   39.540    5.7399
   39.555    6.1295
   39.570    6.2454
   39.585    6.1401
   39.600    6.1611
   39.615    6.1190
   39.630    6.1611
   39.645    5.9926
   39.660    6.1927
   39.675    6.0137
   39.690    5.9821
   39.705    6.0664
   39.720    6.1085
   39.735    6.0032
   39.750    5.8873
   39.765    5.9926
   39.780    6.3507
   39.795    6.0137
   39.810    5.6977
   39.825    5.9926
   39.840    5.9821
   39.855    5.7609
   39.870    6.3296
   39.885    6.1085
   39.900    5.9716
   39.915    5.9505
   39.930    6.1190
   39.945    5.8452
   39.960    5.8136
   39.975    6.1611
   39.990    6.2875
