    1.500   43.7283
    1.515   43.0332
    1.530   44.4234
    1.545   44.4760
    1.560   44.0337
    1.575   43.0964
    1.590   42.6962
    1.605   42.0432
    1.620   42.0326
    1.635   40.7372
    1.650   39.4839
    1.665   39.7156
    1.680   38.3360
    1.695   39.0837
    1.710   38.3886
    1.725   38.6625
    1.740   37.4302
    1.755   37.0195
    1.770   37.0300
    1.785   36.7983
    1.800   36.3876
    1.815   36.8404
    1.830   35.9663
    1.845   35.9452
    1.860   35.8610
    1.875   35.5661
    1.890   35.5134
    1.905   34.9342
    1.920   34.0179
    1.935   34.1548
    1.950   34.5761
    1.965   33.2807
    1.980   33.5861
    1.995   33.7020
    2.010   33.7125
    2.025   33.4071
    2.040   34.0600
    2.055   33.7967
    2.070   33.5334
    2.085   33.0384
    2.100   32.2275
    2.115   32.3539
    2.130   32.3644
    2.145   32.8594
    2.160   32.1116
    2.175   32.9015
    2.190   33.3228
    2.205   32.7541
    2.220   32.5645
    2.235   33.7020
    2.250   33.2596
    2.265   32.9858
    2.280   33.1859
    2.295   33.2701
    2.310   33.1016
    2.325   32.9226
    2.340   33.8283
    2.355   33.5018
    2.370   34.2285
    2.385   34.2180
    2.400   34.5445
    2.415   33.9126
    2.430   34.2601
    2.445   34.1338
    2.460   34.9447
    2.475   34.9236
    2.490   36.0821
    2.505   36.2401
    2.520   36.5034
    2.535   36.5561
    2.550   37.6409
    2.565   37.1669
    2.580   36.9352
    2.595   37.8304
    2.610   39.1680
    2.625   39.6419
    2.640   40.4739
    2.655   40.1474
    2.670   40.3792
    2.685   41.2217
    2.700   42.8752
    2.715   42.7909
    2.730   43.9179
    2.745   44.8341
    2.760   44.7815
    2.775   46.4771
    2.790   46.0979
    2.805   47.6251
    2.820   49.1101
    2.835   47.8462
    2.850   49.9315
    2.865   51.3533
    2.880   52.6804
    2.895   52.7751
    2.910   53.2280
    2.925   55.5134
    2.940   57.3144
    2.955   58.2622
    2.970   59.6419
    2.985   60.6424
    3.000   63.0648
    3.015   64.7920
    3.030   65.5714
    3.045   66.2559
    3.060   70.1843
    3.075   72.1327
    3.090   73.2807
    3.105   76.9142
    3.120   80.3476
    3.135   82.2117
    3.150   84.6972
    3.165   86.8141
    3.180   90.8268
    3.195   94.0495
    3.210   97.9990
    3.225  102.1906
    3.240  105.3502
    3.255  111.1532
    3.270  115.0606
    3.285  119.9473
    3.300  125.3713
    3.315  130.2686
    3.330  141.2954
    3.345  146.9510
    3.360  154.0495
    3.375  163.3386
    3.390  173.2280
    3.405  182.5909
    3.420  189.3523
    3.435  196.7878
    3.450  199.6314
    3.465  199.2944
    3.480  193.7757
    3.495  183.8441
    3.510  169.0153
    3.525  152.0906
    3.540  134.3128
    3.555  118.6835
    3.570  106.4244
    3.585   96.0295
    3.600   88.4887
    3.615   82.6330
    3.630   76.7667
    3.645   73.8178
    3.660   72.0906
    3.675   70.8689
    3.690   70.1632
    3.705   69.8473
    3.720   68.4571
    3.735   67.9726
    3.750   68.8468
    3.765   71.1427
    3.780   70.7846
    3.795   70.3844
    3.810   71.1954
    3.825   71.8799
    3.840   74.0811
    3.855   76.2191
    3.870   78.0200
    3.885   78.6098
    3.900   78.4834
    3.915   80.2422
    3.930   81.1059
    3.945   82.9911
    3.960   83.7599
    3.975   85.3818
    3.990   85.7715
    4.005   86.4034
    4.020   86.1190
    4.035   86.5719
    4.050   84.8131
    4.065   85.6240
    4.080   83.6967
    4.095   81.6956
    4.110   80.0843
    4.125   77.6830
    4.140   75.0606
    4.155   73.6809
    4.170   70.3318
    4.185   67.0458
    4.200   65.1080
    4.215   60.9479
    4.230   56.2612
    4.245   53.5650
    4.260   51.1954
    4.275   47.2670
    4.290   44.8657
    4.305   42.1696
    4.320   39.7262
    4.335   36.6930
    4.350   34.6919
    4.365   32.8805
    4.380   31.6588
    4.395   29.7630
    4.410   27.8462
    4.425   26.0242
    4.440   23.9810
    4.455   23.2649
    4.470   23.3702
    4.485   21.9063
    4.500   20.6740
    4.515   20.1264
    4.530   19.7367
    4.545   18.7678
    4.560   18.0727
    4.575   17.5671
    4.590   17.1248
    4.605   16.7878
    4.620   16.1137
    4.635   15.9347
    4.650   15.6082
    4.665   15.3870
    4.680   15.1975
    4.695   15.1343
    4.710   14.6077
    4.725   13.9126
    4.740   14.0390
    4.755   13.1016
    4.770   13.8178
    4.785   13.7651
    4.800   13.9442
    4.815   12.9121
    4.830   12.5645
    4.845   12.2591
    4.860   12.6382
    4.875   12.6277
    4.890   12.3328
    4.905   12.7014
    4.920   12.3749
    4.935   12.4803
    4.950   11.7114
    4.965   11.5534
    4.980   11.5850
    4.995   11.4692
    5.010   11.1216
    5.025   11.2796
    5.040   10.8268
    5.055   11.5640
    5.070   11.4060
    5.085   11.4376
    5.100   11.1954
    5.115   10.5740
    5.130   11.1006
    5.145   10.7320
    5.160   10.4792
    5.175   10.6793
    5.190   10.6793
    5.205   10.6266
    5.220   10.5424
    5.235   10.6793
    5.250   10.4371
    5.265   10.3318
    5.280   10.3844
    5.295   10.2686
    5.310   10.3633
    5.325   10.4476
    5.340   10.3739
    5.355    9.8999
    5.370   10.0053
    5.385   10.1632
    5.400   10.2475
    5.415   10.4265
    5.430   10.2159
    5.445    9.9210
    5.460   10.2159
    5.475    9.8789
    5.490    9.5524
    5.505    9.9947
    5.520    9.8578
    5.535    9.7736
    5.550    9.5313
    5.565    9.7314
    5.580    9.7525
    5.595    9.7209
    5.610    9.6472
    5.625    9.6051
    5.640    9.4050
    5.655    9.0153
    5.670    9.6472
    5.685    9.2470
    5.700    9.5735
    5.715    9.4260
    5.730    9.4681
    5.745    9.4260
    5.760    9.1627
    5.775    9.1627
    5.790    9.2154
    5.805    9.3734
    5.820    9.8789
    5.835    9.5945
    5.850    9.3523
    5.865    9.4997
    5.880    9.5103
    5.895    9.2575
    5.910    9.2996
    5.925    9.4260
    5.940    9.3628
    5.955    9.1417
    5.970    9.2048
    5.985    9.2786
    6.000    9.4365
    6.015    9.0574
    6.030    9.3418
    6.045    9.2259
    6.060    9.5208
    6.075    9.3523
    6.090    9.2470
    6.105    9.3734
    6.120    9.2048
    6.135    9.3207
    6.150    9.2154
    6.165    9.1522
    6.180    9.2891
    6.195    9.8052
    6.210    9.6261
    6.225    9.3207
    6.240    9.8684
    6.255    9.7420
    6.270   10.2054
    6.285   10.4897
    6.300   10.1106
    6.315    9.7209
    6.330    9.7104
    6.345    9.5735
    6.360   10.0369
    6.375    9.7841
    6.390   10.2159
    6.405   10.3528
    6.420   10.2791
    6.435   10.6161
    6.450   10.7425
    6.465   10.3739
    6.480   10.4792
    6.495   11.2586
    6.510   11.0163
    6.525   11.0269
    6.540   11.4797
    6.555   11.6061
    6.570   11.9115
    6.585   11.8062
    6.600   11.4903
    6.615   12.2696
    6.630   12.8067
    6.645   12.5224
    6.660   12.9542
    6.675   13.1859
    6.690   13.8810
    6.705   14.1022
    6.720   14.5550
    6.735   14.6182
    6.750   15.3660
    6.765   14.9974
    6.780   15.9874
    6.795   16.4402
    6.810   17.4934
    6.825   17.8936
    6.840   18.8731
    6.855   19.5998
    6.870   21.2954
    6.885   22.3802
    6.900   23.8652
    6.915   23.4018
    6.930   24.1180
    6.945   25.6661
    6.960   25.5082
    6.975   25.6345
    6.990   24.3286
    7.005   24.2865
    7.020   22.8541
    7.035   20.4318
    7.050   19.2206
    7.065   18.5361
    7.080   17.0195
    7.095   15.3870
    7.110   15.0606
    7.125   13.9758
    7.140   13.7335
    7.155   13.2385
    7.170   12.2696
    7.185   11.8799
    7.200   11.8273
    7.215   12.0590
    7.230   11.6904
    7.245   11.6272
    7.260   11.1954
    7.275   11.2270
    7.290   11.8062
    7.305   11.5008
    7.320   11.0479
    7.335   11.1216
    7.350   10.6688
    7.365   10.8899
    7.380   10.3423
    7.395   10.0685
    7.410   10.6372
    7.425   10.7636
    7.440   11.0479
    7.455   11.0479
    7.470   10.5319
    7.485   10.8689
    7.500   10.6477
    7.515   10.5845
    7.530   10.6266
    7.545   10.8899
    7.560   10.8899
    7.575   11.0269
    7.590   10.8583
    7.605   11.1638
    7.620   11.0374
    7.635   10.8478
    7.650   11.4376
    7.665   11.1954
    7.680   11.3533
    7.695   11.3849
    7.710   11.9221
    7.725   11.5956
    7.740   11.5640
    7.755   11.6061
    7.770   12.1222
    7.785   12.6909
    7.800   12.2801
    7.815   12.3644
    7.830   12.6382
    7.845   12.7014
    7.860   12.7541
    7.875   12.7541
    7.890   12.8594
    7.905   13.1227
    7.920   13.1964
    7.935   13.5334
    7.950   13.2385
    7.965   13.5440
    7.980   13.3544
    7.995   13.1227
    8.010   13.4387
    8.025   13.9126
    8.040   13.9758
    8.055   13.2385
    8.070   13.8389
    8.085   13.9337
    8.100   13.9968
    8.115   14.1232
    8.130   14.6814
    8.145   14.2496
    8.160   14.5972
    8.175   14.3339
    8.190   14.2812
    8.205   13.8178
    8.220   14.0916
    8.235   14.7025
    8.250   14.7762
    8.265   14.4918
    8.280   14.1443
    8.295   14.1022
    8.310   13.8599
    8.325   14.2075
    8.340   13.6388
    8.355   14.1759
    8.370   14.2180
    8.385   13.6177
    8.400   13.1964
    8.415   13.0911
    8.430   13.0384
    8.445   12.7330
    8.460   12.8699
    8.475   12.7120
    8.490   12.8594
    8.505   13.3860
    8.520   12.3539
    8.535   12.6698
    8.550   12.3539
    8.565   12.3855
    8.580   12.0695
    8.595   11.7641
    8.610   11.5745
    8.625   11.8378
    8.640   11.1216
    8.655   11.1216
    8.670   10.5845
    8.685   10.8689
    8.700   11.3428
    8.715   11.1848
    8.730   10.1948
    8.745   10.6266
    8.760    9.6893
    8.775    9.8578
    8.790   10.2264
    8.805   10.3844
    8.820    9.8894
    8.835    9.9631
    8.850    9.6998
    8.865    9.2680
    8.880    9.4787
    8.895    9.6472
    8.910    9.2048
    8.925    9.4365
    8.940    9.7314
    8.955    9.2786
    8.970    9.2891
    8.985    9.3418
    9.000    9.4155
    9.015    9.3207
    9.030    9.3839
    9.045    9.5103
    9.060    8.8889
    9.075    8.6467
    9.090    9.3418
    9.105    9.0363
    9.120    9.3523
    9.135    9.2786
    9.150    9.0258
    9.165    8.6572
    9.180    8.6151
    9.195    8.8257
    9.210    8.7204
    9.225    8.5729
    9.240    8.3412
    9.255    8.5835
    9.270    8.7941
    9.285    8.3939
    9.300    8.5413
    9.315    8.6783
    9.330    8.7098
    9.345    9.0047
    9.360    8.6361
    9.375    8.6361
    9.390    8.8152
    9.405    8.8784
    9.420    8.2149
    9.435    8.4676
    9.450    8.6993
    9.465    8.3939
    9.480    8.0147
    9.495    7.9305
    9.510    8.6993
    9.525    8.6361
    9.540    8.5624
    9.555    8.6256
    9.570    8.6361
    9.585    8.3834
    9.600    8.4150
    9.615    8.3834
    9.630    8.4887
    9.645    8.2991
    9.660    8.2991
    9.675    8.8784
    9.690    8.8046
    9.705    8.2149
    9.720    8.3096
    9.735    8.5519
    9.750    8.1201
    9.765    7.7936
    9.780    8.4360
    9.795    8.7098
    9.810    8.7941
    9.825    8.0042
    9.840    8.2570
    9.855    8.1411
    9.870    8.3623
    9.885    8.2886
    9.900    8.3518
    9.915    8.3096
    9.930    8.3939
    9.945    8.2886
    9.960    8.1833
    9.975    8.3623
    9.990    8.6572
   10.005    8.8362
   10.020    8.5729
   10.035    8.4676
   10.050    8.6783
   10.065    8.7414
   10.080    7.8462
   10.095    8.2043
   10.110    8.5729
   10.125    8.5308
   10.140    8.3834
   10.155    8.3202
   10.170    8.3412
   10.185    8.5729
   10.200    8.6467
   10.215    8.6677
   10.230    8.4992
   10.245    8.3518
   10.260    8.5940
   10.275    8.6045
   10.290    8.8784
   10.305    8.4992
   10.320    8.6361
   10.335    8.3939
   10.350    8.9415
   10.365    9.0363
   10.380    9.1101
   10.395    9.0995
   10.410    8.6361
   10.425    9.0469
   10.440    9.4997
   10.455    9.3207
   10.470    9.2259
   10.485    9.5629
   10.500    9.2470
   10.515    9.3523
   10.530    8.9100
   10.545    8.8257
   10.560    8.6783
   10.575    9.0363
   10.590    8.9626
   10.605    8.3202
   10.620    8.3728
   10.635    8.6677
   10.650    8.0990
   10.665    8.5097
   10.680    8.5308
   10.695    8.5519
   10.710    8.3623
   10.725    8.9942
   10.740    8.7625
   10.755    8.0779
   10.770    8.2570
   10.785    8.5519
   10.800    8.2359
   10.815    8.1306
   10.830    8.0042
   10.845    8.3518
   10.860    8.6888
   10.875    8.3939
   10.890    7.7199
   10.905    8.0358
   10.920    8.3096
   10.935    8.0990
   10.950    8.0463
   10.965    8.0674
   10.980    8.5940
   10.995    8.8362
   11.010    8.4571
   11.025    8.0253
   11.040    8.7309
   11.055    8.0990
   11.070    8.0990
   11.085    7.6988
   11.100    7.8041
   11.115    8.1201
   11.130    8.2780
   11.145    8.4992
   11.160    8.2149
   11.175    8.1727
   11.190    8.4150
   11.205    8.2886
   11.220    8.6151
   11.235    8.2780
   11.250    8.3202
   11.265    8.1938
   11.280    8.3307
   11.295    8.2149
   11.310    8.3518
   11.325    8.1201
   11.340    8.1938
   11.355    8.2043
   11.370    8.1727
   11.385    8.3412
   11.400    8.7204
   11.415    8.4781
   11.430    8.0779
   11.445    8.4571
   11.460    8.4992
   11.475    8.3728
   11.490    8.1517
   11.505    8.3834
   11.520    8.1833
   11.535    8.7309
   11.550    8.7204
   11.565    8.2780
   11.580    8.4992
   11.595    8.3518
   11.610    8.4887
   11.625    8.2780
   11.640    8.6256
   11.655    8.7309
   11.670    8.5729
   11.685    8.0779
   11.700    7.9410
   11.715    8.1095
   11.730    8.4571
   11.745    8.2886
   11.760    8.5729
   11.775    8.3834
   11.790    8.8152
   11.805    8.5203
   11.820    8.2991
   11.835    8.4676
   11.850    8.9205
   11.865    8.6993
   11.880    8.7414
   11.895    8.8046
   11.910    8.7625
   11.925    8.6888
   11.940    8.5835
   11.955    8.7098
   11.970    8.3939
   11.985    8.4255
   12.000    8.8889
   12.015    9.2259
   12.030    8.5413
   12.045    8.2464
   12.060    9.0153
   12.075    9.1101
   12.090    9.2154
   12.105    8.8468
   12.120    8.5940
   12.135    8.8362
   12.150    8.8152
   12.165    9.1417
   12.180    8.9100
   12.195    8.7941
   12.210    9.0153
   12.225    8.9205
   12.240    8.6993
   12.255    8.7730
   12.270    8.7309
   12.285    8.9100
   12.300    8.9415
   12.315    9.2259
   12.330    8.8152
   12.345    8.6467
   12.360    8.8784
   12.375    9.3628
   12.390    8.7204
   12.405    9.0363
   12.420    8.9521
   12.435    9.2891
   12.450    8.7836
   12.465    8.7941
   12.480    8.5519
   12.495    9.3839
   12.510    9.5419
   12.525    9.2048
   12.540    9.0890
   12.555    9.2470
   12.570    8.5413
   12.585    9.1943
   12.600    9.0363
   12.615    8.6783
   12.630    8.6888
   12.645    8.6783
   12.660    8.8257
   12.675    9.0574
   12.690    8.9310
   12.705    9.6893
   12.720    9.2154
   12.735    8.6888
   12.750    8.8362
   12.765    8.9837
   12.780    8.9626
   12.795    8.6888
   12.810    9.1627
   12.825    8.3518
   12.840    8.1833
   12.855    8.5729
   12.870    8.8468
   12.885    8.7836
   12.900    9.0679
   12.915    8.6467
   12.930    8.7414
   12.945    9.0258
   12.960    8.9415
   12.975    8.5729
   12.990    8.8362
   13.005    8.6993
   13.020    8.4466
   13.035    8.7941
   13.050    8.7836
   13.065    8.4781
   13.080    8.6572
   13.095    8.9626
   13.110    8.7098
   13.125    8.5940
   13.140    8.4360
   13.155    8.4992
   13.170    8.8468
   13.185    8.6572
   13.200    8.3096
   13.215    8.5519
   13.230    8.5940
   13.245    9.0047
   13.260    8.5519
   13.275    8.4781
   13.290    8.3202
   13.305    8.5519
   13.320    8.6151
   13.335    8.7098
   13.350    8.4992
   13.365    8.2886
   13.380    8.5308
   13.395    8.7098
   13.410    8.6572
   13.425    8.8046
   13.440    8.0358
   13.455    8.1306
   13.470    8.7625
   13.485    8.4360
   13.500    8.1727
   13.515    8.2780
   13.530    8.3623
   13.545    8.6572
   13.560    8.4466
   13.575    8.6783
   13.590    8.4466
   13.605    8.6256
   13.620    8.6888
   13.635    8.2043
   13.650    8.5940
   13.665    8.5624
   13.680    8.3412
   13.695    8.5624
   13.710    8.0779
   13.725    7.9410
   13.740    8.0042
   13.755    8.2780
   13.770    8.5413
   13.785    8.5624
   13.800    8.7625
   13.815    8.1727
   13.830    8.6467
   13.845    8.2464
   13.860    8.4992
   13.875    8.3307
   13.890    8.3096
   13.905    8.4360
   13.920    8.4992
   13.935    8.1306
   13.950    8.5624
   13.965    8.8046
   13.980    8.6045
   13.995    8.3939
   14.010    8.4150
   14.025    8.3518
   14.040    8.4044
   14.055    8.1411
   14.070    8.5519
   14.085    8.2359
   14.100    8.0674
   14.115    8.2359
   14.130    8.4255
   14.145    8.2675
   14.160    8.2464
   14.175    8.3412
   14.190    8.5624
   14.205    8.4992
   14.220    8.0779
   14.235    7.8884
   14.250    8.3939
   14.265    8.5835
   14.280    8.0779
   14.295    8.2780
   14.310    8.3834
   14.325    8.0990
   14.340    8.2464
   14.355    8.2359
   14.370    7.6777
   14.385    7.7830
   14.400    8.2359
   14.415    8.4676
   14.430    8.7941
   14.445    8.3307
   14.460    8.1095
   14.475    8.0674
   14.490    8.1622
   14.505    8.0147
   14.520    8.3202
   14.535    8.6045
   14.550    8.3728
   14.565    8.4044
   14.580    8.5413
   14.595    8.0358
   14.610    8.3307
   14.625    8.4150
   14.640    7.8989
   14.655    8.2254
   14.670    8.4571
   14.685    8.1201
   14.700    7.7620
   14.715    8.0885
   14.730    8.0990
   14.745    7.9831
   14.760    8.0253
   14.775    7.8778
   14.790    8.2254
   14.805    8.2359
   14.820    7.9831
   14.835    7.7936
   14.850    8.1095
   14.865    8.1411
   14.880    8.1938
   14.895    7.9516
   14.910    8.3518
   14.925    8.2254
   14.940    8.4360
   14.955    8.3307
   14.970    7.8884
   14.985    7.6883
   15.000    8.2780
   15.015    7.9937
   15.030    8.3728
   15.045    8.2991
   15.060    7.8252
   15.075    7.7936
   15.090    7.6567
   15.105    8.2043
   15.120    7.9937
   15.135    7.7409
   15.150    8.0358
   15.165    7.9094
   15.180    8.4150
   15.195    8.1727
   15.210    8.0358
   15.225    8.3518
   15.240    8.2570
   15.255    7.8989
   15.270    8.4781
   15.285    7.8357
   15.300    8.1095
   15.315    8.2149
   15.330    8.1938
   15.345    8.2886
   15.360    8.2570
   15.375    8.2991
   15.390    8.4571
   15.405    7.8989
   15.420    8.1095
   15.435    8.2991
   15.450    7.8884
   15.465    7.9831
   15.480    8.1306
   15.495    8.0463
   15.510    8.2464
   15.525    8.3939
   15.540    8.4150
   15.555    8.0885
   15.570    8.1517
   15.585    8.2991
   15.600    7.9410
   15.615    8.3518
   15.630    8.3307
   15.645    8.3412
   15.660    8.2675
   15.675    8.2780
   15.690    8.3939
   15.705    8.4150
   15.720    8.7414
   15.735    8.5729
   15.750    8.2043
   15.765    8.5519
   15.780    8.2675
   15.795    8.2780
   15.810    8.0042
   15.825    8.4887
   15.840    8.3728
   15.855    8.1938
   15.870    7.8989
   15.885    8.1622
   15.900    8.5519
   15.915    8.4044
   15.930    8.3939
   15.945    8.1833
   15.960    8.6467
   15.975    8.2043
   15.990    8.3412
   16.005    8.2780
   16.020    8.0569
   16.035    8.4992
   16.050    8.7204
   16.065    8.1727
   16.080    8.0042
   16.095    8.1306
   16.110    8.1201
   16.125    8.0253
   16.140    7.8462
   16.155    8.3096
   16.170    8.0253
   16.185    8.2886
   16.200    8.1938
   16.215    8.2464
   16.230    7.9410
   16.245    7.9937
   16.260    8.0463
   16.275    8.2991
   16.290    7.8146
   16.305    7.8146
   16.320    8.3939
   16.335    8.3939
   16.350    7.9410
   16.365    8.1411
   16.380    7.8778
   16.395    8.3518
   16.410    8.6888
   16.425    8.0779
   16.440    8.0569
   16.455    8.1095
   16.470    8.4150
   16.485    8.1411
   16.500    8.0569
   16.515    8.0674
   16.530    7.8673
   16.545    7.7725
   16.560    8.0674
   16.575    8.6045
   16.590    8.2675
   16.605    8.3307
   16.620    7.8462
   16.635    7.9410
   16.650    7.8357
   16.665    7.8673
   16.680    7.9937
   16.695    7.8778
   16.710    7.8673
   16.725    7.9094
   16.740    7.9094
   16.755    8.0042
   16.770    7.7199
   16.785    7.3196
   16.800    7.8462
   16.815    8.1938
   16.830    8.3728
   16.845    8.0358
   16.860    8.1833
   16.875    7.5829
   16.890    7.9726
   16.905    7.9937
   16.920    8.1306
   16.935    8.0358
   16.950    8.0569
   16.965    8.0569
   16.980    7.8989
   16.995    7.9726
   17.010    7.7514
   17.025    8.0990
   17.040    8.3939
   17.055    8.1095
   17.070    7.7725
   17.085    7.8357
   17.100    8.4676
   17.115    8.2254
   17.130    8.3728
   17.145    8.0253
   17.160    7.7304
   17.175    8.1727
   17.190    8.3728
   17.205    8.0358
   17.220    7.6040
   17.235    8.0674
   17.250    7.7830
   17.265    8.3096
   17.280    8.0358
   17.295    7.7199
   17.310    7.9410
   17.325    8.0779
   17.340    8.0253
   17.355    8.4360
   17.370    7.8884
   17.385    7.6251
   17.400    8.1622
   17.415    8.3202
   17.430    8.1833
   17.445    8.3728
   17.460    8.4992
   17.475    8.1727
   17.490    7.7620
   17.505    8.4255
   17.520    8.8573
   17.535    8.1095
   17.550    8.2149
   17.565    8.3412
   17.580    8.7520
   17.595    7.9831
   17.610    7.7093
   17.625    8.8784
   17.640    8.1727
   17.655    8.5203
   17.670    8.1095
   17.685    7.9831
   17.700    8.2570
   17.715    8.0463
   17.730    7.8357
   17.745    8.0779
   17.760    8.4360
   17.775    8.3307
   17.790    8.1938
   17.805    8.0885
   17.820    8.1833
   17.835    8.0463
   17.850    8.3202
   17.865    8.3096
   17.880    7.9937
   17.895    8.3096
   17.910    8.1622
   17.925    7.9200
   17.940    8.2886
   17.955    7.9094
   17.970    8.2464
   17.985    8.1833
   18.000    8.5624
   18.015    8.3518
   18.030    8.0674
   18.045    8.1095
   18.060    8.2570
   18.075    8.4044
   18.090    8.4887
   18.105    8.3518
   18.120    7.8884
   18.135    8.1306
   18.150    8.2991
   18.165    8.3307
   18.180    7.9831
   18.195    8.2149
   18.210    8.3096
   18.225    8.5097
   18.240    8.5624
   18.255    8.1201
   18.270    8.4466
   18.285    7.7514
   18.300    8.4571
   18.315    8.1622
   18.330    8.0569
   18.345    8.1095
   18.360    8.1095
   18.375    8.0253
   18.390    7.7936
   18.405    7.6461
   18.420    8.2991
   18.435    8.2886
   18.450    8.5413
   18.465    8.3939
   18.480    7.9621
   18.495    8.0569
   18.510    8.0253
   18.525    8.1411
   18.540    8.1201
   18.555    8.4676
   18.570    8.1622
   18.585    8.2043
   18.600    7.9726
   18.615    8.5308
   18.630    8.8468
   18.645    8.2359
   18.660    8.1833
   18.675    8.0463
   18.690    8.0885
   18.705    8.3728
   18.720    8.2570
   18.735    8.0990
   18.750    8.1938
   18.765    8.4781
   18.780    8.3518
   18.795    8.3728
   18.810    8.3728
   18.825    8.3202
   18.840    8.1622
   18.855    7.8884
   18.870    7.8146
   18.885    8.2780
   18.900    8.1517
   18.915    8.2254
   18.930    8.3412
   18.945    8.2886
   18.960    8.4360
   18.975    8.6045
   18.990    8.7625
   19.005    8.0885
   19.020    8.2675
   19.035    7.8884
   19.050    8.1727
   19.065    8.3096
   19.080    8.5729
   19.095    8.5624
   19.110    8.6467
   19.125    8.6888
   19.140    8.3834
   19.155    8.0990
   19.170    8.7309
   19.185    8.3412
   19.200    8.2043
   19.215    8.3518
   19.230    8.0042
   19.245    8.3834
   19.260    9.0679
   19.275    8.5729
   19.290    8.6256
   19.305    8.6783
   19.320    8.6467
   19.335    8.6467
   19.350    8.1411
   19.365    8.4044
   19.380    8.5203
   19.395    8.1411
   19.410    8.5519
   19.425    8.7414
   19.440    8.7098
   19.455    8.3939
   19.470    9.0047
   19.485    8.9626
   19.500    8.4992
   19.515    8.4360
   19.530    8.5835
   19.545    9.1101
   19.560    8.8468
   19.575    8.7098
   19.590    8.4255
   19.605    8.2675
   19.620    8.5308
   19.635    8.9942
   19.650    8.8889
   19.665    8.5835
   19.680    8.6256
   19.695    8.7625
   19.710    8.4466
   19.725    9.2364
   19.740    9.4050
   19.755    8.8362
   19.770    8.4466
   19.785    9.0258
   19.800    8.8678
   19.815    8.7520
   19.830    9.0574
   19.845    9.0679
   19.860    9.0679
   19.875    9.2259
   19.890    9.1732
   19.905    9.0995
   19.920    9.2996
   19.935    9.0995
   19.950    8.4992
   19.965    9.1417
   19.980    9.0258
   19.995    8.7625
   20.010    9.2680
   20.025    8.7730
   20.040    9.1101
   20.055    8.6677
   20.070    8.9100
   20.085    9.5208
   20.100    9.1732
   20.115    8.7204
   20.130    8.9837
   20.145    8.7941
   20.160    8.8994
   20.175    9.3312
   20.190    9.0258
   20.205    9.2891
   20.220    8.6677
   20.235    8.7625
   20.250    8.8362
   20.265    8.8362
   20.280    8.5835
   20.295    8.8046
   20.310    8.8046
   20.325    8.5519
   20.340    8.9837
   20.355    8.9521
   20.370    8.7520
   20.385    9.2891
   20.400    8.7941
   20.415    8.8994
   20.430    8.9521
   20.445    9.2364
   20.460    9.2680
   20.475    8.8889
   20.490    9.0995
   20.505    9.0679
   20.520    8.9731
   20.535    9.1206
   20.550    9.2786
   20.565    9.0890
   20.580    9.1101
   20.595    9.4892
   20.610    9.0363
   20.625    9.1522
   20.640    8.9837
   20.655    8.8994
   20.670    9.2259
   20.685    8.9942
   20.700    9.0153
   20.715    9.6156
   20.730    9.1417
   20.745    9.1101
   20.760    9.0469
   20.775    9.4471
   20.790    9.3734
   20.805    9.2575
   20.820    8.7941
   20.835    8.9521
   20.850    9.1838
   20.865    8.9310
   20.880    8.8152
   20.895    9.1943
   20.910    8.8889
   20.925    9.0047
   20.940    9.4997
   20.955    9.0574
   20.970    9.4892
   20.985    8.6783
   21.000    9.1206
   21.015    8.8257
   21.030    9.1311
   21.045    8.8678
   21.060    8.9731
   21.075    9.2680
   21.090    8.8889
   21.105    9.1522
   21.120    9.5840
   21.135    9.4155
   21.150    9.2680
   21.165    8.9100
   21.180    8.7625
   21.195    9.2891
   21.210    9.1311
   21.225    9.0258
   21.240    9.4050
   21.255    9.0679
   21.270    9.4787
   21.285    9.1732
   21.300    9.2891
   21.315    8.8994
   21.330    9.0153
   21.345    9.2575
   21.360    9.4471
   21.375    8.9415
   21.390    8.6677
   21.405    8.8573
   21.420    8.8257
   21.435    8.9731
   21.450    8.3834
   21.465    8.8046
   21.480    8.4887
   21.495    8.9521
   21.510    9.2048
   21.525    9.2470
   21.540    9.2154
   21.555    8.7941
   21.570    8.4360
   21.585    9.1943
   21.600    8.7098
   21.615    9.1101
   21.630    9.2891
   21.645    9.3102
   21.660    9.3734
   21.675    9.0574
   21.690    8.7730
   21.705    8.6572
   21.720    8.9942
   21.735    8.9942
   21.750    9.0785
   21.765    8.8257
   21.780    9.3944
   21.795    8.9626
   21.810    9.1417
   21.825    9.0679
   21.840    8.6677
   21.855    8.8889
   21.870    9.2154
   21.885    9.1311
   21.900    8.7941
   21.915    9.3207
   21.930    9.3102
   21.945    8.8573
   21.960    9.2470
   21.975    9.3734
   21.990    9.2891
   22.005    8.9205
   22.020    8.9837
   22.035    9.1732
   22.050    9.1522
   22.065    9.3523
   22.080    9.2996
   22.095    9.0574
   22.110    9.5735
   22.125    9.1522
   22.140    9.0047
   22.155    9.1206
   22.170    8.6888
   22.185    9.1206
   22.200    9.2891
   22.215    8.9205
   22.230    8.9942
   22.245    8.7098
   22.260    8.8468
   22.275    8.8573
   22.290    9.0574
   22.305    9.2259
   22.320    9.1101
   22.335    8.9415
   22.350    8.3412
   22.365    8.8046
   22.380    9.1522
   22.395    8.5519
   22.410    9.0785
   22.425    8.7730
   22.440    8.6993
   22.455    8.9626
   22.470    8.9521
   22.485    8.9205
   22.500    8.5835
   22.515    9.1101
   22.530    8.6783
   22.545    9.0785
   22.560    8.1306
   22.575    8.4044
   22.590    9.0995
   22.605    8.8046
   22.620    8.7730
   22.635    8.5940
   22.650    9.2048
   22.665    9.1522
   22.680    8.7309
   22.695    8.8573
   22.710    9.0258
   22.725    9.6156
   22.740    9.1417
   22.755    8.6572
   22.770    8.7625
   22.785    8.9521
   22.800    9.0153
   22.815    8.7098
   22.830    8.5624
   22.845    8.8362
   22.860    8.7204
   22.875    8.9942
   22.890    8.6256
   22.905    8.9626
   22.920    8.9521
   22.935    9.0469
   22.950    8.8362
   22.965    8.5519
   22.980    9.0153
   22.995    8.9942
   23.010    8.9837
   23.025    9.2891
   23.040    9.3418
   23.055    8.8468
   23.070    8.7098
   23.085    8.7098
   23.100    8.0674
   23.115    8.5624
   23.130    8.6572
   23.145    8.7309
   23.160    8.4255
   23.175    8.6993
   23.190    8.6256
   23.205    8.8257
   23.220    8.9942
   23.235    8.5835
   23.250    8.9521
   23.265    8.7309
   23.280    8.9837
   23.295    8.8678
   23.310    8.5940
   23.325    8.5097
   23.340    8.8152
   23.355    8.5835
   23.370    8.6045
   23.385    8.6256
   23.400    8.3728
   23.415    8.9626
   23.430    8.7836
   23.445    9.0679
   23.460    8.6888
   23.475    8.8152
   23.490    8.7098
   23.505    9.0258
   23.520    8.6467
   23.535    9.0153
   23.550    9.2996
   23.565    9.4471
   23.580    8.7414
   23.595    9.0469
   23.610    8.7520
   23.625    8.8257
   23.640    8.4360
   23.655    8.4466
   23.670    8.3518
   23.685    8.5835
   23.700    8.7520
   23.715    8.8573
   23.730    8.3834
   23.745    8.2359
   23.760    8.4360
   23.775    8.1517
   23.790    8.2359
   23.805    8.5413
   23.820    8.5729
   23.835    8.8784
   23.850    8.8257
   23.865    8.2886
   23.880    8.7625
   23.895    8.4781
   23.910    8.4992
   23.925    8.5203
   23.940    8.3096
   23.955    8.3096
   23.970    8.6888
   23.985    8.4571
   24.000    8.4255
   24.015    8.5624
   24.030    8.7941
   24.045    8.6467
   24.060    8.5729
   24.075    8.5413
   24.090    8.4887
   24.105    8.3202
   24.120    8.3412
   24.135    8.4150
   24.150    8.5835
   24.165    8.0358
   24.180    8.6151
   24.195    8.2359
   24.210    8.1306
   24.225    8.8678
   24.240    8.8678
   24.255    8.2886
   24.270    8.5624
   24.285    8.0463
   24.300    8.1833
   24.315    8.5097
   24.330    8.8257
   24.345    8.5203
   24.360    8.3412
   24.375    8.4781
   24.390    8.8046
   24.405    8.3728
   24.420    8.9415
   24.435    8.1938
   24.450    8.2043
   24.465    8.5940
   24.480    8.6467
   24.495    8.4571
   24.510    8.4360
   24.525    8.4044
   24.540    8.5413
   24.555    9.0153
   24.570    8.8152
   24.585    8.6361
   24.600    8.4466
   24.615    8.6783
   24.630    8.6677
   24.645    8.4992
   24.660    8.7204
   24.675    8.8573
   24.690    8.6256
   24.705    8.8152
   24.720    8.4044
   24.735    8.4887
   24.750    8.0042
   24.765    8.3412
   24.780    8.5308
   24.795    8.6572
   24.810    8.8889
   24.825    8.3412
   24.840    7.9305
   24.855    8.0885
   24.870    8.2464
   24.885    8.0569
   24.900    8.1411
   24.915    8.6783
   24.930    8.5729
   24.945    8.7520
   24.960    8.1938
   24.975    8.3834
   24.990    8.0990
   25.005    8.3518
   25.020    8.3202
   25.035    8.0463
   25.050    8.4255
   25.065    7.9305
   25.080    7.9831
   25.095    8.0569
   25.110    8.2780
   25.125    8.3518
   25.140    8.0674
   25.155    8.0674
   25.170    7.8357
   25.185    8.0674
   25.200    8.2254
   25.215    7.7620
   25.230    7.9410
   25.245    8.0885
   25.260    8.1306
   25.275    8.5835
   25.290    8.6888
   25.305    8.1833
   25.320    8.2149
   25.335    8.0042
   25.350    8.1411
   25.365    8.4466
   25.380    8.5413
   25.395    7.9305
   25.410    8.3307
   25.425    8.2991
   25.440    8.0674
   25.455    8.0253
   25.470    8.1411
   25.485    8.3623
   25.500    8.0779
   25.515    8.0990
   25.530    8.1095
   25.545    7.8568
   25.560    7.7936
   25.575    8.1411
   25.590    8.1095
   25.605    8.2991
   25.620    7.7199
   25.635    7.7936
   25.650    7.7830
   25.665    8.0990
   25.680    7.7304
   25.695    7.4671
   25.710    7.6356
   25.725    7.5935
   25.740    8.2254
   25.755    7.8041
   25.770    7.6461
   25.785    7.4987
   25.800    7.6145
   25.815    7.8673
   25.830    8.2359
   25.845    8.0569
   25.860    7.7514
   25.875    8.1201
   25.890    8.2254
   25.905    8.0463
   25.920    7.8252
   25.935    7.8568
   25.950    7.8884
   25.965    7.6777
   25.980    7.8568
   25.995    8.0569
   26.010    8.0147
   26.025    8.0569
   26.040    7.6567
   26.055    8.0885
   26.070    8.4360
   26.085    7.9305
   26.100    7.8146
   26.115    7.6251
   26.130    8.1411
   26.145    7.8884
   26.160    7.7830
   26.175    7.5935
   26.190    8.0042
   26.205    7.7514
   26.220    8.0779
   26.235    7.7514
   26.250    7.4882
   26.265    7.9200
   26.280    7.2775
   26.295    7.9621
   26.310    8.0569
   26.325    7.9937
   26.340    7.6461
   26.355    7.6251
   26.370    7.8357
   26.385    7.7514
   26.400    7.6145
   26.415    7.6777
   26.430    8.0990
   26.445    7.6777
   26.460    7.9516
   26.475    7.5619
   26.490    7.7514
   26.505    7.8568
   26.520    8.0569
   26.535    7.9726
   26.550    7.7199
   26.565    8.0569
   26.580    7.6672
   26.595    7.5092
   26.610    7.8778
   26.625    7.7936
   26.640    7.9621
   26.655    7.7936
   26.670    7.7409
   26.685    7.8673
   26.700    7.4566
   26.715    7.7409
   26.730    7.8673
   26.745    7.6567
   26.760    7.3407
   26.775    7.4250
   26.790    7.8778
   26.805    7.6672
   26.820    7.4355
   26.835    7.7093
   26.850    7.6356
   26.865    7.9094
   26.880    7.7093
   26.895    8.0569
   26.910    8.3202
   26.925    8.1306
   26.940    7.9200
   26.955    7.6356
   26.970    7.5513
   26.985    7.8462
   27.000    7.8884
   27.015    7.4671
   27.030    7.8568
   27.045    7.8778
   27.060    7.7725
   27.075    7.5619
   27.090    7.7725
   27.105    7.6461
   27.120    7.8462
   27.135    7.3934
   27.150    7.6883
   27.165    7.6883
   27.180    7.7725
   27.195    7.3934
   27.210    7.2775
   27.225    7.0458
   27.240    7.3196
   27.255    7.7304
   27.270    8.0358
   27.285    7.5513
   27.300    7.7409
   27.315    7.5513
   27.330    7.2775
   27.345    7.6145
   27.360    7.8673
   27.375    7.7304
   27.390    7.7304
   27.405    7.4882
   27.420    7.4144
   27.435    7.6567
   27.450    7.6461
   27.465    7.4671
   27.480    7.9726
   27.495    7.3828
   27.510    7.7093
   27.525    7.4460
   27.540    7.5092
   27.555    7.4671
   27.570    7.4987
   27.585    7.6040
   27.600    7.8357
   27.615    7.9621
   27.630    7.4144
   27.645    7.6461
   27.660    7.6777
   27.675    7.9094
   27.690    7.8041
   27.705    7.6251
   27.720    7.5829
   27.735    7.6883
   27.750    7.9200
   27.765    7.5619
   27.780    7.5513
   27.795    7.3828
   27.810    7.4355
   27.825    7.6567
   27.840    7.5197
   27.855    7.3723
   27.870    7.8146
   27.885    7.8462
   27.900    7.6145
   27.915    7.8462
   27.930    7.4039
   27.945    7.4039
   27.960    7.5408
   27.975    8.1622
   27.990    8.0779
   28.005    7.8989
   28.020    7.7514
   28.035    7.6672
   28.050    7.7409
   28.065    8.0674
   28.080    7.8357
   28.095    8.0147
   28.110    7.8146
   28.125    8.1306
   28.140    7.7409
   28.155    7.5724
   28.170    7.8568
   28.185    8.0885
   28.200    7.6567
   28.215    7.5935
   28.230    7.7936
   28.245    8.0569
   28.260    7.7620
   28.275    8.0674
   28.290    7.8041
   28.305    8.1306
   28.320    7.8778
   28.335    8.1411
   28.350    7.8673
   28.365    7.7199
   28.380    7.8462
   28.395    7.6356
   28.410    7.6145
   28.425    7.6777
   28.440    8.1727
   28.455    7.6040
   28.470    7.1511
   28.485    7.4039
   28.500    7.6356
   28.515    8.1727
   28.530    7.7620
   28.545    7.6988
   28.560    7.5408
   28.575    7.3934
   28.590    7.8568
   28.605    7.9410
   28.620    7.7199
   28.635    7.7936
   28.650    7.9094
   28.665    7.7830
   28.680    7.7620
   28.695    7.5935
   28.710    7.4250
   28.725    7.4355
   28.740    7.3723
   28.755    7.4671
   28.770    7.7199
   28.785    7.6672
   28.800    7.6251
   28.815    7.6567
   28.830    7.6883
   28.845    7.6567
   28.860    7.6145
   28.875    7.1933
   28.890    7.8568
   28.905    7.5408
   28.920    7.5303
   28.935    7.6567
   28.950    7.4987
   28.965    7.5303
   28.980    7.8673
   28.995    7.6251
   29.010    7.7093
   29.025    7.5092
   29.040    7.5408
   29.055    7.7620
   29.070    7.6461
   29.085    7.7936
   29.100    7.6251
   29.115    7.7620
   29.130    7.3828
   29.145    7.0774
   29.160    7.1617
   29.175    7.0774
   29.190    7.1722
   29.205    7.5408
   29.220    7.8989
   29.235    7.6461
   29.250    7.6145
   29.265    7.3723
   29.280    7.5092
   29.295    7.1511
   29.310    7.6040
   29.325    7.6251
   29.340    7.1195
   29.355    7.0879
   29.370    7.2143
   29.385    7.1617
   29.400    7.2143
   29.415    6.9932
   29.430    7.1511
   29.445    7.5197
   29.460    7.4355
   29.475    7.5197
   29.490    7.6988
   29.505    7.5829
   29.520    7.0142
   29.535    7.2354
   29.550    7.5935
   29.565    7.8778
   29.580    7.4355
   29.595    7.3091
   29.610    7.2670
   29.625    7.0458
   29.640    7.5197
   29.655    7.3723
   29.670    7.5513
   29.685    7.6040
   29.700    7.4987
   29.715    7.0774
   29.730    7.1827
   29.745    7.5408
   29.760    7.3091
   29.775    7.2670
   29.790    7.0563
   29.805    7.6356
   29.820    7.1406
   29.835    7.2565
   29.850    7.1195
   29.865    7.0142
   29.880    7.4882
   29.895    7.4355
   29.910    7.4987
   29.925    7.5197
   29.940    7.1090
   29.955    7.3723
   29.970    7.1511
   29.985    7.6356
   30.000    6.7299
   30.015    7.0669
   30.030    7.0879
   30.045    7.2986
   30.060    6.8984
   30.075    7.2670
   30.090    7.6567
   30.105    7.4039
   30.120    7.1722
   30.135    7.2986
   30.150    7.3407
   30.165    7.6145
   30.180    7.0458
   30.195    7.2249
   30.210    7.3723
   30.225    7.4250
   30.240    7.6145
   30.255    7.3723
   30.270    7.3091
   30.285    7.0879
   30.300    7.2880
   30.315    7.1090
   30.330    7.0248
   30.345    7.1933
   30.360    7.1090
   30.375    7.1511
   30.390    6.8246
   30.405    7.0985
   30.420    7.1933
   30.435    7.0353
   30.450    7.2670
   30.465    7.2459
   30.480    7.2038
   30.495    7.0985
   30.510    7.1090
   30.525    7.0037
   30.540    7.3618
   30.555    7.3302
   30.570    7.2354
   30.585    6.9510
   30.600    7.1827
   30.615    7.5303
   30.630    7.3723
   30.645    7.2565
   30.660    7.5513
   30.675    7.5724
   30.690    7.4671
   30.705    7.4039
   30.720    7.2459
   30.735    7.5408
   30.750    6.8352
   30.765    7.2459
   30.780    7.4250
   30.795    7.4039
   30.810    6.9616
   30.825    7.1511
   30.840    7.0248
   30.855    7.3196
   30.870    7.3828
   30.885    7.2775
   30.900    7.1827
   30.915    7.1090
   30.930    7.2670
   30.945    7.3512
   30.960    7.0669
   30.975    7.1511
   30.990    7.2143
   31.005    7.0774
   31.020    7.0985
   31.035    7.4039
   31.050    7.3512
   31.065    7.2459
   31.080    7.0774
   31.095    7.1933
   31.110    7.1617
   31.125    7.4566
   31.140    7.1933
   31.155    7.2354
   31.170    7.0458
   31.185    7.0774
   31.200    6.9194
   31.215    7.1722
   31.230    7.2459
   31.245    7.3934
   31.260    6.9089
   31.275    7.2143
   31.290    7.2880
   31.305    7.7409
   31.320    7.2249
   31.335    7.3091
   31.350    7.3618
   31.365    7.4566
   31.380    7.3407
   31.395    7.3618
   31.410    7.1722
   31.425    6.6772
   31.440    7.1722
   31.455    7.1511
   31.470    6.9826
   31.485    6.8141
   31.500    6.6456
   31.515    7.1301
   31.530    7.4144
   31.545    7.0142
   31.560    6.8878
   31.575    6.9510
   31.590    7.2354
   31.605    6.8878
   31.620    7.0458
   31.635    7.3723
   31.650    7.5724
   31.665    7.3723
   31.680    7.3618
   31.695    7.2986
   31.710    7.2249
   31.725    7.2143
   31.740    7.1933
   31.755    7.0353
   31.770    7.0669
   31.785    7.3723
   31.800    7.4355
   31.815    7.4250
   31.830    7.2249
   31.845    7.8146
   31.860    7.5197
   31.875    7.5619
   31.890    7.4039
   31.905    7.2249
   31.920    6.9932
   31.935    7.0879
   31.950    6.9721
   31.965    7.0458
   31.980    7.1722
   31.995    7.3828
   32.010    7.6461
   32.025    7.1090
   32.040    7.2143
   32.055    7.2354
   32.070    7.1406
   32.085    7.3302
   32.100    7.3723
   32.115    7.6461
   32.130    6.9300
   32.145    7.1301
   32.160    7.1933
   32.175    7.4355
   32.190    7.3828
   32.205    7.2775
   32.220    7.1090
   32.235    6.8773
   32.250    6.8141
   32.265    6.9405
   32.280    7.1195
   32.295    6.9405
   32.310    6.9300
   32.325    7.1195
   32.340    7.0985
   32.355    6.8668
   32.370    7.2038
   32.385    7.2670
   32.400    7.1406
   32.415    7.0142
   32.430    6.7930
   32.445    6.9510
   32.460    6.7193
   32.475    7.0142
   32.490    6.8352
   32.505    7.1617
   32.520    7.5829
   32.535    7.1827
   32.550    7.1090
   32.565    6.8562
   32.580    7.0037
   32.595    7.4882
   32.610    7.1406
   32.625    7.0248
   32.640    6.6772
   32.655    6.8352
   32.670    6.7615
   32.685    7.2038
   32.700    7.0142
   32.715    7.1722
   32.730    6.7509
   32.745    6.8984
   32.760    7.0142
   32.775    6.8773
   32.790    7.0353
   32.805    7.1406
   32.820    6.6035
   32.835    6.7299
   32.850    7.0879
   32.865    6.8878
   32.880    7.1722
   32.895    6.6983
   32.910    7.0248
   32.925    7.4039
   32.940    7.0669
   32.955    7.2565
   32.970    7.0563
   32.985    6.7404
   33.000    7.1827
   33.015    7.2775
   33.030    7.1617
   33.045    7.2249
   33.060    6.9826
   33.075    7.1933
   33.090    7.0879
   33.105    6.8246
   33.120    6.7930
   33.135    6.8878
   33.150    7.0879
   33.165    7.1090
   33.180    7.2565
   33.195    6.8984
   33.210    7.0037
   33.225    6.9721
   33.240    6.9932
   33.255    7.0985
   33.270    7.3091
   33.285    6.7615
   33.300    6.8141
   33.315    6.8352
   33.330    6.8457
   33.345    6.9405
   33.360    6.5508
   33.375    6.8141
   33.390    7.0037
   33.405    6.6456
   33.420    6.6561
   33.435    7.0248
   33.450    6.8352
   33.465    6.9405
   33.480    7.1301
   33.495    7.0248
   33.510    6.9405
   33.525    6.9616
   33.540    7.0248
   33.555    6.9826
   33.570    6.8878
   33.585    6.5929
   33.600    6.6667
   33.615    6.7509
   33.630    7.2143
   33.645    6.8352
   33.660    6.6667
   33.675    6.7615
   33.690    6.9826
   33.705    6.9300
   33.720    6.9194
   33.735    6.8984
   33.750    6.6140
   33.765    6.6035
   33.780    6.5403
   33.795    6.9405
   33.810    7.1722
   33.825    6.9932
   33.840    6.2981
   33.855    6.7509
   33.870    6.8984
   33.885    6.6983
   33.900    6.7509
   33.915    7.0985
   33.930    6.9932
   33.945    6.8668
   33.960    6.8773
   33.975    6.7720
   33.990    6.7930
   34.005    6.3612
   34.020    6.9826
   34.035    6.8141
   34.050    7.0142
   34.065    7.0353
   34.080    6.7299
   34.095    7.0353
   34.110    6.7404
   34.125    6.9510
   34.140    6.6667
   34.155    6.6456
   34.170    6.7720
   34.185    6.8668
   34.200    7.0563
   34.215    6.9932
   34.230    6.5719
   34.245    6.5192
   34.260    6.4139
   34.275    6.5508
   34.290    6.6877
   34.305    6.7404
   34.320    6.9089
   34.335    6.5508
   34.350    6.6983
   34.365    7.0037
   34.380    7.0142
   34.395    6.8562
   34.410    7.0248
   34.425    7.2775
   34.440    6.9721
   34.455    6.9616
   34.470    6.8141
   34.485    6.8352
   34.500    6.9089
   34.515    6.8457
   34.530    6.8773
   34.545    6.9721
   34.560    6.6035
   34.575    6.6667
   34.590    6.9826
   34.605    6.9510
   34.620    6.8562
   34.635    6.6351
   34.650    6.7088
   34.665    6.9405
   34.680    6.8878
   34.695    6.9405
   34.710    6.5403
   34.725    6.5192
   34.740    6.6351
   34.755    6.8036
   34.770    6.3718
   34.785    6.6245
   34.800    6.6351
   34.815    6.7509
   34.830    6.8562
   34.845    6.5403
   34.860    7.2038
   34.875    7.0037
   34.890    6.6035
   34.905    6.6351
   34.920    6.2454
   34.935    6.4666
   34.950    6.7720
   34.965    6.6245
   34.980    6.8773
   34.995    6.4666
   35.010    6.7404
   35.025    6.5403
   35.040    6.7088
   35.055    6.9932
   35.070    6.8878
   35.085    6.9616
   35.100    6.8457
   35.115    6.6667
   35.130    6.7404
   35.145    6.5508
   35.160    6.5508
   35.175    6.6561
   35.190    7.0879
   35.205    6.6456
   35.220    6.4034
   35.235    6.6456
   35.250    7.1301
   35.265    7.0458
   35.280    6.6667
   35.295    6.5298
   35.310    6.5929
   35.325    6.8984
   35.340    6.8562
   35.355    6.4455
   35.370    6.7825
   35.385    7.0879
   35.400    6.7404
   35.415    6.6772
   35.430    6.3191
   35.445    6.5087
   35.460    6.8984
   35.475    6.9405
   35.490    7.0142
   35.505    6.4771
   35.520    6.8036
   35.535    6.8036
   35.550    6.9616
   35.565    6.7509
   35.580    6.8984
   35.595    6.7825
   35.610    6.6772
   35.625    6.8668
   35.640    6.6456
   35.655    6.4455
   35.670    6.2981
   35.685    6.7193
   35.700    6.4666
   35.715    6.6456
   35.730    7.2670
   35.745    6.8878
   35.760    6.7088
   35.775    6.9826
   35.790    6.4350
   35.805    6.4034
   35.820    6.4244
   35.835    6.6667
   35.850    6.5719
   35.865    6.9089
   35.880    6.5403
   35.895    6.5929
   35.910    6.2033
   35.925    6.5298
   35.940    6.6561
   35.955    6.8036
   35.970    6.8246
   35.985    6.6667
   36.000    6.7930
   36.015    7.0142
   36.030    6.8878
   36.045    6.4455
   36.060    6.6456
   36.075    6.8246
   36.090    6.5824
   36.105    6.8773
   36.120    6.5403
   36.135    6.1506
   36.150    7.0458
   36.165    6.6983
   36.180    6.4350
   36.195    6.4455
   36.210    6.8878
   36.225    6.5613
   36.240    6.2770
   36.255    6.6456
   36.270    6.4139
   36.285    6.7088
   36.300    6.7509
   36.315    6.6035
   36.330    6.7930
   36.345    6.9616
   36.360    6.7615
   36.375    6.8141
   36.390    6.5824
   36.405    6.5508
   36.420    6.6035
   36.435    6.3928
   36.450    6.5824
   36.465    7.0248
   36.480    6.1295
   36.495    6.7088
   36.510    6.0558
   36.525    6.3402
   36.540    6.7088
   36.555    6.7930
   36.570    6.6351
   36.585    6.7404
   36.600    6.9089
   36.615    6.5719
   36.630    6.5719
   36.645    6.6877
   36.660    6.6667
   36.675    6.1401
   36.690    6.2138
   36.705    6.2454
   36.720    6.5929
   36.735    6.7825
   36.750    6.4139
   36.765    6.7299
   36.780    6.7930
   36.795    6.3402
   36.810    6.5403
   36.825    6.5508
   36.840    6.7509
   36.855    6.4560
   36.870    6.4876
   36.885    6.5087
   36.900    6.5929
   36.915    6.5298
   36.930    6.8246
   36.945    6.5403
   36.960    6.4982
   36.975    6.3823
   36.990    6.4982
   37.005    6.3928
   37.020    6.1611
   37.035    6.5613
   37.050    6.4244
   37.065    6.3086
   37.080    6.6667
   37.095    6.2138
   37.110    6.0453
   37.125    6.5824
   37.140    6.8457
   37.155    6.4560
   37.170    6.5087
   37.185    6.6456
   37.200    6.6456
   37.215    6.7615
   37.230    6.5613
   37.245    6.6245
   37.260    6.3507
   37.275    6.5508
   37.290    6.5298
   37.305    6.5929
   37.320    6.8878
   37.335    6.5613
   37.350    6.3928
   37.365    6.3718
   37.380    6.3507
   37.395    6.5403
   37.410    6.2138
   37.425    6.2138
   37.440    6.2559
   37.455    6.7615
   37.470    6.5719
   37.485    6.1190
   37.500    6.3296
   37.515    6.5403
   37.530    6.4034
   37.545    6.5298
   37.560    6.6351
   37.575    6.3718
   37.590    6.5613
   37.605    6.8773
   37.620    6.5824
   37.635    6.2665
   37.650    6.6351
   37.665    6.2665
   37.680    6.2033
   37.695    6.3296
   37.710    6.5929
   37.725    6.6351
   37.740    6.5403
   37.755    6.3086
   37.770    6.8246
   37.785    6.7615
   37.800    6.7299
   37.815    7.1090
   37.830    6.6140
   37.845    6.5192
   37.860    6.6456
   37.875    6.5087
   37.890    6.4455
   37.905    6.6140
   37.920    6.7193
   37.935    6.5508
   37.950    6.0242
   37.965    6.4982
   37.980    6.6035
   37.995    6.3191
   38.010    6.3718
   38.025    6.5824
   38.040    6.8036
   38.055    6.8457
   38.070    6.5613
   38.085    6.9300
   38.100    6.5508
   38.115    6.5087
   38.130    6.6245
   38.145    6.2138
   38.160    6.0874
   38.175    6.2559
   38.190    6.6667
   38.205    6.2665
   38.220    6.2770
   38.235    6.2559
   38.250    6.5192
   38.265    6.6772
   38.280    6.4982
   38.295    6.5403
   38.310    6.5298
   38.325    6.3296
   38.340    6.3507
   38.355    6.2665
   38.370    6.5613
   38.385    6.9300
   38.400    6.2243
   38.415    6.4560
   38.430    6.5403
   38.445    6.4244
   38.460    6.1506
   38.475    6.2559
   38.490    6.3191
   38.505    6.2559
   38.520    6.7193
   38.535    6.6561
   38.550    6.1611
   38.565    6.4350
   38.580    6.2665
   38.595    6.3402
   38.610    6.2454
   38.625    6.3086
   38.640    6.4139
   38.655    6.6035
   38.670    6.3718
   38.685    6.4350
   38.700    6.3402
   38.715    6.5192
   38.730    6.4982
   38.745    6.5508
   38.760    6.2770
   38.775    6.3086
   38.790    6.3191
   38.805    6.5613
   38.820    6.4034
   38.835    6.0874
   38.850    6.8141
   38.865    6.6140
   38.880    6.4982
   38.895    6.7299
   38.910    6.5192
   38.925    6.4455
   38.940    6.3928
   38.955    6.6140
   38.970    6.4455
   38.985    6.3612
   39.000    6.3402
   39.015    6.4560
   39.030    6.5298
   39.045    6.5613
   39.060    6.4666
   39.075    6.5087
   39.090    6.7193
   39.105    6.4876
   39.120    6.5613
   39.135    6.3718
   39.150    6.5298
   39.165    6.2454
   39.180    6.2138
   39.195    6.8246
   39.210    6.5192
   39.225    6.1927
   39.240    6.5719
   39.255    6.5508
   39.270    6.3402
   39.285    6.6245
   39.300    6.5719
   39.315    6.3296
   39.330    6.4350
   39.345    6.7299
   39.360    6.9300
   39.375    6.8562
   39.390    6.6983
   39.405    6.3612
   39.420    6.2875
   39.435    6.4455
   39.450    6.9194
   39.465    6.8984
   39.480    6.4350
   39.495    6.2243
   39.510    6.3402
   39.525    6.5613
   39.540    6.6561
   39.555    6.2033
   39.570    6.0137
   39.585    6.3507
   39.600    6.3928
   39.615    6.6351
   39.630    6.9826
   39.645    6.4982
   39.660    6.1401
   39.675    6.4244
   39.690    6.0242
   39.705    6.1717
   39.720    6.2875
   39.735    6.3296
   39.750    6.3402
   39.765    6.7509
   39.780    6.8668
   39.795    6.8457
   39.810    6.2981
   39.825    6.1927
   39.840    6.3402
   39.855    6.2981
   39.870    6.9510
   39.885    6.7299
   39.900    6.6561
   39.915    6.5824
   39.930    6.7299
   39.945    6.8457
   39.960    6.1085
   39.975    6.1401
   39.990    6.5298
