    1.500   12.9963
    1.515   13.3439
    1.530   12.6488
    1.545   12.4908
    1.560   13.1648
    1.575   12.3644
    1.590   12.1959
    1.605   11.4165
    1.620   11.4271
    1.635   11.7114
    1.650   10.9742
    1.665   10.8689
    1.680   10.8057
    1.695   10.4371
    1.710   10.4792
    1.725   10.6372
    1.740   10.0579
    1.755    9.6893
    1.770    9.9105
    1.785   10.5108
    1.800   10.3107
    1.815    9.7209
    1.830    9.7946
    1.845    9.3312
    1.860    9.6156
    1.875    9.5313
    1.890    9.5735
    1.905    9.2891
    1.920    9.2364
    1.935    9.2364
    1.950    9.0258
    1.965    8.3939
    1.980    8.5413
    1.995    8.3307
    2.010    8.3518
    2.025    8.5940
    2.040    8.3728
    2.055    8.4044
    2.070    8.1727
    2.085    7.6461
    2.100    7.5197
    2.115    7.9200
    2.130    7.8041
    2.145    8.1622
    2.160    7.9094
    2.175    7.6145
    2.190    7.5724
    2.205    7.9410
    2.220    7.8357
    2.235    7.4671
    2.250    7.3512
    2.265    7.4566
    2.280    7.7936
    2.295    7.2459
    2.310    7.6883
    2.325    7.5303
    2.340    7.3828
    2.355    6.8878
    2.370    7.2143
    2.385    6.6561
    2.400    6.8457
    2.415    6.9405
    2.430    6.8773
    2.445    6.6140
    2.460    6.8457
    2.475    7.3512
    2.490    6.7720
    2.505    6.9932
    2.520    6.9510
    2.535    6.4982
    2.550    6.4982
    2.565    6.8246
    2.580    6.5192
    2.595    6.7720
    2.610    6.7509
    2.625    6.4034
    2.640    6.0664
    2.655    6.3086
    2.670    6.6140
    2.685    6.6351
    2.700    6.6772
    2.715    6.5403
    2.730    6.8246
    2.745    6.5298
    2.760    6.7509
    2.775    6.6561
    2.790    6.5613
    2.805    6.7825
    2.820    6.9089
    2.835    6.8878
    2.850    6.4666
    2.865    6.4771
    2.880    6.5298
    2.895    6.5824
    2.910    6.4139
    2.925    6.4771
    2.940    6.2559
    2.955    6.4034
    2.970    6.6351
    2.985    6.6772
    3.000    6.4455
    3.015    6.5508
    3.030    7.0037
    3.045    7.0142
    3.060    7.0458
    3.075    7.2038
    3.090    7.2670
    3.105    6.9194
    3.120    7.0037
    3.135    7.4776
    3.150    7.3723
    3.165    7.5724
    3.180    7.3934
    3.195    7.4460
    3.210    7.5513
    3.225    7.9094
    3.240    7.7620
    3.255    7.8252
    3.270    8.3518
    3.285    8.6256
    3.300    9.4681
    3.315    9.2154
    3.330    9.2996
    3.345    9.6893
    3.360    9.6577
    3.375    9.8894
    3.390   10.6266
    3.405   10.8689
    3.420   10.9110
    3.435   11.1427
    3.450   11.1322
    3.465   10.9005
    3.480   10.7846
    3.495   10.8478
    3.510    9.6367
    3.525    9.6261
    3.540    9.1627
    3.555    8.0674
    3.570    8.1095
    3.585    7.8146
    3.600    7.5092
    3.615    7.0879
    3.630    6.7825
    3.645    6.9510
    3.660    6.6561
    3.675    6.6877
    3.690    6.5508
    3.705    6.9300
    3.720    6.6561
    3.735    6.9721
    3.750    7.1617
    3.765    6.4771
    3.780    6.5613
    3.795    6.4034
    3.810    6.2454
    3.825    6.1295
    3.840    6.8562
    3.855    6.4455
    3.870    6.4455
    3.885    6.5613
    3.900    6.2454
    3.915    6.6351
    3.930    6.9194
    3.945    6.4455
    3.960    6.9616
    3.975    6.7193
    3.990    6.7193
    4.005    6.8773
    4.020    7.2775
    4.035    6.8246
    4.050    7.2670
    4.065    7.1406
    4.080    6.8984
    4.095    7.3302
    4.110    7.6356
    4.125    7.1301
    4.140    7.1195
    4.155    7.2038
    4.170    7.8146
    4.185    7.3302
    4.200    7.5513
    4.215    7.6040
    4.230    7.6777
    4.245    7.6356
    4.260    8.0674
    4.275    7.8357
    4.290    7.5935
    4.305    7.6356
    4.320    7.6461
    4.335    7.4776
    4.350    7.5724
    4.365    7.0563
    4.380    7.0037
    4.395    6.9510
    4.410    6.8352
    4.425    6.8878
    4.440    6.9300
    4.455    6.2454
    4.470    6.5824
    4.485    6.6456
    4.500    6.5298
    4.515    6.2770
    4.530    6.1927
    4.545    6.2454
    4.560    6.0558
    4.575    6.3823
    4.590    6.1611
    4.605    6.2349
    4.620    6.2770
    4.635    5.9505
    4.650    5.5082
    4.665    5.9610
    4.680    5.9505
    4.695    6.0453
    4.710    5.8136
    4.725    5.7715
    4.740    5.8452
    4.755    6.0032
    4.770    6.0137
    4.785    5.7820
    4.800    5.6872
    4.815    5.6240
    4.830    5.8768
    4.845    6.0242
    4.860    5.6240
    4.875    5.9926
    4.890    6.1085
    4.905    6.0348
    4.920    6.1401
    4.935    6.4139
    4.950    6.4350
    4.965    5.9926
    4.980    5.9926
    4.995    6.1190
    5.010    6.0137
    5.025    6.1611
    5.040    5.9926
    5.055    6.1401
    5.070    6.6561
    5.085    6.7615
    5.100    6.7299
    5.115    6.6772
    5.130    6.5087
    5.145    6.0242
    5.160    6.5298
    5.175    6.5929
    5.190    6.6245
    5.205    6.5508
    5.220    6.8141
    5.235    6.4771
    5.250    6.9300
    5.265    6.7509
    5.280    6.9826
    5.295    7.2038
    5.310    7.2880
    5.325    7.0879
    5.340    7.0458
    5.355    7.2249
    5.370    7.2143
    5.385    7.4355
    5.400    7.1406
    5.415    7.3723
    5.430    7.6461
    5.445    7.4987
    5.460    7.5303
    5.475    7.8041
    5.490    7.1722
    5.505    7.6567
    5.520    7.8252
    5.535    7.4882
    5.550    6.9721
    5.565    7.5724
    5.580    7.8146
    5.595    7.6356
    5.610    7.6251
    5.625    7.3091
    5.640    7.3302
    5.655    7.1511
    5.670    7.3723
    5.685    7.3407
    5.700    7.2880
    5.715    7.0985
    5.730    6.7299
    5.745    6.8773
    5.760    6.6561
    5.775    6.9932
    5.790    7.0458
    5.805    6.9405
    5.820    6.3612
    5.835    6.5403
    5.850    6.6140
    5.865    6.2770
    5.880    6.1822
    5.895    6.6667
    5.910    6.1295
    5.925    5.8662
    5.940    5.6556
    5.955    6.0242
    5.970    6.0242
    5.985    6.0032
    6.000    5.6240
    6.015    5.5292
    6.030    5.9400
    6.045    5.8768
    6.060    6.0453
    6.075    5.5608
    6.090    5.7715
    6.105    5.7609
    6.120    5.6872
    6.135    5.5608
    6.150    5.5082
    6.165    5.9716
    6.180    5.5608
    6.195    5.6451
    6.210    5.5398
    6.225    5.4555
    6.240    5.6345
    6.255    5.4766
    6.270    5.3712
    6.285    5.2765
    6.300    5.3818
    6.315    5.4239
    6.330    5.4134
    6.345    5.3186
    6.360    5.1395
    6.375    5.3923
    6.390    5.3397
    6.405    5.5292
    6.420    5.3397
    6.435    5.1080
    6.450    5.3186
    6.465    5.5292
    6.480    5.2133
    6.495    4.9394
    6.510    5.2975
    6.525    5.4450
    6.540    5.2238
    6.555    4.9184
    6.570    5.3712
    6.585    5.1395
    6.600    4.6551
    6.615    4.6235
    6.630    5.1185
    6.645    5.3818
    6.660    4.9500
    6.675    4.9921
    6.690    5.3712
    6.705    5.0658
    6.720    5.1606
    6.735    5.0553
    6.750    5.4660
    6.765    5.1185
    6.780    5.0342
    6.795    5.1290
    6.810    5.3607
    6.825    4.7920
    6.840    4.9078
    6.855    5.0658
    6.870    5.2027
    6.885    5.2238
    6.900    5.5714
    6.915    5.2449
    6.930    5.0553
    6.945    5.2449
    6.960    5.2343
    6.975    5.3607
    6.990    5.1290
    7.005    5.0132
    7.020    4.8236
    7.035    5.3397
    7.050    4.7604
    7.065    4.6445
    7.080    4.8025
    7.095    4.4971
    7.110    4.6761
    7.125    4.7604
    7.140    4.3707
    7.155    4.4655
    7.170    4.6024
    7.185    4.4655
    7.200    4.6024
    7.215    4.4866
    7.230    4.4128
    7.245    4.2233
    7.260    4.3602
    7.275    4.4655
    7.290    4.2970
    7.305    4.2865
    7.320    4.2338
    7.335    4.1180
    7.350    4.0548
    7.365    4.1811
    7.380    4.3497
    7.395    4.2759
    7.410    4.1074
    7.425    4.2233
    7.440    4.2970
    7.455    4.1285
    7.470    4.0969
    7.485    3.9494
    7.500    4.2654
    7.515    4.4550
    7.530    4.2443
    7.545    4.1601
    7.560    4.1601
    7.575    4.2233
    7.590    4.2022
    7.605    4.1285
    7.620    3.9705
    7.635    3.9073
    7.650    3.9389
    7.665    4.0758
    7.680    3.8968
    7.695    4.0653
    7.710    4.0232
    7.725    4.0442
    7.740    4.1074
    7.755    4.2970
    7.770    3.9916
    7.785    3.7283
    7.800    3.9600
    7.815    4.2233
    7.830    3.9389
    7.845    3.9916
    7.860    3.8652
    7.875    4.1180
    7.890    4.0337
    7.905    3.6440
    7.920    4.0337
    7.935    4.0969
    7.950    4.1706
    7.965    4.0548
    7.980    4.0864
    7.995    3.9494
    8.010    4.0442
    8.025    4.0864
    8.040    3.7915
    8.055    3.7388
    8.070    3.8231
    8.085    3.9389
    8.100    3.7177
    8.115    3.6862
    8.130    3.7809
    8.145    3.9600
    8.160    3.7072
    8.175    3.4334
    8.190    3.7283
    8.205    3.6230
    8.220    3.4650
    8.235    3.8231
    8.250    3.7915
    8.265    3.6019
    8.280    3.7599
    8.295    3.6967
    8.310    3.5808
    8.325    3.4650
    8.340    3.6546
    8.355    3.6862
    8.370    3.4755
    8.385    3.5914
    8.400    3.7283
    8.415    3.5808
    8.430    3.6546
    8.445    3.8652
    8.460    3.7283
    8.475    3.4018
    8.490    3.4123
    8.505    3.2965
    8.520    3.7177
    8.535    3.6862
    8.550    3.5914
    8.565    3.4544
    8.580    3.2543
    8.595    3.5808
    8.610    3.8231
    8.625    3.9705
    8.640    3.7177
    8.655    3.7283
    8.670    3.5492
    8.685    3.7704
    8.700    3.7388
    8.715    3.5914
    8.730    3.5071
    8.745    3.7915
    8.760    3.2859
    8.775    3.4229
    8.790    3.7072
    8.805    3.5176
    8.820    3.3491
    8.835    3.4755
    8.850    3.6019
    8.865    3.3175
    8.880    3.6756
    8.895    3.3491
    8.910    3.1385
    8.925    3.3386
    8.940    3.4860
    8.955    3.5598
    8.970    3.5176
    8.985    3.3807
    9.000    3.3175
    9.015    3.2649
    9.030    3.4860
    9.045    3.4123
    9.060    3.1596
    9.075    3.2965
    9.090    3.0332
    9.105    3.3913
    9.120    3.2859
    9.135    3.2227
    9.150    3.2649
    9.165    3.4650
    9.180    3.4966
    9.195    3.4966
    9.210    3.2333
    9.225    3.4544
    9.240    3.4018
    9.255    3.3597
    9.270    3.3913
    9.285    3.2965
    9.300    3.3913
    9.315    3.2965
    9.330    3.1174
    9.345    3.1490
    9.360    3.2543
    9.375    3.3070
    9.390    3.1596
    9.405    3.4334
    9.420    3.4439
    9.435    3.4229
    9.450    3.3491
    9.465    3.2965
    9.480    3.2438
    9.495    3.4544
    9.510    3.1912
    9.525    3.4123
    9.540    3.2859
    9.555    3.4334
    9.570    3.5598
    9.585    3.4439
    9.600    3.4018
    9.615    3.2543
    9.630    3.2017
    9.645    3.1912
    9.660    3.3491
    9.675    3.4544
    9.690    3.3070
    9.705    3.4229
    9.720    3.3597
    9.735    3.3913
    9.750    3.2122
    9.765    3.1701
    9.780    3.2965
    9.795    3.3281
    9.810    3.4334
    9.825    3.3913
    9.840    3.3597
    9.855    3.3702
    9.870    2.9279
    9.885    3.4123
    9.900    3.5071
    9.915    3.3913
    9.930    3.2965
    9.945    3.4018
    9.960    3.2859
    9.975    3.2227
    9.990    3.2754
   10.005    3.3702
   10.020    3.3807
   10.035    3.3597
   10.050    3.4544
   10.065    3.2859
   10.080    3.3175
   10.095    3.5176
   10.110    3.2754
   10.125    3.3597
   10.140    3.4860
   10.155    3.4544
   10.170    3.3913
   10.185    3.3913
   10.200    3.2333
   10.215    3.1806
   10.230    3.2754
   10.245    3.2333
   10.260    3.2333
   10.275    3.5598
   10.290    3.4755
   10.305    3.4544
   10.320    3.3913
   10.335    3.1174
   10.350    3.4650
   10.365    3.5914
   10.380    3.5914
   10.395    3.2017
   10.410    3.4123
   10.425    3.2333
   10.440    3.5176
   10.455    3.5808
   10.470    3.4334
   10.485    3.4755
   10.500    3.4544
   10.515    3.6335
   10.530    3.4544
   10.545    3.3597
   10.560    3.5492
   10.575    3.3070
   10.590    3.3913
   10.605    3.2754
   10.620    3.2122
   10.635    3.7072
   10.650    3.4860
   10.665    3.6019
   10.680    3.6546
   10.695    3.4860
   10.710    3.4755
   10.725    3.2965
   10.740    3.6862
   10.755    3.7493
   10.770    3.7283
   10.785    3.5808
   10.800    3.7388
   10.815    3.6440
   10.830    3.5808
   10.845    3.4018
   10.860    3.5387
   10.875    3.4334
   10.890    3.5808
   10.905    3.5598
   10.920    3.6440
   10.935    3.7072
   10.950    3.6124
   10.965    3.6862
   10.980    3.5703
   10.995    3.3702
   11.010    3.5492
   11.025    3.6019
   11.040    3.6756
   11.055    3.3281
   11.070    3.4650
   11.085    3.6440
   11.100    3.3702
   11.115    3.7915
   11.130    3.4544
   11.145    3.5387
   11.160    3.5914
   11.175    3.7704
   11.190    3.7704
   11.205    3.6019
   11.220    3.4018
   11.235    3.4966
   11.250    3.4439
   11.265    3.8020
   11.280    3.4860
   11.295    3.4018
   11.310    3.4439
   11.325    3.4229
   11.340    3.3175
   11.355    3.6651
   11.370    3.4755
   11.385    3.7177
   11.400    3.5492
   11.415    3.6124
   11.430    3.4229
   11.445    3.5808
   11.460    3.7388
   11.475    3.4966
   11.490    3.3807
   11.505    3.4544
   11.520    3.4229
   11.535    3.3070
   11.550    3.3913
   11.565    3.2754
   11.580    3.4123
   11.595    3.6230
   11.610    3.5176
   11.625    3.4123
   11.640    3.4439
   11.655    3.3070
   11.670    3.4123
   11.685    3.5703
   11.700    3.3386
   11.715    3.2649
   11.730    3.3070
   11.745    3.4966
   11.760    3.3913
   11.775    3.5492
   11.790    3.4544
   11.805    3.6546
   11.820    3.3913
   11.835    3.5071
   11.850    3.3070
   11.865    3.4650
   11.880    3.4860
   11.895    3.3597
   11.910    3.4755
   11.925    3.4334
   11.940    3.4123
   11.955    3.4018
   11.970    3.5176
   11.985    3.2017
   12.000    3.2122
   12.015    3.5703
   12.030    3.6124
   12.045    3.5598
   12.060    3.7177
   12.075    3.3175
   12.090    3.6756
   12.105    3.5914
   12.120    3.4755
   12.135    3.5282
   12.150    3.6335
   12.165    3.4439
   12.180    3.3281
   12.195    3.4018
   12.210    3.3702
   12.225    3.1701
   12.240    3.0858
   12.255    3.3913
   12.270    3.3807
   12.285    3.1280
   12.300    3.1490
   12.315    3.0016
   12.330    3.4123
   12.345    3.2859
   12.360    3.2859
   12.375    3.2543
   12.390    3.4544
   12.405    3.1701
   12.420    3.3913
   12.435    3.1701
   12.450    3.5387
   12.465    3.4018
   12.480    3.2333
   12.495    3.4018
   12.510    3.4123
   12.525    3.4334
   12.540    3.3491
   12.555    3.3281
   12.570    3.4755
   12.585    2.9805
   12.600    3.3175
   12.615    3.1806
   12.630    3.1596
   12.645    3.2543
   12.660    3.3913
   12.675    3.5387
   12.690    3.4229
   12.705    3.3807
   12.720    3.4439
   12.735    3.3386
   12.750    3.2122
   12.765    3.1701
   12.780    3.3070
   12.795    3.6335
   12.810    3.4544
   12.825    2.9489
   12.840    3.1596
   12.855    3.4966
   12.870    3.2438
   12.885    3.1701
   12.900    3.2859
   12.915    3.3070
   12.930    3.2649
   12.945    3.3807
   12.960    3.3386
   12.975    3.3175
   12.990    3.1490
   13.005    3.3702
   13.020    3.2227
   13.035    3.4755
   13.050    3.1174
   13.065    3.3597
   13.080    3.2438
   13.095    3.2122
   13.110    3.1701
   13.125    3.5492
   13.140    3.5071
   13.155    3.4755
   13.170    3.3702
   13.185    3.3597
   13.200    3.0226
   13.215    3.0964
   13.230    3.3386
   13.245    3.2227
   13.260    3.2649
   13.275    3.1490
   13.290    3.0858
   13.305    3.0753
   13.320    3.2122
   13.335    3.2754
   13.350    3.1490
   13.365    3.2859
   13.380    3.5492
   13.395    3.4966
   13.410    3.4755
   13.425    3.3386
   13.440    3.1596
   13.455    3.2333
   13.470    3.5387
   13.485    3.3913
   13.500    3.3491
   13.515    3.4123
   13.530    3.1385
   13.545    3.3913
   13.560    3.4439
   13.575    3.3070
   13.590    3.3491
   13.605    3.1385
   13.620    3.4018
   13.635    3.6651
   13.650    3.3386
   13.665    3.4229
   13.680    3.6019
   13.695    3.3597
   13.710    3.3175
   13.725    3.0648
   13.740    3.2017
   13.755    3.3702
   13.770    3.7809
   13.785    3.7388
   13.800    3.5914
   13.815    3.3807
   13.830    3.2754
   13.845    3.3070
   13.860    3.3386
   13.875    3.6440
   13.890    3.4860
   13.905    3.1701
   13.920    3.5282
   13.935    3.4439
   13.950    3.5492
   13.965    3.3702
   13.980    3.3491
   13.995    3.3597
   14.010    3.6440
   14.025    3.4966
   14.040    3.4334
   14.055    3.5071
   14.070    3.3386
   14.085    3.4966
   14.100    3.3386
   14.115    3.3281
   14.130    3.5071
   14.145    3.2438
   14.160    3.5808
   14.175    3.7915
   14.190    3.6967
   14.205    3.5282
   14.220    3.5176
   14.235    3.5071
   14.250    3.2965
   14.265    3.7388
   14.280    3.4966
   14.295    3.4334
   14.310    3.4018
   14.325    3.8547
   14.340    3.8547
   14.355    3.8125
   14.370    3.7704
   14.385    3.9179
   14.400    3.8652
   14.415    3.7072
   14.430    3.8125
   14.445    3.6651
   14.460    3.7177
   14.475    3.7283
   14.490    3.4544
   14.505    3.7388
   14.520    3.7283
   14.535    3.6440
   14.550    3.6651
   14.565    3.8125
   14.580    3.7388
   14.595    3.6651
   14.610    3.2965
   14.625    3.4860
   14.640    3.3913
   14.655    3.5808
   14.670    3.3807
   14.685    3.3913
   14.700    3.6019
   14.715    3.7915
   14.730    3.5387
   14.745    3.7283
   14.760    3.6756
   14.775    3.8441
   14.790    3.4123
   14.805    3.5492
   14.820    3.7809
   14.835    3.2859
   14.850    3.4860
   14.865    3.7177
   14.880    3.5808
   14.895    3.7072
   14.910    3.3702
   14.925    3.4755
   14.940    3.3913
   14.955    3.5703
   14.970    3.3281
   14.985    3.4860
   15.000    3.4018
   15.015    3.2649
   15.030    3.3386
   15.045    3.4229
   15.060    3.3491
   15.075    3.4018
   15.090    3.0332
   15.105    3.3281
   15.120    3.3702
   15.135    3.3386
   15.150    3.1806
   15.165    3.1280
   15.180    3.0437
   15.195    2.8541
   15.210    3.1490
   15.225    3.0648
   15.240    3.1385
   15.255    3.1174
   15.270    3.3281
   15.285    3.2122
   15.300    3.3281
   15.315    3.1385
   15.330    3.3386
   15.345    3.1280
   15.360    3.1912
   15.375    3.3913
   15.390    3.0542
   15.405    3.2017
   15.420    3.2965
   15.435    3.2122
   15.450    3.3597
   15.465    3.3386
   15.480    3.1069
   15.495    3.2543
   15.510    3.2333
   15.525    3.5071
   15.540    3.0332
   15.555    3.0858
   15.570    3.3491
   15.585    3.0226
   15.600    3.3175
   15.615    3.0964
   15.630    3.1280
   15.645    3.2122
   15.660    3.3597
   15.675    3.2227
   15.690    3.0964
   15.705    2.8015
   15.720    3.0542
   15.735    3.4439
   15.750    3.3807
   15.765    3.0226
   15.780    3.2543
   15.795    3.1280
   15.810    3.3281
   15.825    3.4018
   15.840    3.1806
   15.855    3.2122
   15.870    3.0226
   15.885    3.1280
   15.900    3.2227
   15.915    3.4334
   15.930    3.1912
   15.945    3.3807
   15.960    3.2859
   15.975    3.1596
   15.990    3.1806
   16.005    3.4018
   16.020    3.3386
   16.035    3.2438
   16.050    3.2333
   16.065    3.0858
   16.080    3.1701
   16.095    3.1069
   16.110    3.1280
   16.125    3.2017
   16.140    3.1912
   16.155    3.3807
   16.170    3.4334
   16.185    3.3281
   16.200    3.2438
   16.215    3.0648
   16.230    3.0964
   16.245    3.1806
   16.260    3.1280
   16.275    3.2543
   16.290    3.3807
   16.305    3.3175
   16.320    3.3702
   16.335    3.2438
   16.350    3.1912
   16.365    2.9700
   16.380    3.1385
   16.395    3.1174
   16.410    3.1385
   16.425    3.5387
   16.440    3.2754
   16.455    3.5282
   16.470    3.4018
   16.485    3.1069
   16.500    3.1174
   16.515    3.3491
   16.530    3.2543
   16.545    3.5914
   16.560    3.4229
   16.575    3.3175
   16.590    3.3386
   16.605    3.1385
   16.620    3.1912
   16.635    3.0121
   16.650    3.2965
   16.665    3.3281
   16.680    3.3386
   16.695    3.1490
   16.710    3.3070
   16.725    3.1174
   16.740    3.1280
   16.755    3.3386
   16.770    3.3281
   16.785    3.4229
   16.800    3.3281
   16.815    3.3386
   16.830    3.2122
   16.845    3.3175
   16.860    3.0753
   16.875    3.1280
   16.890    2.7383
   16.905    3.2227
   16.920    3.2438
   16.935    3.2017
   16.950    2.8225
   16.965    3.2438
   16.980    3.1069
   16.995    3.3070
   17.010    3.2017
   17.025    3.2543
   17.040    3.3175
   17.055    3.3386
   17.070    3.4229
   17.085    3.0542
   17.100    3.1596
   17.115    3.0542
   17.130    3.0753
   17.145    3.1280
   17.160    3.1280
   17.175    3.2754
   17.190    3.4650
   17.205    3.2333
   17.220    3.2859
   17.235    3.4544
   17.250    3.0226
   17.265    3.3070
   17.280    3.5387
   17.295    3.1912
   17.310    3.1701
   17.325    2.9489
   17.340    3.1912
   17.355    3.0226
   17.370    3.0437
   17.385    3.2859
   17.400    3.3175
   17.415    3.3070
   17.430    3.1069
   17.445    3.0437
   17.460    3.3913
   17.475    3.0437
   17.490    2.9910
   17.505    3.1280
   17.520    3.0542
   17.535    3.0648
   17.550    3.3702
   17.565    3.2438
   17.580    3.2859
   17.595    3.4650
   17.610    3.1490
   17.625    3.0437
   17.640    3.0964
   17.655    3.2438
   17.670    2.9595
   17.685    3.0332
   17.700    3.2438
   17.715    3.2754
   17.730    3.1596
   17.745    2.9068
   17.760    3.0858
   17.775    3.2859
   17.790    3.2227
   17.805    3.1596
   17.820    2.9068
   17.835    3.2333
   17.850    3.1280
   17.865    3.2017
   17.880    3.1174
   17.895    3.1596
   17.910    3.4229
   17.925    3.1174
   17.940    3.1069
   17.955    3.2649
   17.970    2.9173
   17.985    3.1596
   18.000    3.0016
   18.015    2.8015
   18.030    3.2543
   18.045    3.0858
   18.060    3.2227
   18.075    3.3913
   18.090    3.2017
   18.105    3.1596
   18.120    3.3913
   18.135    3.2122
   18.150    3.2017
   18.165    3.0016
   18.180    3.4544
   18.195    3.2543
   18.210    3.0332
   18.225    2.9279
   18.240    3.3175
   18.255    3.0542
   18.270    3.4544
   18.285    3.3807
   18.300    3.2754
   18.315    3.0964
   18.330    3.0964
   18.345    3.0964
   18.360    3.3281
   18.375    3.2227
   18.390    3.1385
   18.405    2.9805
   18.420    2.8647
   18.435    2.8225
   18.450    3.0226
   18.465    3.1596
   18.480    3.1385
   18.495    3.0016
   18.510    3.1385
   18.525    3.2333
   18.540    3.2754
   18.555    3.0016
   18.570    2.9910
   18.585    3.1174
   18.600    3.4544
   18.615    3.2438
   18.630    3.0542
   18.645    2.6962
   18.660    3.3281
   18.675    3.1490
   18.690    3.2543
   18.705    3.1069
   18.720    3.0648
   18.735    2.9489
   18.750    3.0016
   18.765    3.1701
   18.780    3.5808
   18.795    3.2438
   18.810    3.0753
   18.825    2.9595
   18.840    3.4439
   18.855    3.3386
   18.870    3.1174
   18.885    3.2017
   18.900    3.2333
   18.915    3.1912
   18.930    3.3702
   18.945    3.1806
   18.960    3.4018
   18.975    3.6335
   18.990    3.9179
   19.005    3.5808
   19.020    3.5282
   19.035    3.0648
   19.050    3.2227
   19.065    3.1174
   19.080    3.2649
   19.095    3.3175
   19.110    3.3597
   19.125    3.1701
   19.140    3.0542
   19.155    2.6330
   19.170    3.1174
   19.185    3.1912
   19.200    3.1701
   19.215    2.9910
   19.230    3.2543
   19.245    2.7383
   19.260    2.8541
   19.275    3.0016
   19.290    3.0121
   19.305    2.8015
   19.320    2.9910
   19.335    3.0016
   19.350    2.9910
   19.365    3.0648
   19.380    2.9595
   19.395    3.0332
   19.410    3.0016
   19.425    3.1280
   19.440    3.0016
   19.455    2.7699
   19.470    2.9489
   19.485    3.0648
   19.500    3.5282
   19.515    3.0016
   19.530    3.1280
   19.545    3.2122
   19.560    2.7699
   19.575    2.9700
   19.590    2.9279
   19.605    3.2227
   19.620    3.2122
   19.635    3.0648
   19.650    3.0858
   19.665    3.1596
   19.680    3.0121
   19.695    3.0226
   19.710    3.0858
   19.725    3.1069
   19.740    3.2122
   19.755    2.7278
   19.770    2.9384
   19.785    2.8752
   19.800    3.0648
   19.815    3.0858
   19.830    3.1596
   19.845    3.2543
   19.860    2.9068
   19.875    3.0332
   19.890    3.0016
   19.905    3.0121
   19.920    2.7278
   19.935    3.0332
   19.950    3.1806
   19.965    3.0753
   19.980    2.8436
   19.995    2.9384
   20.010    2.9805
   20.025    3.0226
   20.040    2.9384
   20.055    2.9279
   20.070    2.9700
   20.085    3.0648
   20.100    2.9805
   20.115    3.0226
   20.130    3.1280
   20.145    3.0437
   20.160    2.8225
   20.175    2.9068
   20.190    2.9700
   20.205    2.8436
   20.220    2.9700
   20.235    2.8963
   20.250    3.0542
   20.265    2.7804
   20.280    2.5171
   20.295    3.0648
   20.310    3.0016
   20.325    3.0648
   20.340    2.9384
   20.355    2.7699
   20.370    2.7804
   20.385    2.9068
   20.400    3.0016
   20.415    2.8436
   20.430    3.0437
   20.445    2.8857
   20.460    2.9910
   20.475    2.8331
   20.490    2.9068
   20.505    3.1069
   20.520    2.8436
   20.535    2.7593
   20.550    2.8436
   20.565    2.9068
   20.580    2.7804
   20.595    2.9279
   20.610    2.9805
   20.625    2.9173
   20.640    2.9595
   20.655    3.1174
   20.670    2.6224
   20.685    2.8857
   20.700    2.9805
   20.715    3.0437
   20.730    3.0332
   20.745    3.0121
   20.760    2.8857
   20.775    3.0753
   20.790    2.9384
   20.805    2.8120
   20.820    2.9805
   20.835    3.1069
   20.850    3.1385
   20.865    2.7067
   20.880    2.7699
   20.895    2.7172
   20.910    2.8015
   20.925    2.6435
   20.940    2.9173
   20.955    2.8331
   20.970    2.6962
   20.985    2.5698
   21.000    2.6014
   21.015    2.6646
   21.030    2.8541
   21.045    3.1385
   21.060    2.7593
   21.075    2.6962
   21.090    2.7909
   21.105    2.7909
   21.120    2.7172
   21.135    2.6856
   21.150    2.7488
   21.165    2.5698
   21.180    2.6435
   21.195    2.7909
   21.210    2.8225
   21.225    2.9595
   21.240    2.6330
   21.255    2.7593
   21.270    2.6435
   21.285    2.8436
   21.300    2.8541
   21.315    2.8015
   21.330    2.9700
   21.345    2.8541
   21.360    2.8541
   21.375    2.7278
   21.390    2.8752
   21.405    2.6224
   21.420    2.5487
   21.435    2.9068
   21.450    2.9700
   21.465    2.7909
   21.480    2.7699
   21.495    2.8857
   21.510    2.7278
   21.525    2.5592
   21.540    2.8752
   21.555    3.0332
   21.570    2.6646
   21.585    2.7909
   21.600    2.8541
   21.615    2.7699
   21.630    2.8541
   21.645    2.7804
   21.660    2.6751
   21.675    2.8647
   21.690    2.5908
   21.705    2.6540
   21.720    2.7488
   21.735    2.7699
   21.750    2.8331
   21.765    2.5698
   21.780    3.0648
   21.795    2.6224
   21.810    2.8225
   21.825    2.7909
   21.840    2.5382
   21.855    2.7699
   21.870    2.9279
   21.885    2.9173
   21.900    2.8225
   21.915    2.7278
   21.930    2.5803
   21.945    2.7488
   21.960    2.7593
   21.975    2.9700
   21.990    2.8647
   22.005    2.4645
   22.020    2.5171
   22.035    2.7067
   22.050    2.6751
   22.065    2.6330
   22.080    2.7699
   22.095    2.9279
   22.110    2.6540
   22.125    2.7593
   22.140    2.6856
   22.155    2.8857
   22.170    2.3381
   22.185    2.5698
   22.200    2.8120
   22.215    2.6014
   22.230    2.7383
   22.245    2.5382
   22.260    2.8752
   22.275    2.6330
   22.290    2.6330
   22.305    2.7383
   22.320    2.7488
   22.335    2.7593
   22.350    2.8752
   22.365    2.7488
   22.380    2.7067
   22.395    2.6014
   22.410    2.5698
   22.425    2.6751
   22.440    2.6962
   22.455    2.6119
   22.470    2.8857
   22.485    2.8752
   22.500    2.7699
   22.515    2.8331
   22.530    2.8541
   22.545    2.6540
   22.560    2.5487
   22.575    2.8541
   22.590    2.5592
   22.605    2.8331
   22.620    2.8963
   22.635    2.7804
   22.650    2.8225
   22.665    2.6751
   22.680    2.3802
   22.695    2.4223
   22.710    2.8015
   22.725    2.7278
   22.740    2.7593
   22.755    2.5698
   22.770    2.3381
   22.785    2.4329
   22.800    2.5276
   22.815    2.5803
   22.830    2.5487
   22.845    2.5803
   22.860    2.8331
   22.875    2.7067
   22.890    2.6856
   22.905    2.5803
   22.920    2.5171
   22.935    2.7909
   22.950    2.6435
   22.965    2.4750
   22.980    2.5698
   22.995    2.6119
   23.010    2.6856
   23.025    2.8015
   23.040    2.7804
   23.055    2.7593
   23.070    2.8436
   23.085    2.7383
   23.100    2.6014
   23.115    2.6119
   23.130    2.5487
   23.145    2.6646
   23.160    2.5276
   23.175    2.5487
   23.190    2.4013
   23.205    2.6224
   23.220    2.6224
   23.235    2.6014
   23.250    2.4434
   23.265    2.4118
   23.280    2.5908
   23.295    2.5382
   23.310    2.3697
   23.325    2.3591
   23.340    2.5276
   23.355    2.4013
   23.370    2.2538
   23.385    2.6119
   23.400    2.4855
   23.415    2.6014
   23.430    2.6435
   23.445    2.5698
   23.460    2.5382
   23.475    2.4750
   23.490    2.5698
   23.505    2.5908
   23.520    2.6014
   23.535    2.4223
   23.550    2.6751
   23.565    2.6540
   23.580    2.7383
   23.595    2.6435
   23.610    2.2433
   23.625    2.0537
   23.640    2.1696
   23.655    2.6014
   23.670    2.5908
   23.685    2.3275
   23.700    2.5276
   23.715    2.3486
   23.730    2.2959
   23.745    2.7699
   23.760    2.4329
   23.775    2.4645
   23.790    2.2959
   23.805    2.3907
   23.820    2.2854
   23.835    2.3381
   23.850    2.2222
   23.865    2.5487
   23.880    2.3486
   23.895    2.4223
   23.910    2.4013
   23.925    2.2643
   23.940    2.3591
   23.955    2.2959
   23.970    2.2959
   23.985    2.5171
   24.000    2.3065
   24.015    2.2854
   24.030    2.2328
   24.045    2.2012
   24.060    2.7593
   24.075    2.3381
   24.090    2.3802
   24.105    2.4539
   24.120    2.4223
   24.135    2.3802
   24.150    2.6014
   24.165    2.7278
   24.180    2.2959
   24.195    2.3591
   24.210    2.1801
   24.225    2.4118
   24.240    2.3065
   24.255    2.5171
   24.270    2.3065
   24.285    2.4961
   24.300    2.3275
   24.315    2.2433
   24.330    2.1380
   24.345    2.4013
   24.360    2.4013
   24.375    2.4750
   24.390    2.2117
   24.405    2.4013
   24.420    2.3697
   24.435    2.1696
   24.450    2.2854
   24.465    2.2854
   24.480    2.3170
   24.495    2.2012
   24.510    2.3486
   24.525    2.4013
   24.540    2.5698
   24.555    2.3802
   24.570    2.2854
   24.585    2.2959
   24.600    2.1696
   24.615    2.1590
   24.630    2.2538
   24.645    2.3486
   24.660    2.2959
   24.675    2.2643
   24.690    2.4750
   24.705    2.3486
   24.720    2.2538
   24.735    2.2959
   24.750    2.2222
   24.765    2.1590
   24.780    2.2012
   24.795    2.3591
   24.810    2.0326
   24.825    2.1590
   24.840    2.2433
   24.855    2.2643
   24.870    2.3381
   24.885    2.1696
   24.900    2.4013
   24.915    2.5171
   24.930    2.2328
   24.945    2.2643
   24.960    2.5803
   24.975    2.4645
   24.990    2.4118
   25.005    2.3486
   25.020    2.4434
   25.035    2.3170
   25.050    2.2117
   25.065    2.2643
   25.080    2.2643
   25.095    2.2328
   25.110    1.9800
   25.125    2.3275
   25.140    2.1380
   25.155    2.4645
   25.170    2.4223
   25.185    2.2643
   25.200    2.3170
   25.215    2.3486
   25.230    2.2433
   25.245    2.4750
   25.260    2.2959
   25.275    2.2854
   25.290    2.1906
   25.305    2.1696
   25.320    2.1696
   25.335    2.2538
   25.350    2.1485
   25.365    2.4223
   25.380    2.4855
   25.395    2.4750
   25.410    2.3697
   25.425    2.2433
   25.440    2.2749
   25.455    2.3907
   25.470    2.1696
   25.485    2.3275
   25.500    2.4013
   25.515    2.2117
   25.530    2.1274
   25.545    2.3275
   25.560    2.1906
   25.575    2.2959
   25.590    2.3381
   25.605    2.3486
   25.620    2.2222
   25.635    2.1169
   25.650    2.2433
   25.665    2.0642
   25.680    2.4855
   25.695    2.1380
   25.710    2.2433
   25.725    2.2643
   25.740    2.2959
   25.755    2.0958
   25.770    2.1274
   25.785    2.1801
   25.800    2.2854
   25.815    2.2643
   25.830    2.2959
   25.845    2.2749
   25.860    2.2959
   25.875    2.3170
   25.890    2.2117
   25.905    2.3065
   25.920    2.0748
   25.935    2.1380
   25.950    2.2117
   25.965    2.1485
   25.980    2.0853
   25.995    2.0537
   26.010    2.0326
   26.025    2.2012
   26.040    2.1590
   26.055    1.9379
   26.070    2.2117
   26.085    2.1906
   26.100    2.1274
   26.115    1.8957
   26.130    1.9379
   26.145    2.0642
   26.160    2.1801
   26.175    2.0537
   26.190    2.0116
   26.205    2.1801
   26.220    2.1696
   26.235    2.1274
   26.250    2.0748
   26.265    2.3275
   26.280    2.2117
   26.295    2.2433
   26.310    2.2117
   26.325    2.0853
   26.340    2.0748
   26.355    2.1064
   26.370    2.4118
   26.385    2.1274
   26.400    2.1801
   26.415    2.2012
   26.430    2.2222
   26.445    2.0958
   26.460    1.9589
   26.475    2.0326
   26.490    2.1274
   26.505    2.1169
   26.520    2.0326
   26.535    2.0853
   26.550    2.2117
   26.565    2.4223
   26.580    2.5382
   26.595    2.2959
   26.610    2.2433
   26.625    2.1274
   26.640    2.0958
   26.655    2.1274
   26.670    2.2222
   26.685    1.9800
   26.700    2.0537
   26.715    2.3275
   26.730    2.2012
   26.745    2.1380
   26.760    2.0326
   26.775    1.9800
   26.790    2.0958
   26.805    2.0853
   26.820    2.0537
   26.835    2.1696
   26.850    1.8747
   26.865    2.1169
   26.880    2.0432
   26.895    2.1906
   26.910    2.1696
   26.925    2.2117
   26.940    2.1485
   26.955    2.0432
   26.970    2.0116
   26.985    1.9168
   27.000    2.0432
   27.015    1.8852
   27.030    1.8641
   27.045    2.0011
   27.060    2.0011
   27.075    2.1590
   27.090    2.0537
   27.105    1.8641
   27.120    2.0221
   27.135    1.9273
   27.150    2.0116
   27.165    2.0116
   27.180    2.2012
   27.195    2.0853
   27.210    2.0011
   27.225    2.0642
   27.240    1.8536
   27.255    1.7483
   27.270    1.9063
   27.285    1.9273
   27.300    1.8431
   27.315    2.1274
   27.330    1.9905
   27.345    1.9905
   27.360    1.9379
   27.375    1.8957
   27.390    2.0748
   27.405    2.0432
   27.420    2.1380
   27.435    1.9379
   27.450    2.0011
   27.465    1.9905
   27.480    2.1274
   27.495    1.9063
   27.510    1.8641
   27.525    1.9484
   27.540    1.9695
   27.555    2.0326
   27.570    2.0537
   27.585    1.9589
   27.600    1.8641
   27.615    1.7799
   27.630    1.7799
   27.645    2.0221
   27.660    2.0537
   27.675    1.8641
   27.690    1.9168
   27.705    1.9800
   27.720    2.1380
   27.735    2.1485
   27.750    2.2538
   27.765    2.0011
   27.780    1.9273
   27.795    2.0958
   27.810    1.9589
   27.825    1.9905
   27.840    2.0326
   27.855    1.7904
   27.870    1.8536
   27.885    2.1274
   27.900    1.9800
   27.915    2.1380
   27.930    2.1274
   27.945    2.1169
   27.960    2.4223
   27.975    2.3802
   27.990    2.2643
   28.005    2.2117
   28.020    2.0432
   28.035    2.0432
   28.050    1.7799
   28.065    1.8641
   28.080    1.9063
   28.095    1.9589
   28.110    2.1906
   28.125    1.9379
   28.140    2.0221
   28.155    1.8536
   28.170    1.9800
   28.185    1.6640
   28.200    1.9273
   28.215    1.9589
   28.230    1.8852
   28.245    2.0748
   28.260    2.0221
   28.275    1.8325
   28.290    2.0116
   28.305    2.1590
   28.320    1.8852
   28.335    1.8957
   28.350    2.0432
   28.365    2.0642
   28.380    1.9484
   28.395    2.0326
   28.410    1.9695
   28.425    1.7904
   28.440    2.0221
   28.455    1.9273
   28.470    1.8325
   28.485    1.8641
   28.500    2.0642
   28.515    2.1064
   28.530    1.9800
   28.545    1.9589
   28.560    1.7799
   28.575    1.9273
   28.590    1.8536
   28.605    1.9273
   28.620    1.9695
   28.635    1.9379
   28.650    2.2433
   28.665    2.0432
   28.680    1.7904
   28.695    1.6956
   28.710    1.9905
   28.725    1.7167
   28.740    1.8641
   28.755    1.8957
   28.770    1.8747
   28.785    2.0432
   28.800    1.8852
   28.815    1.8747
   28.830    1.8115
   28.845    2.0537
   28.860    2.0748
   28.875    2.2328
   28.890    2.4118
   28.905    2.5487
   28.920    2.8225
   28.935    2.9910
   28.950    2.7067
   28.965    2.4750
   28.980    2.3591
   28.995    2.0011
   29.010    2.0537
   29.025    1.9168
   29.040    1.8220
   29.055    1.9379
   29.070    1.9905
   29.085    1.9905
   29.100    1.9589
   29.115    2.0748
   29.130    1.7588
   29.145    1.9168
   29.160    1.8852
   29.175    1.8641
   29.190    1.8431
   29.205    1.8852
   29.220    1.8852
   29.235    1.8536
   29.250    2.2117
   29.265    1.9589
   29.280    1.9168
   29.295    1.6219
   29.310    1.7272
   29.325    2.1485
   29.340    1.9063
   29.355    1.8747
   29.370    1.9063
   29.385    1.7062
   29.400    1.7378
   29.415    1.8536
   29.430    1.7904
   29.445    1.8325
   29.460    1.7588
   29.475    1.8009
   29.490    1.7272
   29.505    1.9905
   29.520    1.8115
   29.535    1.7588
   29.550    1.7062
   29.565    1.6114
   29.580    1.7694
   29.595    1.6746
   29.610    1.5377
   29.625    1.8009
   29.640    1.5587
   29.655    1.7904
   29.670    1.5482
   29.685    1.4218
   29.700    1.6219
   29.715    1.6430
   29.730    1.7378
   29.745    1.7062
   29.760    1.6219
   29.775    1.6324
   29.790    1.6324
   29.805    1.6430
   29.820    1.5271
   29.835    1.7272
   29.850    1.7272
   29.865    1.7588
   29.880    1.6746
   29.895    1.5166
   29.910    1.4218
   29.925    1.6640
   29.940    1.6535
   29.955    1.6430
   29.970    1.6114
   29.985    1.6956
   30.000    1.7062
   30.015    1.6008
   30.030    1.4955
   30.045    1.6219
   30.060    1.6746
   30.075    1.7483
   30.090    1.5798
   30.105    1.9800
   30.120    1.4639
   30.135    1.5692
   30.150    1.6746
   30.165    1.6430
   30.180    1.8220
   30.195    1.5903
   30.210    1.6956
   30.225    1.5166
   30.240    1.4323
   30.255    1.6535
   30.270    1.4429
   30.285    1.5692
   30.300    1.6956
   30.315    1.6430
   30.330    1.6324
   30.345    1.6430
   30.360    1.6535
   30.375    1.3902
   30.390    1.3902
   30.405    1.5798
   30.420    1.5692
   30.435    1.5482
   30.450    1.6746
   30.465    1.6851
   30.480    1.5061
   30.495    1.5798
   30.510    1.6114
   30.525    1.8325
   30.540    1.6114
   30.555    1.5692
   30.570    1.7272
   30.585    1.4534
   30.600    1.7167
   30.615    1.5692
   30.630    1.6114
   30.645    1.6430
   30.660    1.4323
   30.675    1.5798
   30.690    1.4955
   30.705    1.6746
   30.720    1.6535
   30.735    1.5798
   30.750    1.7588
   30.765    1.5166
   30.780    1.4850
   30.795    1.6114
   30.810    1.4639
   30.825    1.5692
   30.840    1.3902
   30.855    1.3902
   30.870    1.5166
   30.885    1.6535
   30.900    1.6746
   30.915    1.5482
   30.930    1.4639
   30.945    1.4955
   30.960    1.4850
   30.975    1.6008
   30.990    1.6640
   31.005    1.5482
   31.020    1.5798
   31.035    1.4955
   31.050    1.5587
   31.065    1.4850
   31.080    1.5061
   31.095    1.5271
   31.110    1.4745
   31.125    1.5271
   31.140    1.6956
   31.155    1.6114
   31.170    1.7483
   31.185    1.4639
   31.200    1.5061
   31.215    1.5271
   31.230    1.4323
   31.245    1.2006
   31.260    1.3586
   31.275    1.6746
   31.290    1.5271
   31.305    1.4429
   31.320    1.4745
   31.335    1.4429
   31.350    1.4113
   31.365    1.3797
   31.380    1.3691
   31.395    1.5482
   31.410    1.4745
   31.425    1.4007
   31.440    1.5271
   31.455    1.4429
   31.470    1.6430
   31.485    1.5166
   31.500    1.4534
   31.515    1.4850
   31.530    1.4639
   31.545    1.4007
   31.560    1.4429
   31.575    1.4007
   31.590    1.4745
   31.605    1.4955
   31.620    1.4113
   31.635    1.6008
   31.650    1.5482
   31.665    1.4218
   31.680    1.5798
   31.695    1.6430
   31.710    1.5377
   31.725    1.6114
   31.740    1.5166
   31.755    1.6114
   31.770    1.8115
   31.785    1.7167
   31.800    1.6219
   31.815    1.6851
   31.830    1.5903
   31.845    1.6114
   31.860    1.5587
   31.875    1.4007
   31.890    1.3270
   31.905    1.4218
   31.920    1.4639
   31.935    1.4218
   31.950    1.3797
   31.965    1.2744
   31.980    1.4534
   31.995    1.5061
   32.010    1.7694
   32.025    1.9379
   32.040    2.2959
   32.055    2.6224
   32.070    2.8015
   32.085    2.6646
   32.100    2.1906
   32.115    2.1696
   32.130    1.8325
   32.145    1.4745
   32.160    1.5166
   32.175    1.3691
   32.190    1.4850
   32.205    1.4745
   32.220    1.5061
   32.235    1.5377
   32.250    1.4007
   32.265    1.3691
   32.280    1.4323
   32.295    1.4007
   32.310    1.1690
   32.325    1.4534
   32.340    1.3375
   32.355    1.3691
   32.370    1.3270
   32.385    1.3902
   32.400    1.3481
   32.415    1.4113
   32.430    1.4850
   32.445    1.3797
   32.460    1.4429
   32.475    1.5061
   32.490    1.3902
   32.505    1.4955
   32.520    1.4007
   32.535    1.2638
   32.550    1.3481
   32.565    1.3586
   32.580    1.3270
   32.595    1.3797
   32.610    1.3481
   32.625    1.3375
   32.640    1.3902
   32.655    1.3902
   32.670    1.2744
   32.685    1.2954
   32.700    1.2322
   32.715    1.2744
   32.730    1.0953
   32.745    1.3375
   32.760    1.5166
   32.775    1.2849
   32.790    1.3481
   32.805    1.2744
   32.820    1.4007
   32.835    1.3902
   32.850    1.4218
   32.865    1.3797
   32.880    1.4007
   32.895    1.3481
   32.910    1.2638
   32.925    1.3691
   32.940    1.3586
   32.955    1.3586
   32.970    1.2954
   32.985    1.4113
   33.000    1.4218
   33.015    1.4429
   33.030    1.3797
   33.045    1.3902
   33.060    1.2849
   33.075    1.3481
   33.090    1.3270
   33.105    1.1796
   33.120    1.2533
   33.135    1.2744
   33.150    1.4639
   33.165    1.3902
   33.180    1.3481
   33.195    1.3691
   33.210    1.4323
   33.225    1.4323
   33.240    1.4639
   33.255    1.5482
   33.270    1.3902
   33.285    1.3902
   33.300    1.2638
   33.315    1.3165
   33.330    1.4955
   33.345    1.2533
   33.360    1.3797
   33.375    1.6008
   33.390    1.2112
   33.405    1.2217
   33.420    1.4429
   33.435    1.3375
   33.450    1.2112
   33.465    1.2322
   33.480    1.2217
   33.495    1.4007
   33.510    1.3270
   33.525    1.2638
   33.540    1.3270
   33.555    1.3165
   33.570    1.3691
   33.585    1.2954
   33.600    1.3165
   33.615    1.3165
   33.630    1.2217
   33.645    1.2849
   33.660    1.1901
   33.675    1.2533
   33.690    1.3375
   33.705    1.3797
   33.720    1.3481
   33.735    1.4113
   33.750    1.4639
   33.765    1.4745
   33.780    1.6430
   33.795    1.4955
   33.810    1.3481
   33.825    1.5271
   33.840    1.3797
   33.855    1.3060
   33.870    1.2006
   33.885    1.3060
   33.900    1.4745
   33.915    1.2638
   33.930    1.2322
   33.945    1.3481
   33.960    1.3902
   33.975    1.2006
   33.990    1.2638
   34.005    1.4429
   34.020    1.4745
   34.035    1.3060
   34.050    1.2533
   34.065    1.3165
   34.080    1.3375
   34.095    1.3375
   34.110    1.2744
   34.125    1.0742
   34.140    1.1690
   34.155    1.3270
   34.170    1.2217
   34.185    1.0742
   34.200    1.1480
   34.215    1.2849
   34.230    1.3375
   34.245    1.3586
   34.260    1.2217
   34.275    1.3165
   34.290    1.2322
   34.305    1.1901
   34.320    1.2217
   34.335    1.3797
   34.350    1.2744
   34.365    1.1901
   34.380    1.3165
   34.395    1.2112
   34.410    1.3481
   34.425    1.2954
   34.440    1.3481
   34.455    1.4218
   34.470    1.3375
   34.485    1.1690
   34.500    1.2744
   34.515    1.2006
   34.530    1.2533
   34.545    1.3691
   34.560    1.1374
   34.575    1.0111
   34.590    1.1164
   34.605    1.4007
   34.620    1.2849
   34.635    1.1690
   34.650    1.3691
   34.665    1.3797
   34.680    1.2849
   34.695    1.3270
   34.710    1.2428
   34.725    1.3586
   34.740    1.2954
   34.755    1.0953
   34.770    1.1796
   34.785    1.2322
   34.800    1.1585
   34.815    1.0848
   34.830    1.1058
   34.845    1.2006
   34.860    1.2533
   34.875    1.4113
   34.890    1.3270
   34.905    1.4745
   34.920    1.3691
   34.935    1.1480
   34.950    1.3481
   34.965    1.1901
   34.980    1.2322
   34.995    1.2217
   35.010    1.3481
   35.025    1.2006
   35.040    1.2638
   35.055    1.0953
   35.070    1.2217
   35.085    1.2954
   35.100    1.2849
   35.115    1.2954
   35.130    1.3165
   35.145    1.2638
   35.160    1.2849
   35.175    1.4429
   35.190    1.1901
   35.205    1.2428
   35.220    1.3165
   35.235    1.2112
   35.250    1.1901
   35.265    1.2533
   35.280    1.4850
   35.295    1.3165
   35.310    1.2744
   35.325    1.2744
   35.340    1.2217
   35.355    1.2638
   35.370    1.1585
   35.385    1.2112
   35.400    1.2954
   35.415    1.2533
   35.430    1.3060
   35.445    1.3165
   35.460    1.3481
   35.475    1.1374
   35.490    1.2533
   35.505    1.3165
   35.520    1.3481
   35.535    1.2217
   35.550    1.4323
   35.565    1.3165
   35.580    1.4429
   35.595    1.2849
   35.610    1.2322
   35.625    1.2849
   35.640    1.2638
   35.655    1.1269
   35.670    1.2849
   35.685    1.1901
   35.700    1.2744
   35.715    1.2428
   35.730    1.1374
   35.745    1.2217
   35.760    1.1690
   35.775    1.3481
   35.790    1.3375
   35.805    1.1585
   35.820    1.0111
   35.835    1.0427
   35.850    1.3060
   35.865    1.3270
   35.880    1.0953
   35.895    1.1374
   35.910    1.2217
   35.925    1.2428
   35.940    1.3797
   35.955    1.2217
   35.970    1.2744
   35.985    1.2217
   36.000    1.3060
   36.015    1.3060
   36.030    1.3270
   36.045    1.3586
   36.060    1.1796
   36.075    1.1585
   36.090    1.2954
   36.105    1.3060
   36.120    1.1585
   36.135    1.2849
   36.150    1.2006
   36.165    1.1164
   36.180    1.1164
   36.195    1.2217
   36.210    1.2954
   36.225    1.0953
   36.240    1.2322
   36.255    1.3270
   36.270    1.2954
   36.285    1.1269
   36.300    1.2849
   36.315    1.2112
   36.330    1.4113
   36.345    1.3375
   36.360    1.2322
   36.375    1.3481
   36.390    1.3902
   36.405    1.4007
   36.420    1.2217
   36.435    1.1796
   36.450    1.2428
   36.465    1.1480
   36.480    1.2744
   36.495    1.3797
   36.510    1.2533
   36.525    1.1480
   36.540    1.2322
   36.555    1.1374
   36.570    1.3902
   36.585    1.1901
   36.600    1.2006
   36.615    1.2744
   36.630    1.2638
   36.645    1.2112
   36.660    1.2744
   36.675    1.2638
   36.690    1.2217
   36.705    1.1901
   36.720    1.3375
   36.735    1.2322
   36.750    1.2533
   36.765    1.2849
   36.780    1.1901
   36.795    1.2849
   36.810    1.0427
   36.825    1.1374
   36.840    1.2112
   36.855    0.9795
   36.870    1.0427
   36.885    1.0321
   36.900    1.0742
   36.915    1.2428
   36.930    1.2849
   36.945    1.1058
   36.960    1.2112
   36.975    1.3375
   36.990    1.2112
   37.005    1.2638
   37.020    1.1269
   37.035    1.2533
   37.050    1.2428
   37.065    1.1585
   37.080    1.1796
   37.095    1.2638
   37.110    1.2533
   37.125    1.1901
   37.140    1.2638
   37.155    1.3375
   37.170    1.1058
   37.185    1.1269
   37.200    1.0953
   37.215    1.1058
   37.230    1.2217
   37.245    1.0532
   37.260    1.1374
   37.275    0.9373
   37.290    1.1901
   37.305    1.1164
   37.320    1.1901
   37.335    1.0321
   37.350    0.9795
   37.365    1.1796
   37.380    1.1164
   37.395    1.1480
   37.410    1.3060
   37.425    1.2006
   37.440    1.1796
   37.455    1.1269
   37.470    1.1796
   37.485    1.1585
   37.500    1.2849
   37.515    1.1796
   37.530    1.0953
   37.545    1.2533
   37.560    1.3270
   37.575    1.1480
   37.590    1.0953
   37.605    1.2744
   37.620    1.2533
   37.635    1.2217
   37.650    1.1058
   37.665    1.1901
   37.680    1.2638
   37.695    1.2112
   37.710    1.0637
   37.725    1.3060
   37.740    1.2533
   37.755    1.2428
   37.770    1.3902
   37.785    1.2533
   37.800    1.3691
   37.815    1.2744
   37.830    1.1901
   37.845    1.1901
   37.860    1.2112
   37.875    1.1690
   37.890    1.0111
   37.905    1.2006
   37.920    1.0427
   37.935    1.0742
   37.950    1.1585
   37.965    1.1058
   37.980    1.2112
   37.995    1.1058
   38.010    1.0427
   38.025    1.2006
   38.040    1.1585
   38.055    1.1480
   38.070    1.2849
   38.085    1.2849
   38.100    1.2006
   38.115    1.2112
   38.130    1.2006
   38.145    1.2006
   38.160    1.0848
   38.175    1.4534
   38.190    1.3691
   38.205    1.1585
   38.220    1.3902
   38.235    1.2006
   38.250    1.1585
   38.265    1.2006
   38.280    1.2638
   38.295    1.2533
   38.310    1.0532
   38.325    1.1164
   38.340    1.2006
   38.355    1.1796
   38.370    1.2954
   38.385    1.3060
   38.400    1.2849
   38.415    1.1690
   38.430    1.3165
   38.445    1.3270
   38.460    1.3165
   38.475    1.1480
   38.490    1.3375
   38.505    1.3375
   38.520    1.2006
   38.535    1.3797
   38.550    1.3481
   38.565    1.2322
   38.580    1.4007
   38.595    1.2849
   38.610    1.2428
   38.625    1.2217
   38.640    1.3586
   38.655    1.0111
   38.670    1.2006
   38.685    1.1796
   38.700    1.1164
   38.715    0.9795
   38.730    0.9373
   38.745    1.2954
   38.760    1.0742
   38.775    1.1374
   38.790    1.1796
   38.805    1.2112
   38.820    1.0532
   38.835    1.1374
   38.850    1.2428
   38.865    1.2322
   38.880    1.1901
   38.895    1.0005
   38.910    1.0216
   38.925    1.1480
   38.940    1.0848
   38.955    1.0848
   38.970    1.0637
   38.985    1.1058
   39.000    1.2006
   39.015    1.1374
   39.030    1.0953
   39.045    1.2638
   39.060    1.0637
   39.075    0.9479
   39.090    1.2112
   39.105    1.1480
   39.120    1.1480
   39.135    1.0848
   39.150    1.1058
   39.165    1.1058
   39.180    1.1374
   39.195    1.2322
   39.210    1.1901
   39.225    1.4745
   39.240    1.2428
   39.255    1.1480
   39.270    1.1585
   39.285    1.1164
   39.300    1.2112
   39.315    1.1058
   39.330    1.1480
   39.345    1.2744
   39.360    1.2744
   39.375    1.1374
   39.390    1.2428
   39.405    1.2849
   39.420    1.2112
   39.435    1.1690
   39.450    1.2112
   39.465    1.2533
   39.480    1.2322
   39.495    1.1585
   39.510    1.2217
   39.525    1.1585
   39.540    1.2006
   39.555    1.0637
   39.570    1.2217
   39.585    1.1901
   39.600    1.1374
   39.615    1.2112
   39.630    1.1164
   39.645    1.1269
   39.660    1.1901
   39.675    1.2006
   39.690    1.1901
   39.705    1.1796
   39.720    1.2428
   39.735    1.0637
   39.750    1.1585
   39.765    1.0953
   39.780    0.9900
   39.795    1.1058
   39.810    1.2322
   39.825    1.1690
   39.840    0.9900
   39.855    1.1480
   39.870    1.1269
   39.885    0.9163
   39.900    1.0848
   39.915    1.1901
   39.930    1.0321
   39.945    1.2954
   39.960    1.2322
   39.975    1.1796
   39.990    0.9900
