    1.500   16.2928
    1.515   16.1032
    1.530   16.4718
    1.545   15.2817
    1.560   14.7762
    1.575   14.7025
    1.590   14.4918
    1.605   14.6077
    1.620   15.0500
    1.635   13.4913
    1.650   13.2070
    1.665   12.9858
    1.680   12.6382
    1.695   12.8699
    1.710   12.5645
    1.725   11.7009
    1.740   11.7325
    1.755   11.4692
    1.770   11.0585
    1.785   11.2480
    1.800   10.7109
    1.815   10.9110
    1.830   10.8794
    1.845   10.9637
    1.860   10.0369
    1.875    9.8894
    1.890   10.0895
    1.905    9.8262
    1.920    9.6893
    1.935    9.6788
    1.950    9.6156
    1.965    9.2786
    1.980    9.2680
    1.995    9.4155
    2.010    9.4155
    2.025    8.8362
    2.040    8.7204
    2.055    9.0363
    2.070    8.6783
    2.085    8.4781
    2.100    8.7836
    2.115    8.3728
    2.130    8.4255
    2.145    8.3834
    2.160    8.0674
    2.175    7.9305
    2.190    8.4466
    2.205    8.5097
    2.220    8.4360
    2.235    8.0358
    2.250    7.7093
    2.265    8.0358
    2.280    7.3512
    2.295    7.6777
    2.310    8.0463
    2.325    8.1622
    2.340    7.4460
    2.355    7.5408
    2.370    7.5408
    2.385    7.6251
    2.400    7.8673
    2.415    8.1095
    2.430    8.0779
    2.445    7.6777
    2.460    7.9516
    2.475    7.6145
    2.490    7.9200
    2.505    8.1201
    2.520    7.9831
    2.535    8.0463
    2.550    8.0042
    2.565    8.2043
    2.580    8.0885
    2.595    8.3518
    2.610    8.4992
    2.625    8.4887
    2.640    8.8573
    2.655    8.6572
    2.670    8.5624
    2.685    8.7836
    2.700    9.1101
    2.715    9.4997
    2.730    9.6682
    2.745    9.6367
    2.760    9.0679
    2.775    9.3734
    2.790   10.0685
    2.805   10.1106
    2.820   10.7741
    2.835   10.9847
    2.850   11.0900
    2.865   11.5008
    2.880   12.0800
    2.895   12.5856
    2.910   12.8067
    2.925   13.5861
    2.940   13.7757
    2.955   14.1654
    2.970   15.6398
    2.985   16.2296
    3.000   16.3770
    3.015   16.6509
    3.030   17.3038
    3.045   18.1359
    3.060   18.7888
    3.075   19.6103
    3.090   20.5582
    3.105   21.0637
    3.120   22.0853
    3.135   23.3281
    3.150   24.0232
    3.165   25.7925
    3.180   27.1722
    3.195   28.5308
    3.210   31.0690
    3.225   32.9542
    3.240   35.5766
    3.255   36.7878
    3.270   38.5150
    3.285   41.0111
    3.300   45.2659
    3.315   48.2359
    3.330   51.8694
    3.345   56.8720
    3.360   60.1159
    3.375   65.3713
    3.390   69.6261
    3.405   75.0500
    3.420   79.6103
    3.435   83.8441
    3.450   86.6667
    3.465   84.5076
    3.480   82.3275
    3.495   78.2938
    3.510   72.6382
    3.525   64.5287
    3.540   55.8505
    3.555   48.4992
    3.570   41.7062
    3.585   35.9452
    3.600   32.7014
    3.615   29.0785
    3.630   26.5929
    3.645   24.4444
    3.660   23.2754
    3.675   22.5276
    3.690   21.9484
    3.705   21.8852
    3.720   22.4855
    3.735   21.4639
    3.750   22.8225
    3.765   22.6751
    3.780   22.8647
    3.795   23.7704
    3.810   23.3070
    3.825   24.4023
    3.840   25.8347
    3.855   26.1927
    3.870   27.5303
    3.885   27.2459
    3.900   28.2464
    3.915   29.2470
    3.930   30.2264
    3.945   31.3533
    3.960   30.8268
    3.975   31.4481
    3.990   32.3223
    4.005   33.0700
    4.020   33.2701
    4.035   33.3333
    4.050   33.1648
    4.065   31.7957
    4.080   31.3639
    4.095   31.3007
    4.110   30.5635
    4.125   29.8157
    4.140   29.5840
    4.155   28.0253
    4.170   27.7620
    4.185   27.2459
    4.200   25.3397
    4.215   25.5503
    4.230   24.5603
    4.245   23.6124
    4.260   21.7062
    4.275   21.2322
    4.290   20.4213
    4.305   18.5677
    4.320   18.0727
    4.335   16.7773
    4.350   15.5556
    4.365   15.3765
    4.380   14.2917
    4.395   14.0284
    4.410   12.3223
    4.425   11.8483
    4.440   11.6482
    4.455   10.7320
    4.470    9.9842
    4.485    9.3523
    4.500    8.9310
    4.515    8.6151
    4.530    7.9094
    4.545    8.0147
    4.560    7.5197
    4.575    7.3828
    4.590    7.3302
    4.605    7.0563
    4.620    6.5613
    4.635    6.3296
    4.650    6.1085
    4.665    5.6451
    4.680    5.7399
    4.695    5.4871
    4.710    5.3712
    4.725    5.2975
    4.740    5.0026
    4.755    4.8447
    4.770    5.1290
    4.785    5.0869
    4.800    4.9710
    4.815    4.7077
    4.830    4.6867
    4.845    4.3813
    4.860    4.5392
    4.875    4.1917
    4.890    4.3602
    4.905    4.2759
    4.920    4.2865
    4.935    4.4234
    4.950    4.1706
    4.965    4.1074
    4.980    3.7493
    4.995    3.9494
    5.010    4.0232
    5.025    4.2338
    5.040    4.5287
    5.055    4.0758
    5.070    4.1180
    5.085    4.0337
    5.100    4.1706
    5.115    3.8968
    5.130    3.5808
    5.145    3.5282
    5.160    3.7915
    5.175    4.1811
    5.190    3.9284
    5.205    3.5598
    5.220    3.5387
    5.235    3.8020
    5.250    3.6651
    5.265    3.3913
    5.280    3.5914
    5.295    3.7177
    5.310    3.5598
    5.325    3.7809
    5.340    3.7177
    5.355    3.6124
    5.370    3.5492
    5.385    3.5071
    5.400    3.6440
    5.415    3.6546
    5.430    3.5808
    5.445    3.3702
    5.460    3.5598
    5.475    3.4966
    5.490    3.5808
    5.505    3.5914
    5.520    3.6967
    5.535    3.1280
    5.550    2.8857
    5.565    3.2859
    5.580    3.4123
    5.595    2.9595
    5.610    3.0437
    5.625    3.2438
    5.640    3.3913
    5.655    2.9595
    5.670    3.3491
    5.685    3.3913
    5.700    3.4018
    5.715    3.0226
    5.730    3.0016
    5.745    3.0542
    5.760    3.0437
    5.775    3.1069
    5.790    3.2543
    5.805    3.2227
    5.820    3.1912
    5.835    3.0542
    5.850    3.1280
    5.865    2.8541
    5.880    2.9700
    5.895    3.2227
    5.910    3.2017
    5.925    3.0542
    5.940    3.0964
    5.955    2.8647
    5.970    2.9595
    5.985    3.1280
    6.000    2.9595
    6.015    3.0121
    6.030    3.1596
    6.045    3.4544
    6.060    3.3597
    6.075    3.1174
    6.090    3.6019
    6.105    2.8963
    6.120    2.9068
    6.135    2.8963
    6.150    3.0016
    6.165    2.8963
    6.180    3.0648
    6.195    3.1806
    6.210    2.9700
    6.225    3.2438
    6.240    3.0753
    6.255    3.1174
    6.270    3.1385
    6.285    3.3386
    6.300    3.2438
    6.315    3.1490
    6.330    3.4123
    6.345    3.1701
    6.360    3.2122
    6.375    2.9489
    6.390    3.1596
    6.405    3.1280
    6.420    3.3913
    6.435    3.2649
    6.450    3.0648
    6.465    3.2965
    6.480    3.1069
    6.495    3.1385
    6.510    2.8752
    6.525    3.0753
    6.540    3.2754
    6.555    3.1280
    6.570    3.5282
    6.585    3.5282
    6.600    3.5387
    6.615    3.5703
    6.630    4.0442
    6.645    3.7283
    6.660    3.8547
    6.675    3.9073
    6.690    4.0126
    6.705    4.1496
    6.720    4.2443
    6.735    4.6761
    6.750    4.8552
    6.765    5.5398
    6.780    5.4660
    6.795    5.8452
    6.810    6.2770
    6.825    6.8036
    6.840    7.3196
    6.855    7.7093
    6.870    8.0885
    6.885    8.4466
    6.900   10.0053
    6.915   10.4581
    6.930   10.3844
    6.945   10.6793
    6.960   11.2059
    6.975   10.8373
    6.990   10.4792
    7.005    9.5735
    7.020    8.6677
    7.035    7.8989
    7.050    7.1933
    7.065    6.8352
    7.080    6.2770
    7.095    5.4134
    7.110    5.1711
    7.125    4.6445
    7.140    4.2759
    7.155    4.2233
    7.170    3.8863
    7.185    3.7072
    7.200    4.1180
    7.215    3.4650
    7.230    3.5071
    7.245    3.6335
    7.260    3.6862
    7.275    3.7809
    7.290    3.5492
    7.305    3.7388
    7.320    3.3070
    7.335    3.1806
    7.350    3.3491
    7.365    3.4755
    7.380    3.4860
    7.395    3.2859
    7.410    3.5914
    7.425    3.3175
    7.440    3.3913
    7.455    3.4544
    7.470    3.2333
    7.485    3.6862
    7.500    3.4544
    7.515    3.3597
    7.530    3.6019
    7.545    3.3386
    7.560    3.5598
    7.575    3.3491
    7.590    3.4334
    7.605    3.5176
    7.620    3.4544
    7.635    3.2649
    7.650    3.2754
    7.665    3.5808
    7.680    3.3386
    7.695    3.3175
    7.710    3.6335
    7.725    3.6230
    7.740    3.5492
    7.755    3.5703
    7.770    3.6124
    7.785    3.8652
    7.800    3.6967
    7.815    4.0969
    7.830    4.2127
    7.845    4.1390
    7.860    4.2338
    7.875    4.2022
    7.890    4.0758
    7.905    4.0758
    7.920    4.0021
    7.935    4.1390
    7.950    4.1390
    7.965    4.5076
    7.980    4.5392
    7.995    4.8447
    8.010    4.3918
    8.025    4.4444
    8.040    4.5498
    8.055    4.6445
    8.070    4.7183
    8.085    4.7183
    8.100    4.5076
    8.115    4.8447
    8.130    4.5603
    8.145    4.5392
    8.160    4.6972
    8.175    5.1501
    8.190    4.9500
    8.205    4.5392
    8.220    4.6235
    8.235    4.9078
    8.250    4.8341
    8.265    4.9500
    8.280    4.8025
    8.295    4.8973
    8.310    5.0342
    8.325    4.7499
    8.340    4.6235
    8.355    5.0237
    8.370    5.3923
    8.385    5.0026
    8.400    4.7183
    8.415    5.1080
    8.430    4.5708
    8.445    4.7183
    8.460    4.6551
    8.475    4.9710
    8.490    4.8447
    8.505    4.8025
    8.520    5.0342
    8.535    5.1185
    8.550    4.5814
    8.565    4.3391
    8.580    4.2022
    8.595    4.4234
    8.610    4.4550
    8.625    4.2549
    8.640    4.5919
    8.655    4.4444
    8.670    4.1917
    8.685    4.3286
    8.700    4.2865
    8.715    3.7493
    8.730    3.8757
    8.745    3.7177
    8.760    3.7599
    8.775    3.7599
    8.790    3.8547
    8.805    3.8336
    8.820    3.8968
    8.835    3.5703
    8.850    3.4755
    8.865    3.7072
    8.880    3.4123
    8.895    3.5598
    8.910    3.3913
    8.925    3.2965
    8.940    3.0964
    8.955    3.0858
    8.970    3.2859
    8.985    3.1701
    9.000    3.2754
    9.015    3.4229
    9.030    3.2859
    9.045    3.2438
    9.060    3.1806
    9.075    3.1701
    9.090    3.0648
    9.105    3.1490
    9.120    3.0121
    9.135    3.0226
    9.150    3.0437
    9.165    2.8857
    9.180    2.9910
    9.195    2.9910
    9.210    2.7067
    9.225    2.9700
    9.240    3.0753
    9.255    2.9068
    9.270    3.0016
    9.285    2.8647
    9.300    2.7699
    9.315    2.7488
    9.330    2.7909
    9.345    2.5592
    9.360    2.9173
    9.375    2.9700
    9.390    2.6330
    9.405    2.6435
    9.420    2.7699
    9.435    3.0753
    9.450    2.9068
    9.465    2.9173
    9.480    2.6224
    9.495    2.7278
    9.510    2.8120
    9.525    2.8015
    9.540    2.8436
    9.555    2.8647
    9.570    2.6856
    9.585    2.7909
    9.600    2.7804
    9.615    2.6224
    9.630    2.8436
    9.645    2.6330
    9.660    2.6540
    9.675    2.8225
    9.690    2.8120
    9.705    2.6119
    9.720    2.9805
    9.735    2.7804
    9.750    2.7383
    9.765    2.4013
    9.780    2.9279
    9.795    2.9805
    9.810    2.9489
    9.825    2.5803
    9.840    2.8647
    9.855    2.7488
    9.870    2.5908
    9.885    2.6330
    9.900    2.7067
    9.915    2.7804
    9.930    2.6330
    9.945    2.6751
    9.960    2.7067
    9.975    2.6646
    9.990    2.7067
   10.005    2.7593
   10.020    2.8857
   10.035    2.7804
   10.050    2.5171
   10.065    2.6435
   10.080    2.6014
   10.095    2.8647
   10.110    2.8120
   10.125    2.8120
   10.140    2.8647
   10.155    3.0437
   10.170    2.6751
   10.185    2.7383
   10.200    2.9279
   10.215    2.8857
   10.230    2.7278
   10.245    2.8120
   10.260    2.6751
   10.275    2.8015
   10.290    3.0858
   10.305    2.9595
   10.320    3.2333
   10.335    2.7909
   10.350    2.9910
   10.365    3.2965
   10.380    2.8647
   10.395    3.0226
   10.410    3.0648
   10.425    2.9068
   10.440    3.2227
   10.455    3.1069
   10.470    3.0542
   10.485    3.2965
   10.500    3.1912
   10.515    3.2965
   10.530    3.1385
   10.545    3.2227
   10.560    3.1280
   10.575    3.1069
   10.590    2.7067
   10.605    2.6856
   10.620    2.7172
   10.635    2.7172
   10.650    2.5592
   10.665    2.7278
   10.680    2.6540
   10.695    2.4223
   10.710    2.4961
   10.725    2.4961
   10.740    2.4013
   10.755    2.8647
   10.770    2.6751
   10.785    2.5592
   10.800    2.6119
   10.815    2.7593
   10.830    2.6330
   10.845    2.6014
   10.860    2.7699
   10.875    2.8015
   10.890    2.7488
   10.905    2.8436
   10.920    2.6751
   10.935    2.7172
   10.950    2.6435
   10.965    2.7488
   10.980    2.6962
   10.995    2.4855
   11.010    2.5698
   11.025    2.5171
   11.040    2.8225
   11.055    2.7383
   11.070    2.5803
   11.085    2.4329
   11.100    2.4961
   11.115    2.6646
   11.130    2.8331
   11.145    2.5066
   11.160    2.2749
   11.175    2.6751
   11.190    2.8752
   11.205    2.8225
   11.220    2.9384
   11.235    2.8857
   11.250    2.6962
   11.265    2.6540
   11.280    2.5066
   11.295    2.6224
   11.310    2.6224
   11.325    2.7699
   11.340    2.8857
   11.355    2.5382
   11.370    2.8015
   11.385    2.7172
   11.400    2.9910
   11.415    2.6962
   11.430    2.7383
   11.445    2.8015
   11.460    2.6540
   11.475    2.6435
   11.490    2.8752
   11.505    2.5803
   11.520    2.6962
   11.535    2.7909
   11.550    2.6540
   11.565    2.6751
   11.580    3.1280
   11.595    3.0964
   11.610    2.7383
   11.625    2.5803
   11.640    2.5487
   11.655    2.5487
   11.670    2.7699
   11.685    2.8331
   11.700    2.7909
   11.715    2.6014
   11.730    2.7909
   11.745    2.5171
   11.760    2.8015
   11.775    2.7804
   11.790    2.6330
   11.805    2.6119
   11.820    2.8331
   11.835    2.7383
   11.850    2.6646
   11.865    2.7278
   11.880    2.6646
   11.895    2.7909
   11.910    2.8436
   11.925    2.8857
   11.940    3.1069
   11.955    3.0858
   11.970    2.8436
   11.985    2.9279
   12.000    2.9489
   12.015    2.8752
   12.030    2.6751
   12.045    2.7804
   12.060    2.8963
   12.075    2.9068
   12.090    2.9279
   12.105    2.9279
   12.120    2.9910
   12.135    3.1912
   12.150    3.0121
   12.165    2.9595
   12.180    3.0964
   12.195    3.0964
   12.210    3.2017
   12.225    3.0858
   12.240    2.9805
   12.255    2.9595
   12.270    2.9910
   12.285    3.3386
   12.300    2.9384
   12.315    2.9173
   12.330    2.8015
   12.345    3.2965
   12.360    2.8857
   12.375    2.8647
   12.390    3.0542
   12.405    2.9068
   12.420    2.7172
   12.435    2.8331
   12.450    2.9489
   12.465    3.1069
   12.480    2.9700
   12.495    2.8963
   12.510    3.1912
   12.525    3.1701
   12.540    2.9910
   12.555    3.1069
   12.570    3.3281
   12.585    3.1596
   12.600    3.0858
   12.615    3.0437
   12.630    3.0121
   12.645    2.9279
   12.660    3.0964
   12.675    2.9489
   12.690    2.9489
   12.705    3.4018
   12.720    3.0648
   12.735    3.0753
   12.750    3.2333
   12.765    2.9910
   12.780    3.1069
   12.795    3.1280
   12.810    2.9384
   12.825    2.8015
   12.840    3.0332
   12.855    2.9700
   12.870    3.0016
   12.885    2.9279
   12.900    2.8331
   12.915    3.0016
   12.930    2.7488
   12.945    2.3697
   12.960    2.7067
   12.975    2.9700
   12.990    3.0121
   13.005    2.9595
   13.020    2.7699
   13.035    2.5908
   13.050    2.5908
   13.065    2.9279
   13.080    2.8647
   13.095    2.7593
   13.110    2.9595
   13.125    3.0964
   13.140    3.2649
   13.155    3.3281
   13.170    2.9805
   13.185    2.7593
   13.200    3.0121
   13.215    3.1069
   13.230    2.8015
   13.245    2.7278
   13.260    2.8857
   13.275    3.0332
   13.290    2.5592
   13.305    2.6540
   13.320    2.8331
   13.335    2.7172
   13.350    2.9489
   13.365    2.9489
   13.380    2.8015
   13.395    2.7699
   13.410    2.6856
   13.425    2.7488
   13.440    3.0858
   13.455    2.9489
   13.470    2.7593
   13.485    2.6435
   13.500    2.7699
   13.515    2.9173
   13.530    2.9805
   13.545    3.1806
   13.560    2.9595
   13.575    2.6751
   13.590    2.8015
   13.605    2.7909
   13.620    2.6962
   13.635    3.0121
   13.650    2.8752
   13.665    3.0226
   13.680    2.8647
   13.695    2.5592
   13.710    2.8331
   13.725    2.6119
   13.740    2.6962
   13.755    3.0016
   13.770    3.0437
   13.785    2.6014
   13.800    2.4118
   13.815    2.7172
   13.830    2.7067
   13.845    2.8225
   13.860    2.6540
   13.875    2.7278
   13.890    2.7909
   13.905    2.8015
   13.920    2.7172
   13.935    2.8225
   13.950    2.8015
   13.965    2.8647
   13.980    2.5276
   13.995    2.7699
   14.010    2.8331
   14.025    2.9805
   14.040    2.8963
   14.055    2.8541
   14.070    2.9173
   14.085    2.8857
   14.100    2.6962
   14.115    2.6540
   14.130    2.7909
   14.145    2.8963
   14.160    2.6330
   14.175    2.6435
   14.190    2.9068
   14.205    2.8541
   14.220    2.9384
   14.235    2.6119
   14.250    2.8541
   14.265    2.8015
   14.280    2.8120
   14.295    2.5276
   14.310    2.5276
   14.325    2.8120
   14.340    2.4855
   14.355    2.3802
   14.370    2.7278
   14.385    2.7383
   14.400    2.8857
   14.415    2.8963
   14.430    2.5171
   14.445    2.4013
   14.460    2.7699
   14.475    2.6330
   14.490    2.4961
   14.505    2.5066
   14.520    2.5698
   14.535    2.6435
   14.550    2.3170
   14.565    2.2538
   14.580    2.4539
   14.595    2.4434
   14.610    2.4645
   14.625    2.5592
   14.640    2.9595
   14.655    2.8857
   14.670    2.8120
   14.685    2.6751
   14.700    2.5487
   14.715    2.6856
   14.730    2.6330
   14.745    2.6119
   14.760    2.6540
   14.775    2.6540
   14.790    2.5592
   14.805    2.6224
   14.820    2.4329
   14.835    2.4223
   14.850    2.3486
   14.865    2.2433
   14.880    2.4434
   14.895    2.4118
   14.910    2.6224
   14.925    2.7488
   14.940    2.5171
   14.955    2.6014
   14.970    2.6224
   14.985    2.7488
   15.000    2.3591
   15.015    2.4645
   15.030    2.6962
   15.045    2.6435
   15.060    2.5276
   15.075    2.7488
   15.090    2.4961
   15.105    2.8331
   15.120    2.5066
   15.135    2.6330
   15.150    2.4539
   15.165    2.2643
   15.180    2.6751
   15.195    2.8015
   15.210    2.6646
   15.225    2.6014
   15.240    2.6014
   15.255    2.6119
   15.270    2.6646
   15.285    2.5908
   15.300    2.5908
   15.315    2.9068
   15.330    2.6646
   15.345    2.4223
   15.360    2.2433
   15.375    2.4539
   15.390    2.7804
   15.405    2.7172
   15.420    2.5592
   15.435    2.4855
   15.450    2.4750
   15.465    2.5382
   15.480    2.3486
   15.495    2.5803
   15.510    2.9279
   15.525    2.7909
   15.540    2.8015
   15.555    2.7383
   15.570    2.5276
   15.585    2.6540
   15.600    2.8647
   15.615    2.6962
   15.630    2.7699
   15.645    2.7488
   15.660    2.9279
   15.675    2.8752
   15.690    2.5276
   15.705    2.5592
   15.720    2.3697
   15.735    2.5066
   15.750    2.7067
   15.765    2.6646
   15.780    2.6856
   15.795    2.6751
   15.810    2.9173
   15.825    2.6540
   15.840    2.5803
   15.855    2.5698
   15.870    2.6435
   15.885    2.6330
   15.900    2.7804
   15.915    2.7804
   15.930    2.8331
   15.945    2.8331
   15.960    2.8331
   15.975    2.6646
   15.990    2.8015
   16.005    2.5171
   16.020    2.5382
   16.035    2.7278
   16.050    2.6962
   16.065    2.5276
   16.080    2.6856
   16.095    2.6014
   16.110    3.0226
   16.125    2.7488
   16.140    2.8015
   16.155    2.7172
   16.170    2.4750
   16.185    2.4434
   16.200    2.6751
   16.215    2.5908
   16.230    2.6540
   16.245    2.4961
   16.260    2.6540
   16.275    2.5698
   16.290    2.6014
   16.305    2.3907
   16.320    2.5382
   16.335    2.6014
   16.350    2.6224
   16.365    2.6435
   16.380    2.7699
   16.395    2.7067
   16.410    2.7067
   16.425    2.7172
   16.440    2.6751
   16.455    2.6224
   16.470    2.7383
   16.485    2.8331
   16.500    2.4329
   16.515    2.4750
   16.530    2.6962
   16.545    2.7909
   16.560    2.6540
   16.575    2.7593
   16.590    2.6856
   16.605    2.7172
   16.620    2.6224
   16.635    2.7278
   16.650    2.5276
   16.665    2.5908
   16.680    2.4329
   16.695    2.5171
   16.710    2.4434
   16.725    2.7278
   16.740    2.6119
   16.755    2.7804
   16.770    2.7172
   16.785    2.6856
   16.800    2.4118
   16.815    2.5803
   16.830    2.4223
   16.845    2.0958
   16.860    2.3907
   16.875    2.6014
   16.890    2.5276
   16.905    2.4434
   16.920    2.5698
   16.935    2.4118
   16.950    2.6330
   16.965    2.5487
   16.980    2.3802
   16.995    2.4645
   17.010    2.6224
   17.025    2.8647
   17.040    2.6540
   17.055    2.5276
   17.070    2.6014
   17.085    2.4223
   17.100    2.5908
   17.115    2.3802
   17.130    2.5592
   17.145    2.5803
   17.160    2.8436
   17.175    2.6962
   17.190    2.5382
   17.205    2.3486
   17.220    2.4434
   17.235    2.5171
   17.250    2.3591
   17.265    2.4329
   17.280    2.6856
   17.295    2.6646
   17.310    2.5908
   17.325    2.8120
   17.340    2.6540
   17.355    2.6014
   17.370    2.3802
   17.385    2.3802
   17.400    2.5803
   17.415    2.6646
   17.430    2.6646
   17.445    2.5698
   17.460    2.6540
   17.475    2.7804
   17.490    2.5066
   17.505    2.5382
   17.520    2.7278
   17.535    2.4645
   17.550    2.5487
   17.565    2.5908
   17.580    2.7488
   17.595    2.8647
   17.610    2.6962
   17.625    2.7804
   17.640    2.7278
   17.655    2.5171
   17.670    2.7909
   17.685    2.5066
   17.700    2.7067
   17.715    2.8436
   17.730    2.5908
   17.745    2.5487
   17.760    2.8120
   17.775    2.6224
   17.790    2.7909
   17.805    2.8120
   17.820    2.6646
   17.835    2.8331
   17.850    2.7172
   17.865    2.4645
   17.880    2.6435
   17.895    2.7909
   17.910    2.9068
   17.925    2.6646
   17.940    2.8120
   17.955    3.0016
   17.970    3.0226
   17.985    2.6646
   18.000    2.6646
   18.015    2.6014
   18.030    2.8541
   18.045    2.5908
   18.060    2.6014
   18.075    2.8647
   18.090    2.7278
   18.105    2.9384
   18.120    2.9173
   18.135    2.7172
   18.150    2.6435
   18.165    2.6435
   18.180    2.6330
   18.195    2.7278
   18.210    2.6646
   18.225    2.7067
   18.240    2.5908
   18.255    2.4434
   18.270    2.6014
   18.285    2.5698
   18.300    2.6330
   18.315    2.5908
   18.330    2.6751
   18.345    2.7278
   18.360    2.8857
   18.375    2.6540
   18.390    2.8541
   18.405    2.7067
   18.420    2.7067
   18.435    2.6224
   18.450    2.6751
   18.465    2.7383
   18.480    2.5487
   18.495    2.5908
   18.510    2.6330
   18.525    2.6330
   18.540    2.7593
   18.555    2.5382
   18.570    2.6330
   18.585    2.5487
   18.600    2.4645
   18.615    2.4118
   18.630    2.6224
   18.645    2.6330
   18.660    2.5487
   18.675    2.6856
   18.690    2.8120
   18.705    2.6014
   18.720    2.6540
   18.735    2.5487
   18.750    2.4855
   18.765    2.6014
   18.780    2.4013
   18.795    2.4434
   18.810    2.4855
   18.825    2.7699
   18.840    2.8331
   18.855    2.8225
   18.870    2.5908
   18.885    2.6646
   18.900    2.7699
   18.915    2.6435
   18.930    2.5171
   18.945    2.6856
   18.960    2.5592
   18.975    2.5171
   18.990    2.7278
   19.005    2.6962
   19.020    2.8541
   19.035    2.6014
   19.050    2.6014
   19.065    2.6435
   19.080    2.4539
   19.095    2.4750
   19.110    2.8225
   19.125    2.6435
   19.140    2.6962
   19.155    2.6646
   19.170    2.7278
   19.185    2.6014
   19.200    2.5698
   19.215    2.7383
   19.230    2.5066
   19.245    2.5487
   19.260    2.8857
   19.275    2.7383
   19.290    2.7067
   19.305    2.8963
   19.320    2.8331
   19.335    2.8225
   19.350    2.8541
   19.365    2.5487
   19.380    2.7909
   19.395    2.4961
   19.410    2.4539
   19.425    2.7383
   19.440    2.8541
   19.455    2.6014
   19.470    2.8015
   19.485    2.7909
   19.500    2.7909
   19.515    2.9279
   19.530    2.8015
   19.545    2.7804
   19.560    2.7172
   19.575    3.0858
   19.590    3.0858
   19.605    2.9384
   19.620    2.6751
   19.635    2.7593
   19.650    2.8541
   19.665    2.9595
   19.680    3.2438
   19.695    2.8647
   19.710    2.7488
   19.725    2.6962
   19.740    2.8647
   19.755    2.6224
   19.770    2.7699
   19.785    2.7593
   19.800    2.8436
   19.815    3.0121
   19.830    2.9384
   19.845    2.6014
   19.860    2.9279
   19.875    2.9384
   19.890    3.0437
   19.905    2.7488
   19.920    2.6330
   19.935    2.7804
   19.950    2.8225
   19.965    2.7488
   19.980    2.7909
   19.995    2.8857
   20.010    2.8857
   20.025    2.6646
   20.040    2.9700
   20.055    3.2122
   20.070    3.1385
   20.085    3.0332
   20.100    3.0121
   20.115    2.9279
   20.130    2.9279
   20.145    3.1174
   20.160    2.9173
   20.175    2.9595
   20.190    2.8541
   20.205    3.0858
   20.220    2.8963
   20.235    2.8225
   20.250    2.8015
   20.265    2.7804
   20.280    2.8857
   20.295    2.9700
   20.310    3.0226
   20.325    2.7488
   20.340    3.0648
   20.355    2.9173
   20.370    2.9700
   20.385    2.8963
   20.400    2.9068
   20.415    3.0437
   20.430    2.8120
   20.445    2.9910
   20.460    2.8436
   20.475    3.0648
   20.490    2.9068
   20.505    2.9595
   20.520    2.9805
   20.535    2.6962
   20.550    2.8120
   20.565    2.7383
   20.580    2.8015
   20.595    2.9489
   20.610    2.9700
   20.625    2.9279
   20.640    2.7488
   20.655    2.9173
   20.670    3.1701
   20.685    3.1385
   20.700    3.0437
   20.715    2.8857
   20.730    2.8963
   20.745    2.6014
   20.760    2.9910
   20.775    3.0332
   20.790    3.0964
   20.805    3.0964
   20.820    3.0016
   20.835    2.9384
   20.850    2.7593
   20.865    2.8120
   20.880    2.8225
   20.895    2.7172
   20.910    3.0437
   20.925    2.8120
   20.940    2.8225
   20.955    2.6646
   20.970    2.7488
   20.985    2.9595
   21.000    2.9910
   21.015    3.1490
   21.030    2.8857
   21.045    2.8120
   21.060    3.0226
   21.075    2.9805
   21.090    2.7804
   21.105    3.0753
   21.120    3.1701
   21.135    3.1174
   21.150    2.9595
   21.165    2.6224
   21.180    2.7278
   21.195    2.9279
   21.210    2.8120
   21.225    3.0964
   21.240    3.0016
   21.255    2.9384
   21.270    3.2122
   21.285    2.8857
   21.300    2.9173
   21.315    2.8857
   21.330    2.9173
   21.345    2.6014
   21.360    2.8331
   21.375    3.0437
   21.390    2.9068
   21.405    2.6856
   21.420    2.8225
   21.435    3.0226
   21.450    3.0753
   21.465    2.6646
   21.480    2.7383
   21.495    2.7909
   21.510    2.8647
   21.525    2.6014
   21.540    2.5803
   21.555    2.8225
   21.570    2.9910
   21.585    2.9595
   21.600    2.9068
   21.615    3.0542
   21.630    3.1596
   21.645    2.7593
   21.660    2.8331
   21.675    2.8963
   21.690    3.0121
   21.705    3.0016
   21.720    2.8436
   21.735    3.0016
   21.750    3.2122
   21.765    2.8541
   21.780    2.9068
   21.795    3.1385
   21.810    2.7278
   21.825    2.7488
   21.840    2.9384
   21.855    3.1069
   21.870    2.9384
   21.885    2.8120
   21.900    2.7699
   21.915    2.9489
   21.930    2.8752
   21.945    2.8120
   21.960    3.0542
   21.975    2.7383
   21.990    2.9700
   22.005    2.8963
   22.020    2.9279
   22.035    2.8225
   22.050    2.6330
   22.065    2.8647
   22.080    3.0226
   22.095    3.1912
   22.110    3.0753
   22.125    2.9700
   22.140    2.9805
   22.155    2.8963
   22.170    3.0226
   22.185    3.1490
   22.200    3.2122
   22.215    2.6119
   22.230    2.8436
   22.245    2.9595
   22.260    2.9700
   22.275    2.8436
   22.290    2.9489
   22.305    2.8647
   22.320    2.9595
   22.335    2.6646
   22.350    2.8752
   22.365    3.1280
   22.380    3.2438
   22.395    3.0121
   22.410    2.8963
   22.425    2.8225
   22.440    2.9595
   22.455    3.0226
   22.470    2.9279
   22.485    2.7909
   22.500    2.9384
   22.515    3.0226
   22.530    3.1490
   22.545    2.9489
   22.560    3.0753
   22.575    2.9384
   22.590    2.8015
   22.605    2.8752
   22.620    2.8331
   22.635    2.9910
   22.650    2.8436
   22.665    2.8752
   22.680    3.0858
   22.695    2.6751
   22.710    2.6646
   22.725    2.9068
   22.740    3.1701
   22.755    2.8857
   22.770    2.8857
   22.785    2.6962
   22.800    2.8541
   22.815    2.8120
   22.830    2.8857
   22.845    2.9595
   22.860    3.0648
   22.875    2.6962
   22.890    2.7383
   22.905    2.9489
   22.920    2.9384
   22.935    2.8541
   22.950    2.6540
   22.965    3.1174
   22.980    3.0332
   22.995    3.1069
   23.010    2.8857
   23.025    2.9279
   23.040    2.7383
   23.055    2.8857
   23.070    2.6224
   23.085    2.8647
   23.100    2.8857
   23.115    2.6540
   23.130    2.8963
   23.145    2.9384
   23.160    2.8541
   23.175    2.5066
   23.190    2.6646
   23.205    2.8752
   23.220    2.7488
   23.235    2.9068
   23.250    2.9279
   23.265    3.0016
   23.280    2.9384
   23.295    2.7804
   23.310    2.8331
   23.325    2.9595
   23.340    2.3486
   23.355    2.6751
   23.370    2.8647
   23.385    2.7067
   23.400    2.7909
   23.415    2.7593
   23.430    2.5803
   23.445    2.7699
   23.460    2.6330
   23.475    2.6014
   23.490    2.6962
   23.505    2.8963
   23.520    2.8225
   23.535    2.3697
   23.550    2.4013
   23.565    2.5487
   23.580    2.6540
   23.595    2.8331
   23.610    2.5382
   23.625    2.6751
   23.640    2.9384
   23.655    2.7278
   23.670    2.6962
   23.685    2.6962
   23.700    2.7488
   23.715    2.7172
   23.730    2.6119
   23.745    2.6856
   23.760    2.8225
   23.775    2.9173
   23.790    2.5592
   23.805    2.8436
   23.820    2.6962
   23.835    2.5171
   23.850    2.7488
   23.865    2.8541
   23.880    2.5592
   23.895    2.5592
   23.910    2.8963
   23.925    2.8436
   23.940    2.7593
   23.955    2.8436
   23.970    2.6119
   23.985    2.7278
   24.000    2.8225
   24.015    2.7172
   24.030    2.7383
   24.045    2.8541
   24.060    3.0226
   24.075    2.8541
   24.090    2.9805
   24.105    2.6751
   24.120    2.7699
   24.135    2.7383
   24.150    3.0016
   24.165    2.8857
   24.180    2.8436
   24.195    2.6435
   24.210    2.7909
   24.225    2.6962
   24.240    3.0226
   24.255    2.8647
   24.270    2.6751
   24.285    2.8963
   24.300    2.9700
   24.315    2.6646
   24.330    2.7383
   24.345    2.8436
   24.360    2.7383
   24.375    2.5487
   24.390    2.7278
   24.405    2.8436
   24.420    2.7804
   24.435    2.6856
   24.450    2.7383
   24.465    3.0858
   24.480    2.8857
   24.495    2.8120
   24.510    2.8647
   24.525    2.6119
   24.540    2.9279
   24.555    2.9489
   24.570    2.8541
   24.585    2.7067
   24.600    2.6962
   24.615    2.7067
   24.630    2.9279
   24.645    3.0753
   24.660    3.2122
   24.675    2.9068
   24.690    2.9384
   24.705    2.8963
   24.720    2.7593
   24.735    2.7383
   24.750    2.7278
   24.765    2.7699
   24.780    2.5803
   24.795    2.6646
   24.810    2.8436
   24.825    2.8541
   24.840    2.6751
   24.855    2.6856
   24.870    2.8541
   24.885    2.5803
   24.900    2.7593
   24.915    2.3907
   24.930    2.6435
   24.945    2.8120
   24.960    2.8647
   24.975    2.6540
   24.990    2.4855
   25.005    2.6014
   25.020    3.2122
   25.035    2.5908
   25.050    2.5592
   25.065    2.6119
   25.080    2.4855
   25.095    2.4223
   25.110    2.6224
   25.125    2.5276
   25.140    2.6856
   25.155    2.7593
   25.170    2.5698
   25.185    2.6014
   25.200    2.6962
   25.215    2.8331
   25.230    2.9700
   25.245    2.6224
   25.260    2.4645
   25.275    2.5382
   25.290    2.4329
   25.305    2.4855
   25.320    2.5698
   25.335    2.7383
   25.350    2.7593
   25.365    2.6330
   25.380    2.5698
   25.395    2.6646
   25.410    2.5698
   25.425    2.8120
   25.440    2.4329
   25.455    2.5592
   25.470    2.4961
   25.485    2.6751
   25.500    2.5592
   25.515    2.8647
   25.530    2.7699
   25.545    2.6119
   25.560    2.4750
   25.575    2.4329
   25.590    2.5487
   25.605    2.5487
   25.620    2.4855
   25.635    2.5803
   25.650    2.5487
   25.665    2.4329
   25.680    2.7067
   25.695    2.4329
   25.710    2.7488
   25.725    2.4961
   25.740    2.4961
   25.755    2.5487
   25.770    2.4961
   25.785    2.2643
   25.800    2.5803
   25.815    2.6856
   25.830    2.5066
   25.845    2.4329
   25.860    2.6962
   25.875    2.3170
   25.890    2.3170
   25.905    2.5592
   25.920    2.5592
   25.935    2.6435
   25.950    2.6330
   25.965    2.0958
   25.980    2.5382
   25.995    2.5171
   26.010    2.4855
   26.025    2.4434
   26.040    2.4750
   26.055    2.5908
   26.070    2.6435
   26.085    2.8015
   26.100    2.4961
   26.115    2.4329
   26.130    2.5171
   26.145    2.6119
   26.160    2.2433
   26.175    2.1906
   26.190    2.2749
   26.205    2.1696
   26.220    2.4013
   26.235    2.4329
   26.250    2.4223
   26.265    2.2222
   26.280    2.2222
   26.295    2.2222
   26.310    2.2959
   26.325    2.3275
   26.340    2.5066
   26.355    2.2538
   26.370    2.3697
   26.385    2.2959
   26.400    2.5171
   26.415    2.4434
   26.430    2.6435
   26.445    2.4645
   26.460    2.4223
   26.475    2.8015
   26.490    2.6014
   26.505    2.6119
   26.520    2.5066
   26.535    2.4118
   26.550    2.5171
   26.565    2.4118
   26.580    2.4118
   26.595    2.6646
   26.610    2.6435
   26.625    2.5066
   26.640    2.6856
   26.655    2.5592
   26.670    2.5487
   26.685    2.4329
   26.700    2.3697
   26.715    2.4223
   26.730    2.3697
   26.745    2.5803
   26.760    2.3802
   26.775    2.3065
   26.790    2.5803
   26.805    2.3065
   26.820    2.4329
   26.835    2.3275
   26.850    2.3486
   26.865    2.4539
   26.880    2.2328
   26.895    2.3591
   26.910    2.4013
   26.925    2.4539
   26.940    2.6014
   26.955    2.4961
   26.970    2.4013
   26.985    2.4434
   27.000    2.2538
   27.015    2.5382
   27.030    2.6330
   27.045    2.5698
   27.060    2.6014
   27.075    2.5382
   27.090    2.3170
   27.105    2.4645
   27.120    2.6119
   27.135    2.3486
   27.150    2.2328
   27.165    2.2643
   27.180    2.2643
   27.195    2.3697
   27.210    2.4961
   27.225    2.1801
   27.240    2.2959
   27.255    2.6224
   27.270    2.4118
   27.285    2.2012
   27.300    2.3802
   27.315    2.6224
   27.330    2.4961
   27.345    2.4434
   27.360    2.5171
   27.375    2.4223
   27.390    2.3802
   27.405    2.3697
   27.420    2.3907
   27.435    2.4329
   27.450    2.5698
   27.465    2.5171
   27.480    2.3486
   27.495    2.4118
   27.510    2.2012
   27.525    2.4961
   27.540    2.3486
   27.555    2.5066
   27.570    2.2328
   27.585    2.2222
   27.600    2.1801
   27.615    2.6646
   27.630    2.4329
   27.645    2.3170
   27.660    2.1380
   27.675    2.4223
   27.690    2.4750
   27.705    2.4013
   27.720    2.4539
   27.735    2.5803
   27.750    2.2538
   27.765    2.3697
   27.780    2.4118
   27.795    2.4013
   27.810    2.3907
   27.825    2.4855
   27.840    2.2222
   27.855    2.3275
   27.870    2.4329
   27.885    2.5382
   27.900    2.5276
   27.915    2.2643
   27.930    2.2538
   27.945    2.5066
   27.960    2.4329
   27.975    2.4013
   27.990    2.3697
   28.005    2.3591
   28.020    2.4539
   28.035    2.6435
   28.050    2.4855
   28.065    2.4539
   28.080    2.3275
   28.095    2.3697
   28.110    2.4855
   28.125    2.4223
   28.140    2.4434
   28.155    2.5276
   28.170    2.5276
   28.185    2.5066
   28.200    2.6435
   28.215    2.6540
   28.230    2.5908
   28.245    2.5171
   28.260    2.3802
   28.275    2.4961
   28.290    2.5276
   28.305    2.6435
   28.320    2.3802
   28.335    2.3907
   28.350    2.4434
   28.365    2.5171
   28.380    2.4855
   28.395    2.5276
   28.410    2.4434
   28.425    2.5066
   28.440    2.2538
   28.455    2.4750
   28.470    2.4645
   28.485    2.4329
   28.500    2.4013
   28.515    2.3170
   28.530    2.4223
   28.545    2.2012
   28.560    2.3381
   28.575    2.3697
   28.590    2.3697
   28.605    2.2749
   28.620    2.1169
   28.635    2.3065
   28.650    2.4645
   28.665    2.5066
   28.680    2.6435
   28.695    2.3275
   28.710    2.4961
   28.725    2.3802
   28.740    2.2328
   28.755    2.2222
   28.770    2.1169
   28.785    2.3065
   28.800    2.2643
   28.815    2.3486
   28.830    2.4223
   28.845    2.2222
   28.860    2.2222
   28.875    2.2854
   28.890    2.1169
   28.905    2.1906
   28.920    2.1274
   28.935    2.0958
   28.950    2.1696
   28.965    2.4750
   28.980    2.3486
   28.995    2.2222
   29.010    2.4750
   29.025    2.3486
   29.040    2.2117
   29.055    2.2749
   29.070    2.3802
   29.085    2.1590
   29.100    2.3275
   29.115    2.3802
   29.130    2.4329
   29.145    2.2117
   29.160    2.3591
   29.175    2.1801
   29.190    2.0011
   29.205    2.3275
   29.220    2.2012
   29.235    2.4013
   29.250    2.2222
   29.265    2.2538
   29.280    2.3907
   29.295    2.3170
   29.310    2.1274
   29.325    2.1485
   29.340    2.2222
   29.355    2.2854
   29.370    2.3697
   29.385    2.2433
   29.400    2.2012
   29.415    2.4855
   29.430    2.4855
   29.445    2.4013
   29.460    2.6330
   29.475    2.5908
   29.490    2.3486
   29.505    2.3486
   29.520    2.5066
   29.535    2.1485
   29.550    2.2749
   29.565    2.2433
   29.580    2.3591
   29.595    2.4961
   29.610    2.4329
   29.625    2.2854
   29.640    2.3591
   29.655    2.2749
   29.670    2.3170
   29.685    2.2012
   29.700    2.2012
   29.715    2.2643
   29.730    2.2328
   29.745    2.3802
   29.760    2.2328
   29.775    2.3065
   29.790    2.3275
   29.805    2.1801
   29.820    1.9905
   29.835    2.2854
   29.850    2.3065
   29.865    2.2222
   29.880    2.2222
   29.895    2.1801
   29.910    2.1590
   29.925    2.2222
   29.940    2.0221
   29.955    2.0748
   29.970    2.3065
   29.985    2.4961
   30.000    2.3907
   30.015    2.3802
   30.030    2.3486
   30.045    2.1274
   30.060    2.0748
   30.075    2.1380
   30.090    2.1590
   30.105    2.2433
   30.120    2.4013
   30.135    2.3275
   30.150    2.3170
   30.165    2.2117
   30.180    2.3802
   30.195    2.4434
   30.210    2.5066
   30.225    2.4855
   30.240    2.2643
   30.255    2.0432
   30.270    2.3907
   30.285    2.4329
   30.300    2.2433
   30.315    2.3170
   30.330    2.4645
   30.345    2.3275
   30.360    2.5171
   30.375    2.0537
   30.390    2.1801
   30.405    2.2959
   30.420    2.3275
   30.435    2.1906
   30.450    2.1274
   30.465    2.3381
   30.480    2.5171
   30.495    2.2433
   30.510    1.9905
   30.525    2.1380
   30.540    2.3907
   30.555    2.2222
   30.570    2.1485
   30.585    2.3170
   30.600    2.2749
   30.615    1.9905
   30.630    2.1906
   30.645    2.1485
   30.660    2.2117
   30.675    2.3697
   30.690    2.3486
   30.705    2.4118
   30.720    2.3907
   30.735    2.2643
   30.750    2.3591
   30.765    2.1169
   30.780    2.0011
   30.795    2.2538
   30.810    2.4223
   30.825    2.1485
   30.840    2.1696
   30.855    2.3697
   30.870    2.2433
   30.885    2.0958
   30.900    2.0537
   30.915    2.1906
   30.930    2.1696
   30.945    2.1380
   30.960    2.0748
   30.975    2.2117
   30.990    2.3907
   31.005    2.1696
   31.020    2.4013
   31.035    2.2222
   31.050    2.0221
   31.065    2.2117
   31.080    2.1801
   31.095    2.3275
   31.110    2.3170
   31.125    2.2012
   31.140    2.2117
   31.155    2.2012
   31.170    2.2959
   31.185    2.2328
   31.200    2.3907
   31.215    2.1590
   31.230    2.0958
   31.245    2.3170
   31.260    2.3065
   31.275    2.3065
   31.290    2.2749
   31.305    2.1380
   31.320    2.3275
   31.335    2.2433
   31.350    2.1274
   31.365    2.1380
   31.380    2.0642
   31.395    2.0642
   31.410    2.2328
   31.425    2.3907
   31.440    2.0432
   31.455    1.9063
   31.470    2.0958
   31.485    2.1696
   31.500    2.4013
   31.515    2.3486
   31.530    2.4118
   31.545    2.1696
   31.560    2.3170
   31.575    2.2012
   31.590    2.2328
   31.605    2.2117
   31.620    2.3170
   31.635    2.2643
   31.650    2.0853
   31.665    2.3591
   31.680    2.1485
   31.695    2.2117
   31.710    2.5487
   31.725    2.3381
   31.740    2.2854
   31.755    2.0853
   31.770    2.1485
   31.785    2.2749
   31.800    2.1169
   31.815    2.1485
   31.830    2.1274
   31.845    1.9800
   31.860    2.2328
   31.875    2.2854
   31.890    2.4013
   31.905    2.5171
   31.920    2.0958
   31.935    2.1169
   31.950    2.1485
   31.965    2.3591
   31.980    2.4118
   31.995    2.0642
   32.010    2.0642
   32.025    2.2222
   32.040    2.1485
   32.055    2.4118
   32.070    2.1590
   32.085    2.1696
   32.100    2.0221
   32.115    2.1485
   32.130    2.0958
   32.145    2.1590
   32.160    2.1274
   32.175    2.3591
   32.190    2.0642
   32.205    2.3065
   32.220    2.1590
   32.235    2.2959
   32.250    2.1696
   32.265    1.9589
   32.280    2.3170
   32.295    2.1380
   32.310    2.1169
   32.325    2.2749
   32.340    2.2538
   32.355    2.0853
   32.370    2.2012
   32.385    2.1801
   32.400    2.2538
   32.415    1.9695
   32.430    2.1801
   32.445    2.0642
   32.460    2.0326
   32.475    2.0853
   32.490    2.1485
   32.505    2.1380
   32.520    2.0011
   32.535    1.9905
   32.550    1.9063
   32.565    2.0748
   32.580    2.1274
   32.595    2.1274
   32.610    1.9273
   32.625    2.1064
   32.640    2.2854
   32.655    2.1169
   32.670    1.9484
   32.685    2.2222
   32.700    2.0116
   32.715    1.9379
   32.730    2.1696
   32.745    2.1590
   32.760    2.2117
   32.775    2.0432
   32.790    2.1169
   32.805    2.2117
   32.820    2.1380
   32.835    2.0958
   32.850    1.9800
   32.865    2.0011
   32.880    1.7904
   32.895    1.8852
   32.910    1.9589
   32.925    1.8325
   32.940    2.0116
   32.955    2.0958
   32.970    1.9695
   32.985    2.1590
   33.000    2.1801
   33.015    2.2749
   33.030    2.0432
   33.045    2.0642
   33.060    2.1485
   33.075    2.3065
   33.090    1.9905
   33.105    2.0326
   33.120    2.1380
   33.135    2.0537
   33.150    1.9905
   33.165    2.1801
   33.180    2.0326
   33.195    1.8115
   33.210    1.9168
   33.225    1.9800
   33.240    1.8957
   33.255    2.0853
   33.270    1.9589
   33.285    2.1801
   33.300    2.0748
   33.315    1.9905
   33.330    2.1380
   33.345    2.2328
   33.360    1.8957
   33.375    1.7904
   33.390    1.9695
   33.405    2.0326
   33.420    1.9695
   33.435    1.9695
   33.450    1.8957
   33.465    1.9589
   33.480    1.9589
   33.495    1.9695
   33.510    1.9273
   33.525    1.9273
   33.540    1.9379
   33.555    2.2749
   33.570    1.9800
   33.585    1.9589
   33.600    1.8536
   33.615    2.0221
   33.630    2.0432
   33.645    1.9800
   33.660    1.9589
   33.675    1.9168
   33.690    1.8852
   33.705    1.9800
   33.720    1.8852
   33.735    2.0221
   33.750    1.9484
   33.765    2.0642
   33.780    1.9800
   33.795    1.9379
   33.810    2.0537
   33.825    1.8641
   33.840    1.9905
   33.855    2.2328
   33.870    2.0116
   33.885    2.0326
   33.900    2.1590
   33.915    1.8325
   33.930    1.8220
   33.945    1.9168
   33.960    1.9905
   33.975    2.0221
   33.990    1.8747
   34.005    2.0326
   34.020    2.0853
   34.035    2.0011
   34.050    2.1169
   34.065    2.0432
   34.080    1.9273
   34.095    1.8957
   34.110    1.7904
   34.125    1.7272
   34.140    1.7799
   34.155    1.9484
   34.170    1.9905
   34.185    2.1906
   34.200    2.0748
   34.215    1.9905
   34.230    1.8431
   34.245    1.7904
   34.260    1.7799
   34.275    2.0537
   34.290    1.8115
   34.305    1.9484
   34.320    1.9168
   34.335    1.8852
   34.350    2.1064
   34.365    1.9800
   34.380    1.9589
   34.395    1.9273
   34.410    1.8747
   34.425    2.0011
   34.440    1.9484
   34.455    2.0537
   34.470    1.9063
   34.485    1.6851
   34.500    1.8641
   34.515    1.8957
   34.530    1.9063
   34.545    1.8536
   34.560    1.9589
   34.575    1.9484
   34.590    1.8747
   34.605    1.9063
   34.620    1.9905
   34.635    1.9589
   34.650    2.0642
   34.665    1.9484
   34.680    1.8536
   34.695    1.9063
   34.710    1.8325
   34.725    1.8852
   34.740    1.8852
   34.755    1.8957
   34.770    1.9168
   34.785    1.8641
   34.800    1.8115
   34.815    1.7483
   34.830    1.5482
   34.845    1.6956
   34.860    2.0326
   34.875    1.8431
   34.890    1.8641
   34.905    1.9484
   34.920    1.7799
   34.935    1.9484
   34.950    2.0326
   34.965    2.0011
   34.980    2.0116
   34.995    1.8957
   35.010    1.8431
   35.025    1.9905
   35.040    1.8957
   35.055    1.7694
   35.070    1.7694
   35.085    1.9800
   35.100    1.8220
   35.115    1.7483
   35.130    1.8220
   35.145    1.8536
   35.160    1.9589
   35.175    2.0537
   35.190    1.8957
   35.205    1.7483
   35.220    1.7588
   35.235    1.9273
   35.250    1.8747
   35.265    1.9168
   35.280    1.8220
   35.295    1.6956
   35.310    1.9168
   35.325    1.9905
   35.340    2.0326
   35.355    2.0116
   35.370    1.8115
   35.385    1.8536
   35.400    1.9168
   35.415    1.8431
   35.430    1.8115
   35.445    1.6851
   35.460    1.8957
   35.475    1.7483
   35.490    1.8536
   35.505    1.6219
   35.520    1.7588
   35.535    1.8957
   35.550    2.0537
   35.565    1.7483
   35.580    1.8431
   35.595    1.9695
   35.610    1.9484
   35.625    1.9063
   35.640    1.7904
   35.655    1.8852
   35.670    1.7483
   35.685    1.8852
   35.700    1.9168
   35.715    2.0011
   35.730    1.9379
   35.745    1.8641
   35.760    1.8641
   35.775    1.9063
   35.790    1.8220
   35.805    1.9484
   35.820    1.6430
   35.835    1.8431
   35.850    1.8747
   35.865    1.7483
   35.880    1.7272
   35.895    1.6430
   35.910    1.8852
   35.925    1.8115
   35.940    1.8325
   35.955    1.8747
   35.970    1.7904
   35.985    1.8325
   36.000    1.9273
   36.015    1.8957
   36.030    1.7483
   36.045    1.9168
   36.060    1.9379
   36.075    1.6956
   36.090    1.7062
   36.105    1.9063
   36.120    1.8957
   36.135    2.1380
   36.150    1.9905
   36.165    1.6008
   36.180    1.6219
   36.195    1.8852
   36.210    1.8431
   36.225    1.8852
   36.240    1.5482
   36.255    1.7483
   36.270    1.9168
   36.285    1.7588
   36.300    1.8747
   36.315    1.5903
   36.330    1.5482
   36.345    1.7799
   36.360    1.8747
   36.375    1.9589
   36.390    1.7483
   36.405    1.5587
   36.420    1.8852
   36.435    1.9273
   36.450    1.6324
   36.465    1.7378
   36.480    2.0221
   36.495    1.8641
   36.510    1.5061
   36.525    1.7588
   36.540    1.7904
   36.555    1.7062
   36.570    1.7904
   36.585    1.6535
   36.600    1.6640
   36.615    1.6851
   36.630    1.8957
   36.645    1.7588
   36.660    1.7799
   36.675    1.8536
   36.690    1.7694
   36.705    1.6746
   36.720    1.5798
   36.735    1.7062
   36.750    1.8009
   36.765    1.8536
   36.780    1.8641
   36.795    1.7694
   36.810    1.8220
   36.825    1.9800
   36.840    1.8325
   36.855    1.8009
   36.870    1.8536
   36.885    1.5482
   36.900    1.6219
   36.915    1.7694
   36.930    1.8431
   36.945    1.6640
   36.960    1.6746
   36.975    1.7483
   36.990    1.8115
   37.005    1.7588
   37.020    1.7904
   37.035    1.8325
   37.050    1.7378
   37.065    1.6956
   37.080    1.5692
   37.095    1.6430
   37.110    1.8220
   37.125    1.6535
   37.140    1.7694
   37.155    1.8220
   37.170    1.7904
   37.185    1.6956
   37.200    1.6430
   37.215    1.7483
   37.230    1.6324
   37.245    1.9905
   37.260    1.8641
   37.275    1.7694
   37.290    1.6640
   37.305    1.6640
   37.320    1.7062
   37.335    1.8536
   37.350    1.6746
   37.365    1.6114
   37.380    1.7588
   37.395    1.6535
   37.410    1.8325
   37.425    1.7272
   37.440    1.6640
   37.455    1.4639
   37.470    1.7483
   37.485    1.8009
   37.500    1.7378
   37.515    1.7904
   37.530    1.7062
   37.545    1.8220
   37.560    1.6219
   37.575    1.8852
   37.590    2.0221
   37.605    1.6640
   37.620    1.6430
   37.635    1.6851
   37.650    1.5482
   37.665    1.7588
   37.680    1.6114
   37.695    1.6430
   37.710    1.6746
   37.725    1.5903
   37.740    1.8747
   37.755    1.7904
   37.770    1.7272
   37.785    1.9484
   37.800    1.8325
   37.815    1.8325
   37.830    1.7694
   37.845    1.6956
   37.860    1.8325
   37.875    1.8747
   37.890    1.6746
   37.905    1.8641
   37.920    1.7378
   37.935    1.8641
   37.950    1.6956
   37.965    1.5271
   37.980    1.6640
   37.995    1.8747
   38.010    1.7588
   38.025    1.7062
   38.040    1.5377
   38.055    1.7167
   38.070    1.7062
   38.085    1.7694
   38.100    1.8957
   38.115    1.8325
   38.130    1.6956
   38.145    1.8957
   38.160    1.7694
   38.175    1.9168
   38.190    1.8747
   38.205    1.7167
   38.220    1.7483
   38.235    2.0642
   38.250    1.9484
   38.265    1.7483
   38.280    1.8009
   38.295    1.7904
   38.310    1.7694
   38.325    1.6956
   38.340    1.8325
   38.355    1.7272
   38.370    1.7694
   38.385    1.7588
   38.400    1.7799
   38.415    1.4218
   38.430    1.7483
   38.445    1.6956
   38.460    1.6114
   38.475    1.8747
   38.490    1.7167
   38.505    1.7588
   38.520    1.5061
   38.535    1.4639
   38.550    1.7062
   38.565    1.7694
   38.580    1.7378
   38.595    1.7062
   38.610    1.8009
   38.625    1.8009
   38.640    1.8220
   38.655    1.6008
   38.670    1.6851
   38.685    1.7588
   38.700    1.8009
   38.715    1.7904
   38.730    1.7062
   38.745    1.6114
   38.760    1.5798
   38.775    1.6008
   38.790    1.8115
   38.805    1.7062
   38.820    1.5692
   38.835    1.8431
   38.850    1.8641
   38.865    1.6535
   38.880    1.8325
   38.895    1.7062
   38.910    1.5903
   38.925    1.7272
   38.940    1.6324
   38.955    1.7378
   38.970    1.8536
   38.985    1.8747
   39.000    1.7694
   39.015    1.6956
   39.030    1.7588
   39.045    1.7588
   39.060    1.7167
   39.075    1.6956
   39.090    1.8852
   39.105    1.6008
   39.120    1.7483
   39.135    1.8115
   39.150    1.9273
   39.165    1.7588
   39.180    1.7272
   39.195    1.8431
   39.210    1.6008
   39.225    1.5692
   39.240    1.6324
   39.255    1.8957
   39.270    1.8747
   39.285    1.8325
   39.300    1.7904
   39.315    1.7167
   39.330    1.5166
   39.345    1.6008
   39.360    1.6324
   39.375    1.8220
   39.390    1.7378
   39.405    1.7588
   39.420    1.6851
   39.435    1.7378
   39.450    1.7062
   39.465    1.4323
   39.480    1.7062
   39.495    1.8536
   39.510    1.8009
   39.525    1.6640
   39.540    1.5692
   39.555    1.5061
   39.570    1.6114
   39.585    1.7588
   39.600    1.7378
   39.615    1.6008
   39.630    1.5166
   39.645    1.6535
   39.660    1.6008
   39.675    1.7483
   39.690    1.6430
   39.705    1.3586
   39.720    1.5061
   39.735    1.6114
   39.750    1.6008
   39.765    1.6535
   39.780    1.8641
   39.795    1.7062
   39.810    1.5061
   39.825    1.7167
   39.840    1.8220
   39.855    1.6640
   39.870    1.7167
   39.885    1.6535
   39.900    1.7483
   39.915    1.6535
   39.930    1.6640
   39.945    1.7272
   39.960    1.6114
   39.975    1.8220
   39.990    1.7799
