    1.500   21.2041
    1.515   21.1339
    1.530   21.2568
    1.545   20.6073
    1.560   20.2738
    1.575   19.6946
    1.590   19.2382
    1.605   18.8696
    1.620   19.0627
    1.635   17.2722
    1.650   17.9568
    1.665   18.2201
    1.680   17.4302
    1.695   16.3244
    1.710   16.0084
    1.725   16.7281
    1.740   16.6403
    1.755   15.3765
    1.770   16.0435
    1.785   15.3414
    1.800   14.9903
    1.815   15.2010
    1.830   14.7973
    1.845   13.7090
    1.860   13.8143
    1.875   14.5164
    1.890   14.0249
    1.905   14.2882
    1.920   13.8669
    1.935   13.0244
    1.950   13.2877
    1.965   13.4281
    1.980   13.7090
    1.995   13.0595
    2.010   11.9888
    2.025   11.7957
    2.040   11.6904
    2.055   12.2345
    2.070   12.1292
    2.085   11.7781
    2.100   11.7430
    2.115   11.7781
    2.130   11.3920
    2.145   11.7079
    2.160   11.5324
    2.175   11.9010
    2.190   11.1638
    2.205   11.1462
    2.220   10.3212
    2.235   10.5670
    2.250   10.2335
    2.265   10.7600
    2.280   10.3212
    2.295   10.4792
    2.310   10.3563
    2.325   10.1983
    2.340    9.8999
    2.355   10.1983
    2.370    9.6542
    2.385    9.3382
    2.400   10.2510
    2.415   10.7249
    2.430   10.0404
    2.445    9.7420
    2.460    9.1627
    2.475    9.5840
    2.490    9.5313
    2.505    9.3909
    2.520    8.9872
    2.535    9.2680
    2.550    8.8819
    2.565    8.6186
    2.580    9.0925
    2.595    8.8468
    2.610    8.6888
    2.625    8.9696
    2.640    8.6888
    2.655    8.8117
    2.670    9.2329
    2.685    9.0398
    2.700    8.6537
    2.715    8.2675
    2.730    7.9340
    2.745    8.0920
    2.760    7.9691
    2.775    7.6005
    2.790    8.7063
    2.805    8.8994
    2.820    8.5484
    2.835    8.6888
    2.850    8.4957
    2.865    7.8989
    2.880    8.1271
    2.895    8.6537
    2.910    8.8994
    2.925    8.7590
    2.940    8.4430
    2.955    8.3202
    2.970    8.7941
    2.985    8.5133
    3.000    8.9170
    3.015    9.2329
    3.030    9.2680
    3.045    8.4781
    3.060    8.8117
    3.075    8.5308
    3.090    9.1276
    3.105    9.1101
    3.120    8.7414
    3.135    9.0047
    3.150    9.8999
    3.165    9.4611
    3.180    9.1803
    3.195    9.4611
    3.210   10.1808
    3.225    9.9351
    3.240    9.8824
    3.255   10.7776
    3.270   10.7600
    3.285   10.1632
    3.300   10.6372
    3.315   10.5494
    3.330   11.2691
    3.345   11.3393
    3.360   11.9361
    3.375   12.5329
    3.390   12.6207
    3.405   12.8840
    3.420   12.6382
    3.435   12.9366
    3.450   14.0425
    3.465   13.1648
    3.480   14.3409
    3.495   15.2361
    3.510   15.7451
    3.525   15.6925
    3.540   16.0962
    3.555   17.1318
    3.570   17.0441
    3.585   18.3781
    3.600   19.6595
    3.615   20.2914
    3.630   20.5371
    3.645   20.9935
    3.660   22.2222
    3.675   22.7839
    3.690   23.9600
    3.705   25.1009
    3.720   27.6110
    3.735   30.4195
    3.750   32.6663
    3.765   34.7727
    3.780   38.6168
    3.795   43.4088
    3.810   52.9050
    3.825   58.0832
    3.840   59.8210
    3.855   56.3630
    3.870   48.6923
    3.885   37.9674
    3.900   26.3823
    3.915   17.3074
    3.930   12.1467
    3.945    9.2680
    3.960    8.8819
    3.975    8.0569
    3.990    7.2143
    4.005    7.4601
    4.020    7.5127
    4.035    7.2845
    4.050    6.5122
    4.065    6.4244
    4.080    6.5649
    4.095    6.5824
    4.110    6.0558
    4.125    6.3016
    4.140    6.3542
    4.155    6.4771
    4.170    6.4771
    4.185    5.9856
    4.200    6.2489
    4.215    6.6526
    4.230    6.2489
    4.245    6.6877
    4.260    6.2840
    4.275    6.3016
    4.290    6.0207
    4.305    6.0909
    4.320    5.9856
    4.335    5.5819
    4.350    5.3888
    4.365    5.6872
    4.380    6.3367
    4.395    6.0383
    4.410    6.1787
    4.425    6.3542
    4.440    6.0558
    4.455    6.3542
    4.470    5.8101
    4.485    5.7750
    4.500    5.5819
    4.515    6.1787
    4.530    5.7925
    4.545    5.8627
    4.560    5.9505
    4.575    5.4941
    4.590    5.8101
    4.605    5.9505
    4.620    5.8452
    4.635    6.1085
    4.650    6.1436
    4.665    5.7750
    4.680    5.7223
    4.695    6.0032
    4.710    5.7399
    4.725    5.7574
    4.740    5.7574
    4.755    5.7574
    4.770    6.3016
    4.785    5.8803
    4.800    6.5298
    4.815    6.1962
    4.830    6.5298
    4.845    6.1260
    4.860    5.8101
    4.875    6.3191
    4.890    6.6175
    4.905    6.3367
    4.920    6.4595
    4.935    6.2840
    4.950    6.5298
    4.965    7.0037
    4.980    6.9686
    4.995    6.3367
    5.010    6.7930
    5.025    6.6526
    5.040    7.0037
    5.055    7.5654
    5.070    6.9686
    5.085    7.4250
    5.100    6.7579
    5.115    7.6180
    5.130    7.8287
    5.145    8.2851
    5.160    8.3904
    5.175    8.7590
    5.190    8.7414
    5.205    8.1095
    5.220    9.0574
    5.235    9.2680
    5.250    9.6893
    5.265   10.1808
    5.280   10.0930
    5.295   10.8829
    5.310   11.1989
    5.325   12.6909
    5.340   12.9366
    5.355   13.8143
    5.370   14.8148
    5.385   16.5175
    5.400   17.5355
    5.415   19.1680
    5.430   22.7664
    5.445   24.7499
    5.460   25.1185
    5.475   24.3286
    5.490   22.1169
    5.505   17.6058
    5.520   13.4632
    5.535   10.0930
    5.550    8.1797
    5.565    6.9159
    5.580    6.3893
    5.595    6.2489
    5.610    6.4244
    5.625    6.1085
    5.640    6.0383
    5.655    5.8978
    5.670    5.6872
    5.685    5.9856
    5.700    6.0558
    5.715    6.0032
    5.730    5.9154
    5.745    5.3888
    5.760    5.6170
    5.775    5.6170
    5.790    5.4941
    5.805    5.4064
    5.820    6.1085
    5.835    5.6872
    5.850    5.4415
    5.865    5.7574
    5.880    5.2835
    5.895    5.4239
    5.910    5.1782
    5.925    5.6697
    5.940    5.4415
    5.955    5.8101
    5.970    5.3361
    5.985    5.1957
    6.000    5.0553
    6.015    5.3010
    6.030    5.3361
    6.045    4.9675
    6.060    5.0553
    6.075    5.7223
    6.090    5.3888
    6.105    5.3888
    6.120    5.5819
    6.135    5.4415
    6.150    5.4064
    6.165    5.3010
    6.180    5.1606
    6.195    5.8978
    6.210    6.2313
    6.225    5.4941
    6.240    5.3010
    6.255    5.4239
    6.270    5.6170
    6.285    5.9154
    6.300    6.0734
    6.315    5.7574
    6.330    5.1957
    6.345    5.5994
    6.360    5.7925
    6.375    6.0032
    6.390    5.9505
    6.405    5.5468
    6.420    6.1260
    6.435    5.9154
    6.450    6.2665
    6.465    6.1962
    6.480    6.4771
    6.495    6.6000
    6.510    6.8106
    6.525    6.9510
    6.540    6.8808
    6.555    6.9510
    6.570    7.4601
    6.585    7.3547
    6.600    8.0393
    6.615    8.1271
    6.630    8.5308
    6.645    9.2154
    6.660    9.9877
    6.675    9.8648
    6.690   11.5499
    6.705   12.1467
    6.720   11.5324
    6.735   10.8829
    6.750    9.7069
    6.765    8.4079
    6.780    6.3367
    6.795    5.5468
    6.810    6.1787
    6.825    5.6872
    6.840    5.4239
    6.855    6.2138
    6.870    6.3191
    6.885    5.0904
    6.900    5.5468
    6.915    5.2484
    6.930    5.0904
    6.945    5.2484
    6.960    5.1782
    6.975    5.8627
    6.990    5.5643
    7.005    5.1957
    7.020    5.3888
    7.035    5.3010
    7.050    5.6521
    7.065    5.4941
    7.080    5.2835
    7.095    5.3361
    7.110    5.1957
    7.125    5.5643
    7.140    5.6872
    7.155    5.0904
    7.170    5.0377
    7.185    4.8622
    7.200    5.0026
    7.215    4.7218
    7.230    5.1431
    7.245    5.0553
    7.260    5.6697
    7.275    4.9500
    7.290    5.1255
    7.305    5.1255
    7.320    5.0553
    7.335    5.2659
    7.350    5.3186
    7.365    5.2659
    7.380    5.8452
    7.395    4.9500
    7.410    5.3361
    7.425    5.4064
    7.440    5.7223
    7.455    5.8101
    7.470    5.7223
    7.485    5.6170
    7.500    5.5117
    7.515    5.7750
    7.530    5.7574
    7.545    5.8276
    7.560    5.8101
    7.575    5.6697
    7.590    6.2840
    7.605    5.9154
    7.620    6.1260
    7.635    6.9510
    7.650    7.0037
    7.665    6.8457
    7.680    6.8282
    7.695    7.2494
    7.710    7.9340
    7.725    8.2500
    7.740    8.7941
    7.755    8.3904
    7.770    8.8292
    7.785    7.6532
    7.800    7.5478
    7.815    6.6877
    7.830    5.9505
    7.845    6.0909
    7.860    5.6872
    7.875    5.6345
    7.890    5.4064
    7.905    5.4590
    7.920    5.1080
    7.935    5.0904
    7.950    5.8276
    7.965    5.1782
    7.980    5.0202
    7.995    4.8798
    8.010    5.1431
    8.025    5.7048
    8.040    5.2133
    8.055    4.7569
    8.070    5.0026
    8.085    5.4941
    8.100    5.3537
    8.115    5.2835
    8.130    4.9675
    8.145    4.9675
    8.160    5.5643
    8.175    5.4064
    8.190    4.7744
    8.205    4.8447
    8.220    5.2484
    8.235    4.8973
    8.250    5.1255
    8.265    5.1957
    8.280    5.1606
    8.295    5.1080
    8.310    5.1606
    8.325    5.3537
    8.340    5.5994
    8.355    5.4239
    8.370    5.4239
    8.385    5.1782
    8.400    4.7042
    8.415    5.3010
    8.430    4.8447
    8.445    5.6697
    8.460    5.8276
    8.475    5.3888
    8.490    5.3537
    8.505    5.1957
    8.520    5.1606
    8.535    5.2484
    8.550    5.4590
    8.565    5.4590
    8.580    5.0553
    8.595    5.0377
    8.610    5.7399
    8.625    5.9856
    8.640    6.0383
    8.655    5.7750
    8.670    5.5468
    8.685    5.3010
    8.700    5.4766
    8.715    5.6697
    8.730    5.2308
    8.745    5.1606
    8.760    5.0728
    8.775    4.8973
    8.790    5.2133
    8.805    5.2308
    8.820    5.4064
    8.835    5.5117
    8.850    5.0202
    8.865    4.8973
    8.880    5.1606
    8.895    5.5468
    8.910    5.3712
    8.925    5.1606
    8.940    5.2308
    8.955    5.0553
    8.970    5.5468
    8.985    5.1782
    9.000    5.3537
    9.015    5.3888
    9.030    4.9500
    9.045    5.1782
    9.060    5.0728
    9.075    5.1080
    9.090    5.5117
    9.105    5.2659
    9.120    5.1606
    9.135    4.9675
    9.150    5.3537
    9.165    5.7574
    9.180    5.5819
    9.195    5.8101
    9.210    5.5819
    9.225    5.7048
    9.240    5.3010
    9.255    5.8627
    9.270    5.4064
    9.285    5.6872
    9.300    6.4069
    9.315    6.7228
    9.330    6.4420
    9.345    6.8808
    9.360    6.7404
    9.375    6.8282
    9.390    6.9861
    9.405    7.1792
    9.420    7.7760
    9.435    8.3026
    9.450    9.2680
    9.465    9.9526
    9.480   11.1111
    9.495   11.6026
    9.510   11.9888
    9.525   13.1824
    9.540   11.7430
    9.555   10.4441
    9.570    8.8468
    9.585    7.6532
    9.600    6.6702
    9.615    5.9856
    9.630    5.6872
    9.645    5.4590
    9.660    5.1255
    9.675    5.5117
    9.690    5.4766
    9.705    5.2659
    9.720    5.1957
    9.735    5.6697
    9.750    4.9851
    9.765    5.0377
    9.780    5.2133
    9.795    5.3888
    9.810    5.2133
    9.825    5.7048
    9.840    5.1431
    9.855    5.2308
    9.870    5.4941
    9.885    5.2133
    9.900    5.2835
    9.915    5.4239
    9.930    5.1606
    9.945    5.2133
    9.960    5.3712
    9.975    4.9500
    9.990    4.9500
   10.005    5.4590
   10.020    5.6872
   10.035    5.6697
   10.050    5.5819
   10.065    5.3712
   10.080    5.7223
   10.095    5.7574
   10.110    5.5819
   10.125    5.4415
   10.140    5.6697
   10.155    5.5819
   10.170    6.3718
   10.185    6.1085
   10.200    6.0032
   10.215    5.9856
   10.230    6.4069
   10.245    7.0739
   10.260    7.6180
   10.275    7.5829
   10.290    7.6707
   10.305    7.5303
   10.320    7.5303
   10.335    6.5122
   10.350    6.2489
   10.365    5.4766
   10.380    5.2133
   10.395    4.8447
   10.410    5.0553
   10.425    4.7042
   10.440    5.2133
   10.455    5.4590
   10.470    5.4064
   10.485    5.1606
   10.500    5.5994
   10.515    5.6872
   10.530    5.1431
   10.545    5.1255
   10.560    5.1255
   10.575    4.7218
   10.590    5.2133
   10.605    5.1431
   10.620    4.5814
   10.635    5.0202
   10.650    4.9675
   10.665    4.7393
   10.680    5.1957
   10.695    5.2484
   10.710    5.0202
   10.725    4.9675
   10.740    5.5643
   10.755    5.4415
   10.770    5.1606
   10.785    5.3186
   10.800    5.7223
   10.815    5.2133
   10.830    5.5292
   10.845    5.2133
   10.860    5.1080
   10.875    5.4941
   10.890    5.8276
   10.905    5.8276
   10.920    6.0207
   10.935    6.2665
   10.950    6.6877
   10.965    6.8633
   10.980    6.9686
   10.995    7.4776
   11.010    7.1266
   11.025    7.0388
   11.040    6.4420
   11.055    6.4244
   11.070    6.0558
   11.085    5.5468
   11.100    5.0728
   11.115    5.3888
   11.130    5.5643
   11.145    5.5819
   11.160    4.9149
   11.175    4.5989
   11.190    4.7042
   11.205    5.2659
   11.220    5.1782
   11.235    5.2133
   11.250    5.0026
   11.265    4.5463
   11.280    4.8798
   11.295    4.6165
   11.310    4.6867
   11.325    4.4585
   11.340    4.8095
   11.355    5.1431
   11.370    5.0904
   11.385    5.1431
   11.400    5.0377
   11.415    5.0202
   11.430    4.5989
   11.445    5.7048
   11.460    5.1431
   11.475    5.2484
   11.490    5.1080
   11.505    5.4239
   11.520    5.1782
   11.535    5.4239
   11.550    5.8276
   11.565    6.0032
   11.580    5.6345
   11.595    6.1436
   11.610    5.9681
   11.625    6.8282
   11.640    6.8282
   11.655    7.3372
   11.670    7.6180
   11.685    8.3904
   11.700    8.0218
   11.715    7.1441
   11.730    6.3718
   11.745    6.0909
   11.760    5.5994
   11.775    6.0734
   11.790    5.3537
   11.805    5.1606
   11.820    5.4064
   11.835    5.2484
   11.850    4.8622
   11.865    4.8798
   11.880    5.1957
   11.895    5.0202
   11.910    5.1606
   11.925    4.9851
   11.940    5.0026
   11.955    5.4590
   11.970    5.2308
   11.985    5.0026
   12.000    4.9500
   12.015    4.7042
   12.030    5.0553
   12.045    4.8271
   12.060    4.6867
   12.075    4.6691
   12.090    5.0202
   12.105    4.8095
   12.120    4.5638
   12.135    5.0728
   12.150    4.9149
   12.165    5.4766
   12.180    5.0904
   12.195    4.9149
   12.210    5.1957
   12.225    5.1957
   12.240    5.3537
   12.255    5.7574
   12.270    5.0728
   12.285    4.8622
   12.300    5.0026
   12.315    5.5819
   12.330    5.3888
   12.345    4.8271
   12.360    5.2659
   12.375    5.1957
   12.390    4.8447
   12.405    5.5994
   12.420    5.1080
   12.435    5.4590
   12.450    5.0553
   12.465    4.5287
   12.480    4.8798
   12.495    5.0026
   12.510    4.8798
   12.525    5.3010
   12.540    5.4064
   12.555    4.9500
   12.570    5.0904
   12.585    5.1080
   12.600    5.1431
   12.615    5.1431
   12.630    4.9324
   12.645    5.4941
   12.660    4.7218
   12.675    4.8447
   12.690    4.8095
   12.705    5.1431
   12.720    4.9500
   12.735    5.5643
   12.750    5.2835
   12.765    5.2835
   12.780    5.1255
   12.795    5.1606
   12.810    5.5994
   12.825    5.4239
   12.840    5.4064
   12.855    5.5819
   12.870    5.8803
   12.885    6.0734
   12.900    6.0032
   12.915    6.3542
   12.930    6.1611
   12.945    6.1787
   12.960    6.0909
   12.975    5.8101
   12.990    5.8452
   13.005    5.8276
   13.020    5.5468
   13.035    5.2308
   13.050    5.2659
   13.065    5.0377
   13.080    5.0202
   13.095    4.7920
   13.110    5.0728
   13.125    4.8798
   13.140    4.6867
   13.155    5.4064
   13.170    4.7218
   13.185    5.1957
   13.200    5.1080
   13.215    5.0553
   13.230    5.1782
   13.245    4.9851
   13.260    5.2659
   13.275    5.2133
   13.290    5.2133
   13.305    5.2484
   13.320    5.2484
   13.335    4.5463
   13.350    4.9675
   13.365    4.9324
   13.380    4.9675
   13.395    4.9675
   13.410    4.4936
   13.425    4.9675
   13.440    5.5468
   13.455    5.1255
   13.470    5.2308
   13.485    5.4415
   13.500    5.4064
   13.515    5.5819
   13.530    5.5292
   13.545    5.3186
   13.560    5.3186
   13.575    5.6345
   13.590    4.9500
   13.605    5.1431
   13.620    5.4064
   13.635    5.0026
   13.650    5.1957
   13.665    4.7920
   13.680    4.8095
   13.695    4.8271
   13.710    5.0728
   13.725    4.7042
   13.740    4.9324
   13.755    4.5989
   13.770    4.9675
   13.785    5.0377
   13.800    4.9675
   13.815    4.5463
   13.830    4.9149
   13.845    5.0904
   13.860    4.9851
   13.875    5.0728
   13.890    5.0026
   13.905    5.4239
   13.920    5.0202
   13.935    5.3361
   13.950    5.4064
   13.965    5.3537
   13.980    5.6170
   13.995    5.9856
   14.010    6.1962
   14.025    6.6175
   14.040    6.5298
   14.055    6.5649
   14.070    6.5122
   14.085    6.3893
   14.100    6.3893
   14.115    5.7048
   14.130    6.1436
   14.145    5.2835
   14.160    5.3888
   14.175    5.0377
   14.190    4.6340
   14.205    4.6867
   14.220    5.2133
   14.235    5.1606
   14.250    5.3186
   14.265    4.7920
   14.280    4.6340
   14.295    4.6516
   14.310    5.1957
   14.325    4.8798
   14.340    5.1431
   14.355    5.2659
   14.370    5.1431
   14.385    5.1080
   14.400    5.0202
   14.415    5.5643
   14.430    5.1255
   14.445    4.9851
   14.460    5.2659
   14.475    4.8447
   14.490    5.1431
   14.505    4.9851
   14.520    5.1957
   14.535    4.8973
   14.550    5.1255
   14.565    5.1606
   14.580    5.1782
   14.595    4.8622
   14.610    4.5287
   14.625    5.0026
   14.640    4.8095
   14.655    5.1431
   14.670    5.4415
   14.685    5.2484
   14.700    5.0377
   14.715    5.2308
   14.730    5.2659
   14.745    4.9149
   14.760    4.9149
   14.775    4.6340
   14.790    4.7744
   14.805    4.9500
   14.820    5.1080
   14.835    5.2308
   14.850    5.0728
   14.865    4.9324
   14.880    4.7569
   14.895    5.0904
   14.910    4.9851
   14.925    4.6867
   14.940    5.0202
   14.955    5.1080
   14.970    5.0553
   14.985    5.5468
   15.000    4.9500
   15.015    5.1255
   15.030    4.9324
   15.045    5.1080
   15.060    5.6170
   15.075    6.0032
   15.090    5.5819
   15.105    5.4415
   15.120    5.7750
   15.135    5.6521
   15.150    5.2484
   15.165    5.3361
   15.180    5.5994
   15.195    5.0202
   15.210    5.4415
   15.225    5.3361
   15.240    5.1782
   15.255    5.1782
   15.270    5.3712
   15.285    5.3537
   15.300    5.4064
   15.315    5.3361
   15.330    5.3010
   15.345    5.2133
   15.360    5.3888
   15.375    5.2308
   15.390    4.9324
   15.405    5.0202
   15.420    4.7744
   15.435    5.1957
   15.450    5.2835
   15.465    5.3010
   15.480    5.3361
   15.495    5.1255
   15.510    5.1431
   15.525    5.2484
   15.540    5.1782
   15.555    5.1606
   15.570    5.1431
   15.585    5.4941
   15.600    5.3537
   15.615    5.5643
   15.630    5.1431
   15.645    5.0202
   15.660    5.2659
   15.675    5.4590
   15.690    5.2659
   15.705    5.4590
   15.720    5.5292
   15.735    5.3888
   15.750    4.9324
   15.765    5.1606
   15.780    5.1782
   15.795    5.3186
   15.810    5.3537
   15.825    5.2308
   15.840    5.0728
   15.855    5.3888
   15.870    5.0202
   15.885    5.0377
   15.900    5.5819
   15.915    5.5117
   15.930    5.2308
   15.945    5.3712
   15.960    5.5292
   15.975    5.7750
   15.990    5.2133
   16.005    5.4239
   16.020    5.6872
   16.035    5.1606
   16.050    5.2133
   16.065    5.5292
   16.080    5.5994
   16.095    5.6345
   16.110    5.3712
   16.125    5.3186
   16.140    5.3186
   16.155    5.7223
   16.170    5.7925
   16.185    5.6345
   16.200    5.4590
   16.215    5.5117
   16.230    5.3888
   16.245    5.3186
   16.260    5.3186
   16.275    4.9851
   16.290    5.1957
   16.305    5.4941
   16.320    6.2489
   16.335    6.0032
   16.350    5.6170
   16.365    5.2835
   16.380    5.5117
   16.395    5.4415
   16.410    5.6345
   16.425    5.3361
   16.440    5.3010
   16.455    5.4415
   16.470    6.0383
   16.485    5.8978
   16.500    5.7048
   16.515    5.4239
   16.530    5.6521
   16.545    5.7574
   16.560    5.5994
   16.575    6.3718
   16.590    5.8627
   16.605    5.9505
   16.620    5.6170
   16.635    5.5292
   16.650    5.6872
   16.665    5.4239
   16.680    4.9500
   16.695    5.4239
   16.710    5.8101
   16.725    5.5117
   16.740    5.4590
   16.755    5.7574
   16.770    5.4941
   16.785    5.8627
   16.800    5.6521
   16.815    5.4941
   16.830    5.4766
   16.845    5.1782
   16.860    5.7048
   16.875    5.3361
   16.890    5.8978
   16.905    5.6697
   16.920    5.8803
   16.935    6.1085
   16.950    6.1611
   16.965    5.6345
   16.980    6.1260
   16.995    6.2489
   17.010    7.0388
   17.025    6.4244
   17.040    6.3718
   17.055    6.8282
   17.070    6.1962
   17.085    6.8106
   17.100    5.9505
   17.115    6.0207
   17.130    5.7223
   17.145    5.9505
   17.160    5.9154
   17.175    5.8276
   17.190    5.2133
   17.205    5.1080
   17.220    5.4415
   17.235    5.4941
   17.250    4.9500
   17.265    5.2308
   17.280    5.8276
   17.295    5.9154
   17.310    5.5468
   17.325    5.7399
   17.340    5.9505
   17.355    5.5117
   17.370    5.6697
   17.385    5.7223
   17.400    5.7048
   17.415    6.0734
   17.430    5.6697
   17.445    6.0383
   17.460    6.0032
   17.475    6.1611
   17.490    6.0909
   17.505    6.2665
   17.520    5.7750
   17.535    5.7574
   17.550    5.8803
   17.565    5.9329
   17.580    5.5117
   17.595    5.5643
   17.610    5.6170
   17.625    5.8978
   17.640    5.6697
   17.655    5.6697
   17.670    5.8101
   17.685    5.6697
   17.700    5.7750
   17.715    5.8276
   17.730    6.1611
   17.745    5.9329
   17.760    5.6697
   17.775    5.6170
   17.790    5.7925
   17.805    5.8452
   17.820    6.2489
   17.835    6.0207
   17.850    6.0909
   17.865    5.8101
   17.880    5.6697
   17.895    5.6521
   17.910    5.9329
   17.925    6.0383
   17.940    6.1611
   17.955    5.9329
   17.970    6.1787
   17.985    6.2138
   18.000    5.4766
   18.015    5.7399
   18.030    5.7925
   18.045    5.7925
   18.060    5.4415
   18.075    5.8803
   18.090    5.7574
   18.105    5.5468
   18.120    6.2489
   18.135    6.3367
   18.150    5.5819
   18.165    5.4766
   18.180    5.7750
   18.195    5.6345
   18.210    6.2489
   18.225    6.0734
   18.240    6.1962
   18.255    5.9856
   18.270    6.1611
   18.285    5.8978
   18.300    5.5819
   18.315    6.2138
   18.330    6.6175
   18.345    6.2840
   18.360    6.4420
   18.375    6.0734
   18.390    6.0734
   18.405    5.9681
   18.420    6.0558
   18.435    5.8978
   18.450    5.8627
   18.465    6.0032
   18.480    5.6697
   18.495    5.9856
   18.510    5.5643
   18.525    6.0383
   18.540    5.9154
   18.555    6.1787
   18.570    5.8803
   18.585    5.6697
   18.600    6.1787
   18.615    6.0383
   18.630    5.7223
   18.645    5.7048
   18.660    5.7925
   18.675    5.7750
   18.690    5.5643
   18.705    5.6170
   18.720    5.7399
   18.735    6.6000
   18.750    6.1611
   18.765    6.1611
   18.780    6.3191
   18.795    6.1611
   18.810    6.3367
   18.825    6.2138
   18.840    6.6000
   18.855    6.2840
   18.870    5.9154
   18.885    6.2489
   18.900    5.8803
   18.915    6.1436
   18.930    5.9329
   18.945    5.6697
   18.960    5.4590
   18.975    5.9681
   18.990    5.9505
   19.005    6.3893
   19.020    6.5122
   19.035    6.1787
   19.050    6.2665
   19.065    5.9505
   19.080    5.8978
   19.095    5.8803
   19.110    5.9856
   19.125    6.1436
   19.140    6.0734
   19.155    6.5473
   19.170    6.0909
   19.185    5.5819
   19.200    6.1436
   19.215    6.2138
   19.230    6.0383
   19.245    5.4239
   19.260    6.2313
   19.275    6.3718
   19.290    6.0207
   19.305    6.3367
   19.320    6.4946
   19.335    6.5824
   19.350    6.2665
   19.365    6.0734
   19.380    6.2665
   19.395    6.2840
   19.410    6.4595
   19.425    5.9329
   19.440    6.0383
   19.455    5.9681
   19.470    5.9856
   19.485    6.4946
   19.500    5.9329
   19.515    5.9154
   19.530    6.2489
   19.545    6.0734
   19.560    6.9510
   19.575    6.5824
   19.590    6.9861
   19.605    6.3016
   19.620    6.4069
   19.635    6.2489
   19.650    6.4244
   19.665    6.5298
   19.680    6.7755
   19.695    6.2840
   19.710    6.2313
   19.725    5.7399
   19.740    6.1436
   19.755    6.2840
   19.770    5.9329
   19.785    6.2138
   19.800    6.5649
   19.815    6.5824
   19.830    6.2840
   19.845    6.3542
   19.860    6.8633
   19.875    5.8452
   19.890    6.0734
   19.905    6.5298
   19.920    6.1787
   19.935    5.6872
   19.950    5.9856
   19.965    6.1436
   19.980    6.5649
   19.995    6.4069
   20.010    6.2489
   20.025    6.6000
   20.040    6.6351
   20.055    6.0734
   20.070    6.0207
   20.085    6.6175
   20.100    6.3191
   20.115    6.2138
   20.130    5.8978
   20.145    6.4244
   20.160    6.3893
   20.175    6.6702
   20.190    6.0207
   20.205    6.0558
   20.220    6.3718
   20.235    6.7228
   20.250    6.5473
   20.265    6.8633
   20.280    7.0037
   20.295    7.1090
   20.310    7.3723
   20.325    7.0037
   20.340    6.8984
   20.355    7.5478
   20.370    6.6351
   20.385    7.4776
   20.400    6.9510
   20.415    6.8633
   20.430    6.5298
   20.445    6.9335
   20.460    6.8457
   20.475    6.7930
   20.490    7.0563
   20.505    6.0909
   20.520    6.2138
   20.535    6.6000
   20.550    6.6877
   20.565    6.6175
   20.580    7.1968
   20.595    6.7404
   20.610    6.6175
   20.625    6.6175
   20.640    6.7755
   20.655    7.1617
   20.670    6.7755
   20.685    6.7755
   20.700    7.0388
   20.715    7.0388
   20.730    6.9861
   20.745    6.7930
   20.760    7.1968
   20.775    6.9510
   20.790    6.8808
   20.805    7.9691
   20.820    7.7234
   20.835    6.9861
   20.850    7.2670
   20.865    7.1090
   20.880    7.9164
   20.895    7.9340
   20.910    7.7936
   20.925    8.6888
   20.940    8.8117
   20.955    9.4260
   20.970    9.9526
   20.985   10.3563
   21.000   11.3569
   21.015   12.4100
   21.030   12.8664
   21.045   14.2356
   21.060   14.5340
   21.075   14.8499
   21.090   16.6403
   21.105   18.8345
   21.120   18.8169
   21.135   20.5898
   21.150   23.2403
   21.165   23.2227
   21.180   24.3110
   21.195   25.0483
   21.210   26.8913
   21.225   27.1195
   21.240   28.2254
   21.255   28.3658
   21.270   29.5068
   21.285   28.9802
   21.300   30.8057
   21.315   31.3498
   21.330   32.7892
   21.345   32.3328
   21.360   32.4381
   21.375   32.8594
   21.390   33.8073
   21.405   32.7892
   21.420   32.7014
   21.435   31.6131
   21.450   33.1578
   21.465   30.7881
   21.480   28.8222
   21.495   25.9259
   21.510   24.3988
   21.525   22.2047
   21.540   18.1850
   21.555   16.3419
   21.570   14.3584
   21.585   11.9010
   21.600   10.6372
   21.615    9.6718
   21.630    8.3728
   21.645    7.8813
   21.660    7.8287
   21.675    7.6532
   21.690    7.5303
   21.705    7.7058
   21.720    7.4952
   21.735    7.4601
   21.750    7.0037
   21.765    6.8633
   21.780    7.4250
   21.795    6.9861
   21.810    6.9335
   21.825    6.4244
   21.840    6.5649
   21.855    6.7930
   21.870    6.6702
   21.885    6.3016
   21.900    6.8106
   21.915    6.6351
   21.930    6.9510
   21.945    6.2313
   21.960    6.3542
   21.975    6.5649
   21.990    6.7053
   22.005    6.5473
   22.020    6.2138
   22.035    6.5473
   22.050    6.2138
   22.065    6.0909
   22.080    6.4946
   22.095    6.2840
   22.110    6.6526
   22.125    6.5298
   22.140    6.0558
   22.155    6.4946
   22.170    6.5824
   22.185    6.2313
   22.200    6.1611
   22.215    6.8282
   22.230    6.3893
   22.245    6.3016
   22.260    6.1611
   22.275    6.2665
   22.290    5.5643
   22.305    5.5643
   22.320    5.7750
   22.335    6.0032
   22.350    6.3191
   22.365    5.8978
   22.380    6.0734
   22.395    6.0558
   22.410    5.6345
   22.425    6.3191
   22.440    6.5824
   22.455    7.0739
   22.470    6.5649
   22.485    6.3718
   22.500    6.7930
   22.515    6.7228
   22.530    6.4595
   22.545    6.4244
   22.560    6.5649
   22.575    6.2313
   22.590    6.7053
   22.605    7.0388
   22.620    6.6000
   22.635    6.4771
   22.650    6.1260
   22.665    5.8978
   22.680    6.0734
   22.695    6.0383
   22.710    5.9681
   22.725    6.5473
   22.740    6.0558
   22.755    5.8803
   22.770    6.0207
   22.785    6.4420
   22.800    6.3367
   22.815    5.9856
   22.830    6.6175
   22.845    6.7404
   22.860    6.9159
   22.875    7.0739
   22.890    6.7579
   22.905    6.5824
   22.920    6.6877
   22.935    6.3542
   22.950    6.1962
   22.965    6.5473
   22.980    6.4771
   22.995    6.1611
   23.010    6.0734
   23.025    5.4766
   23.040    6.1962
   23.055    5.8452
   23.070    5.8803
   23.085    5.8803
   23.100    5.7750
   23.115    5.9505
   23.130    6.3191
   23.145    5.9154
   23.160    5.8452
   23.175    6.4420
   23.190    6.7930
   23.205    5.6345
   23.220    6.3542
   23.235    6.3367
   23.250    6.0558
   23.265    5.9856
   23.280    6.2489
   23.295    6.2138
   23.310    6.3718
   23.325    6.6000
   23.340    6.6351
   23.355    6.5649
   23.370    6.5824
   23.385    6.6351
   23.400    7.2494
   23.415    7.4250
   23.430    7.6005
   23.445    8.0920
   23.460    8.1797
   23.475    8.1797
   23.490    9.3031
   23.505   10.0579
   23.520   10.0579
   23.535   10.5143
   23.550   10.6021
   23.565   10.8478
   23.580   10.7249
   23.595   11.3393
   23.610   11.6553
   23.625   11.3744
   23.640   12.5329
   23.655   12.4978
   23.670   11.9537
   23.685   12.9366
   23.700   13.3579
   23.715   12.8840
   23.730   13.3579
   23.745   13.4983
   23.760   13.4983
   23.775   13.1824
   23.790   14.2180
   23.805   13.9898
   23.820   14.5164
   23.835   14.0249
   23.850   13.5334
   23.865   12.5154
   23.880   12.1643
   23.895   11.7430
   23.910   11.3393
   23.925   10.1281
   23.940    9.0925
   23.955    9.0925
   23.970    7.7058
   23.985    7.4074
   24.000    6.3718
   24.015    5.9856
   24.030    5.9329
   24.045    5.9154
   24.060    5.9329
   24.075    5.4239
   24.090    5.6170
   24.105    5.5643
   24.120    5.5819
   24.135    5.5819
   24.150    5.5292
   24.165    5.4590
   24.180    5.3712
   24.195    5.2484
   24.210    5.4941
   24.225    4.9324
   24.240    5.1080
   24.255    5.2835
   24.270    5.1255
   24.285    5.1255
   24.300    5.6697
   24.315    5.6872
   24.330    5.6170
   24.345    5.3888
   24.360    4.8095
   24.375    5.0728
   24.390    5.0202
   24.405    5.0553
   24.420    5.5117
   24.435    5.4766
   24.450    5.1255
   24.465    5.1782
   24.480    5.2308
   24.495    5.0728
   24.510    5.4590
   24.525    5.1080
   24.540    4.9851
   24.555    4.8973
   24.570    5.1431
   24.585    5.0904
   24.600    5.3010
   24.615    5.4415
   24.630    5.0728
   24.645    5.3537
   24.660    4.8798
   24.675    4.8798
   24.690    5.0026
   24.705    4.8095
   24.720    4.5638
   24.735    4.5463
   24.750    4.9500
   24.765    5.0026
   24.780    5.1431
   24.795    5.1431
   24.810    4.9324
   24.825    4.8447
   24.840    4.6165
   24.855    4.8271
   24.870    4.8622
   24.885    5.1782
   24.900    5.0728
   24.915    5.1080
   24.930    5.0553
   24.945    4.3356
   24.960    4.4409
   24.975    4.8447
   24.990    5.0377
   25.005    4.8798
   25.020    4.5814
   25.035    4.5638
   25.050    4.7744
   25.065    5.0026
   25.080    5.0728
   25.095    4.9149
   25.110    4.7569
   25.125    4.7744
   25.140    4.8973
   25.155    4.8271
   25.170    5.0377
   25.185    4.7920
   25.200    5.0553
   25.215    4.5989
   25.230    4.5638
   25.245    5.1782
   25.260    4.6691
   25.275    4.4760
   25.290    4.8798
   25.305    5.4239
   25.320    5.2484
   25.335    5.1957
   25.350    5.0202
   25.365    4.8973
   25.380    4.7569
   25.395    5.1431
   25.410    4.6867
   25.425    4.7744
   25.440    5.1782
   25.455    4.7393
   25.470    5.0377
   25.485    5.2659
   25.500    4.9149
   25.515    4.7569
   25.530    4.8798
   25.545    4.6340
   25.560    4.8798
   25.575    4.9324
   25.590    5.0728
   25.605    4.8447
   25.620    4.9500
   25.635    4.7393
   25.650    4.7744
   25.665    4.7042
   25.680    4.6165
   25.695    4.5463
   25.710    5.0553
   25.725    5.3186
   25.740    5.9505
   25.755    5.3010
   25.770    5.4766
   25.785    5.4590
   25.800    5.3712
   25.815    5.2308
   25.830    5.2308
   25.845    4.9675
   25.860    5.0026
   25.875    5.1957
   25.890    4.6516
   25.905    5.3010
   25.920    4.8271
   25.935    4.6516
   25.950    4.8447
   25.965    4.7218
   25.980    4.4234
   25.995    4.2127
   26.010    4.5287
   26.025    4.9675
   26.040    4.8271
   26.055    5.1255
   26.070    4.4936
   26.085    4.7920
   26.100    4.8447
   26.115    4.9851
   26.130    4.5814
   26.145    5.0202
   26.160    4.8447
   26.175    4.4585
   26.190    4.4936
   26.205    4.6867
   26.220    4.7744
   26.235    4.8095
   26.250    4.5638
   26.265    4.6165
   26.280    4.8447
   26.295    4.9675
   26.310    4.6867
   26.325    4.5814
   26.340    4.7042
   26.355    4.3005
   26.370    4.8798
   26.385    4.8271
   26.400    4.5463
   26.415    4.8447
   26.430    4.8271
   26.445    4.5638
   26.460    4.9851
   26.475    4.8973
   26.490    4.8447
   26.505    4.5287
   26.520    4.6516
   26.535    4.8447
   26.550    4.5814
   26.565    4.7744
   26.580    4.6165
   26.595    4.9149
   26.610    4.5463
   26.625    4.0723
   26.640    4.3532
   26.655    4.5814
   26.670    4.7393
   26.685    4.4760
   26.700    4.3532
   26.715    4.4234
   26.730    4.5989
   26.745    4.4409
   26.760    4.6516
   26.775    4.5287
   26.790    4.2654
   26.805    4.7042
   26.820    4.7393
   26.835    4.7920
   26.850    4.4234
   26.865    4.7218
   26.880    4.7744
   26.895    4.8622
   26.910    4.7218
   26.925    4.7042
   26.940    4.4409
   26.955    4.4760
   26.970    4.7744
   26.985    4.6691
   27.000    5.4941
   27.015    5.6872
   27.030    4.9500
   27.045    4.6165
   27.060    4.7920
   27.075    4.7920
   27.090    4.8622
   27.105    4.5638
   27.120    4.5814
   27.135    4.2478
   27.150    4.6165
   27.165    5.0553
   27.180    4.3532
   27.195    4.3356
   27.210    4.6867
   27.225    4.3883
   27.240    4.6340
   27.255    4.7393
   27.270    4.6516
   27.285    4.6165
   27.300    4.8622
   27.315    4.9675
   27.330    4.1601
   27.345    4.3707
   27.360    4.3883
   27.375    4.7744
   27.390    4.5814
   27.405    4.3356
   27.420    4.3181
   27.435    4.4936
   27.450    4.4409
   27.465    4.6165
   27.480    4.1425
   27.495    4.6165
   27.510    4.3707
   27.525    4.5287
   27.540    4.4936
   27.555    4.5814
   27.570    3.8968
   27.585    4.2478
   27.600    4.3532
   27.615    4.6516
   27.630    4.3356
   27.645    4.3532
   27.660    4.7218
   27.675    4.9149
   27.690    4.3532
   27.705    4.0197
   27.720    4.2654
   27.735    4.1952
   27.750    4.1074
   27.765    4.1425
   27.780    4.0021
   27.795    4.3707
   27.810    4.5287
   27.825    4.5111
   27.840    4.3707
   27.855    4.1074
   27.870    3.9319
   27.885    4.3005
   27.900    4.4409
   27.915    4.0197
   27.930    4.3181
   27.945    4.4760
   27.960    4.2478
   27.975    4.3005
   27.990    4.5638
   28.005    4.5463
   28.020    4.3356
   28.035    4.3181
   28.050    4.4234
   28.065    4.6516
   28.080    4.6340
   28.095    4.5989
   28.110    4.6691
   28.125    4.3707
   28.140    4.0548
   28.155    4.3707
   28.170    4.5814
   28.185    4.3356
   28.200    4.8447
   28.215    4.2830
   28.230    4.3532
   28.245    4.0548
   28.260    4.2830
   28.275    4.5287
   28.290    4.4234
   28.305    4.5287
   28.320    4.4409
   28.335    4.1074
   28.350    4.8271
   28.365    4.8798
   28.380    4.6516
   28.395    4.7042
   28.410    4.7920
   28.425    4.7569
   28.440    4.7569
   28.455    4.4409
   28.470    4.1425
   28.485    4.0723
   28.500    4.2478
   28.515    4.1601
   28.530    4.3005
   28.545    4.4760
   28.560    4.0548
   28.575    4.1776
   28.590    4.2303
   28.605    4.0723
   28.620    4.1425
   28.635    4.5111
   28.650    4.1425
   28.665    4.2127
   28.680    4.4058
   28.695    4.3181
   28.710    4.4234
   28.725    4.0899
   28.740    4.3883
   28.755    4.4760
   28.770    4.2127
   28.785    3.8792
   28.800    3.9319
   28.815    3.6862
   28.830    4.1425
   28.845    3.9670
   28.860    4.4234
   28.875    4.3883
   28.890    4.2478
   28.905    4.0723
   28.920    4.6867
   28.935    4.1776
   28.950    3.9670
   28.965    4.3005
   28.980    4.1601
   28.995    3.8968
   29.010    4.3532
   29.025    4.1074
   29.040    4.4409
   29.055    4.6165
   29.070    4.2830
   29.085    4.4585
   29.100    4.0548
   29.115    4.4409
   29.130    4.0372
   29.145    4.2478
   29.160    4.5989
   29.175    4.3181
   29.190    4.6691
   29.205    4.6516
   29.220    4.3356
   29.235    4.4760
   29.250    4.4760
   29.265    4.7744
   29.280    4.3883
   29.295    4.1250
   29.310    4.4058
   29.325    4.6340
   29.340    4.6867
   29.355    4.4234
   29.370    4.0197
   29.385    3.9846
   29.400    4.5111
   29.415    4.5287
   29.430    4.4760
   29.445    4.8447
   29.460    4.5814
   29.475    4.4058
   29.490    4.9149
   29.505    4.5287
   29.520    4.4409
   29.535    4.8973
   29.550    4.2478
   29.565    4.4760
   29.580    4.4058
   29.595    4.9324
   29.610    4.4409
   29.625    4.5638
   29.640    4.4760
   29.655    4.1250
   29.670    4.0899
   29.685    4.4058
   29.700    4.5814
   29.715    4.7569
   29.730    4.8447
   29.745    4.5463
   29.760    4.7042
   29.775    4.4760
   29.790    4.7218
   29.805    4.5111
   29.820    4.8973
   29.835    4.7042
   29.850    4.2478
   29.865    4.5989
   29.880    4.4234
   29.895    4.6867
   29.910    4.4936
   29.925    4.8798
   29.940    4.8271
   29.955    4.9675
   29.970    4.7393
   29.985    4.3181
   30.000    4.4585
   30.015    4.3707
   30.030    4.2303
   30.045    4.3181
   30.060    4.3181
   30.075    3.9846
   30.090    4.0899
   30.105    4.1250
   30.120    4.1601
   30.135    4.1250
   30.150    4.3532
   30.165    4.2303
   30.180    3.9670
   30.195    4.0372
   30.210    4.0197
   30.225    3.9846
   30.240    4.3707
   30.255    3.9846
   30.270    4.1952
   30.285    4.0197
   30.300    4.0021
   30.315    3.8090
   30.330    4.1601
   30.345    4.1425
   30.360    4.4760
   30.375    4.0021
   30.390    4.4760
   30.405    4.6867
   30.420    4.1250
   30.435    4.2303
   30.450    4.0548
   30.465    3.7564
   30.480    4.1776
   30.495    3.9319
   30.510    4.1074
   30.525    4.0021
   30.540    4.3005
   30.555    4.2303
   30.570    3.9319
   30.585    3.9319
   30.600    3.8266
   30.615    3.9494
   30.630    4.0548
   30.645    4.3883
   30.660    4.1776
   30.675    3.7564
   30.690    3.9319
   30.705    3.9494
   30.720    3.9494
   30.735    3.9494
   30.750    4.0899
   30.765    3.8090
   30.780    3.9846
   30.795    3.6862
   30.810    4.1425
   30.825    4.1074
   30.840    4.0021
   30.855    3.9319
   30.870    4.1074
   30.885    3.9846
   30.900    3.8617
   30.915    3.7739
   30.930    3.8617
   30.945    3.9670
   30.960    3.8968
   30.975    3.7037
   30.990    3.9670
   31.005    4.4234
   31.020    4.1952
   31.035    3.7915
   31.050    4.5287
   31.065    4.0197
   31.080    3.9494
   31.095    3.7915
   31.110    3.6510
   31.125    3.7564
   31.140    4.0197
   31.155    4.1074
   31.170    3.5457
   31.185    3.8090
   31.200    3.4580
   31.215    3.7213
   31.230    3.8441
   31.245    3.9494
   31.260    3.9143
   31.275    3.7213
   31.290    3.5282
   31.305    3.6862
   31.320    3.8792
   31.335    3.8968
   31.350    3.8968
   31.365    3.6862
   31.380    3.8441
   31.395    3.7915
   31.410    3.7915
   31.425    3.8441
   31.440    3.8968
   31.455    4.1250
   31.470    4.0021
   31.485    4.1074
   31.500    3.8968
   31.515    3.9319
   31.530    4.0548
   31.545    3.6335
   31.560    3.7915
   31.575    4.0372
   31.590    3.9846
   31.605    3.7915
   31.620    4.0197
   31.635    3.9319
   31.650    3.7037
   31.665    3.7915
   31.680    3.9846
   31.695    3.6510
   31.710    3.9494
   31.725    3.8968
   31.740    3.8441
   31.755    3.5457
   31.770    4.0197
   31.785    3.7388
   31.800    3.9494
   31.815    4.1425
   31.830    3.8441
   31.845    3.7388
   31.860    3.7213
   31.875    3.9494
   31.890    4.1250
   31.905    3.5808
   31.920    3.8792
   31.935    3.9494
   31.950    3.8617
   31.965    3.7564
   31.980    3.8617
   31.995    3.3877
   32.010    3.8617
   32.025    3.8090
   32.040    3.6335
   32.055    3.4580
   32.070    3.8090
   32.085    4.2127
   32.100    3.3877
   32.115    3.7564
   32.130    4.1952
   32.145    3.9846
   32.160    3.8968
   32.175    3.9670
   32.190    3.7388
   32.205    3.8441
   32.220    4.4760
   32.235    3.8266
   32.250    3.6686
   32.265    3.3702
   32.280    3.7388
   32.295    3.6686
   32.310    3.5457
   32.325    3.7388
   32.340    3.4931
   32.355    3.7037
   32.370    3.7388
   32.385    3.4404
   32.400    3.8441
   32.415    3.8441
   32.430    3.8090
   32.445    3.5457
   32.460    3.6335
   32.475    3.5457
   32.490    3.6335
   32.505    3.7037
   32.520    4.0021
   32.535    3.5984
   32.550    2.9314
   32.565    3.3702
   32.580    3.7739
   32.595    3.5808
   32.610    3.1420
   32.625    3.4755
   32.640    3.9319
   32.655    3.5282
   32.670    3.5106
   32.685    3.9670
   32.700    4.0197
   32.715    3.7564
   32.730    3.7564
   32.745    3.6862
   32.760    3.8617
   32.775    3.6862
   32.790    3.5633
   32.805    3.4580
   32.820    3.3702
   32.835    3.8968
   32.850    3.9494
   32.865    3.8617
   32.880    3.7564
   32.895    3.5457
   32.910    3.7213
   32.925    3.7037
   32.940    3.6686
   32.955    3.3702
   32.970    3.3702
   32.985    3.4404
   33.000    3.5106
   33.015    3.4229
   33.030    3.6862
   33.045    3.7564
   33.060    3.9143
   33.075    3.2649
   33.090    3.4931
   33.105    3.7739
   33.120    4.2303
   33.135    3.8266
   33.150    3.5106
   33.165    3.7564
   33.180    3.7739
   33.195    3.2298
   33.210    3.3000
   33.225    3.6862
   33.240    3.5106
   33.255    3.6335
   33.270    3.2298
   33.285    3.1771
   33.300    3.7213
   33.315    3.8617
   33.330    3.5106
   33.345    3.5282
   33.360    3.3877
   33.375    3.5808
   33.390    3.6159
   33.405    3.3351
   33.420    3.1596
   33.435    3.5106
   33.450    3.8441
   33.465    3.2473
   33.480    3.3526
   33.495    3.2649
   33.510    3.1771
   33.525    3.3000
   33.540    3.5457
   33.555    3.3877
   33.570    3.4053
   33.585    3.4053
   33.600    3.2824
   33.615    3.6510
   33.630    3.6510
   33.645    3.5457
   33.660    3.8090
   33.675    3.8266
   33.690    3.9670
   33.705    3.2122
   33.720    3.4404
   33.735    3.5984
   33.750    3.5633
   33.765    3.3526
   33.780    3.4404
   33.795    3.3877
   33.810    3.4404
   33.825    3.4404
   33.840    3.4580
   33.855    3.4931
   33.870    3.4229
   33.885    3.4229
   33.900    3.6159
   33.915    3.7739
   33.930    3.5282
   33.945    3.4580
   33.960    3.2298
   33.975    3.0718
   33.990    3.5282
   34.005    3.4404
   34.020    3.2473
   34.035    3.1947
   34.050    3.5106
   34.065    3.4931
   34.080    3.2122
   34.095    3.3526
   34.110    3.3702
   34.125    3.4580
   34.140    3.2649
   34.155    3.2473
   34.170    3.0718
   34.185    3.3351
   34.200    3.8441
   34.215    4.0548
   34.230    3.5633
   34.245    3.3000
   34.260    3.0893
   34.275    3.2298
   34.290    3.3175
   34.305    3.1245
   34.320    3.1771
   34.335    3.0718
   34.350    3.4229
   34.365    3.4404
   34.380    3.4053
   34.395    3.6335
   34.410    3.3175
   34.425    3.2298
   34.440    3.3175
   34.455    3.5282
   34.470    3.4404
   34.485    3.1947
   34.500    3.3000
   34.515    3.5984
   34.530    3.4229
   34.545    3.2122
   34.560    3.2473
   34.575    3.4580
   34.590    3.2122
   34.605    3.5106
   34.620    3.4931
   34.635    3.4580
   34.650    3.4931
   34.665    3.3526
   34.680    3.4404
   34.695    3.3000
   34.710    3.3351
   34.725    3.3526
   34.740    3.3877
   34.755    3.3000
   34.770    3.4755
   34.785    3.3351
   34.800    3.2824
   34.815    3.0016
   34.830    3.4931
   34.845    3.2473
   34.860    3.1245
   34.875    3.1596
   34.890    3.2649
   34.905    3.2298
   34.920    3.4053
   34.935    3.4229
   34.950    3.2649
   34.965    3.5457
   34.980    3.1245
   34.995    3.3351
   35.010    3.4229
   35.025    3.3526
   35.040    3.4931
   35.055    3.8090
   35.070    3.8617
   35.085    3.2298
   35.100    3.3877
   35.115    3.3526
   35.130    2.8612
   35.145    3.1420
   35.160    3.4229
   35.175    3.3351
   35.190    3.3000
   35.205    3.1947
   35.220    3.3175
   35.235    3.4229
   35.250    3.4404
   35.265    3.2473
   35.280    3.0893
   35.295    3.4404
   35.310    3.5106
   35.325    3.4580
   35.340    3.0367
   35.355    2.8436
   35.370    3.3526
   35.385    3.0718
   35.400    3.1947
   35.415    3.2824
   35.430    3.5633
   35.445    3.1596
   35.460    3.2298
   35.475    3.1771
   35.490    3.2473
   35.505    3.0893
   35.520    3.4053
   35.535    3.4404
   35.550    3.2298
   35.565    3.4404
   35.580    3.5106
   35.595    3.5282
   35.610    3.1947
   35.625    3.6335
   35.640    3.5282
   35.655    3.4053
   35.670    3.3702
   35.685    3.5457
   35.700    3.4580
   35.715    3.6159
   35.730    3.8792
   35.745    3.9143
   35.760    3.5984
   35.775    3.7564
   35.790    3.7213
   35.805    3.7739
   35.820    3.8968
   35.835    3.9143
   35.850    3.5633
   35.865    3.6159
   35.880    3.5984
   35.895    3.4931
   35.910    3.5633
   35.925    3.6862
   35.940    3.6159
   35.955    4.2478
   35.970    3.9846
   35.985    4.1601
   36.000    4.4760
   36.015    4.0723
   36.030    4.4760
   36.045    4.3883
   36.060    3.7739
   36.075    4.1601
   36.090    4.1425
   36.105    4.0899
   36.120    3.9846
   36.135    3.7388
   36.150    4.1074
   36.165    3.7213
   36.180    4.0021
   36.195    4.2303
   36.210    3.9494
   36.225    3.6335
   36.240    4.0197
   36.255    3.7037
   36.270    4.0021
   36.285    3.7564
   36.300    3.6686
   36.315    3.3351
   36.330    3.8266
   36.345    3.5106
   36.360    3.5457
   36.375    3.2473
   36.390    3.4404
   36.405    3.1420
   36.420    3.3877
   36.435    3.3702
   36.450    3.1245
   36.465    3.5633
   36.480    3.2473
   36.495    3.5282
   36.510    3.4404
   36.525    2.8260
   36.540    2.9314
   36.555    3.4404
   36.570    3.2649
   36.585    3.1245
   36.600    3.3351
   36.615    3.2122
   36.630    2.6681
   36.645    3.0542
   36.660    3.3702
   36.675    3.0893
   36.690    3.1069
   36.705    3.1245
   36.720    2.7734
   36.735    2.9665
   36.750    3.2824
   36.765    3.0367
   36.780    3.1245
   36.795    3.4053
   36.810    3.2824
   36.825    3.0718
   36.840    2.6330
   36.855    2.7909
   36.870    2.7383
   36.885    3.0542
   36.900    3.2298
   36.915    2.8436
   36.930    3.1069
   36.945    3.1947
   36.960    2.8260
   36.975    2.9665
   36.990    3.1069
   37.005    2.9665
   37.020    3.3000
   37.035    3.2298
   37.050    3.2298
   37.065    3.0893
   37.080    2.6681
   37.095    2.8963
   37.110    2.6505
   37.125    3.0367
   37.140    3.1596
   37.155    2.9840
   37.170    3.1947
   37.185    3.1069
   37.200    3.0367
   37.215    3.2824
   37.230    2.9138
   37.245    2.9665
   37.260    2.9840
   37.275    2.8436
   37.290    2.9665
   37.305    2.9138
   37.320    3.1420
   37.335    3.2649
   37.350    3.1245
   37.365    3.1596
   37.380    3.0367
   37.395    3.0542
   37.410    3.1596
   37.425    2.6856
   37.440    2.6505
   37.455    2.9840
   37.470    3.0718
   37.485    2.8085
   37.500    2.6856
   37.515    3.1245
   37.530    3.3175
   37.545    3.1420
   37.560    3.5633
   37.575    3.0718
   37.590    2.8085
   37.605    2.9840
   37.620    2.7909
   37.635    2.8260
   37.650    3.3000
   37.665    3.2298
   37.680    3.0893
   37.695    2.7383
   37.710    2.9489
   37.725    3.2824
   37.740    2.9138
   37.755    3.0367
   37.770    3.0016
   37.785    3.2824
   37.800    3.0016
   37.815    2.7909
   37.830    3.0367
   37.845    3.2298
   37.860    2.7734
   37.875    2.8260
   37.890    2.7032
   37.905    2.8085
   37.920    3.4229
   37.935    3.1947
   37.950    3.1947
   37.965    3.0542
   37.980    3.1420
   37.995    3.2122
   38.010    3.2122
   38.025    3.0191
   38.040    3.0718
   38.055    3.1069
   38.070    2.9840
   38.085    2.8787
   38.100    3.1069
   38.115    3.0718
   38.130    3.1771
   38.145    3.0367
   38.160    3.0016
   38.175    3.1771
   38.190    3.0542
   38.205    2.8963
   38.220    2.9665
   38.235    3.0191
   38.250    3.0542
   38.265    3.2649
   38.280    3.3351
   38.295    3.2649
   38.310    3.3175
   38.325    3.0542
   38.340    3.3526
   38.355    3.1947
   38.370    3.4229
   38.385    2.8787
   38.400    3.0191
   38.415    3.1596
   38.430    3.0191
   38.445    2.8612
   38.460    2.7207
   38.475    2.8612
   38.490    3.2649
   38.505    3.0893
   38.520    2.9138
   38.535    3.0367
   38.550    3.0893
   38.565    2.9489
   38.580    2.8436
   38.595    2.8260
   38.610    2.7558
   38.625    2.8963
   38.640    3.1069
   38.655    2.9665
   38.670    3.1069
   38.685    2.7734
   38.700    3.2824
   38.715    3.1596
   38.730    2.8260
   38.745    2.9138
   38.760    2.6856
   38.775    2.4574
   38.790    2.6505
   38.805    2.9665
   38.820    2.8963
   38.835    2.9138
   38.850    2.8963
   38.865    3.0191
   38.880    2.8963
   38.895    2.7734
   38.910    2.9840
   38.925    3.0191
   38.940    2.7558
   38.955    2.7734
   38.970    3.1420
   38.985    2.9840
   39.000    3.0718
   39.015    2.8436
   39.030    2.7383
   39.045    2.5452
   39.060    3.0016
   39.075    3.0367
   39.090    3.1245
   39.105    3.1596
   39.120    2.9665
   39.135    3.1771
   39.150    2.8787
   39.165    3.0893
   39.180    3.0191
   39.195    3.0191
   39.210    3.0367
   39.225    2.9489
   39.240    3.0718
   39.255    3.0367
   39.270    2.9489
   39.285    3.1420
   39.300    3.1771
   39.315    3.1245
   39.330    3.0191
   39.345    3.0191
   39.360    2.9138
   39.375    3.0191
   39.390    3.1947
   39.405    2.9314
   39.420    2.9314
   39.435    3.0718
   39.450    3.1245
   39.465    2.9138
   39.480    2.9138
   39.495    2.8436
   39.510    3.2473
   39.525    3.1245
   39.540    3.0542
   39.555    2.9665
   39.570    3.3000
   39.585    2.9665
   39.600    2.9489
   39.615    3.0542
   39.630    3.0367
   39.645    3.2122
   39.660    3.0542
   39.675    3.3877
   39.690    2.8612
   39.705    3.1596
   39.720    2.9489
   39.735    2.9314
   39.750    3.0893
   39.765    3.3877
   39.780    2.9840
   39.795    3.0367
   39.810    2.7909
   39.825    2.9489
   39.840    2.7558
   39.855    2.9665
   39.870    2.7909
   39.885    2.7558
   39.900    3.0367
   39.915    3.2649
   39.930    3.4404
   39.945    3.2473
   39.960    3.1596
   39.975    3.1069
   39.990    3.1420
