    1.500   14.4207
    1.515   14.5664
    1.530   14.2759
    1.545   14.1732
    1.560   13.8977
    1.575   13.6756
    1.590   13.6080
    1.605   13.5194
    1.620   13.4185
    1.635   13.0095
    1.650   12.8892
    1.665   12.7585
    1.680   12.6488
    1.695   12.6022
    1.710   12.3626
    1.725   12.2468
    1.740   11.9809
    1.755   12.0291
    1.770   11.8913
    1.785   11.6667
    1.800   11.7685
    1.815   11.5482
    1.830   11.4543
    1.845   11.4315
    1.860   11.1567
    1.875   11.0523
    1.890   10.9882
    1.905   10.9400
    1.920   10.8355
    1.935   10.9014
    1.950   10.8083
    1.965   10.6240
    1.980   10.4915
    1.995   10.4924
    2.010   10.5977
    2.025   10.4213
    2.040   10.4713
    2.055   10.2975
    2.070   10.1071
    2.085   10.2185
    2.100   10.2150
    2.115   10.0869
    2.130   10.0649
    2.145   10.0544
    2.160    9.9895
    2.175   10.0105
    2.190    9.9772
    2.205    9.8789
    2.220    9.9886
    2.235    9.8543
    2.250    9.8253
    2.265    9.8139
    2.280    9.8789
    2.295    9.8806
    2.310    9.8508
    2.325    9.8526
    2.340    9.8534
    2.355    9.8455
    2.370    9.8956
    2.385    9.9166
    2.400    9.8710
    2.415    9.9640
    2.430    9.9456
    2.445    9.9315
    2.460    9.8631
    2.475    9.8139
    2.490    9.8534
    2.505    9.9526
    2.520   10.0140
    2.535   10.0518
    2.550   10.1975
    2.565   10.2993
    2.580   10.3186
    2.595   10.3309
    2.610   10.3423
    2.625   10.5362
    2.640   10.5494
    2.655   10.7399
    2.670   10.8583
    2.685   10.7767
    2.700   10.8276
    2.715   10.9154
    2.730   10.9733
    2.745   11.1752
    2.760   11.3156
    2.775   11.3507
    2.790   11.5403
    2.805   11.7334
    2.820   11.7246
    2.835   11.9028
    2.850   12.1485
    2.865   12.1994
    2.880   12.4750
    2.895   12.6610
    2.910   12.7830
    2.925   13.2543
    2.940   13.1701
    2.955   13.2737
    2.970   13.5958
    2.985   13.7028
    3.000   14.0943
    3.015   14.2092
    3.030   14.3233
    3.045   14.4734
    3.060   14.9579
    3.075   15.2431
    3.090   15.5582
    3.105   16.1006
    3.120   16.2313
    3.135   16.4990
    3.150   16.8852
    3.165   17.1336
    3.180   17.6523
    3.195   18.0490
    3.210   18.5589
    3.225   19.1338
    3.240   19.7885
    3.255   20.0255
    3.270   20.2791
    3.285   20.8873
    3.300   21.6535
    3.315   22.3082
    3.330   22.9928
    3.345   24.0995
    3.360   24.7244
    3.375   25.6003
    3.390   26.2191
    3.405   27.1617
    3.420   28.2280
    3.435   29.4734
    3.450   30.6468
    3.465   31.7544
    3.480   33.0200
    3.495   34.5541
    3.510   36.0146
    3.525   37.5979
    3.540   39.5103
    3.555   41.7202
    3.570   43.7221
    3.585   46.1146
    3.600   48.2614
    3.615   51.4929
    3.630   55.0816
    3.645   58.6642
    3.660   63.0656
    3.675   67.8664
    3.690   73.8669
    3.705   81.7062
    3.720   90.3765
    3.735  102.1336
    3.750  115.8873
    3.765  125.3827
    3.780  123.1043
    3.795  108.8757
    3.810   87.0827
    3.825   64.5919
    3.840   44.0065
    3.855   28.5668
    3.870   19.3856
    3.885   14.3435
    3.900   11.5684
    3.915    9.9886
    3.930    8.9319
    3.945    8.0130
    3.960    7.4434
    3.975    6.9861
    3.990    6.7062
    4.005    6.3367
    4.020    6.2129
    4.035    5.9909
    4.050    5.6503
    4.065    5.5591
    4.080    5.5933
    4.095    5.4353
    4.110    5.3440
    4.125    5.2940
    4.140    5.1738
    4.155    5.1817
    4.170    5.1053
    4.185    5.1510
    4.200    4.9649
    4.215    4.8736
    4.230    4.8675
    4.245    4.8833
    4.260    4.8411
    4.275    5.0132
    4.290    4.8929
    4.305    4.8473
    4.320    4.7297
    4.335    4.8850
    4.350    4.7569
    4.365    4.7665
    4.380    4.7253
    4.395    4.7674
    4.410    4.7446
    4.425    4.7376
    4.440    4.8025
    4.455    4.6682
    4.470    4.7349
    4.485    4.8587
    4.500    4.7025
    4.515    4.8701
    4.530    4.8034
    4.545    4.7938
    4.560    4.8701
    4.575    4.8964
    4.590    4.9008
    4.605    4.8341
    4.620    4.9140
    4.635    5.0421
    4.650    5.0781
    4.665    5.0965
    4.680    5.0641
    4.695    5.0922
    4.710    5.2010
    4.725    5.1931
    4.740    5.3019
    4.755    5.3669
    4.770    5.3607
    4.785    5.4371
    4.800    5.4599
    4.815    5.4064
    4.830    5.5924
    4.845    5.6556
    4.860    5.7952
    4.875    5.7337
    4.890    5.7837
    4.905    5.9917
    4.920    6.1427
    4.935    6.1673
    4.950    6.3270
    4.965    6.3990
    4.980    6.5886
    4.995    6.6974
    5.010    6.7685
    5.025    6.9642
    5.040    7.1467
    5.055    7.3583
    5.070    7.5829
    5.085    7.7435
    5.100    8.0077
    5.115    8.3254
    5.130    8.6625
    5.145    8.8792
    5.160    9.2961
    5.175    9.7121
    5.190   10.1132
    5.205   10.5977
    5.220   11.1585
    5.235   11.8282
    5.250   12.5224
    5.265   13.4562
    5.280   14.3593
    5.295   15.5161
    5.310   16.9888
    5.325   19.0916
    5.340   21.1962
    5.355   23.0068
    5.370   23.4773
    5.385   21.7149
    5.400   18.5457
    5.415   15.1492
    5.430   11.6526
    5.445    8.7213
    5.460    6.8931
    5.475    5.8180
    5.490    5.2159
    5.505    4.8727
    5.520    4.6682
    5.535    4.5015
    5.550    4.3628
    5.565    4.3181
    5.580    4.2084
    5.595    4.2856
    5.610    4.1662
    5.625    4.0618
    5.640    4.0820
    5.655    4.0205
    5.670    4.0679
    5.685    4.0697
    5.700    3.9977
    5.715    4.0302
    5.730    4.0319
    5.745    3.8854
    5.760    3.9021
    5.775    3.9828
    5.790    3.9231
    5.805    3.9486
    5.820    3.9784
    5.835    3.8722
    5.850    3.9064
    5.865    3.9512
    5.880    3.8898
    5.895    3.9258
    5.910    3.9424
    5.925    3.8871
    5.940    3.9767
    5.955    3.9258
    5.970    4.0056
    5.985    3.9802
    6.000    3.9372
    6.015    3.9433
    6.030    3.9512
    6.045    4.0513
    6.060    4.0153
    6.075    3.9556
    6.090    4.0548
    6.105    3.9889
    6.120    3.9854
    6.135    4.0495
    6.150    4.0513
    6.165    4.0319
    6.180    4.0469
    6.195    4.0609
    6.210    4.0916
    6.225    4.1373
    6.240    4.1601
    6.255    4.2707
    6.270    4.1513
    6.285    4.2540
    6.300    4.3461
    6.315    4.3391
    6.330    4.2303
    6.345    4.3918
    6.360    4.5594
    6.375    4.6603
    6.390    4.6911
    6.405    4.8139
    6.420    4.9096
    6.435    4.9842
    6.450    5.0606
    6.465    5.2352
    6.480    5.4151
    6.495    5.6012
    6.510    5.8127
    6.525    6.1655
    6.540    6.4990
    6.555    6.9537
    6.570    7.4425
    6.585    7.7734
    6.600    7.8585
    6.615    7.2837
    6.630    6.6588
    6.645    5.8987
    6.660    5.1580
    6.675    4.6252
    6.690    4.3260
    6.705    4.1127
    6.720    3.9310
    6.735    3.9056
    6.750    3.8415
    6.765    3.7941
    6.780    3.7493
    6.795    3.7608
    6.810    3.6905
    6.825    3.7248
    6.840    3.8626
    6.855    3.8669
    6.870    3.7388
    6.885    3.8002
    6.900    3.6695
    6.915    3.6993
    6.930    3.7353
    6.945    3.7862
    6.960    3.7687
    6.975    3.7204
    6.990    3.7221
    7.005    3.7994
    7.020    3.7300
    7.035    3.7309
    7.050    3.6993
    7.065    3.6572
    7.080    3.7406
    7.095    3.7739
    7.110    3.7678
    7.125    3.8020
    7.140    3.7932
    7.155    3.8968
    7.170    3.9398
    7.185    3.8354
    7.200    3.9258
    7.215    3.8275
    7.230    3.9258
    7.245    3.9819
    7.260    4.0442
    7.275    4.0188
    7.290    4.0899
    7.305    4.1022
    7.320    4.1557
    7.335    4.1908
    7.350    4.3312
    7.365    4.3488
    7.380    4.4102
    7.395    4.4813
    7.410    4.5164
    7.425    4.5559
    7.440    4.6384
    7.455    4.8297
    7.470    4.9430
    7.485    5.0737
    7.500    5.2247
    7.515    5.5047
    7.530    5.7899
    7.545    5.9075
    7.560    6.1822
    7.575    6.6377
    7.590    7.1818
    7.605    7.8445
    7.620    8.1683
    7.635    8.1104
    7.650    7.4408
    7.665    6.6430
    7.680    5.8627
    7.695    5.1615
    7.710    4.4918
    7.725    4.1645
    7.740    3.9275
    7.755    3.7888
    7.770    3.7967
    7.785    3.7379
    7.800    3.6238
    7.815    3.6993
    7.830    3.6818
    7.845    3.6107
    7.860    3.5975
    7.875    3.6159
    7.890    3.5993
    7.905    3.5606
    7.920    3.5475
    7.935    3.5668
    7.950    3.5519
    7.965    3.5413
    7.980    3.6168
    7.995    3.5879
    8.010    3.5413
    8.025    3.5510
    8.040    3.5721
    8.055    3.6089
    8.070    3.6616
    8.085    3.6581
    8.100    3.6958
    8.115    3.6309
    8.130    3.6186
    8.145    3.6089
    8.160    3.6756
    8.175    3.7256
    8.190    3.7406
    8.205    3.7511
    8.220    3.8476
    8.235    3.8283
    8.250    3.8634
    8.265    3.8310
    8.280    3.8292
    8.295    3.9661
    8.310    4.0205
    8.325    4.0714
    8.340    4.0355
    8.355    4.0960
    8.370    4.2364
    8.385    4.3251
    8.400    4.3786
    8.415    4.5357
    8.430    4.6323
    8.445    4.7016
    8.460    4.9868
    8.475    5.1782
    8.490    5.4265
    8.505    5.8215
    8.520    6.2278
    8.535    6.1883
    8.550    6.0786
    8.565    5.6249
    8.580    5.1913
    8.595    4.7604
    8.610    4.3225
    8.625    4.0144
    8.640    3.8503
    8.655    3.6510
    8.670    3.5975
    8.685    3.6001
    8.700    3.5721
    8.715    3.5966
    8.730    3.6230
    8.745    3.5896
    8.760    3.5712
    8.775    3.6133
    8.790    3.5387
    8.805    3.5378
    8.820    3.5879
    8.835    3.6072
    8.850    3.6151
    8.865    3.6423
    8.880    3.6739
    8.895    3.6730
    8.910    3.6414
    8.925    3.7248
    8.940    3.6370
    8.955    3.6800
    8.970    3.7555
    8.985    3.9012
    9.000    3.9073
    9.015    3.9029
    9.030    3.9152
    9.045    3.9424
    9.060    4.0785
    9.075    4.1943
    9.090    4.2838
    9.105    4.3198
    9.120    4.4717
    9.135    4.6445
    9.150    4.6832
    9.165    4.8806
    9.180    5.0676
    9.195    5.2317
    9.210    5.4678
    9.225    5.8083
    9.240    6.0295
    9.255    6.2866
    9.270    6.7702
    9.285    7.2898
    9.300    8.0305
    9.315    8.7687
    9.330    9.7148
    9.345   10.6302
    9.360   10.8083
    9.375   10.5029
    9.390    9.4769
    9.405    8.1148
    9.420    6.7474
    9.435    5.5933
    9.450    4.7771
    9.465    4.2680
    9.480    4.0153
    9.495    3.8854
    9.510    3.8266
    9.525    3.7256
    9.540    3.5808
    9.555    3.5685
    9.570    3.5422
    9.585    3.5448
    9.600    3.4580
    9.615    3.5299
    9.630    3.4781
    9.645    3.6045
    9.660    3.5624
    9.675    3.5835
    9.690    3.5887
    9.705    3.5764
    9.720    3.5721
    9.735    3.6405
    9.750    3.6519
    9.765    3.6809
    9.780    3.6686
    9.795    3.7520
    9.810    3.8397
    9.825    3.8626
    9.840    3.9486
    9.855    3.9494
    9.870    4.0644
    9.885    4.0583
    9.900    4.0811
    9.915    4.1917
    9.930    4.3777
    9.945    4.4857
    9.960    4.5436
    9.975    4.7727
    9.990    4.9280
   10.005    5.1211
   10.020    5.4467
   10.035    5.7004
   10.050    6.2603
   10.065    6.6833
   10.080    7.2845
   10.095    7.8910
   10.110    8.2192
   10.125    8.1051
   10.140    7.6426
   10.155    6.8668
   10.170    5.9988
   10.185    5.2080
   10.200    4.5963
   10.215    4.0232
   10.230    3.8634
   10.245    3.7722
   10.260    3.6352
   10.275    3.5949
   10.290    3.4948
   10.305    3.4053
   10.320    3.4316
   10.335    3.4597
   10.350    3.4667
   10.365    3.3983
   10.380    3.3877
   10.395    3.4062
   10.410    3.3860
   10.425    3.3860
   10.440    3.4053
   10.455    3.3544
   10.470    3.4044
   10.485    3.4702
   10.500    3.5238
   10.515    3.5598
   10.530    3.5738
   10.545    3.6344
   10.560    3.6493
   10.575    3.6537
   10.590    3.6388
   10.605    3.7616
   10.620    3.8283
   10.635    3.8968
   10.650    4.0451
   10.665    4.0829
   10.680    4.1197
   10.695    4.3611
   10.710    4.4681
   10.725    4.7604
   10.740    5.0070
   10.755    5.1799
   10.770    5.5617
   10.785    5.9066
   10.800    6.2182
   10.815    6.5385
   10.830    6.5622
   10.845    6.2893
   10.860    5.7899
   10.875    5.1966
   10.890    4.7323
   10.905    4.1899
   10.920    3.7809
   10.935    3.7134
   10.950    3.5817
   10.965    3.4799
   10.980    3.3913
   10.995    3.4957
   11.010    3.3869
   11.025    3.3421
   11.040    3.3614
   11.055    3.3123
   11.070    3.3140
   11.085    3.3149
   11.100    3.3105
   11.115    3.3974
   11.130    3.3737
   11.145    3.3386
   11.160    3.2903
   11.175    3.3421
   11.190    3.3149
   11.205    3.3307
   11.220    3.4588
   11.235    3.4141
   11.250    3.4878
   11.265    3.5018
   11.280    3.4983
   11.295    3.5264
   11.310    3.5835
   11.325    3.6625
   11.340    3.6976
   11.355    3.8064
   11.370    3.8582
   11.385    3.9354
   11.400    4.0249
   11.415    4.1969
   11.430    4.4848
   11.445    4.6674
   11.460    4.8508
   11.475    4.9816
   11.490    5.0009
   11.505    4.8666
   11.520    4.6612
   11.535    4.3356
   11.550    4.0609
   11.565    3.7932
   11.580    3.5922
   11.595    3.4825
   11.610    3.3667
   11.625    3.2579
   11.640    3.2026
   11.655    3.1754
   11.670    3.2280
   11.685    3.2342
   11.700    3.1824
   11.715    3.2377
   11.730    3.2070
   11.745    3.2333
   11.760    3.2903
   11.775    3.2368
   11.790    3.2508
   11.805    3.1955
   11.820    3.2385
   11.835    3.2105
   11.850    3.2614
   11.865    3.3298
   11.880    3.2965
   11.895    3.3035
   11.910    3.3219
   11.925    3.4193
   11.940    3.4132
   11.955    3.4027
   11.970    3.5633
   11.985    3.4773
   12.000    3.4896
   12.015    3.6440
   12.030    3.7353
   12.045    3.8652
   12.060    3.9688
   12.075    4.0442
   12.090    4.1864
   12.105    4.2610
   12.120    4.3760
   12.135    4.2645
   12.150    4.1689
   12.165    3.9187
   12.180    3.5598
   12.195    3.4193
   12.210    3.3298
   12.225    3.2087
   12.240    3.1876
   12.255    3.2245
   12.270    3.1315
   12.285    3.2043
   12.300    3.2113
   12.315    3.2315
   12.330    3.1824
   12.345    3.1560
   12.360    3.2263
   12.375    3.2157
   12.390    3.2078
   12.405    3.2008
   12.420    3.2640
   12.435    3.2552
   12.450    3.2816
   12.465    3.2614
   12.480    3.3351
   12.495    3.3439
   12.510    3.4035
   12.525    3.5071
   12.540    3.5589
   12.555    3.6186
   12.570    3.6519
   12.585    3.6844
   12.600    3.8459
   12.615    4.0100
   12.630    4.1785
   12.645    4.3418
   12.660    4.5085
   12.675    4.9149
   12.690    5.0904
   12.705    5.2133
   12.720    5.2036
   12.735    5.0035
   12.750    4.5506
   12.765    4.2496
   12.780    3.9767
   12.795    3.7564
   12.810    3.4106
   12.825    3.2833
   12.840    3.2938
   12.855    3.2543
   12.870    3.1481
   12.885    3.1481
   12.900    3.1604
   12.915    3.1613
   12.930    3.1324
   12.945    3.2482
   12.960    3.1543
   12.975    3.1490
   12.990    3.1078
   13.005    3.1236
   13.020    3.1438
   13.035    3.0902
   13.050    3.1920
   13.065    3.1982
   13.080    3.1762
   13.095    3.2280
   13.110    3.2008
   13.125    3.2359
   13.140    3.2842
   13.155    3.3351
   13.170    3.4167
   13.185    3.3913
   13.200    3.4176
   13.215    3.6423
   13.230    3.7037
   13.245    3.8898
   13.260    3.9705
   13.275    4.0293
   13.290    3.9951
   13.305    3.9266
   13.320    3.7616
   13.335    3.5852
   13.350    3.3711
   13.365    3.3404
   13.380    3.2175
   13.395    3.1727
   13.410    3.1560
   13.425    3.1754
   13.440    3.1692
   13.455    3.1718
   13.470    3.1771
   13.485    3.1473
   13.500    3.2737
   13.515    3.2719
   13.530    3.2236
   13.545    3.2473
   13.560    3.2851
   13.575    3.3456
   13.590    3.3325
   13.605    3.4334
   13.620    3.4229
   13.635    3.4518
   13.650    3.5685
   13.665    3.5975
   13.680    3.7590
   13.695    3.8678
   13.710    3.9977
   13.725    4.0829
   13.740    4.2838
   13.755    4.5454
   13.770    4.9008
   13.785    5.3449
   13.800    5.6003
   13.815    5.8777
   13.830    5.9233
   13.845    5.7960
   13.860    5.5626
   13.875    5.0711
   13.890    4.5129
   13.905    4.0943
   13.920    3.7581
   13.935    3.5168
   13.950    3.4413
   13.965    3.2614
   13.980    3.2456
   13.995    3.0946
   14.010    3.1043
   14.025    3.0841
   14.040    3.1192
   14.055    3.1631
   14.070    3.0814
   14.085    3.0446
   14.100    3.0920
   14.115    3.1271
   14.130    3.0288
   14.145    3.0393
   14.160    3.0463
   14.175    2.9805
   14.190    3.0305
   14.205    3.0823
   14.220    3.1016
   14.235    3.0586
   14.250    2.9191
   14.265    3.0253
   14.280    3.0463
   14.295    2.9902
   14.310    2.9463
   14.325    3.0051
   14.340    3.0446
   14.355    3.0174
   14.370    2.9910
   14.385    3.0323
   14.400    3.0569
   14.415    2.9252
   14.430    2.9735
   14.445    2.9805
   14.460    3.0341
   14.475    3.0384
   14.490    3.0130
   14.505    3.0121
   14.520    3.0349
   14.535    3.0902
   14.550    2.9831
   14.565    2.9928
   14.580    2.9700
   14.595    3.0428
   14.610    3.0604
   14.625    3.0200
   14.640    3.0867
   14.655    3.0630
   14.670    3.0727
   14.685    3.0850
   14.700    3.1227
   14.715    3.2280
   14.730    3.1868
   14.745    3.1376
   14.760    3.2026
   14.775    3.2333
   14.790    3.3333
   14.805    3.3281
   14.820    3.3895
   14.835    3.4404
   14.850    3.5080
   14.865    3.5993
   14.880    3.6072
   14.895    3.5124
   14.910    3.5185
   14.925    3.3913
   14.940    3.2482
   14.955    3.1034
   14.970    3.2061
   14.985    3.1236
   15.000    3.0542
   15.015    3.0042
   15.030    2.9823
   15.045    3.0542
   15.060    3.0095
   15.075    2.9709
   15.090    3.0016
   15.105    3.0332
   15.120    2.9753
   15.135    3.0788
   15.150    3.0253
   15.165    3.0130
   15.180    3.0086
   15.195    3.0516
   15.210    3.0191
   15.225    2.9989
   15.240    2.9717
   15.255    2.9191
   15.270    2.9577
   15.285    3.0639
   15.300    3.0393
   15.315    2.9621
   15.330    2.9489
   15.345    2.9875
   15.360    3.0358
   15.375    3.0867
   15.390    3.0639
   15.405    3.0577
   15.420    3.0025
   15.435    3.0051
   15.450    2.9805
   15.465    2.9989
   15.480    3.0577
   15.495    3.0226
   15.510    3.0042
   15.525    3.0560
   15.540    3.0042
   15.555    2.9981
   15.570    2.9726
   15.585    3.0042
   15.600    3.0314
   15.615    3.0955
   15.630    3.0762
   15.645    3.1762
   15.660    3.1736
   15.675    3.2096
   15.690    3.1481
   15.705    3.2227
   15.720    3.2333
   15.735    3.2798
   15.750    3.4623
   15.765    3.5133
   15.780    3.6510
   15.795    3.7256
   15.810    3.8740
   15.825    3.7687
   15.840    3.8942
   15.855    3.8933
   15.870    3.7309
   15.885    3.6414
   15.900    3.4272
   15.915    3.3246
   15.930    3.2157
   15.945    3.1771
   15.960    3.1841
   15.975    3.0648
   15.990    3.0147
   16.005    3.0806
   16.020    3.0981
   16.035    3.0218
   16.050    3.0156
   16.065    3.0341
   16.080    3.0112
   16.095    3.0551
   16.110    3.0551
   16.125    3.0937
   16.140    3.0490
   16.155    3.1833
   16.170    3.1481
   16.185    3.2096
   16.200    3.2315
   16.215    3.2412
   16.230    3.2306
   16.245    3.2719
   16.260    3.4527
   16.275    3.4852
   16.290    3.4808
   16.305    3.5097
   16.320    3.4588
   16.335    3.4071
   16.350    3.2684
   16.365    3.3447
   16.380    3.2596
   16.395    3.1420
   16.410    3.1043
   16.425    3.1455
   16.440    3.0630
   16.455    3.0463
   16.470    3.0876
   16.485    3.1324
   16.500    3.1130
   16.515    3.0200
   16.530    3.0858
   16.545    3.1420
   16.560    3.1192
   16.575    3.1771
   16.590    3.1683
   16.605    3.1534
   16.620    3.2377
   16.635    3.2491
   16.650    3.3316
   16.665    3.4281
   16.680    3.5694
   16.695    3.5905
   16.710    3.6826
   16.725    3.8117
   16.740    4.0012
   16.755    3.9143
   16.770    3.8336
   16.785    3.7687
   16.800    3.6010
   16.815    3.5659
   16.830    3.4483
   16.845    3.2227
   16.860    3.1324
   16.875    3.1525
   16.890    3.0858
   16.905    3.1306
   16.920    3.1262
   16.935    3.1420
   16.950    3.0639
   16.965    3.0516
   16.980    3.1402
   16.995    3.1025
   17.010    3.1701
   17.025    3.1710
   17.040    3.1806
   17.055    3.1209
   17.070    3.1894
   17.085    3.1569
   17.100    3.2596
   17.115    3.3579
   17.130    3.4378
   17.145    3.4623
   17.160    3.6493
   17.175    3.6625
   17.190    3.6431
   17.205    3.6151
   17.220    3.6493
   17.235    3.5536
   17.250    3.3939
   17.265    3.2728
   17.280    3.2491
   17.295    3.1394
   17.310    3.0771
   17.325    3.0683
   17.340    3.0937
   17.355    3.0481
   17.370    3.0727
   17.385    2.9753
   17.400    2.9928
   17.415    3.0174
   17.430    3.0604
   17.445    3.0656
   17.460    3.0999
   17.475    3.0393
   17.490    3.0551
   17.505    3.0893
   17.520    3.1955
   17.535    3.2701
   17.550    3.2113
   17.565    3.1701
   17.580    3.2745
   17.595    3.2649
   17.610    3.3061
   17.625    3.3632
   17.640    3.3009
   17.655    3.3483
   17.670    3.2728
   17.685    3.2219
   17.700    3.1525
   17.715    3.0700
   17.730    3.0964
   17.745    2.9910
   17.760    3.0823
   17.775    3.1201
   17.790    3.0630
   17.805    3.0384
   17.820    3.0253
   17.835    3.1060
   17.850    3.0139
   17.865    2.9928
   17.880    3.0209
   17.895    3.0981
   17.910    3.0481
   17.925    3.1157
   17.940    3.1833
   17.955    3.1771
   17.970    3.1727
   17.985    3.2148
   18.000    3.1771
   18.015    3.2561
   18.030    3.2824
   18.045    3.2421
   18.060    3.2675
   18.075    3.3070
   18.090    3.2438
   18.105    3.2394
   18.120    3.1341
   18.135    3.1078
   18.150    3.1025
   18.165    3.0665
   18.180    3.0147
   18.195    3.0376
   18.210    3.1473
   18.225    3.0384
   18.240    3.0525
   18.255    3.0595
   18.270    3.0788
   18.285    3.0262
   18.300    3.0621
   18.315    3.0929
   18.330    3.0744
   18.345    3.1903
   18.360    3.1473
   18.375    3.1701
   18.390    3.1446
   18.405    3.2008
   18.420    3.3096
   18.435    3.3509
   18.450    3.2903
   18.465    3.3035
   18.480    3.3184
   18.495    3.2903
   18.510    3.2438
   18.525    3.1894
   18.540    3.1710
   18.555    3.1157
   18.570    3.2026
   18.585    3.0455
   18.600    3.0393
   18.615    3.0516
   18.630    3.0393
   18.645    3.0560
   18.660    3.0683
   18.675    2.9875
   18.690    3.0376
   18.705    3.0393
   18.720    3.0147
   18.735    2.9919
   18.750    3.0595
   18.765    3.0727
   18.780    3.1113
   18.795    3.1359
   18.810    3.0569
   18.825    3.0262
   18.840    3.0613
   18.855    3.0850
   18.870    3.0832
   18.885    3.0867
   18.900    3.0920
   18.915    3.0455
   18.930    3.0718
   18.945    3.0885
   18.960    3.1982
   18.975    3.0885
   18.990    3.0253
   19.005    3.0288
   19.020    3.0718
   19.035    3.0692
   19.050    3.0349
   19.065    3.0235
   19.080    3.0183
   19.095    3.0990
   19.110    3.0428
   19.125    3.1420
   19.140    3.2078
   19.155    3.1999
   19.170    3.2824
   19.185    3.3351
   19.200    3.3088
   19.215    3.4360
   19.230    3.3974
   19.245    3.4220
   19.260    3.4255
   19.275    3.4334
   19.290    3.3772
   19.305    3.3035
   19.320    3.3123
   19.335    3.1745
   19.350    3.1833
   19.365    3.1762
   19.380    3.1236
   19.395    3.1411
   19.410    3.1525
   19.425    3.1008
   19.440    3.0981
   19.455    3.0516
   19.470    3.0121
   19.485    3.0692
   19.500    3.0832
   19.515    3.0437
   19.530    3.0621
   19.545    3.0560
   19.560    3.1095
   19.575    3.0762
   19.590    3.0200
   19.605    3.1139
   19.620    3.1841
   19.635    3.1499
   19.650    3.0595
   19.665    3.1446
   19.680    3.1280
   19.695    3.1850
   19.710    3.1359
   19.725    3.1078
   19.740    3.1104
   19.755    3.1051
   19.770    3.1718
   19.785    3.1087
   19.800    3.1631
   19.815    3.1078
   19.830    3.1982
   19.845    3.2412
   19.860    3.2561
   19.875    3.2930
   19.890    3.3412
   19.905    3.5343
   19.920    3.5800
   19.935    3.6747
   19.950    3.8292
   19.965    4.0363
   19.980    4.1057
   19.995    4.2689
   20.010    4.3154
   20.025    4.3374
   20.040    4.1653
   20.055    4.0539
   20.070    3.9907
   20.085    3.7923
   20.100    3.6493
   20.115    3.4615
   20.130    3.3518
   20.145    3.3404
   20.160    3.2342
   20.175    3.1543
   20.190    3.1780
   20.205    3.1455
   20.220    3.2210
   20.235    3.1534
   20.250    3.1596
   20.265    3.1797
   20.280    3.2061
   20.295    3.1525
   20.310    3.0911
   20.325    3.0174
   20.340    3.1481
   20.355    3.1148
   20.370    3.1008
   20.385    3.1508
   20.400    3.1262
   20.415    3.1095
   20.430    3.1894
   20.445    3.2026
   20.460    3.1095
   20.475    3.1780
   20.490    3.0771
   20.505    3.1367
   20.520    3.1473
   20.535    3.0902
   20.550    3.0727
   20.565    3.0507
   20.580    3.1166
   20.595    3.1841
   20.610    3.2385
   20.625    3.1806
   20.640    3.1648
   20.655    3.1859
   20.670    3.2587
   20.685    3.3246
   20.700    3.3061
   20.715    3.3746
   20.730    3.3693
   20.745    3.4141
   20.760    3.3816
   20.775    3.3325
   20.790    3.3465
   20.805    3.2684
   20.820    3.2693
   20.835    3.2543
   20.850    3.1666
   20.865    3.1876
   20.880    3.1613
   20.895    3.1350
   20.910    3.0665
   20.925    3.1245
   20.940    3.0639
   20.955    3.0788
   20.970    3.0367
   20.985    3.1192
   21.000    3.0946
   21.015    3.1701
   21.030    3.1192
   21.045    3.0744
   21.060    3.2008
   21.075    3.0797
   21.090    3.1192
   21.105    3.1912
   21.120    3.1034
   21.135    3.0893
   21.150    3.0964
   21.165    3.1455
   21.180    3.1955
   21.195    3.1438
   21.210    3.1104
   21.225    3.1446
   21.240    3.1262
   21.255    3.1025
   21.270    3.1376
   21.285    3.1517
   21.300    3.0981
   21.315    3.2043
   21.330    3.2517
   21.345    3.2500
   21.360    3.2508
   21.375    3.3456
   21.390    3.3158
   21.405    3.4685
   21.420    3.5510
   21.435    3.5685
   21.450    3.4869
   21.465    3.5808
   21.480    3.6124
   21.495    3.5808
   21.510    3.5817
   21.525    3.5457
   21.540    3.3641
   21.555    3.2719
   21.570    3.2789
   21.585    3.2772
   21.600    3.2280
   21.615    3.2017
   21.630    3.1797
   21.645    3.1657
   21.660    3.1639
   21.675    3.1534
   21.690    3.1710
   21.705    3.2210
   21.720    3.2061
   21.735    3.2210
   21.750    3.1464
   21.765    3.2306
   21.780    3.2140
   21.795    3.1718
   21.810    3.2658
   21.825    3.2438
   21.840    3.3114
   21.855    3.2833
   21.870    3.3711
   21.885    3.2464
   21.900    3.1069
   21.915    3.1288
   21.930    3.3061
   21.945    3.2561
   21.960    3.2052
   21.975    3.2438
   21.990    3.2772
   22.005    3.3167
   22.020    3.2956
   22.035    3.2930
   22.050    3.3834
   22.065    3.5001
   22.080    3.5563
   22.095    3.5352
   22.110    3.6800
   22.125    3.8204
   22.140    3.8801
   22.155    3.9328
   22.170    3.9705
   22.185    3.8722
   22.200    3.8196
   22.215    3.7757
   22.230    3.6809
   22.245    3.6791
   22.260    3.5062
   22.275    3.4746
   22.290    3.4176
   22.305    3.3649
   22.320    3.3895
   22.335    3.3649
   22.350    3.4448
   22.365    3.4887
   22.380    3.6168
   22.395    3.6870
   22.410    3.8424
   22.425    3.9152
   22.440    4.1504
   22.455    4.3742
   22.470    4.4629
   22.485    4.5559
   22.500    4.5998
   22.515    4.6226
   22.530    4.5936
   22.545    4.3497
   22.560    4.2400
   22.575    4.0179
   22.590    3.8942
   22.605    3.7485
   22.620    3.4632
   22.635    3.4316
   22.650    3.3447
   22.665    3.3474
   22.680    3.2227
   22.695    3.2684
   22.710    3.2719
   22.725    3.2438
   22.740    3.1841
   22.755    3.3360
   22.770    3.3307
   22.785    3.3439
   22.800    3.2859
   22.815    3.2912
   22.830    3.4018
   22.845    3.3070
   22.860    3.1648
   22.875    3.2105
   22.890    3.2991
   22.905    3.2447
   22.920    3.1920
   22.935    3.1850
   22.950    3.1938
   22.965    3.1815
   22.980    3.1868
   22.995    3.1938
   23.010    3.1543
   23.025    3.1446
   23.040    3.1499
   23.055    3.2429
   23.070    3.1876
   23.085    3.1745
   23.100    3.1683
   23.115    3.1534
   23.130    3.1955
   23.145    3.1903
   23.160    3.2210
   23.175    3.1920
   23.190    3.2263
   23.205    3.1841
   23.220    3.2043
   23.235    3.1912
   23.250    3.1490
   23.265    3.1376
   23.280    3.1253
   23.295    3.1525
   23.310    3.2535
   23.325    3.2008
   23.340    3.2745
   23.355    3.3798
   23.370    3.3483
   23.385    3.3641
   23.400    3.4334
   23.415    3.4931
   23.430    3.5413
   23.445    3.6212
   23.460    3.7397
   23.475    3.8108
   23.490    3.7283
   23.505    3.7107
   23.520    3.6633
   23.535    3.7011
   23.550    3.6010
   23.565    3.4062
   23.580    3.3158
   23.595    3.2631
   23.610    3.2903
   23.625    3.1955
   23.640    3.2166
   23.655    3.1560
   23.670    3.1280
   23.685    3.1481
   23.700    3.1087
   23.715    3.1885
   23.730    3.1912
   23.745    3.3202
   23.760    3.2368
   23.775    3.2052
   23.790    3.2587
   23.805    3.2324
   23.820    3.2737
   23.835    3.1675
   23.850    3.1955
   23.865    3.2105
   23.880    3.1543
   23.895    3.1104
   23.910    3.0876
   23.925    3.1262
   23.940    3.1288
   23.955    3.1762
   23.970    3.0972
   23.985    3.1157
   24.000    3.1280
   24.015    3.1201
   24.030    3.1560
   24.045    3.1657
   24.060    3.1464
   24.075    3.1253
   24.090    3.1771
   24.105    3.1245
   24.120    3.1964
   24.135    3.2438
   24.150    3.1622
   24.165    3.2614
   24.180    3.1560
   24.195    3.1367
   24.210    3.0893
   24.225    3.1069
   24.240    3.1850
   24.255    3.1885
   24.270    3.0753
   24.285    3.0771
   24.300    3.1227
   24.315    3.1297
   24.330    3.1078
   24.345    3.1253
   24.360    3.0586
   24.375    3.0569
   24.390    3.0639
   24.405    3.1122
   24.420    3.0463
   24.435    3.0990
   24.450    3.1991
   24.465    3.1534
   24.480    3.1192
   24.495    3.0902
   24.510    3.0920
   24.525    3.0358
   24.540    3.0262
   24.555    3.0577
   24.570    3.0323
   24.585    3.0867
   24.600    3.0244
   24.615    3.1560
   24.630    3.1464
   24.645    3.0779
   24.660    3.0613
   24.675    3.1297
   24.690    3.1043
   24.705    3.0911
   24.720    3.2403
   24.735    3.2271
   24.750    3.1929
   24.765    3.1332
   24.780    3.2377
   24.795    3.1815
   24.810    3.1192
   24.825    3.1122
   24.840    3.2017
   24.855    3.2105
   24.870    3.0911
   24.885    3.1201
   24.900    3.1174
   24.915    3.2122
   24.930    3.1955
   24.945    3.1376
   24.960    3.2078
   24.975    3.2719
   24.990    3.3105
   25.005    3.2947
   25.020    3.3483
   25.035    3.3983
   25.050    3.3772
   25.065    3.4114
   25.080    3.4360
   25.095    3.4167
   25.110    3.4202
   25.125    3.3816
   25.140    3.2780
   25.155    3.3377
   25.170    3.3447
   25.185    3.2701
   25.200    3.3202
   25.215    3.3246
   25.230    3.3930
   25.245    3.4562
   25.260    3.5457
   25.275    3.7081
   25.290    3.8775
   25.305    4.0381
   25.320    4.0609
   25.335    4.2803
   25.350    4.3110
   25.365    4.3856
   25.380    4.2364
   25.395    4.2013
   25.410    4.0548
   25.425    3.8626
   25.440    3.7590
   25.455    3.6581
   25.470    3.5001
   25.485    3.3728
   25.500    3.2552
   25.515    3.1999
   25.530    3.2614
   25.545    3.1727
   25.560    3.1166
   25.575    3.1148
   25.590    3.1604
   25.605    3.0972
   25.620    3.0937
   25.635    3.1306
   25.650    3.1982
   25.665    3.2377
   25.680    3.1596
   25.695    3.1903
   25.710    3.0876
   25.725    3.0744
   25.740    3.0341
   25.755    3.0718
   25.770    3.0665
   25.785    3.0735
   25.800    3.0183
   25.815    3.1534
   25.830    3.1955
   25.845    3.2008
   25.860    3.2113
   25.875    3.3088
   25.890    3.3386
   25.905    3.4878
   25.920    3.5273
   25.935    3.4983
   25.950    3.4404
   25.965    3.4474
   25.980    3.5089
   25.995    3.5238
   26.010    3.3921
   26.025    3.3500
   26.040    3.3246
   26.055    3.2763
   26.070    3.1596
   26.085    3.0937
   26.100    3.1376
   26.115    3.1929
   26.130    3.0823
   26.145    3.1376
   26.160    3.0718
   26.175    3.0648
   26.190    3.0262
   26.205    3.0209
   26.220    2.9928
   26.235    3.0218
   26.250    3.0007
   26.265    2.9516
   26.280    2.9682
   26.295    2.9559
   26.310    2.9726
   26.325    3.0156
   26.340    3.0358
   26.355    2.9998
   26.370    2.9867
   26.385    3.0016
   26.400    3.0305
   26.415    3.0428
   26.430    3.0437
   26.445    2.9656
   26.460    3.0946
   26.475    3.1955
   26.490    3.1192
   26.505    3.1894
   26.520    3.2122
   26.535    3.2956
   26.550    3.2184
   26.565    3.1780
   26.580    3.2982
   26.595    3.1955
   26.610    3.0139
   26.625    3.0823
   26.640    3.1192
   26.655    3.1166
   26.670    3.0147
   26.685    2.9893
   26.700    3.0025
   26.715    2.9428
   26.730    2.9252
   26.745    2.9287
   26.760    2.9989
   26.775    2.9437
   26.790    3.0200
   26.805    2.9331
   26.820    2.9410
   26.835    2.9656
   26.850    2.9928
   26.865    2.9489
   26.880    2.9077
   26.895    2.9595
   26.910    2.9410
   26.925    2.9349
   26.940    2.9331
   26.955    2.9849
   26.970    2.9393
   26.985    2.9542
   27.000    2.9516
   27.015    3.0525
   27.030    2.9796
   27.045    3.0551
   27.060    3.0692
   27.075    3.0411
   27.090    3.0481
   27.105    3.0586
   27.120    3.0147
   27.135    3.1095
   27.150    3.0174
   27.165    2.9463
   27.180    3.0147
   27.195    2.9296
   27.210    3.0288
   27.225    2.9568
   27.240    2.9182
   27.255    2.9226
   27.270    2.9191
   27.285    3.0165
   27.300    2.9919
   27.315    2.9998
   27.330    2.9621
   27.345    2.9805
   27.360    3.0358
   27.375    2.9445
   27.390    2.9981
   27.405    3.0499
   27.420    3.0042
   27.435    3.0806
   27.450    3.0200
   27.465    2.9946
   27.480    2.9630
   27.495    2.9480
   27.510    2.9682
   27.525    3.0253
   27.540    3.0068
   27.555    2.9744
   27.570    3.0393
   27.585    3.0665
   27.600    3.0850
   27.615    3.0472
   27.630    3.1113
   27.645    3.2017
   27.660    3.2491
   27.675    3.2464
   27.690    3.1411
   27.705    3.1402
   27.720    3.1569
   27.735    3.1034
   27.750    3.1288
   27.765    3.0402
   27.780    3.0437
   27.795    2.9691
   27.810    3.0147
   27.825    3.0595
   27.840    2.9489
   27.855    2.9691
   27.870    2.9946
   27.885    3.0314
   27.900    3.1552
   27.915    3.1569
   27.930    3.1797
   27.945    3.0674
   27.960    3.1517
   27.975    3.2096
   27.990    3.0946
   28.005    3.0788
   28.020    2.9893
   28.035    2.9384
   28.050    2.9498
   28.065    2.9682
   28.080    2.9103
   28.095    2.8761
   28.110    2.8752
   28.125    2.8497
   28.140    2.8778
   28.155    2.8655
   28.170    2.9349
   28.185    2.9252
   28.200    2.9182
   28.215    2.8480
   28.230    2.8655
   28.245    2.9314
   28.260    2.8410
   28.275    2.9200
   28.290    2.8928
   28.305    2.8831
   28.320    2.8743
   28.335    2.8462
   28.350    2.8849
   28.365    2.8190
   28.380    2.8217
   28.395    2.8594
   28.410    2.8673
   28.425    2.8919
   28.440    2.9349
   28.455    3.0499
   28.470    3.0183
   28.485    3.0200
   28.500    3.0341
   28.515    2.9638
   28.530    3.0147
   28.545    2.9709
   28.560    2.9665
   28.575    2.9551
   28.590    2.9217
   28.605    2.9665
   28.620    2.9419
   28.635    2.9410
   28.650    2.9849
   28.665    3.0393
   28.680    3.0314
   28.695    3.1245
   28.710    3.2184
   28.725    3.2780
   28.740    3.2859
   28.755    3.3105
   28.770    3.2807
   28.785    3.2622
   28.800    3.1710
   28.815    3.1929
   28.830    3.2026
   28.845    3.0771
   28.860    3.0560
   28.875    3.0051
   28.890    2.9472
   28.905    2.8805
   28.920    2.8208
   28.935    2.8155
   28.950    2.8541
   28.965    2.7962
   28.980    2.8190
   28.995    2.8138
   29.010    2.8357
   29.025    2.8059
   29.040    2.8550
   29.055    2.8103
   29.070    2.8506
   29.085    2.8787
   29.100    2.8375
   29.115    2.8252
   29.130    2.8173
   29.145    2.8401
   29.160    2.8629
   29.175    2.8050
   29.190    2.8857
   29.205    2.8954
   29.220    2.9094
   29.235    2.8717
   29.250    3.0121
   29.265    3.0858
   29.280    3.0639
   29.295    3.0376
   29.310    3.0437
   29.325    3.0156
   29.340    3.0209
   29.355    3.0042
   29.370    2.9577
   29.385    3.0104
   29.400    2.9902
   29.415    2.9428
   29.430    2.9164
   29.445    2.8497
   29.460    2.8181
   29.475    2.8594
   29.490    2.8664
   29.505    2.8963
   29.520    2.9717
   29.535    2.9428
   29.550    2.8892
   29.565    2.8787
   29.580    2.9094
   29.595    2.9085
   29.610    2.8594
   29.625    2.8366
   29.640    2.8032
   29.655    2.8612
   29.670    2.8401
   29.685    2.7602
   29.700    2.6997
   29.715    2.7488
   29.730    2.7620
   29.745    2.7199
   29.760    2.8217
   29.775    2.8366
   29.790    2.8480
   29.805    2.7901
   29.820    2.8024
   29.835    2.8269
   29.850    2.7690
   29.865    2.8085
   29.880    2.7506
   29.895    2.7795
   29.910    2.7181
   29.925    2.6374
   29.940    2.7137
   29.955    2.8208
   29.970    2.6953
   29.985    2.7058
   30.000    2.7971
   30.015    2.8024
   30.030    2.7383
   30.045    2.7918
   30.060    2.8436
   30.075    2.7945
   30.090    2.8445
   30.105    2.8682
   30.120    2.8103
   30.135    2.7997
   30.150    2.9103
   30.165    2.8103
   30.180    2.7427
   30.195    2.7295
   30.210    2.7155
   30.225    2.7357
   30.240    2.7971
   30.255    2.7620
   30.270    2.8857
   30.285    2.7909
   30.300    2.7725
   30.315    2.8252
   30.330    2.8418
   30.345    2.7339
   30.360    2.7541
   30.375    2.7813
   30.390    2.7620
   30.405    2.6953
   30.420    2.7304
   30.435    2.7207
   30.450    2.7023
   30.465    2.7251
   30.480    2.8076
   30.495    2.7321
   30.510    2.6338
   30.525    2.6488
   30.540    2.7128
   30.555    2.6786
   30.570    2.7041
   30.585    2.7005
   30.600    2.6768
   30.615    2.7181
   30.630    2.6154
   30.645    2.6751
   30.660    2.7111
   30.675    2.6777
   30.690    2.6733
   30.705    2.6768
   30.720    2.6786
   30.735    2.5970
   30.750    2.6233
   30.765    2.6883
   30.780    2.6962
   30.795    2.6514
   30.810    2.6953
   30.825    2.7163
   30.840    2.7936
   30.855    2.7629
   30.870    2.8094
   30.885    2.7190
   30.900    2.7093
   30.915    2.6435
   30.930    2.5943
   30.945    2.6997
   30.960    2.6839
   30.975    2.6926
   30.990    2.6891
   31.005    2.6865
   31.020    2.7348
   31.035    2.6698
   31.050    2.6461
   31.065    2.7041
   31.080    2.7058
   31.095    2.7058
   31.110    2.6602
   31.125    2.6347
   31.140    2.6532
   31.155    2.6523
   31.170    2.6847
   31.185    2.6453
   31.200    2.6005
   31.215    2.6268
   31.230    2.6575
   31.245    2.7084
   31.260    2.6926
   31.275    2.7383
   31.290    2.7532
   31.305    2.7901
   31.320    2.8436
   31.335    2.7787
   31.350    2.6856
   31.365    2.7041
   31.380    2.7593
   31.395    2.7514
   31.410    2.6330
   31.425    2.6584
   31.440    2.7207
   31.455    2.6839
   31.470    2.7137
   31.485    2.6470
   31.500    2.6321
   31.515    2.6532
   31.530    2.7207
   31.545    2.7128
   31.560    2.6865
   31.575    2.6435
   31.590    2.6514
   31.605    2.6216
   31.620    2.6207
   31.635    2.6101
   31.650    2.6444
   31.665    2.6295
   31.680    2.5987
   31.695    2.5750
   31.710    2.6479
   31.725    2.6163
   31.740    2.6216
   31.755    2.6417
   31.770    2.6777
   31.785    2.6733
   31.800    2.6374
   31.815    2.6532
   31.830    2.6461
   31.845    2.5812
   31.860    2.5575
   31.875    2.5943
   31.890    2.5917
   31.905    2.6172
   31.920    2.6347
   31.935    2.5610
   31.950    2.5259
   31.965    2.6374
   31.980    2.6619
   31.995    2.5540
   32.010    2.5180
   32.025    2.5601
   32.040    2.5171
   32.055    2.5083
   32.070    2.5452
   32.085    2.5347
   32.100    2.5645
   32.115    2.5004
   32.130    2.5241
   32.145    2.5338
   32.160    2.5312
   32.175    2.5408
   32.190    2.5189
   32.205    2.5496
   32.220    2.5654
   32.235    2.6567
   32.250    2.6417
   32.265    2.6786
   32.280    2.6918
   32.295    2.6821
   32.310    2.6812
   32.325    2.6760
   32.340    2.6751
   32.355    2.6549
   32.370    2.6549
   32.385    2.6312
   32.400    2.5689
   32.415    2.5882
   32.430    2.5645
   32.445    2.5443
   32.460    2.4908
   32.475    2.4925
   32.490    2.5391
   32.505    2.3758
   32.520    2.3960
   32.535    2.4653
   32.550    2.4513
   32.565    2.4469
   32.580    2.4601
   32.595    2.5136
   32.610    2.4925
   32.625    2.5399
   32.640    2.5066
   32.655    2.5092
   32.670    2.4838
   32.685    2.4381
   32.700    2.4425
   32.715    2.4074
   32.730    2.4320
   32.745    2.4425
   32.760    2.4864
   32.775    2.4706
   32.790    2.4434
   32.805    2.4618
   32.820    2.4785
   32.835    2.4566
   32.850    2.4767
   32.865    2.3758
   32.880    2.4381
   32.895    2.4601
   32.910    2.4302
   32.925    2.3969
   32.940    2.4838
   32.955    2.4109
   32.970    2.4522
   32.985    2.4759
   33.000    2.5233
   33.015    2.5276
   33.030    2.5048
   33.045    2.4127
   33.060    2.4952
   33.075    2.5434
   33.090    2.5338
   33.105    2.4451
   33.120    2.5101
   33.135    2.5276
   33.150    2.4671
   33.165    2.4232
   33.180    2.4811
   33.195    2.5127
   33.210    2.5250
   33.225    2.4864
   33.240    2.4724
   33.255    2.5066
   33.270    2.5312
   33.285    2.4820
   33.300    2.4557
   33.315    2.4908
   33.330    2.4197
   33.345    2.4065
   33.360    2.4645
   33.375    2.4785
   33.390    2.4487
   33.405    2.3820
   33.420    2.4083
   33.435    2.4469
   33.450    2.3916
   33.465    2.3635
   33.480    2.3732
   33.495    2.4285
   33.510    2.3670
   33.525    2.3600
   33.540    2.3934
   33.555    2.3530
   33.570    2.3653
   33.585    2.3863
   33.600    2.3705
   33.615    2.3539
   33.630    2.3767
   33.645    2.4057
   33.660    2.4609
   33.675    2.4381
   33.690    2.3995
   33.705    2.4258
   33.720    2.4724
   33.735    2.3986
   33.750    2.4697
   33.765    2.4785
   33.780    2.4934
   33.795    2.4908
   33.810    2.4741
   33.825    2.4065
   33.840    2.4302
   33.855    2.4329
   33.870    2.4074
   33.885    2.4136
   33.900    2.4197
   33.915    2.3609
   33.930    2.4083
   33.945    2.4609
   33.960    2.4302
   33.975    2.4680
   33.990    2.3995
   34.005    2.3670
   34.020    2.4136
   34.035    2.3960
   34.050    2.3082
   34.065    2.3872
   34.080    2.3407
   34.095    2.3644
   34.110    2.3547
   34.125    2.4057
   34.140    2.4171
   34.155    2.3547
   34.170    2.3354
   34.185    2.3670
   34.200    2.3723
   34.215    2.4092
   34.230    2.3372
   34.245    2.3741
   34.260    2.3468
   34.275    2.2854
   34.290    2.2784
   34.305    2.2486
   34.320    2.4100
   34.335    2.3381
   34.350    2.3662
   34.365    2.2240
   34.380    2.2336
   34.395    2.3038
   34.410    2.3574
   34.425    2.2635
   34.440    2.2380
   34.455    2.2643
   34.470    2.2187
   34.485    2.2837
   34.500    2.2810
   34.515    2.2266
   34.530    2.2705
   34.545    2.2731
   34.560    2.2837
   34.575    2.2995
   34.590    2.2916
   34.605    2.3363
   34.620    2.2959
   34.635    2.3135
   34.650    2.3240
   34.665    2.2872
   34.680    2.2512
   34.695    2.2731
   34.710    2.2617
   34.725    2.2731
   34.740    2.2898
   34.755    2.2450
   34.770    2.2363
   34.785    2.2880
   34.800    2.3170
   34.815    2.2582
   34.830    2.3012
   34.845    2.2959
   34.860    2.3232
   34.875    2.2837
   34.890    2.3495
   34.905    2.3293
   34.920    2.3267
   34.935    2.3407
   34.950    2.2468
   34.965    2.2889
   34.980    2.2643
   34.995    2.2810
   35.010    2.2407
   35.025    2.2617
   35.040    2.2003
   35.055    2.2020
   35.070    2.2643
   35.085    2.3126
   35.100    2.1880
   35.115    2.1976
   35.130    2.2468
   35.145    2.2363
   35.160    2.2801
   35.175    2.2020
   35.190    2.1766
   35.205    2.2284
   35.220    2.2354
   35.235    2.2714
   35.250    2.2565
   35.265    2.2257
   35.280    2.2556
   35.295    2.2310
   35.310    2.2942
   35.325    2.2556
   35.340    2.2705
   35.355    2.2959
   35.370    2.2433
   35.385    2.2082
   35.400    2.1976
   35.415    2.2082
   35.430    2.2398
   35.445    2.2389
   35.460    2.1968
   35.475    2.1897
   35.490    2.1959
   35.505    2.2196
   35.520    2.2240
   35.535    2.2257
   35.550    2.2047
   35.565    2.1318
   35.580    2.1933
   35.595    2.2187
   35.610    2.2556
   35.625    2.2679
   35.640    2.1810
   35.655    2.2126
   35.670    2.1924
   35.685    2.1511
   35.700    2.2380
   35.715    2.1871
   35.730    2.1933
   35.745    2.1836
   35.760    2.1836
   35.775    2.2187
   35.790    2.1555
   35.805    2.1424
   35.820    2.1266
   35.835    2.2828
   35.850    2.2898
   35.865    2.2222
   35.880    2.1485
   35.895    2.2336
   35.910    2.2161
   35.925    2.2389
   35.940    2.2705
   35.955    2.3275
   35.970    2.2310
   35.985    2.2205
   36.000    2.2222
   36.015    2.2398
   36.030    2.2494
   36.045    2.2363
   36.060    2.2231
   36.075    2.2047
   36.090    2.1494
   36.105    2.1441
   36.120    2.0932
   36.135    2.2055
   36.150    2.1476
   36.165    2.1046
   36.180    2.0950
   36.195    2.1511
   36.210    2.1081
   36.225    2.1125
   36.240    2.1099
   36.255    2.1213
   36.270    2.1476
   36.285    2.1020
   36.300    2.0827
   36.315    2.0950
   36.330    2.1099
   36.345    2.0695
   36.360    2.1546
   36.375    2.1818
   36.390    2.1871
   36.405    2.1854
   36.420    2.1432
   36.435    2.2134
   36.450    2.1827
   36.465    2.1792
   36.480    2.1827
   36.495    2.1388
   36.510    2.2407
   36.525    2.0941
   36.540    2.1801
   36.555    2.1520
   36.570    2.0941
   36.585    2.0941
   36.600    2.1301
   36.615    2.0985
   36.630    2.1222
   36.645    2.1441
   36.660    2.1020
   36.675    2.0555
   36.690    2.0590
   36.705    2.1318
   36.720    2.1318
   36.735    2.0686
   36.750    2.0572
   36.765    2.0713
   36.780    2.1037
   36.795    2.1064
   36.810    2.1230
   36.825    2.0625
   36.840    2.0879
   36.855    2.1871
   36.870    2.1345
   36.885    2.1195
   36.900    2.2003
   36.915    2.1801
   36.930    2.1696
   36.945    2.0915
   36.960    2.0484
   36.975    2.0950
   36.990    2.0362
   37.005    2.0502
   37.020    2.1511
   37.035    2.0958
   37.050    2.1239
   37.065    2.0923
   37.080    2.1195
   37.095    2.0844
   37.110    2.1520
   37.125    2.1345
   37.140    2.1248
   37.155    2.1590
   37.170    2.1362
   37.185    2.1213
   37.200    2.2082
   37.215    2.1687
   37.230    2.1617
   37.245    2.2178
   37.260    2.2082
   37.275    2.2047
   37.290    2.1713
   37.305    2.1292
   37.320    2.2020
   37.335    2.2064
   37.350    2.1924
   37.365    2.2284
   37.380    2.1239
   37.395    2.1064
   37.410    2.1327
   37.425    2.1064
   37.440    2.0871
   37.455    2.1178
   37.470    2.0686
   37.485    2.1836
   37.500    2.0599
   37.515    2.0502
   37.530    2.0484
   37.545    2.0599
   37.560    2.0125
   37.575    2.0186
   37.590    2.0572
   37.605    2.0230
   37.620    2.0397
   37.635    2.0897
   37.650    2.0204
   37.665    2.0844
   37.680    2.1327
   37.695    2.0344
   37.710    2.0449
   37.725    2.1072
   37.740    2.1099
   37.755    2.0862
   37.770    2.0686
   37.785    2.0800
   37.800    2.0994
   37.815    2.0405
   37.830    1.9642
   37.845    2.0432
   37.860    2.0125
   37.875    2.0370
   37.890    2.0388
   37.905    1.9817
   37.920    1.9888
   37.935    2.0590
   37.950    2.0221
   37.965    2.0748
   37.980    2.0950
   37.995    2.0765
   38.010    2.0572
   38.025    2.0230
   38.040    2.0133
   38.055    2.0142
   38.070    2.0344
   38.085    2.0300
   38.100    2.0221
   38.115    2.0678
   38.130    2.0335
   38.145    2.0441
   38.160    2.0081
   38.175    1.9975
   38.190    1.9949
   38.205    2.0142
   38.220    2.0432
   38.235    2.0028
   38.250    1.9765
   38.265    2.0063
   38.280    1.9844
   38.295    1.9826
   38.310    2.0028
   38.325    2.0125
   38.340    2.0169
   38.355    2.0256
   38.370    2.0458
   38.385    2.0449
   38.400    2.0906
   38.415    2.0625
   38.430    2.0467
   38.445    2.0897
   38.460    2.0730
   38.475    2.1002
   38.490    2.1239
   38.505    2.0748
   38.520    2.0046
   38.535    2.0642
   38.550    2.1108
   38.565    2.1160
   38.580    2.1160
   38.595    2.1397
   38.610    2.1406
   38.625    2.0467
   38.640    2.0291
   38.655    2.0555
   38.670    2.0748
   38.685    2.0054
   38.700    2.0581
   38.715    2.0853
   38.730    2.0362
   38.745    2.0326
   38.760    2.0432
   38.775    2.0028
   38.790    2.0116
   38.805    2.0458
   38.820    2.0616
   38.835    2.0405
   38.850    2.0388
   38.865    2.0291
   38.880    2.0309
   38.895    2.0388
   38.910    2.0599
   38.925    2.0274
   38.940    2.0335
   38.955    2.0449
   38.970    2.0888
   38.985    2.0405
   39.000    2.0423
   39.015    1.9905
   39.030    1.9861
   39.045    2.0265
   39.060    2.0546
   39.075    2.0300
   39.090    2.0116
   39.105    2.0081
   39.120    2.0247
   39.135    1.9730
   39.150    2.0555
   39.165    1.9730
   39.180    2.0239
   39.195    2.0046
   39.210    1.9949
   39.225    1.9747
   39.240    2.0160
   39.255    1.9896
   39.270    1.9870
   39.285    1.9580
   39.300    2.0379
   39.315    1.9905
   39.330    2.0599
   39.345    2.0353
   39.360    1.9967
   39.375    1.9387
   39.390    2.0581
   39.405    2.0116
   39.420    1.9782
   39.435    1.9774
   39.450    2.0098
   39.465    2.0379
   39.480    2.0537
   39.495    2.0739
   39.510    2.0906
   39.525    2.0019
   39.540    2.0116
   39.555    2.0950
   39.570    2.0950
   39.585    2.0792
   39.600    2.0599
   39.615    2.1099
   39.630    2.0634
   39.645    2.0985
   39.660    2.0388
   39.675    2.0449
   39.690    2.0765
   39.705    2.0590
   39.720    2.0704
   39.735    2.0686
   39.750    2.1143
   39.765    2.0502
   39.780    2.0932
   39.795    2.0721
   39.810    2.0765
   39.825    2.0783
   39.840    2.0423
   39.855    2.0072
   39.870    1.9967
   39.885    1.9932
   39.900    1.9817
   39.915    2.0063
   39.930    1.9993
   39.945    1.9923
   39.960    1.9493
   39.975    1.9607
   39.990    1.9405
