    1.500   16.3639
    1.515   16.6860
    1.530   16.0427
    1.545   15.6723
    1.560   15.6073
    1.575   15.4230
    1.590   15.2554
    1.605   15.0044
    1.620   14.8657
    1.635   14.5585
    1.650   14.3742
    1.665   14.2312
    1.680   14.1487
    1.695   13.9205
    1.710   13.7520
    1.725   13.4887
    1.740   13.1920
    1.755   13.0911
    1.770   12.9586
    1.785   12.9586
    1.800   12.6295
    1.815   12.7111
    1.830   12.4364
    1.845   12.3161
    1.860   11.9598
    1.875   12.0915
    1.890   11.9510
    1.905   11.6526
    1.920   11.6403
    1.935   11.4929
    1.950   11.3428
    1.965   11.2770
    1.980   11.0804
    1.995   11.1137
    2.010   10.9865
    2.025   10.9224
    2.040   10.6863
    2.055   10.6231
    2.070   10.5617
    2.085   10.3677
    2.100   10.2229
    2.115   10.2422
    2.130   10.1229
    2.145   10.1299
    2.160    9.9315
    2.175    9.7955
    2.190    9.7306
    2.205    9.7332
    2.220    9.7551
    2.235    9.7279
    2.250    9.7016
    2.265    9.4207
    2.280    9.2628
    2.295    9.2742
    2.310    9.2426
    2.325    9.2048
    2.340    9.0943
    2.355    8.9547
    2.370    8.8827
    2.385    8.8748
    2.400    8.8204
    2.415    8.7414
    2.430    8.6037
    2.445    8.6958
    2.460    8.5817
    2.475    8.5931
    2.490    8.5326
    2.505    8.3720
    2.520    8.4448
    2.535    8.5010
    2.550    8.3702
    2.565    8.2456
    2.580    8.2684
    2.595    8.1148
    2.610    8.1139
    2.625    8.1139
    2.640    8.1657
    2.655    8.2008
    2.670    8.1192
    2.685    8.0683
    2.700    7.9516
    2.715    8.0244
    2.730    8.1833
    2.745    8.1473
    2.760    8.0893
    2.775    8.0200
    2.790    8.1508
    2.805    8.2061
    2.820    8.2113
    2.835    8.3017
    2.850    8.3930
    2.865    8.3175
    2.880    8.4483
    2.895    8.5835
    2.910    8.7362
    2.925    8.8626
    2.940    8.9187
    2.955    9.1996
    2.970    9.5050
    2.985    9.3567
    3.000    9.7051
    3.015    9.9175
    3.030   10.1755
    3.045   10.4713
    3.060   10.5854
    3.075   11.1252
    3.090   11.4797
    3.105   11.7930
    3.120   12.1274
    3.135   12.6330
    3.150   13.0314
    3.165   13.6704
    3.180   14.1978
    3.195   14.8622
    3.210   15.2844
    3.225   16.0821
    3.240   17.1046
    3.255   17.5882
    3.270   18.4597
    3.285   19.4927
    3.300   20.6029
    3.315   21.7237
    3.330   22.8366
    3.345   24.2733
    3.360   25.4845
    3.375   27.0502
    3.390   28.7932
    3.405   30.5538
    3.420   32.5531
    3.435   34.5726
    3.450   36.8799
    3.465   39.4892
    3.480   42.1318
    3.495   45.5240
    3.510   48.5677
    3.525   52.2995
    3.540   56.1962
    3.555   60.8127
    3.570   65.6012
    3.585   71.5131
    3.600   77.6900
    3.615   85.3958
    3.630   93.5527
    3.645  103.3728
    3.660  114.9122
    3.675  128.6783
    3.690  145.5415
    3.705  169.2057
    3.720  199.8859
    3.735  238.0455
    3.750  271.0909
    3.765  279.3312
    3.780  259.0627
    3.795  215.5011
    3.810  154.6261
    3.825   91.6061
    3.840   45.9760
    3.855   23.9784
    3.870   15.7750
    3.885   12.1371
    3.900   10.3019
    3.915    9.1636
    3.930    8.3693
    3.945    7.9428
    3.960    7.4144
    3.975    7.0002
    3.990    6.7790
    4.005    6.4903
    4.020    6.3902
    4.035    6.2954
    4.050    6.2278
    4.065    6.1331
    4.080    6.1304
    4.095    6.0111
    4.110    5.7574
    4.125    5.7276
    4.140    5.7609
    4.155    5.6977
    4.170    5.6512
    4.185    5.5354
    4.200    5.6512
    4.215    5.5872
    4.230    5.4739
    4.245    5.5055
    4.260    5.3598
    4.275    5.3712
    4.290    5.3862
    4.305    5.3993
    4.320    5.4002
    4.335    5.3467
    4.350    5.3370
    4.365    5.2440
    4.380    5.2896
    4.395    5.2510
    4.410    5.3432
    4.425    5.2484
    4.440    5.2361
    4.455    5.2027
    4.470    5.2273
    4.485    5.1316
    4.500    5.1229
    4.515    5.1159
    4.530    5.1395
    4.545    5.1097
    4.560    5.1782
    4.575    5.1668
    4.590    5.1115
    4.605    5.1431
    4.620    5.2001
    4.635    5.1176
    4.650    5.1606
    4.665    5.2414
    4.680    5.2572
    4.695    5.2598
    4.710    5.2607
    4.725    5.1782
    4.740    5.2730
    4.755    5.2229
    4.770    5.2519
    4.785    5.3379
    4.800    5.2817
    4.815    5.3563
    4.830    5.4055
    4.845    5.5819
    4.860    5.5863
    4.875    5.6890
    4.890    5.7679
    4.905    5.9014
    4.920    6.0944
    4.935    6.1278
    4.950    6.2858
    4.965    6.3130
    4.980    6.5412
    4.995    6.8764
    5.010    7.0651
    5.025    7.3398
    5.040    7.5496
    5.055    7.9919
    5.070    8.3500
    5.085    8.7248
    5.100    9.0574
    5.115    9.5901
    5.130   10.1922
    5.145   10.9303
    5.160   11.6570
    5.175   12.4293
    5.190   13.6493
    5.205   14.6630
    5.220   15.9110
    5.235   17.7199
    5.250   19.5480
    5.265   21.6570
    5.280   24.6761
    5.295   28.6774
    5.310   34.3321
    5.325   40.6495
    5.340   45.2352
    5.355   46.4824
    5.370   43.3035
    5.385   36.1822
    5.400   26.7544
    5.415   17.6180
    5.430   10.9444
    5.445    7.6242
    5.460    6.2928
    5.475    5.7653
    5.490    5.3476
    5.505    5.2861
    5.520    5.0913
    5.535    5.0448
    5.550    4.9816
    5.565    4.8569
    5.580    4.8815
    5.595    4.8631
    5.610    4.7990
    5.625    4.7007
    5.640    4.6560
    5.655    4.6305
    5.670    4.7701
    5.685    4.7156
    5.700    4.7306
    5.715    4.7911
    5.730    4.6884
    5.745    4.6656
    5.760    4.6665
    5.775    4.5480
    5.790    4.6402
    5.805    4.6217
    5.820    4.5840
    5.835    4.6437
    5.850    4.5498
    5.865    4.5120
    5.880    4.6902
    5.895    4.6533
    5.910    4.6261
    5.925    4.5936
    5.940    4.5743
    5.955    4.5243
    5.970    4.4690
    5.985    4.4541
    6.000    4.5138
    6.015    4.5656
    6.030    4.6331
    6.045    4.6200
    6.060    4.5717
    6.075    4.6024
    6.090    4.5656
    6.105    4.6410
    6.120    4.6015
    6.135    4.6753
    6.150    4.6410
    6.165    4.6805
    6.180    4.7499
    6.195    4.6753
    6.210    4.7981
    6.225    4.8332
    6.240    4.8341
    6.255    4.9465
    6.270    4.9930
    6.285    5.0658
    6.300    5.0386
    6.315    5.1773
    6.330    5.4766
    6.345    5.5231
    6.360    5.8215
    6.375    5.9707
    6.390    6.1646
    6.405    6.5078
    6.420    6.7834
    6.435    7.0265
    6.450    7.4574
    6.465    7.9831
    6.480    8.6958
    6.495    9.6147
    6.510   10.7644
    6.525   12.2933
    6.540   14.1443
    6.555   15.8250
    6.570   16.7035
    6.585   16.0874
    6.600   14.4602
    6.615   11.9896
    6.630    9.0969
    6.645    6.9449
    6.660    5.6328
    6.675    5.0281
    6.690    4.7938
    6.705    4.6972
    6.720    4.5348
    6.735    4.5155
    6.750    4.4989
    6.765    4.4497
    6.780    4.4796
    6.795    4.4752
    6.810    4.3962
    6.825    4.3655
    6.840    4.3707
    6.855    4.3979
    6.870    4.3698
    6.885    4.3646
    6.900    4.4128
    6.915    4.4023
    6.930    4.2996
    6.945    4.3514
    6.960    4.4111
    6.975    4.2505
    6.990    4.2891
    7.005    4.2821
    7.020    4.2707
    7.035    4.2364
    7.050    4.1996
    7.065    4.2759
    7.080    4.3084
    7.095    4.2689
    7.110    4.3268
    7.125    4.3400
    7.140    4.2900
    7.155    4.3602
    7.170    4.3400
    7.185    4.3040
    7.200    4.3330
    7.215    4.2707
    7.230    4.2715
    7.245    4.3084
    7.260    4.3690
    7.275    4.3997
    7.290    4.4006
    7.305    4.4787
    7.320    4.5234
    7.335    4.5542
    7.350    4.6682
    7.365    4.7823
    7.380    4.7551
    7.395    4.8526
    7.410    4.9763
    7.425    5.2396
    7.440    5.4283
    7.455    5.6284
    7.470    5.8496
    7.485    6.1488
    7.500    6.5201
    7.515    7.0362
    7.530    7.6979
    7.545    8.5659
    7.560    9.7297
    7.575   10.9101
    7.590   11.6368
    7.605   11.8949
    7.620   11.3604
    7.635   10.0957
    7.650    8.3772
    7.665    6.6561
    7.680    5.3010
    7.695    4.6867
    7.710    4.3777
    7.725    4.3356
    7.740    4.2830
    7.755    4.1732
    7.770    4.2233
    7.785    4.1855
    7.800    4.2198
    7.815    4.0960
    7.830    4.1004
    7.845    4.1531
    7.860    4.1223
    7.875    4.0802
    7.890    4.1689
    7.905    4.2242
    7.920    4.1522
    7.935    4.1592
    7.950    4.1390
    7.965    4.1399
    7.980    4.1689
    7.995    4.0969
    8.010    4.0811
    8.025    4.0390
    8.040    4.0223
    8.055    4.1338
    8.070    4.0328
    8.085    3.9872
    8.100    4.0820
    8.115    4.0793
    8.130    4.0205
    8.145    4.1346
    8.160    4.0267
    8.175    4.0688
    8.190    4.1575
    8.205    4.1768
    8.220    4.1610
    8.235    4.2215
    8.250    4.2601
    8.265    4.2812
    8.280    4.3444
    8.295    4.3848
    8.310    4.4857
    8.325    4.5761
    8.340    4.6542
    8.355    4.8122
    8.370    4.8982
    8.385    5.1159
    8.400    5.3555
    8.415    5.6056
    8.430    6.1883
    8.445    6.7307
    8.460    7.2468
    8.475    8.0156
    8.490    8.9056
    8.505    9.1680
    8.520    9.1276
    8.535    8.4527
    8.550    7.4925
    8.565    6.1506
    8.580    5.1299
    8.595    4.5954
    8.610    4.3268
    8.625    4.1338
    8.640    4.0899
    8.655    4.0697
    8.670    3.9916
    8.685    4.0697
    8.700    4.0451
    8.715    4.0513
    8.730    4.0293
    8.745    4.0258
    8.760    3.8977
    8.775    3.9626
    8.790    3.9100
    8.805    3.9942
    8.820    4.0486
    8.835    4.0521
    8.850    3.9635
    8.865    3.9582
    8.880    3.9837
    8.895    3.9363
    8.910    3.9644
    8.925    4.1188
    8.940    3.9275
    8.955    3.9854
    8.970    3.9433
    8.985    4.0477
    9.000    4.0346
    9.015    3.9802
    9.030    4.1022
    9.045    4.1522
    9.060    4.1566
    9.075    4.1531
    9.090    4.3251
    9.105    4.4313
    9.120    4.5629
    9.135    4.5436
    9.150    4.8385
    9.165    5.0992
    9.180    5.3318
    9.195    5.5582
    9.210    6.0418
    9.225    6.4525
    9.240    7.1459
    9.255    8.0586
    9.270    9.2584
    9.285   10.6986
    9.300   12.4425
    9.315   13.6054
    9.330   14.1022
    9.345   13.4939
    9.360   12.0169
    9.375    9.7323
    9.390    7.6180
    9.405    5.8698
    9.420    4.8411
    9.435    4.3576
    9.450    4.2198
    9.465    4.2136
    9.480    4.1118
    9.495    3.9082
    9.510    4.0451
    9.525    4.0082
    9.540    3.9705
    9.555    3.9336
    9.570    3.9407
    9.585    3.9161
    9.600    4.0451
    9.615    3.9451
    9.630    3.8942
    9.645    3.9275
    9.660    3.9126
    9.675    3.8397
    9.690    3.8775
    9.705    3.9486
    9.720    3.9336
    9.735    3.8511
    9.750    3.9310
    9.765    3.9468
    9.780    3.9056
    9.795    3.9328
    9.810    3.9968
    9.825    4.0706
    9.840    4.1338
    9.855    4.2373
    9.870    4.3400
    9.885    4.5164
    9.900    4.6735
    9.915    4.7411
    9.930    5.0772
    9.945    5.4072
    9.960    5.7785
    9.975    6.3446
    9.990    6.9229
   10.005    7.7514
   10.020    8.8836
   10.035   10.4107
   10.050   12.2336
   10.065   13.7116
   10.080   14.4953
   10.095   14.1759
   10.110   12.9779
   10.125   11.0128
   10.140    8.6528
   10.155    6.6474
   10.170    5.2308
   10.185    4.5647
   10.200    4.3225
   10.215    4.0785
   10.230    3.9758
   10.245    3.9389
   10.260    3.8117
   10.275    3.8792
   10.290    3.8687
   10.305    3.8608
   10.320    3.8476
   10.335    3.8906
   10.350    3.8582
   10.365    3.8117
   10.380    3.7950
   10.395    3.7529
   10.410    3.8204
   10.425    3.8108
   10.440    3.7441
   10.455    3.7976
   10.470    3.8345
   10.485    3.8652
   10.500    3.8424
   10.515    3.8643
   10.530    3.8933
   10.545    3.8547
   10.560    4.0030
   10.575    4.0653
   10.590    4.0609
   10.605    4.2759
   10.620    4.3233
   10.635    4.4602
   10.650    4.6718
   10.665    4.8218
   10.680    5.1580
   10.695    5.5126
   10.710    6.0488
   10.725    6.7079
   10.740    7.7479
   10.755    8.7037
   10.770    9.6656
   10.785   10.0246
   10.800    9.7876
   10.815    9.0460
   10.830    7.8059
   10.845    6.4157
   10.860    5.2879
   10.875    4.4997
   10.890    4.1197
   10.905    3.9284
   10.920    3.8950
   10.935    3.8327
   10.950    3.7757
   10.965    3.8687
   10.980    3.8740
   10.995    3.8371
   11.010    3.7643
   11.025    3.7450
   11.040    3.7713
   11.055    3.7827
   11.070    3.7704
   11.085    3.8573
   11.100    3.7713
   11.115    3.7520
   11.130    3.7871
   11.145    3.7450
   11.160    3.7599
   11.175    3.8152
   11.190    3.7204
   11.205    3.7844
   11.220    3.7888
   11.235    3.9275
   11.250    3.9731
   11.265    3.9977
   11.280    3.9749
   11.295    4.1118
   11.310    4.2364
   11.325    4.3225
   11.340    4.4953
   11.355    4.7472
   11.370    5.1080
   11.385    5.4783
   11.400    6.1594
   11.415    6.8475
   11.430    7.2758
   11.445    7.5189
   11.460    7.5092
   11.475    6.9765
   11.490    6.3516
   11.505    5.5161
   11.520    4.8368
   11.535    4.3637
   11.550    3.9170
   11.565    3.7757
   11.580    3.7634
   11.595    3.7590
   11.610    3.7116
   11.625    3.6616
   11.640    3.6572
   11.655    3.6704
   11.670    3.7028
   11.685    3.7063
   11.700    3.6589
   11.715    3.6291
   11.730    3.7230
   11.745    3.6045
   11.760    3.6238
   11.775    3.7046
   11.790    3.6984
   11.805    3.7590
   11.820    3.6800
   11.835    3.7502
   11.850    3.7493
   11.865    3.7177
   11.880    3.8661
   11.895    3.8485
   11.910    3.8143
   11.925    3.8187
   11.940    3.8757
   11.955    4.0249
   11.970    4.1917
   11.985    4.2777
   12.000    4.5875
   12.015    4.8526
   12.030    5.4336
   12.045    5.7170
   12.060    5.9689
   12.075    6.0541
   12.090    5.9215
   12.105    5.5459
   12.120    5.1518
   12.135    4.6832
   12.150    4.1417
   12.165    3.8590
   12.180    3.7248
   12.195    3.7441
   12.210    3.7414
   12.225    3.8081
   12.240    3.7274
   12.255    3.6335
   12.270    3.5826
   12.285    3.6589
   12.300    3.6212
   12.315    3.5703
   12.330    3.6396
   12.345    3.6405
   12.360    3.5958
   12.375    3.5168
   12.390    3.6747
   12.405    3.7388
   12.420    3.6361
   12.435    3.6203
   12.450    3.7151
   12.465    3.7467
   12.480    3.7441
   12.495    3.7590
   12.510    3.7300
   12.525    3.9477
   12.540    4.0969
   12.555    4.2461
   12.570    4.4778
   12.585    4.7209
   12.600    5.0465
   12.615    5.4924
   12.630    6.0979
   12.645    6.6816
   12.660    6.9958
   12.675    7.0142
   12.690    6.7553
   12.705    6.2445
   12.720    5.4766
   12.735    4.8148
   12.750    4.2145
   12.765    3.8441
   12.780    3.7485
   12.795    3.7063
   12.810    3.6221
   12.825    3.6853
   12.840    3.6115
   12.855    3.5685
   12.870    3.6001
   12.885    3.5958
   12.900    3.6897
   12.915    3.5914
   12.930    3.6607
   12.945    3.5931
   12.960    3.6361
   12.975    3.5861
   12.990    3.6019
   13.005    3.6642
   13.020    3.5835
   13.035    3.5975
   13.050    3.6247
   13.065    3.6317
   13.080    3.6940
   13.095    3.8213
   13.110    3.7774
   13.125    3.7678
   13.140    3.8731
   13.155    4.0653
   13.170    4.1223
   13.185    4.3962
   13.200    4.6112
   13.215    4.7595
   13.230    4.9614
   13.245    4.9763
   13.260    4.8526
   13.275    4.6665
   13.290    4.3303
   13.305    3.9644
   13.320    3.8854
   13.335    3.7046
   13.350    3.5203
   13.365    3.5317
   13.380    3.4781
   13.395    3.4966
   13.410    3.5931
   13.425    3.6045
   13.440    3.6045
   13.455    3.5606
   13.470    3.5993
   13.485    3.6037
   13.500    3.6273
   13.515    3.6458
   13.530    3.5334
   13.545    3.6809
   13.560    3.6791
   13.575    3.7063
   13.590    3.7441
   13.605    3.8573
   13.620    3.9389
   13.635    4.0732
   13.650    4.3014
   13.665    4.4717
   13.680    4.8517
   13.695    5.2756
   13.710    5.8847
   13.725    6.7097
   13.740    7.6005
   13.755    8.5747
   13.770    9.1355
   13.785    9.4550
   13.800    9.0811
   13.815    8.3026
   13.830    7.1810
   13.845    6.0427
   13.860    5.0395
   13.875    4.3655
   13.890    3.9372
   13.905    3.7388
   13.920    3.6905
   13.935    3.5966
   13.950    3.6037
   13.965    3.6317
   13.980    3.6080
   13.995    3.6309
   14.010    3.5712
   14.025    3.6063
   14.040    3.6045
   14.055    3.5273
   14.070    3.5238
   14.085    3.5036
   14.100    3.4299
   14.115    3.4825
   14.130    3.5010
   14.145    3.5159
   14.160    3.5203
   14.175    3.6396
   14.190    3.5264
   14.205    3.5220
   14.220    3.5413
   14.235    3.4492
   14.250    3.5466
   14.265    3.5036
   14.280    3.4492
   14.295    3.4817
   14.310    3.4597
   14.325    3.5501
   14.340    3.5018
   14.355    3.5440
   14.370    3.5747
   14.385    3.5712
   14.400    3.4711
   14.415    3.4536
   14.430    3.5036
   14.445    3.4544
   14.460    3.5106
   14.475    3.7055
   14.490    3.6265
   14.505    3.4948
   14.520    3.5800
   14.535    3.5054
   14.550    3.5133
   14.565    3.5001
   14.580    3.5045
   14.595    3.5598
   14.610    3.5361
   14.625    3.5413
   14.640    3.6791
   14.655    3.5580
   14.670    3.6747
   14.685    3.6905
   14.700    3.6993
   14.715    3.7783
   14.730    3.8555
   14.745    4.0618
   14.760    4.2470
   14.775    4.3997
   14.790    4.5489
   14.805    4.7069
   14.820    4.8192
   14.835    4.6516
   14.850    4.3883
   14.865    4.3400
   14.880    4.0477
   14.895    3.8064
   14.910    3.6598
   14.925    3.6440
   14.940    3.5168
   14.955    3.6625
   14.970    3.5185
   14.985    3.4702
   15.000    3.5598
   15.015    3.5563
   15.030    3.5133
   15.045    3.4922
   15.060    3.4992
   15.075    3.4755
   15.090    3.4720
   15.105    3.4773
   15.120    3.5168
   15.135    3.5045
   15.150    3.5589
   15.165    3.5291
   15.180    3.5054
   15.195    3.4957
   15.210    3.5387
   15.225    3.5563
   15.240    3.4404
   15.255    3.5159
   15.270    3.5580
   15.285    3.5756
   15.300    3.5782
   15.315    3.5212
   15.330    3.4834
   15.345    3.5089
   15.360    3.5299
   15.375    3.6133
   15.390    3.4904
   15.405    3.5773
   15.420    3.5291
   15.435    3.5958
   15.450    3.4878
   15.465    3.5317
   15.480    3.4939
   15.495    3.5115
   15.510    3.5089
   15.525    3.5071
   15.540    3.5343
   15.555    3.5554
   15.570    3.4738
   15.585    3.4817
   15.600    3.5852
   15.615    3.5282
   15.630    3.5062
   15.645    3.6405
   15.660    3.7107
   15.675    3.7643
   15.690    3.9214
   15.705    4.0521
   15.720    4.3681
   15.735    4.6340
   15.750    4.8640
   15.765    5.2027
   15.780    5.3203
   15.795    5.3467
   15.810    5.1474
   15.825    4.7850
   15.840    4.5050
   15.855    4.1566
   15.870    3.9275
   15.885    3.6572
   15.900    3.6273
   15.915    3.5966
   15.930    3.4975
   15.945    3.4913
   15.960    3.5545
   15.975    3.5431
   15.990    3.5633
   16.005    3.5554
   16.020    3.5124
   16.035    3.5791
   16.050    3.5343
   16.065    3.5238
   16.080    3.5624
   16.095    3.6265
   16.110    3.5808
   16.125    3.6493
   16.140    3.6686
   16.155    3.7853
   16.170    3.9494
   16.185    4.1425
   16.200    4.2926
   16.215    4.5559
   16.230    4.6858
   16.245    4.6586
   16.260    4.6103
   16.275    4.5410
   16.290    4.3927
   16.305    4.1460
   16.320    3.9205
   16.335    3.7116
   16.350    3.5861
   16.365    3.5001
   16.380    3.5150
   16.395    3.5756
   16.410    3.6098
   16.425    3.4975
   16.440    3.5536
   16.455    3.5220
   16.470    3.5554
   16.485    3.6317
   16.500    3.5650
   16.515    3.4983
   16.530    3.5931
   16.545    3.7713
   16.560    3.7572
   16.575    3.7221
   16.590    3.7309
   16.605    3.9108
   16.620    4.1039
   16.635    4.3637
   16.650    4.6647
   16.665    4.9842
   16.680    5.0974
   16.695    5.1861
   16.710    5.1580
   16.725    4.9631
   16.740    4.7674
   16.755    4.3892
   16.770    4.1030
   16.785    3.9310
   16.800    3.7643
   16.815    3.6282
   16.830    3.5466
   16.845    3.5747
   16.860    3.4781
   16.875    3.4922
   16.890    3.5282
   16.905    3.5940
   16.920    3.5993
   16.935    3.5369
   16.950    3.5510
   16.965    3.5817
   16.980    3.6054
   16.995    3.6396
   17.010    3.6528
   17.025    3.7037
   17.040    3.8389
   17.055    3.9117
   17.070    4.0776
   17.085    4.2812
   17.100    4.4690
   17.115    4.6639
   17.130    4.6682
   17.145    4.6981
   17.160    4.6358
   17.175    4.3461
   17.190    4.1803
   17.205    4.0240
   17.220    3.7616
   17.235    3.6431
   17.250    3.5352
   17.265    3.5879
   17.280    3.5808
   17.295    3.5492
   17.310    3.4896
   17.325    3.4799
   17.340    3.5685
   17.355    3.5756
   17.370    3.5738
   17.385    3.5721
   17.400    3.5852
   17.415    3.5299
   17.430    3.5782
   17.445    3.5694
   17.460    3.5826
   17.475    3.6458
   17.490    3.7643
   17.505    3.8397
   17.520    3.9152
   17.535    3.9161
   17.550    4.0302
   17.565    4.0091
   17.580    4.0232
   17.595    4.0144
   17.610    3.8590
   17.625    3.7441
   17.640    3.7072
   17.655    3.7037
   17.670    3.6186
   17.685    3.5905
   17.700    3.5580
   17.715    3.5361
   17.730    3.6510
   17.745    3.6212
   17.760    3.6844
   17.775    3.6168
   17.790    3.6414
   17.805    3.5712
   17.820    3.6519
   17.835    3.6897
   17.850    3.7897
   17.865    3.8476
   17.880    3.8801
   17.895    3.9705
   17.910    4.0100
   17.925    4.0381
   17.940    4.1776
   17.955    4.2777
   17.970    4.1566
   17.985    4.2435
   18.000    4.3734
   18.015    4.2619
   18.030    4.1785
   18.045    4.0477
   18.060    3.9679
   18.075    3.8441
   18.090    3.8915
   18.105    3.7529
   18.120    3.7213
   18.135    3.6686
   18.150    3.6019
   18.165    3.6431
   18.180    3.6151
   18.195    3.6589
   18.210    3.5668
   18.225    3.6072
   18.240    3.5993
   18.255    3.6361
   18.270    3.6212
   18.285    3.6309
   18.300    3.7081
   18.315    3.8889
   18.330    4.0021
   18.345    4.1215
   18.360    4.1592
   18.375    4.2812
   18.390    4.3260
   18.405    4.2952
   18.420    4.1978
   18.435    4.1057
   18.450    3.9670
   18.465    3.8669
   18.480    3.7801
   18.495    3.7134
   18.510    3.5659
   18.525    3.4992
   18.540    3.6010
   18.555    3.5378
   18.570    3.6221
   18.585    3.6063
   18.600    3.6625
   18.615    3.5861
   18.630    3.5659
   18.645    3.5887
   18.660    3.6238
   18.675    3.5931
   18.690    3.6467
   18.705    3.5756
   18.720    3.5466
   18.735    3.5563
   18.750    3.6019
   18.765    3.6107
   18.780    3.6765
   18.795    3.6818
   18.810    3.6519
   18.825    3.6037
   18.840    3.5817
   18.855    3.6142
   18.870    3.6133
   18.885    3.5703
   18.900    3.5018
   18.915    3.5545
   18.930    3.5492
   18.945    3.5115
   18.960    3.5010
   18.975    3.5773
   18.990    3.6633
   19.005    3.6598
   19.020    3.6414
   19.035    3.6037
   19.050    3.6467
   19.065    3.6537
   19.080    3.6546
   19.095    3.7388
   19.110    3.8011
   19.125    4.0118
   19.140    4.0671
   19.155    4.1487
   19.170    4.3040
   19.185    4.3479
   19.200    4.2575
   19.215    4.1838
   19.230    4.1101
   19.245    3.9222
   19.260    3.8731
   19.275    3.8081
   19.290    3.6835
   19.305    3.5756
   19.320    3.6440
   19.335    3.6291
   19.350    3.5571
   19.365    3.5852
   19.380    3.6080
   19.395    3.5554
   19.410    3.5282
   19.425    3.5905
   19.440    3.6177
   19.455    3.5650
   19.470    3.5756
   19.485    3.7046
   19.500    3.6519
   19.515    3.5501
   19.530    3.6124
   19.545    3.6186
   19.560    3.6467
   19.575    3.5694
   19.590    3.6914
   19.605    3.6449
   19.620    3.6352
   19.635    3.6747
   19.650    3.6300
   19.665    3.5457
   19.680    3.5694
   19.695    3.6080
   19.710    3.6037
   19.725    3.6423
   19.740    3.6019
   19.755    3.6774
   19.770    3.6809
   19.785    3.7169
   19.800    3.7493
   19.815    3.8292
   19.830    3.9258
   19.845    4.0741
   19.860    4.3049
   19.875    4.5050
   19.890    4.9219
   19.905    5.2335
   19.920    5.4485
   19.935    5.7513
   19.950    5.8206
   19.965    5.6398
   19.980    5.5705
   19.995    5.3195
   20.010    4.9210
   20.025    4.5190
   20.040    4.1890
   20.055    3.9635
   20.070    3.7687
   20.085    3.7248
   20.100    3.7204
   20.115    3.7072
   20.130    3.7098
   20.145    3.7283
   20.160    3.7134
   20.175    3.6493
   20.190    3.6273
   20.205    3.5808
   20.220    3.6704
   20.235    3.7160
   20.250    3.7037
   20.265    3.7730
   20.280    3.6651
   20.295    3.6923
   20.310    3.7678
   20.325    3.7748
   20.340    3.7423
   20.355    3.6458
   20.370    3.6879
   20.385    3.6809
   20.400    3.7458
   20.415    3.7204
   20.430    3.6151
   20.445    3.6853
   20.460    3.5896
   20.475    3.6984
   20.490    3.6396
   20.505    3.5984
   20.520    3.6388
   20.535    3.7028
   20.550    3.7669
   20.565    3.7142
   20.580    3.7520
   20.595    3.8090
   20.610    3.9784
   20.625    4.0539
   20.640    4.1636
   20.655    4.2435
   20.670    4.3786
   20.685    4.3584
   20.700    4.3777
   20.715    4.3549
   20.730    4.1697
   20.745    3.9749
   20.760    3.9275
   20.775    3.8222
   20.790    3.7072
   20.805    3.6844
   20.820    3.6317
   20.835    3.6695
   20.850    3.6115
   20.865    3.6054
   20.880    3.6677
   20.895    3.6379
   20.910    3.7467
   20.925    3.6853
   20.940    3.6677
   20.955    3.6072
   20.970    3.6212
   20.985    3.6309
   21.000    3.5949
   21.015    3.5922
   21.030    3.6010
   21.045    3.6352
   21.060    3.6668
   21.075    3.6317
   21.090    3.6967
   21.105    3.6467
   21.120    3.6344
   21.135    3.6695
   21.150    3.6589
   21.165    3.7581
   21.180    3.6905
   21.195    3.7160
   21.210    3.7572
   21.225    3.6554
   21.240    3.6932
   21.255    3.7125
   21.270    3.8011
   21.285    3.7853
   21.300    3.8143
   21.315    3.9459
   21.330    4.0434
   21.345    4.2645
   21.360    4.4480
   21.375    4.4286
   21.390    4.4523
   21.405    4.4111
   21.420    4.4067
   21.435    4.4172
   21.450    4.1873
   21.465    4.0416
   21.480    3.9179
   21.495    3.8002
   21.510    3.7019
   21.525    3.6458
   21.540    3.7072
   21.555    3.8196
   21.570    3.7599
   21.585    3.6282
   21.600    3.6976
   21.615    3.6967
   21.630    3.6668
   21.645    3.7862
   21.660    3.7669
   21.675    3.7897
   21.690    3.7950
   21.705    3.8529
   21.720    3.8108
   21.735    3.8310
   21.750    3.9293
   21.765    3.9609
   21.780    3.8643
   21.795    3.7634
   21.810    3.7590
   21.825    3.6905
   21.840    3.7397
   21.855    3.6519
   21.870    3.7300
   21.885    3.8336
   21.900    3.7458
   21.915    3.7397
   21.930    3.7572
   21.945    3.8020
   21.960    3.8687
   21.975    3.9854
   21.990    4.1267
   22.005    4.4971
   22.020    4.7297
   22.035    5.0483
   22.050    5.2800
   22.065    5.4880
   22.080    5.6363
   22.095    5.5898
   22.110    5.4959
   22.125    5.3124
   22.140    5.0562
   22.155    4.7701
   22.170    4.4278
   22.185    4.2101
   22.200    3.9336
   22.215    3.8450
   22.230    3.8038
   22.245    3.7335
   22.260    3.8029
   22.275    3.8669
   22.290    3.8652
   22.305    3.9644
   22.320    4.0635
   22.335    4.3707
   22.350    4.6226
   22.365    5.0307
   22.380    5.2326
   22.395    5.3993
   22.410    5.6293
   22.425    5.6679
   22.440    5.6266
   22.455    5.4537
   22.470    5.2124
   22.485    4.9184
   22.500    4.5691
   22.515    4.3154
   22.530    4.0943
   22.545    3.8187
   22.560    3.7897
   22.575    3.7959
   22.590    3.7722
   22.605    3.7450
   22.620    3.7687
   22.635    3.7616
   22.650    3.7774
   22.665    3.7388
   22.680    3.7757
   22.695    3.7055
   22.710    3.8160
   22.725    3.7950
   22.740    3.7967
   22.755    3.8266
   22.770    3.8222
   22.785    3.7836
   22.800    3.7959
   22.815    3.8441
   22.830    3.6835
   22.845    3.7467
   22.860    3.7335
   22.875    3.7125
   22.890    3.5949
   22.905    3.6862
   22.920    3.6914
   22.935    3.7230
   22.950    3.6423
   22.965    3.6756
   22.980    3.7748
   22.995    3.7450
   23.010    3.7072
   23.025    3.7221
   23.040    3.7730
   23.055    3.8389
   23.070    3.8222
   23.085    3.8792
   23.100    3.9003
   23.115    3.8441
   23.130    3.7379
   23.145    3.8994
   23.160    3.8678
   23.175    3.8169
   23.190    3.7371
   23.205    3.6888
   23.220    3.6976
   23.235    3.7362
   23.250    3.7353
   23.265    3.7441
   23.280    3.7423
   23.295    3.7844
   23.310    3.9898
   23.325    4.2329
   23.340    4.5147
   23.355    4.6946
   23.370    4.8991
   23.385    4.9579
   23.400    5.0939
   23.415    5.1062
   23.430    4.9842
   23.445    4.9509
   23.460    4.7999
   23.475    4.6489
   23.490    4.2952
   23.505    4.1127
   23.520    3.8424
   23.535    3.7335
   23.550    3.7072
   23.565    3.7844
   23.580    3.7177
   23.595    3.6616
   23.610    3.7002
   23.625    3.6633
   23.640    3.7283
   23.655    3.7801
   23.670    3.7476
   23.685    3.7897
   23.700    3.9161
   23.715    3.9486
   23.730    3.9670
   23.745    3.8696
   23.760    3.8196
   23.775    3.7458
   23.790    3.7862
   23.805    3.8485
   23.820    3.7783
   23.835    3.7037
   23.850    3.5896
   23.865    3.6142
   23.880    3.6107
   23.895    3.6686
   23.910    3.6054
   23.925    3.6783
   23.940    3.6625
   23.955    3.7757
   23.970    3.7335
   23.985    3.7274
   24.000    3.7818
   24.015    3.8081
   24.030    3.7651
   24.045    3.7976
   24.060    3.8547
   24.075    3.8125
   24.090    3.8073
   24.105    3.6379
   24.120    3.6168
   24.135    3.6686
   24.150    3.5966
   24.165    3.5905
   24.180    3.5554
   24.195    3.6282
   24.210    3.6984
   24.225    3.6905
   24.240    3.6826
   24.255    3.6598
   24.270    3.6853
   24.285    3.7256
   24.300    3.7169
   24.315    3.7695
   24.330    3.7897
   24.345    3.7090
   24.360    3.8169
   24.375    3.8134
   24.390    3.8441
   24.405    3.7722
   24.420    3.7809
   24.435    3.7011
   24.450    3.6668
   24.465    3.6230
   24.480    3.6238
   24.495    3.6352
   24.510    3.5966
   24.525    3.6870
   24.540    3.5220
   24.555    3.6247
   24.570    3.6739
   24.585    3.7213
   24.600    3.8125
   24.615    3.9205
   24.630    3.7844
   24.645    3.8248
   24.660    3.8468
   24.675    3.8573
   24.690    3.8740
   24.705    3.9187
   24.720    3.8038
   24.735    3.7432
   24.750    3.7028
   24.765    3.6712
   24.780    3.5036
   24.795    3.5870
   24.810    3.5756
   24.825    3.6932
   24.840    3.6379
   24.855    3.6361
   24.870    3.7599
   24.885    3.7871
   24.900    3.8020
   24.915    3.9968
   24.930    4.0750
   24.945    4.1566
   24.960    4.1452
   24.975    4.1460
   24.990    4.0846
   25.005    3.9898
   25.020    3.9573
   25.035    4.0592
   25.050    3.8231
   25.065    3.8143
   25.080    3.6581
   25.095    3.6783
   25.110    3.6923
   25.125    3.6107
   25.140    3.7757
   25.155    3.8748
   25.170    4.0986
   25.185    4.3672
   25.200    4.6577
   25.215    4.9614
   25.230    5.1983
   25.245    5.3440
   25.260    5.4687
   25.275    5.5477
   25.290    5.5064
   25.305    5.3440
   25.320    5.1378
   25.335    4.8868
   25.350    4.5384
   25.365    4.2259
   25.380    3.9688
   25.395    3.7827
   25.410    3.7283
   25.425    3.7230
   25.440    3.6897
   25.455    3.6826
   25.470    3.6721
   25.485    3.6984
   25.500    3.6221
   25.515    3.5940
   25.530    3.6879
   25.545    3.5993
   25.560    3.5870
   25.575    3.6800
   25.590    3.6879
   25.605    3.6932
   25.620    3.6870
   25.635    3.6783
   25.650    3.5756
   25.665    3.5782
   25.680    3.6818
   25.695    3.6089
   25.710    3.5826
   25.725    3.5536
   25.740    3.6247
   25.755    3.7502
   25.770    3.8248
   25.785    3.9126
   25.800    3.9345
   25.815    4.1171
   25.830    4.2865
   25.845    4.3347
   25.860    4.2584
   25.875    4.3839
   25.890    4.3312
   25.905    4.2549
   25.920    4.2013
   25.935    3.9846
   25.950    3.9135
   25.965    3.7300
   25.980    3.6326
   25.995    3.5712
   26.010    3.4623
   26.025    3.5264
   26.040    3.5457
   26.055    3.5615
   26.070    3.5484
   26.085    3.5299
   26.100    3.5457
   26.115    3.5677
   26.130    3.5027
   26.145    3.5440
   26.160    3.6001
   26.175    3.6063
   26.190    3.6230
   26.205    3.4966
   26.220    3.4571
   26.235    3.4738
   26.250    3.4439
   26.265    3.5124
   26.280    3.5378
   26.295    3.5527
   26.310    3.5808
   26.325    3.5168
   26.340    3.5940
   26.355    3.5826
   26.370    3.6774
   26.385    3.8108
   26.400    3.9143
   26.415    3.8503
   26.430    3.9266
   26.445    3.8775
   26.460    3.8801
   26.475    3.8582
   26.490    3.8494
   26.505    3.8073
   26.520    3.6431
   26.535    3.5589
   26.550    3.6028
   26.565    3.4939
   26.580    3.5141
   26.595    3.5501
   26.610    3.5185
   26.625    3.4053
   26.640    3.4430
   26.655    3.4027
   26.670    3.4325
   26.685    3.4817
   26.700    3.4202
   26.715    3.5133
   26.730    3.4509
   26.745    3.4308
   26.760    3.4571
   26.775    3.3447
   26.790    3.4474
   26.805    3.4781
   26.820    3.4711
   26.835    3.4843
   26.850    3.4316
   26.865    3.4211
   26.880    3.3641
   26.895    3.5027
   26.910    3.4817
   26.925    3.5773
   26.940    3.6388
   26.955    3.6581
   26.970    3.6835
   26.985    3.6809
   27.000    3.7362
   27.015    3.8196
   27.030    3.6642
   27.045    3.6440
   27.060    3.6010
   27.075    3.5817
   27.090    3.5396
   27.105    3.5703
   27.120    3.5194
   27.135    3.5045
   27.150    3.3667
   27.165    3.4474
   27.180    3.3974
   27.195    3.4474
   27.210    3.4387
   27.225    3.4369
   27.240    3.5027
   27.255    3.5062
   27.270    3.4817
   27.285    3.5659
   27.300    3.5440
   27.315    3.6247
   27.330    3.5027
   27.345    3.5703
   27.360    3.4597
   27.375    3.4931
   27.390    3.4623
   27.405    3.3842
   27.420    3.4817
   27.435    3.4711
   27.450    3.5299
   27.465    3.5361
   27.480    3.6028
   27.495    3.6037
   27.510    3.6932
   27.525    3.8345
   27.540    3.8836
   27.555    3.9652
   27.570    3.9442
   27.585    4.0311
   27.600    3.9266
   27.615    3.9108
   27.630    3.8283
   27.645    3.6853
   27.660    3.6651
   27.675    3.5124
   27.690    3.4360
   27.705    3.4308
   27.720    3.4483
   27.735    3.4720
   27.750    3.4931
   27.765    3.5203
   27.780    3.6431
   27.795    3.6133
   27.810    3.6449
   27.825    3.6256
   27.840    3.7748
   27.855    3.7055
   27.870    3.6835
   27.885    3.7090
   27.900    3.6037
   27.915    3.6080
   27.930    3.5580
   27.945    3.4922
   27.960    3.5045
   27.975    3.5124
   27.990    3.4378
   28.005    3.4272
   28.020    3.4334
   28.035    3.4185
   28.050    3.4781
   28.065    3.3939
   28.080    3.3684
   28.095    3.3939
   28.110    3.4571
   28.125    3.4729
   28.140    3.4141
   28.155    3.4035
   28.170    3.3755
   28.185    3.4369
   28.200    3.3728
   28.215    3.2895
   28.230    3.4229
   28.245    3.3834
   28.260    3.3772
   28.275    3.3518
   28.290    3.4272
   28.305    3.4246
   28.320    3.5194
   28.335    3.5615
   28.350    3.5299
   28.365    3.5589
   28.380    3.6133
   28.395    3.6625
   28.410    3.5931
   28.425    3.5984
   28.440    3.5843
   28.455    3.5387
   28.470    3.5914
   28.485    3.4702
   28.500    3.3702
   28.515    3.5054
   28.530    3.4079
   28.545    3.4720
   28.560    3.6107
   28.575    3.8064
   28.590    3.9424
   28.605    3.9380
   28.620    4.0802
   28.635    4.2873
   28.650    4.1689
   28.665    4.2233
   28.680    4.2865
   28.695    4.1732
   28.710    4.0714
   28.725    3.9275
   28.740    3.7923
   28.755    3.6572
   28.770    3.4983
   28.785    3.4501
   28.800    3.4360
   28.815    3.3992
   28.830    3.3500
   28.845    3.3737
   28.860    3.3421
   28.875    3.3386
   28.890    3.3272
   28.905    3.3149
   28.920    3.3149
   28.935    3.2798
   28.950    3.2763
   28.965    3.2930
   28.980    3.2807
   28.995    3.3158
   29.010    3.3017
   29.025    3.2245
   29.040    3.2631
   29.055    3.3351
   29.070    3.3553
   29.085    3.3623
   29.100    3.4404
   29.115    3.5589
   29.130    3.6291
   29.145    3.7292
   29.160    3.7511
   29.175    3.6809
   29.190    3.6326
   29.205    3.6967
   29.220    3.6993
   29.235    3.6361
   29.250    3.5642
   29.265    3.4948
   29.280    3.3807
   29.295    3.3939
   29.310    3.3763
   29.325    3.3544
   29.340    3.4308
   29.355    3.4123
   29.370    3.3904
   29.385    3.3605
   29.400    3.3579
   29.415    3.3562
   29.430    3.4764
   29.445    3.5378
   29.460    3.4852
   29.475    3.4290
   29.490    3.4483
   29.505    3.3992
   29.520    3.3974
   29.535    3.4097
   29.550    3.3228
   29.565    3.2912
   29.580    3.3447
   29.595    3.2956
   29.610    3.2912
   29.625    3.2833
   29.640    3.2596
   29.655    3.2614
   29.670    3.2622
   29.685    3.4167
   29.700    3.3175
   29.715    3.2456
   29.730    3.3140
   29.745    3.3368
   29.760    3.3272
   29.775    3.3017
   29.790    3.2745
   29.805    3.2745
   29.820    3.2473
   29.835    3.2868
   29.850    3.2842
   29.865    3.3246
   29.880    3.2552
   29.895    3.2658
   29.910    3.3368
   29.925    3.4448
   29.940    3.3500
   29.955    3.3061
   29.970    3.3167
   29.985    3.3500
   30.000    3.3026
   30.015    3.3421
   30.030    3.3228
   30.045    3.2473
   30.060    3.3175
   30.075    3.3834
   30.090    3.2552
   30.105    3.2078
   30.120    3.1692
   30.135    3.2622
   30.150    3.3246
   30.165    3.3939
   30.180    3.3658
   30.195    3.3079
   30.210    3.3439
   30.225    3.3447
   30.240    3.4518
   30.255    3.3246
   30.270    3.2912
   30.285    3.3474
   30.300    3.2859
   30.315    3.2859
   30.330    3.2008
   30.345    3.1604
   30.360    3.2219
   30.375    3.2403
   30.390    3.2043
   30.405    3.1613
   30.420    3.1631
   30.435    3.1262
   30.450    3.1087
   30.465    3.1639
   30.480    3.0832
   30.495    3.1034
   30.510    3.1525
   30.525    3.1815
   30.540    3.2421
   30.555    3.2052
   30.570    3.1315
   30.585    3.1122
   30.600    3.1297
   30.615    3.1499
   30.630    3.1227
   30.645    3.1464
   30.660    3.2543
   30.675    3.2596
   30.690    3.2965
   30.705    3.2789
   30.720    3.2087
   30.735    3.1982
   30.750    3.2034
   30.765    3.2833
   30.780    3.2184
   30.795    3.1683
   30.810    3.1315
   30.825    3.1587
   30.840    3.1894
   30.855    3.1692
   30.870    3.1394
   30.885    3.1490
   30.900    3.1552
   30.915    3.0876
   30.930    3.1209
   30.945    3.0797
   30.960    3.1148
   30.975    3.1499
   30.990    3.1069
   31.005    3.2061
   31.020    3.1394
   31.035    3.1236
   31.050    3.0814
   31.065    3.1060
   31.080    3.1113
   31.095    3.1938
   31.110    3.1332
   31.125    3.1473
   31.140    3.2500
   31.155    3.2921
   31.170    3.2552
   31.185    3.1973
   31.200    3.2105
   31.215    3.2508
   31.230    3.2157
   31.245    3.3035
   31.260    3.2973
   31.275    3.2816
   31.290    3.3421
   31.305    3.1464
   31.320    3.1859
   31.335    3.1543
   31.350    3.1780
   31.365    3.1350
   31.380    3.0402
   31.395    3.0806
   31.410    3.1201
   31.425    3.1306
   31.440    3.1587
   31.455    3.1446
   31.470    3.1350
   31.485    3.0744
   31.500    3.0823
   31.515    3.0586
   31.530    3.0990
   31.545    3.0779
   31.560    3.1429
   31.575    3.1253
   31.590    3.1122
   31.605    3.1201
   31.620    3.1797
   31.635    3.1087
   31.650    3.1771
   31.665    3.1894
   31.680    3.2508
   31.695    3.1973
   31.710    3.1833
   31.725    3.1596
   31.740    3.2087
   31.755    3.2842
   31.770    3.2210
   31.785    3.1332
   31.800    3.1034
   31.815    3.0613
   31.830    3.1051
   31.845    3.1332
   31.860    3.0902
   31.875    3.0674
   31.890    3.1095
   31.905    3.0244
   31.920    3.0428
   31.935    3.0832
   31.950    3.0332
   31.965    3.1332
   31.980    3.0981
   31.995    3.0630
   32.010    3.0753
   32.025    2.9524
   32.040    2.8875
   32.055    3.0025
   32.070    3.0235
   32.085    3.0858
   32.100    3.0797
   32.115    3.1789
   32.130    3.1982
   32.145    3.1973
   32.160    3.1569
   32.175    3.2464
   32.190    3.1868
   32.205    3.2245
   32.220    3.2245
   32.235    3.2921
   32.250    3.2464
   32.265    3.1385
   32.280    3.0990
   32.295    3.0964
   32.310    3.0683
   32.325    3.0068
   32.340    2.9840
   32.355    2.9691
   32.370    2.9559
   32.385    2.9270
   32.400    2.9998
   32.415    3.0025
   32.430    2.9744
   32.445    3.0402
   32.460    2.9989
   32.475    2.9823
   32.490    2.9542
   32.505    2.9138
   32.520    2.8638
   32.535    2.9340
   32.550    2.9340
   32.565    2.9542
   32.580    2.9419
   32.595    2.9305
   32.610    2.9489
   32.625    2.9559
   32.640    2.9989
   32.655    2.9691
   32.670    2.9726
   32.685    2.9358
   32.700    2.8822
   32.715    2.9340
   32.730    2.9963
   32.745    2.8928
   32.760    2.9305
   32.775    2.9305
   32.790    2.9445
   32.805    2.9226
   32.820    2.8971
   32.835    3.0174
   32.850    2.9700
   32.865    2.9489
   32.880    2.9753
   32.895    3.0191
   32.910    3.0850
   32.925    3.0183
   32.940    2.9884
   32.955    2.9200
   32.970    2.9516
   32.985    2.9472
   33.000    2.9305
   33.015    2.9867
   33.030    2.9147
   33.045    2.9840
   33.060    3.0367
   33.075    3.0762
   33.090    3.0235
   33.105    3.1385
   33.120    3.1148
   33.135    3.1367
   33.150    3.1657
   33.165    3.2403
   33.180    3.0920
   33.195    3.0683
   33.210    3.1560
   33.225    3.1078
   33.240    3.0411
   33.255    2.9981
   33.270    2.9287
   33.285    2.8296
   33.300    2.8585
   33.315    2.8866
   33.330    2.8383
   33.345    2.8269
   33.360    2.8348
   33.375    2.8515
   33.390    2.8840
   33.405    2.9033
   33.420    2.8559
   33.435    2.8427
   33.450    2.8252
   33.465    2.8489
   33.480    2.8936
   33.495    2.8743
   33.510    2.8945
   33.525    2.9191
   33.540    2.8989
   33.555    2.9428
   33.570    2.9410
   33.585    2.9998
   33.600    2.9024
   33.615    2.8910
   33.630    2.8743
   33.645    2.8884
   33.660    2.9287
   33.675    3.0305
   33.690    2.9393
   33.705    2.8024
   33.720    2.8348
   33.735    2.9331
   33.750    2.9015
   33.765    2.8717
   33.780    2.8541
   33.795    2.9507
   33.810    2.9129
   33.825    2.9164
   33.840    2.8673
   33.855    2.9358
   33.870    2.9445
   33.885    2.8778
   33.900    2.9358
   33.915    2.9489
   33.930    2.8629
   33.945    2.8954
   33.960    2.9507
   33.975    2.9191
   33.990    2.9559
   34.005    2.9217
   34.020    2.8559
   34.035    2.8919
   34.050    2.8884
   34.065    2.7848
   34.080    2.8015
   34.095    2.8208
   34.110    2.8287
   34.125    2.8006
   34.140    2.8436
   34.155    2.7769
   34.170    2.8015
   34.185    2.8217
   34.200    2.8103
   34.215    2.7980
   34.230    2.7593
   34.245    2.7866
   34.260    2.7918
   34.275    2.6575
   34.290    2.7585
   34.305    2.7427
   34.320    2.7462
   34.335    2.7251
   34.350    2.7690
   34.365    2.7251
   34.380    2.7120
   34.395    2.6417
   34.410    2.7041
   34.425    2.7848
   34.440    2.7734
   34.455    2.7216
   34.470    2.6997
   34.485    2.7155
   34.500    2.6742
   34.515    2.7672
   34.530    2.7681
   34.545    2.7567
   34.560    2.7672
   34.575    2.7708
   34.590    2.7874
   34.605    2.7699
   34.620    2.7128
   34.635    2.6733
   34.650    2.7444
   34.665    2.7945
   34.680    2.8418
   34.695    2.7558
   34.710    2.8796
   34.725    2.8717
   34.740    2.7760
   34.755    2.7479
   34.770    2.7523
   34.785    2.7497
   34.800    2.7909
   34.815    2.7725
   34.830    2.7918
   34.845    2.7848
   34.860    2.7664
   34.875    2.6839
   34.890    2.7041
   34.905    2.7032
   34.920    2.6926
   34.935    2.6962
   34.950    2.6488
   34.965    2.7251
   34.980    2.7023
   34.995    2.6997
   35.010    2.6918
   35.025    2.7076
   35.040    2.7032
   35.055    2.7190
   35.070    2.7181
   35.085    2.7163
   35.100    2.7532
   35.115    2.7655
   35.130    2.7620
   35.145    2.7514
   35.160    2.7804
   35.175    2.7839
   35.190    2.7593
   35.205    2.7444
   35.220    2.7681
   35.235    2.8067
   35.250    2.6918
   35.265    2.7383
   35.280    2.7120
   35.295    2.6751
   35.310    2.6268
   35.325    2.6575
   35.340    2.5864
   35.355    2.7321
   35.370    2.7286
   35.385    2.7330
   35.400    2.7032
   35.415    2.6970
   35.430    2.6470
   35.445    2.6496
   35.460    2.6970
   35.475    2.6681
   35.490    2.7190
   35.505    2.7392
   35.520    2.7032
   35.535    2.6549
   35.550    2.6242
   35.565    2.6365
   35.580    2.5733
   35.595    2.5654
   35.610    2.6259
   35.625    2.6075
   35.640    2.6514
   35.655    2.6110
   35.670    2.6374
   35.685    2.6953
   35.700    2.6514
   35.715    2.6084
   35.730    2.7444
   35.745    2.6970
   35.760    2.7321
   35.775    2.7120
   35.790    2.6979
   35.805    2.6988
   35.820    2.7725
   35.835    2.6883
   35.850    2.8243
   35.865    2.8401
   35.880    2.7453
   35.895    2.8129
   35.910    2.7348
   35.925    2.6900
   35.940    2.6725
   35.955    2.6839
   35.970    2.6725
   35.985    2.6110
   36.000    2.6391
   36.015    2.5733
   36.030    2.6093
   36.045    2.5636
   36.060    2.5952
   36.075    2.5759
   36.090    2.5382
   36.105    2.5101
   36.120    2.6242
   36.135    2.5285
   36.150    2.5452
   36.165    2.6426
   36.180    2.5926
   36.195    2.6804
   36.210    2.6619
   36.225    2.6321
   36.240    2.6593
   36.255    2.6575
   36.270    2.7032
   36.285    2.6926
   36.300    2.7348
   36.315    2.6935
   36.330    2.6865
   36.345    2.6540
   36.360    2.5496
   36.375    2.5873
   36.390    2.6523
   36.405    2.5794
   36.420    2.5180
   36.435    2.5154
   36.450    2.5312
   36.465    2.5742
   36.480    2.5478
   36.495    2.5426
   36.510    2.5303
   36.525    2.5268
   36.540    2.5057
   36.555    2.5592
   36.570    2.5557
   36.585    2.5935
   36.600    2.5970
   36.615    2.5917
   36.630    2.5689
   36.645    2.5250
   36.660    2.6145
   36.675    2.5443
   36.690    2.5452
   36.705    2.5575
   36.720    2.6110
   36.735    2.6163
   36.750    2.6189
   36.765    2.5847
   36.780    2.5057
   36.795    2.5970
   36.810    2.6031
   36.825    2.5320
   36.840    2.5364
   36.855    2.5663
   36.870    2.5487
   36.885    2.4750
   36.900    2.5452
   36.915    2.5803
   36.930    2.4978
   36.945    2.4820
   36.960    2.5101
   36.975    2.4741
   36.990    2.5197
   37.005    2.5707
   37.020    2.5715
   37.035    2.5549
   37.050    2.5557
   37.065    2.6610
   37.080    2.6883
   37.095    2.6716
   37.110    2.6479
   37.125    2.6874
   37.140    2.6979
   37.155    2.6400
   37.170    2.6330
   37.185    2.6567
   37.200    2.6725
   37.215    2.7128
   37.230    2.6628
   37.245    2.5908
   37.260    2.6075
   37.275    2.6014
   37.290    2.5083
   37.305    2.5039
   37.320    2.5048
   37.335    2.5312
   37.350    2.5303
   37.365    2.5654
   37.380    2.4504
   37.395    2.5136
   37.410    2.5566
   37.425    2.5391
   37.440    2.5434
   37.455    2.6101
   37.470    2.5478
   37.485    2.5066
   37.500    2.5821
   37.515    2.5557
   37.530    2.6022
   37.545    2.5873
   37.560    2.6409
   37.575    2.6681
   37.590    2.6180
   37.605    2.5434
   37.620    2.5952
   37.635    2.5707
   37.650    2.5250
   37.665    2.5154
   37.680    2.5276
   37.695    2.5004
   37.710    2.4767
   37.725    2.4811
   37.740    2.5373
   37.755    2.4811
   37.770    2.4759
   37.785    2.4855
   37.800    2.4908
   37.815    2.4820
   37.830    2.4337
   37.845    2.4785
   37.860    2.4864
   37.875    2.4671
   37.890    2.4952
   37.905    2.4882
   37.920    2.4557
   37.935    2.4285
   37.950    2.4381
   37.965    2.4609
   37.980    2.4408
   37.995    2.4530
   38.010    2.4759
   38.025    2.4724
   38.040    2.4337
   38.055    2.4566
   38.070    2.4355
   38.085    2.4767
   38.100    2.4408
   38.115    2.4381
   38.130    2.4408
   38.145    2.4996
   38.160    2.4908
   38.175    2.4609
   38.190    2.4408
   38.205    2.3934
   38.220    2.4627
   38.235    2.4732
   38.250    2.4776
   38.265    2.4530
   38.280    2.5145
   38.295    2.4697
   38.310    2.4996
   38.325    2.5276
   38.340    2.5364
   38.355    2.5636
   38.370    2.4969
   38.385    2.5136
   38.400    2.5601
   38.415    2.5786
   38.430    2.6014
   38.445    2.5610
   38.460    2.5943
   38.475    2.6075
   38.490    2.5698
   38.505    2.5057
   38.520    2.5347
   38.535    2.5610
   38.550    2.5408
   38.565    2.4381
   38.580    2.4179
   38.595    2.4653
   38.610    2.4855
   38.625    2.4688
   38.640    2.4118
   38.655    2.4662
   38.670    2.4513
   38.685    2.4601
   38.700    2.4706
   38.715    2.5066
   38.730    2.5540
   38.745    2.4811
   38.760    2.5083
   38.775    2.4838
   38.790    2.4478
   38.805    2.5338
   38.820    2.4706
   38.835    2.4811
   38.850    2.5408
   38.865    2.4969
   38.880    2.5338
   38.895    2.5083
   38.910    2.4522
   38.925    2.4285
   38.940    2.4987
   38.955    2.4276
   38.970    2.4460
   38.985    2.5171
   39.000    2.5031
   39.015    2.4513
   39.030    2.4346
   39.045    2.5452
   39.060    2.4320
   39.075    2.4469
   39.090    2.4653
   39.105    2.4767
   39.120    2.4829
   39.135    2.4487
   39.150    2.4083
   39.165    2.4232
   39.180    2.4162
   39.195    2.5171
   39.210    2.4100
   39.225    2.4574
   39.240    2.4899
   39.255    2.4513
   39.270    2.4346
   39.285    2.5434
   39.300    2.4609
   39.315    2.4504
   39.330    2.5312
   39.345    2.4136
   39.360    2.4144
   39.375    2.4311
   39.390    2.4697
   39.405    2.5189
   39.420    2.4855
   39.435    2.4776
   39.450    2.4890
   39.465    2.4890
   39.480    2.5197
   39.495    2.5382
   39.510    2.5566
   39.525    2.6031
   39.540    2.5856
   39.555    2.5636
   39.570    2.6066
   39.585    2.5127
   39.600    2.5707
   39.615    2.6725
   39.630    2.6198
   39.645    2.6830
   39.660    2.6119
   39.675    2.5417
   39.690    2.5750
   39.705    2.6453
   39.720    2.5707
   39.735    2.4873
   39.750    2.5154
   39.765    2.4285
   39.780    2.4285
   39.795    2.4434
   39.810    2.4653
   39.825    2.3784
   39.840    2.4267
   39.855    2.4592
   39.870    2.4416
   39.885    2.3925
   39.900    2.4522
   39.915    2.4048
   39.930    2.4004
   39.945    2.4057
   39.960    2.3899
   39.975    2.4083
   39.990    2.4495
