    1.500   19.0100
    1.515   18.9573
    1.530   19.0521
    1.545   18.2412
    1.560   17.9358
    1.575   17.8936
    1.590   17.2091
    1.605   16.4824
    1.620   16.5350
    1.635   16.6930
    1.650   15.8189
    1.665   16.8510
    1.680   16.4613
    1.695   15.7346
    1.710   15.5977
    1.725   14.9447
    1.740   14.9342
    1.755   15.0184
    1.770   14.5972
    1.785   14.5445
    1.800   14.2075
    1.815   13.9968
    1.830   13.8178
    1.845   13.4702
    1.860   13.5756
    1.875   14.1548
    1.890   13.5124
    1.905   13.1016
    1.920   13.4913
    1.935   12.8699
    1.950   13.1964
    1.965   13.2175
    1.980   12.8910
    1.995   12.7962
    2.010   12.6698
    2.025   12.2801
    2.040   12.3117
    2.055   12.2907
    2.070   11.4060
    2.085   11.3533
    2.100   11.8378
    2.115   11.9221
    2.130   11.9326
    2.145   11.2691
    2.160   11.1427
    2.175   11.8378
    2.190   11.4692
    2.205   11.4587
    2.220   11.3323
    2.235   11.1322
    2.250   10.8057
    2.265   10.8057
    2.280   11.2270
    2.295   10.4687
    2.310   10.3739
    2.325   10.1948
    2.340   10.9742
    2.355   10.9215
    2.370   10.9953
    2.385   10.3844
    2.400   10.9847
    2.415   10.8268
    2.430   10.6372
    2.445   10.9426
    2.460   10.6793
    2.475   10.3212
    2.490   11.2691
    2.505   10.9953
    2.520   10.3949
    2.535   10.4160
    2.550   10.3949
    2.565   10.2264
    2.580    9.8157
    2.595   10.7952
    2.610    9.7946
    2.625    9.8999
    2.640   10.0790
    2.655   10.8373
    2.670    9.9737
    2.685   10.0158
    2.700   10.1843
    2.715    9.6577
    2.730    9.7314
    2.745   10.5319
    2.760   10.0685
    2.775   10.0790
    2.790    9.7209
    2.805    9.8578
    2.820   10.1106
    2.835   10.3107
    2.850   10.0895
    2.865    9.8052
    2.880    9.4471
    2.895    9.2996
    2.910    9.4681
    2.925    9.9315
    2.940    9.8578
    2.955    9.7525
    2.970    9.5629
    2.985    9.3839
    3.000   10.1106
    3.015   10.1948
    3.030    9.9210
    3.045   10.3212
    3.060    9.6472
    3.075   10.0685
    3.090   10.0053
    3.105    9.9421
    3.120   10.0895
    3.135    9.6998
    3.150    9.9526
    3.165   10.3107
    3.180    9.9631
    3.195    9.9421
    3.210    9.8473
    3.225   10.0158
    3.240   10.2159
    3.255   10.3002
    3.270   10.2580
    3.285   10.3107
    3.300   10.3002
    3.315   10.7425
    3.330   11.0163
    3.345   10.7952
    3.360   10.3002
    3.375   10.3528
    3.390   10.6477
    3.405   10.7425
    3.420   10.7636
    3.435   11.3744
    3.450   11.0795
    3.465   10.9005
    3.480   10.7530
    3.495   11.3217
    3.510   11.5113
    3.525   11.6377
    3.540   11.6693
    3.555   11.3112
    3.570   11.1954
    3.585   11.4481
    3.600   11.7641
    3.615   11.7746
    3.630   11.8905
    3.645   12.1116
    3.660   11.9642
    3.675   12.3117
    3.690   13.1859
    3.705   13.1543
    3.720   13.5334
    3.735   13.1016
    3.750   13.1754
    3.765   13.7335
    3.780   13.7862
    3.795   14.8394
    3.810   16.3665
    3.825   17.2512
    3.840   18.8942
    3.855   20.1790
    3.870   20.6214
    3.885   19.0311
    3.900   17.2617
    3.915   14.6603
    3.930   12.3223
    3.945    9.9421
    3.960    9.5945
    3.975    8.8468
    3.990    8.9731
    4.005    8.3728
    4.020    8.4676
    4.035    8.5624
    4.050    9.0469
    4.065    8.9415
    4.080    8.2043
    4.095    8.2464
    4.110    8.4571
    4.125    8.6256
    4.140    8.3623
    4.155    8.2780
    4.170    8.2464
    4.185    8.4466
    4.200    8.3518
    4.215    8.3939
    4.230    8.4150
    4.245    8.3096
    4.260    8.3412
    4.275    8.2886
    4.290    8.3518
    4.305    8.7730
    4.320    8.6045
    4.335    8.1306
    4.350    8.6783
    4.365    8.7309
    4.380    8.5097
    4.395    8.4992
    4.410    8.5413
    4.425    8.4360
    4.440    8.4360
    4.455    8.1727
    4.470    8.1622
    4.485    8.3623
    4.500    8.5203
    4.515    8.6256
    4.530    8.6572
    4.545    8.6151
    4.560    8.5624
    4.575    8.4887
    4.590    7.8778
    4.605    8.1306
    4.620    8.3834
    4.635    8.1201
    4.650    8.5203
    4.665    8.4571
    4.680    8.2886
    4.695    8.1622
    4.710    8.3518
    4.725    8.4571
    4.740    8.3307
    4.755    8.2254
    4.770    8.1938
    4.785    8.4992
    4.800    8.0569
    4.815    8.2780
    4.830    8.3096
    4.845    8.7730
    4.860    8.4466
    4.875    8.6361
    4.890    8.1938
    4.905    8.1517
    4.920    8.5203
    4.935    8.8152
    4.950    8.2886
    4.965    8.1201
    4.980    8.5097
    4.995    8.7520
    5.010    8.4044
    5.025    8.7730
    5.040    8.8889
    5.055    8.5203
    5.070    8.5729
    5.085    8.7520
    5.100    8.7941
    5.115    8.5519
    5.130    8.6572
    5.145    8.6151
    5.160    8.7730
    5.175    8.5729
    5.190    8.7730
    5.205    8.6467
    5.220    8.4676
    5.235    8.5729
    5.250    8.8046
    5.265    8.9205
    5.280    8.6572
    5.295    9.3102
    5.310    8.9205
    5.325    9.1943
    5.340    9.5735
    5.355    9.5945
    5.370    9.1206
    5.385    9.1311
    5.400    9.5208
    5.415   10.1422
    5.430   10.0158
    5.445   10.6372
    5.460   10.9953
    5.475   11.5956
    5.490   11.4903
    5.505   11.5534
    5.520   11.5956
    5.535   10.9426
    5.550    9.5313
    5.565    8.8257
    5.580    8.0253
    5.595    7.7304
    5.610    7.6461
    5.625    7.7199
    5.640    8.0147
    5.655    8.0779
    5.670    8.0990
    5.685    8.4676
    5.700    8.2570
    5.715    7.9305
    5.730    7.9410
    5.745    7.9831
    5.760    8.2886
    5.775    7.7936
    5.790    7.8146
    5.805    8.7098
    5.820    8.2043
    5.835    8.0674
    5.850    8.4255
    5.865    8.0779
    5.880    7.9937
    5.895    8.1727
    5.910    7.8884
    5.925    8.0147
    5.940    8.3728
    5.955    8.1411
    5.970    8.0674
    5.985    7.9410
    6.000    7.8989
    6.015    8.1517
    6.030    7.6251
    6.045    7.6251
    6.060    7.7725
    6.075    8.0779
    6.090    7.9726
    6.105    8.2886
    6.120    7.8673
    6.135    8.3518
    6.150    7.9831
    6.165    7.8989
    6.180    8.2254
    6.195    8.1833
    6.210    8.0779
    6.225    7.8989
    6.240    7.9410
    6.255    8.3412
    6.270    8.3518
    6.285    7.5303
    6.300    8.1727
    6.315    7.8778
    6.330    8.4255
    6.345    8.1411
    6.360    8.2991
    6.375    8.5413
    6.390    8.6993
    6.405    8.2675
    6.420    8.3518
    6.435    8.1517
    6.450    8.2886
    6.465    8.2780
    6.480    7.9516
    6.495    7.7199
    6.510    8.2254
    6.525    8.0147
    6.540    8.1833
    6.555    8.4360
    6.570    8.8046
    6.585    8.2991
    6.600    8.4781
    6.615    8.4255
    6.630    8.5519
    6.645    8.3307
    6.660    8.2570
    6.675    8.8152
    6.690    8.8257
    6.705    9.6788
    6.720    9.3628
    6.735    8.8152
    6.750    8.5413
    6.765    8.3623
    6.780    8.7520
    6.795    8.6572
    6.810    7.9831
    6.825    8.3412
    6.840    8.3623
    6.855    8.1411
    6.870    8.2991
    6.885    7.8146
    6.900    8.3202
    6.915    7.6567
    6.930    7.7620
    6.945    7.8778
    6.960    8.1517
    6.975    8.2780
    6.990    8.1727
    7.005    8.2886
    7.020    8.1517
    7.035    8.0147
    7.050    8.0990
    7.065    8.2149
    7.080    8.2464
    7.095    7.9726
    7.110    8.3412
    7.125    8.2254
    7.140    8.3623
    7.155    7.9200
    7.170    8.0885
    7.185    8.0358
    7.200    7.7830
    7.215    8.3518
    7.230    7.9831
    7.245    8.0147
    7.260    8.6045
    7.275    8.3096
    7.290    8.0779
    7.305    8.0990
    7.320    8.2043
    7.335    8.3834
    7.350    8.0463
    7.365    7.9621
    7.380    8.1938
    7.395    8.2043
    7.410    8.2675
    7.425    8.1201
    7.440    8.4466
    7.455    8.2043
    7.470    8.2675
    7.485    8.7098
    7.500    8.3728
    7.515    7.8884
    7.530    8.3623
    7.545    8.1095
    7.560    8.2570
    7.575    7.9094
    7.590    8.2886
    7.605    8.3202
    7.620    8.3096
    7.635    8.3307
    7.650    8.4360
    7.665    8.4466
    7.680    9.0363
    7.695    8.8784
    7.710    8.9415
    7.725    8.4992
    7.740    8.9310
    7.755    8.8152
    7.770    9.1101
    7.785    9.0679
    7.800    9.1627
    7.815    9.0363
    7.830    8.5519
    7.845    8.6888
    7.860    8.1411
    7.875    8.2570
    7.890    8.6256
    7.905    8.3939
    7.920    8.2675
    7.935    8.2675
    7.950    8.3834
    7.965    8.7730
    7.980    8.2043
    7.995    7.6251
    8.010    8.0569
    8.025    8.3728
    8.040    8.2991
    8.055    8.1833
    8.070    8.4676
    8.085    8.1095
    8.100    7.8462
    8.115    8.3939
    8.130    8.4781
    8.145    8.1833
    8.160    8.1411
    8.175    8.2149
    8.190    8.3518
    8.205    7.9831
    8.220    8.1411
    8.235    8.9731
    8.250    8.3518
    8.265    7.7199
    8.280    7.8146
    8.295    8.3307
    8.310    7.9094
    8.325    8.6572
    8.340    8.5624
    8.355    7.9937
    8.370    8.3728
    8.385    8.2991
    8.400    8.1306
    8.415    8.2780
    8.430    8.0463
    8.445    8.4360
    8.460    8.4044
    8.475    8.2043
    8.490    8.4676
    8.505    8.4255
    8.520    8.9521
    8.535    8.0779
    8.550    8.2464
    8.565    8.7520
    8.580    8.8362
    8.595    8.7941
    8.610    8.7414
    8.625    8.5308
    8.640    8.8678
    8.655    8.4044
    8.670    8.4571
    8.685    8.5624
    8.700    8.6888
    8.715    8.9626
    8.730    8.3202
    8.745    8.6045
    8.760    8.7625
    8.775    8.6151
    8.790    8.1938
    8.805    8.7520
    8.820    8.8468
    8.835    8.5624
    8.850    8.7625
    8.865    8.9310
    8.880    9.2996
    8.895    9.0574
    8.910    8.3096
    8.925    8.5835
    8.940    8.0779
    8.955    8.1411
    8.970    8.2464
    8.985    8.6677
    9.000    8.6045
    9.015    8.6677
    9.030    8.5624
    9.045    8.3623
    9.060    8.0885
    9.075    7.9305
    9.090    8.2886
    9.105    8.6361
    9.120    8.4466
    9.135    8.6361
    9.150    7.9305
    9.165    8.0885
    9.180    8.5729
    9.195    8.7204
    9.210    8.3939
    9.225    8.5097
    9.240    8.7625
    9.255    8.8468
    9.270    8.8994
    9.285    8.7098
    9.300    7.9621
    9.315    8.5940
    9.330    8.8784
    9.345    8.7730
    9.360    8.8152
    9.375    8.7414
    9.390    8.8889
    9.405    9.3312
    9.420    9.1522
    9.435    9.4155
    9.450    9.2680
    9.465    9.4155
    9.480    9.6051
    9.495    9.5524
    9.510    9.6472
    9.525    9.8578
    9.540    9.8262
    9.555   10.5424
    9.570   10.1211
    9.585    9.8578
    9.600    8.9942
    9.615    8.4992
    9.630    8.5308
    9.645    8.4781
    9.660    8.4571
    9.675    8.6888
    9.690    8.5624
    9.705    8.4992
    9.720    8.5413
    9.735    8.7625
    9.750    8.5519
    9.765    7.9094
    9.780    8.4255
    9.795    8.9100
    9.810    8.6045
    9.825    8.5940
    9.840    8.1622
    9.855    8.4360
    9.870    8.9731
    9.885    8.8468
    9.900    8.3518
    9.915    8.1833
    9.930    8.2570
    9.945    8.7414
    9.960    8.4992
    9.975    8.4992
    9.990    8.4466
   10.005    8.3307
   10.020    8.3518
   10.035    8.8046
   10.050    8.7730
   10.065    8.4676
   10.080    8.5519
   10.095    8.4255
   10.110    8.0885
   10.125    8.4781
   10.140    8.8678
   10.155    8.2780
   10.170    8.7414
   10.185    8.7520
   10.200    8.4571
   10.215    8.4360
   10.230    8.3202
   10.245    8.8257
   10.260    9.1838
   10.275    8.8362
   10.290    8.7730
   10.305    9.1522
   10.320    9.2364
   10.335    9.0047
   10.350    8.7098
   10.365    8.9100
   10.380    8.8889
   10.395    8.9100
   10.410    8.8889
   10.425    8.3518
   10.440    8.7941
   10.455    8.3096
   10.470    8.8994
   10.485    8.5203
   10.500    8.7309
   10.515    8.4887
   10.530    8.3202
   10.545    8.6467
   10.560    8.8152
   10.575    8.2780
   10.590    8.1938
   10.605    8.4781
   10.620    8.7098
   10.635    8.3202
   10.650    8.3623
   10.665    8.0779
   10.680    8.1622
   10.695    8.2675
   10.710    8.9521
   10.725    8.8573
   10.740    8.4992
   10.755    8.5203
   10.770    8.6151
   10.785    8.2991
   10.800    8.3518
   10.815    8.2464
   10.830    7.8989
   10.845    7.9516
   10.860    8.2464
   10.875    8.2359
   10.890    8.4466
   10.905    8.6993
   10.920    8.1095
   10.935    8.1622
   10.950    8.1095
   10.965    8.2570
   10.980    8.5729
   10.995    8.7098
   11.010    8.6783
   11.025    8.7625
   11.040    8.8994
   11.055    8.6151
   11.070    8.7836
   11.085    8.2464
   11.100    7.8673
   11.115    8.4150
   11.130    8.3307
   11.145    8.3307
   11.160    8.3096
   11.175    8.0358
   11.190    8.4466
   11.205    8.1095
   11.220    8.2359
   11.235    7.8673
   11.250    8.1306
   11.265    8.2780
   11.280    8.2886
   11.295    7.9200
   11.310    8.2991
   11.325    8.2149
   11.340    7.8357
   11.355    8.0569
   11.370    7.8778
   11.385    8.4044
   11.400    8.1833
   11.415    8.3939
   11.430    8.2254
   11.445    8.3096
   11.460    8.3202
   11.475    8.3412
   11.490    8.4255
   11.505    8.2149
   11.520    8.0779
   11.535    8.2570
   11.550    8.5097
   11.565    8.4150
   11.580    8.2254
   11.595    8.4992
   11.610    8.4781
   11.625    8.4676
   11.640    7.7936
   11.655    8.3202
   11.670    8.4044
   11.685    8.5519
   11.700    8.9415
   11.715    8.5624
   11.730    8.6256
   11.745    8.0779
   11.760    8.2675
   11.775    7.6145
   11.790    8.0042
   11.805    8.0463
   11.820    8.2254
   11.835    8.0885
   11.850    8.4992
   11.865    8.2464
   11.880    8.3412
   11.895    7.8989
   11.910    7.5935
   11.925    8.2043
   11.940    8.4887
   11.955    8.2359
   11.970    8.1201
   11.985    8.7309
   12.000    8.3518
   12.015    8.2464
   12.030    8.1517
   12.045    8.1095
   12.060    7.9516
   12.075    7.9726
   12.090    8.2780
   12.105    8.2886
   12.120    8.4887
   12.135    8.1095
   12.150    8.1095
   12.165    8.4360
   12.180    7.8568
   12.195    7.6883
   12.210    7.8568
   12.225    8.0147
   12.240    7.7409
   12.255    7.8462
   12.270    8.0253
   12.285    7.8462
   12.300    7.7936
   12.315    7.9410
   12.330    8.1938
   12.345    8.4887
   12.360    8.1201
   12.375    8.0569
   12.390    8.5519
   12.405    8.5940
   12.420    8.0990
   12.435    7.8884
   12.450    8.0463
   12.465    7.6040
   12.480    7.5303
   12.495    7.8462
   12.510    8.0042
   12.525    8.4781
   12.540    7.6040
   12.555    7.5935
   12.570    7.9305
   12.585    8.0253
   12.600    8.1411
   12.615    7.8146
   12.630    7.9831
   12.645    7.8568
   12.660    7.8673
   12.675    7.8462
   12.690    8.1306
   12.705    8.2359
   12.720    8.3518
   12.735    8.2780
   12.750    7.8568
   12.765    8.4887
   12.780    7.9621
   12.795    8.0463
   12.810    8.0042
   12.825    8.1306
   12.840    8.0674
   12.855    8.0990
   12.870    8.2675
   12.885    8.0885
   12.900    8.2149
   12.915    8.2359
   12.930    8.3202
   12.945    8.0990
   12.960    8.2780
   12.975    7.9410
   12.990    7.9305
   13.005    8.1306
   13.020    8.0885
   13.035    8.3939
   13.050    8.0358
   13.065    7.5935
   13.080    7.6040
   13.095    8.0674
   13.110    8.0569
   13.125    7.8041
   13.140    8.1411
   13.155    8.1411
   13.170    8.1727
   13.185    7.6356
   13.200    7.7093
   13.215    8.0147
   13.230    7.9200
   13.245    7.6251
   13.260    8.0463
   13.275    7.8884
   13.290    7.8146
   13.305    8.0463
   13.320    8.2359
   13.335    8.1411
   13.350    8.1095
   13.365    8.1306
   13.380    7.6040
   13.395    7.7514
   13.410    7.7725
   13.425    8.0674
   13.440    8.0990
   13.455    7.6567
   13.470    8.0463
   13.485    7.7514
   13.500    8.1411
   13.515    7.9094
   13.530    8.0885
   13.545    7.9726
   13.560    7.9305
   13.575    7.9937
   13.590    7.9621
   13.605    8.0042
   13.620    8.1517
   13.635    8.0253
   13.650    8.1306
   13.665    8.2043
   13.680    7.8673
   13.695    7.9516
   13.710    7.8673
   13.725    7.8673
   13.740    7.8146
   13.755    7.4776
   13.770    7.7093
   13.785    8.3518
   13.800    8.1201
   13.815    8.1201
   13.830    8.1201
   13.845    7.6988
   13.860    7.5829
   13.875    7.3934
   13.890    7.4144
   13.905    7.9094
   13.920    8.3834
   13.935    8.2254
   13.950    8.0147
   13.965    7.8778
   13.980    8.0569
   13.995    8.5203
   14.010    8.2043
   14.025    7.9200
   14.040    8.4992
   14.055    8.0779
   14.070    7.9831
   14.085    8.0463
   14.100    8.3834
   14.115    8.4992
   14.130    7.8146
   14.145    7.4250
   14.160    7.7830
   14.175    7.7304
   14.190    7.9937
   14.205    8.0253
   14.220    7.7620
   14.235    7.7830
   14.250    8.1727
   14.265    7.9726
   14.280    7.8357
   14.295    7.8568
   14.310    7.5197
   14.325    8.0569
   14.340    7.7620
   14.355    7.8041
   14.370    7.9621
   14.385    7.8778
   14.400    7.6040
   14.415    7.6672
   14.430    7.6040
   14.445    7.8252
   14.460    7.8884
   14.475    8.0147
   14.490    7.7199
   14.505    7.7936
   14.520    7.8041
   14.535    7.7199
   14.550    7.9726
   14.565    8.3096
   14.580    7.9726
   14.595    8.0463
   14.610    8.0042
   14.625    8.0779
   14.640    7.7409
   14.655    7.7620
   14.670    7.5935
   14.685    8.0674
   14.700    8.0042
   14.715    8.0569
   14.730    8.3096
   14.745    7.8357
   14.760    7.7514
   14.775    7.4250
   14.790    7.9621
   14.805    7.8252
   14.820    7.8568
   14.835    8.1833
   14.850    7.9410
   14.865    7.8989
   14.880    7.9200
   14.895    7.8568
   14.910    7.7725
   14.925    7.2775
   14.940    7.4671
   14.955    7.7620
   14.970    8.1517
   14.985    8.0569
   15.000    7.8146
   15.015    7.9621
   15.030    7.6461
   15.045    7.7936
   15.060    7.7620
   15.075    8.0885
   15.090    7.8146
   15.105    8.2991
   15.120    8.4360
   15.135    8.2464
   15.150    7.8041
   15.165    7.7409
   15.180    7.5513
   15.195    7.9726
   15.210    7.7093
   15.225    7.3934
   15.240    7.7093
   15.255    7.6777
   15.270    7.7093
   15.285    8.0147
   15.300    7.8673
   15.315    8.0253
   15.330    7.8884
   15.345    7.6040
   15.360    8.0779
   15.375    7.9621
   15.390    7.9726
   15.405    7.6988
   15.420    7.6251
   15.435    7.8884
   15.450    8.1095
   15.465    8.7414
   15.480    8.1622
   15.495    7.9621
   15.510    7.5197
   15.525    8.2149
   15.540    8.0779
   15.555    8.1938
   15.570    8.4571
   15.585    7.8673
   15.600    8.0463
   15.615    8.3728
   15.630    8.0779
   15.645    8.0358
   15.660    8.0674
   15.675    8.2780
   15.690    8.1727
   15.705    8.1938
   15.720    8.4360
   15.735    8.4466
   15.750    8.6572
   15.765    8.6467
   15.780    8.9100
   15.795    8.2254
   15.810    8.8678
   15.825    8.8257
   15.840    8.7730
   15.855    8.9731
   15.870    8.9942
   15.885    8.6467
   15.900    8.9415
   15.915    9.0679
   15.930    8.7309
   15.945    9.2786
   15.960    9.3628
   15.975    9.4260
   15.990    9.4155
   16.005    9.4471
   16.020    9.5840
   16.035    9.7104
   16.050    9.6788
   16.065    9.6261
   16.080    9.4471
   16.095    9.8473
   16.110    9.6472
   16.125    9.4576
   16.140    9.7209
   16.155    9.9105
   16.170    9.8368
   16.185    9.7630
   16.200   10.0053
   16.215    9.5524
   16.230    9.5313
   16.245    9.1627
   16.260    9.9315
   16.275    9.9421
   16.290    9.4892
   16.305    9.1838
   16.320    9.4155
   16.335    9.0574
   16.350    8.8678
   16.365    8.8468
   16.380    9.0574
   16.395    9.2786
   16.410    8.9310
   16.425    8.9942
   16.440    8.5835
   16.455    8.6572
   16.470    8.6993
   16.485    8.7309
   16.500    8.7520
   16.515    8.1727
   16.530    8.4676
   16.545    8.5624
   16.560    8.1938
   16.575    8.9100
   16.590    8.8468
   16.605    8.6361
   16.620    8.2886
   16.635    8.5940
   16.650    8.5097
   16.665    8.3307
   16.680    7.5092
   16.695    8.1201
   16.710    8.4571
   16.725    8.9205
   16.740    8.4255
   16.755    8.3939
   16.770    8.6256
   16.785    8.1306
   16.800    8.3307
   16.815    8.0147
   16.830    8.1833
   16.845    8.6256
   16.860    8.2675
   16.875    7.8357
   16.890    7.6356
   16.905    8.0253
   16.920    8.1095
   16.935    8.1095
   16.950    8.0885
   16.965    8.4887
   16.980    8.2675
   16.995    8.4781
   17.010    8.5729
   17.025    8.2780
   17.040    8.4255
   17.055    8.0674
   17.070    8.1938
   17.085    7.7936
   17.100    8.0147
   17.115    8.2780
   17.130    8.4887
   17.145    8.2570
   17.160    8.5940
   17.175    8.2780
   17.190    7.7936
   17.205    8.0779
   17.220    8.1411
   17.235    7.7830
   17.250    7.7620
   17.265    8.0042
   17.280    8.3202
   17.295    8.4781
   17.310    8.7836
   17.325    8.1306
   17.340    8.0358
   17.355    8.0674
   17.370    7.7936
   17.385    8.0674
   17.400    8.3412
   17.415    8.1095
   17.430    7.7725
   17.445    7.9410
   17.460    7.8041
   17.475    7.7830
   17.490    8.1938
   17.505    8.4887
   17.520    8.0042
   17.535    7.7725
   17.550    8.2254
   17.565    8.2359
   17.580    8.1833
   17.595    8.0147
   17.610    8.2991
   17.625    8.1833
   17.640    8.0569
   17.655    7.6883
   17.670    7.8568
   17.685    8.6888
   17.700    8.6677
   17.715    8.0147
   17.730    7.9831
   17.745    8.4044
   17.760    8.6572
   17.775    8.4360
   17.790    8.6783
   17.805    8.3202
   17.820    8.3412
   17.835    8.1833
   17.850    8.0147
   17.865    8.0779
   17.880    7.5303
   17.895    8.1517
   17.910    8.1938
   17.925    8.1622
   17.940    8.4150
   17.955    8.1938
   17.970    7.9305
   17.985    8.2043
   18.000    8.3939
   18.015    8.6256
   18.030    8.4466
   18.045    7.8673
   18.060    8.0253
   18.075    8.0253
   18.090    7.5935
   18.105    8.0358
   18.120    8.6361
   18.135    8.1517
   18.150    7.9937
   18.165    8.1517
   18.180    8.2149
   18.195    8.1201
   18.210    8.7625
   18.225    7.9516
   18.240    7.8778
   18.255    7.9200
   18.270    8.2464
   18.285    7.8778
   18.300    7.7304
   18.315    7.6988
   18.330    7.9621
   18.345    8.2149
   18.360    8.4044
   18.375    8.2570
   18.390    8.0463
   18.405    8.1517
   18.420    7.8673
   18.435    7.8778
   18.450    8.0042
   18.465    7.7304
   18.480    7.8568
   18.495    8.0358
   18.510    7.8041
   18.525    7.9726
   18.540    8.0358
   18.555    8.1095
   18.570    7.8884
   18.585    8.2886
   18.600    8.2464
   18.615    8.1306
   18.630    8.2043
   18.645    7.9726
   18.660    8.0779
   18.675    8.1095
   18.690    8.0253
   18.705    8.2886
   18.720    8.1833
   18.735    7.8778
   18.750    8.0674
   18.765    7.6988
   18.780    8.1411
   18.795    7.9305
   18.810    8.1201
   18.825    8.2991
   18.840    8.3202
   18.855    8.3096
   18.870    8.2043
   18.885    8.3939
   18.900    8.8046
   18.915    8.5835
   18.930    8.4992
   18.945    8.9837
   18.960    8.7941
   18.975    8.6993
   18.990    9.1943
   19.005    8.4781
   19.020    8.8889
   19.035    8.5519
   19.050    8.2149
   19.065    8.3623
   19.080    8.2043
   19.095    8.2149
   19.110    7.8357
   19.125    8.2464
   19.140    8.0147
   19.155    8.2675
   19.170    8.0358
   19.185    7.8146
   19.200    7.5829
   19.215    7.8778
   19.230    8.2886
   19.245    7.8778
   19.260    7.7936
   19.275    7.9094
   19.290    8.0358
   19.305    7.7620
   19.320    8.1201
   19.335    8.4466
   19.350    8.2675
   19.365    8.0358
   19.380    8.2570
   19.395    7.6777
   19.410    7.9094
   19.425    8.2043
   19.440    8.0147
   19.455    7.8252
   19.470    7.8884
   19.485    7.8146
   19.500    8.1622
   19.515    8.0463
   19.530    7.9410
   19.545    8.3834
   19.560    7.9831
   19.575    7.6567
   19.590    8.2043
   19.605    8.0990
   19.620    8.3202
   19.635    7.9621
   19.650    7.7409
   19.665    7.8673
   19.680    8.0253
   19.695    8.2886
   19.710    8.3096
   19.725    8.3307
   19.740    8.4044
   19.755    7.7514
   19.770    8.0569
   19.785    7.8884
   19.800    7.7409
   19.815    8.3202
   19.830    8.1833
   19.845    8.3202
   19.860    8.1411
   19.875    8.2991
   19.890    8.2359
   19.905    7.6461
   19.920    8.0990
   19.935    8.3939
   19.950    8.3728
   19.965    7.8462
   19.980    8.1201
   19.995    8.4044
   20.010    8.1938
   20.025    8.0358
   20.040    8.0147
   20.055    7.6777
   20.070    7.9200
   20.085    7.7093
   20.100    8.3728
   20.115    8.3834
   20.130    7.8989
   20.145    7.9410
   20.160    8.0147
   20.175    7.4671
   20.190    7.8778
   20.205    8.1306
   20.220    8.3307
   20.235    8.0674
   20.250    7.8568
   20.265    7.5197
   20.280    8.0042
   20.295    7.9516
   20.310    7.7409
   20.325    7.8778
   20.340    7.8884
   20.355    7.9094
   20.370    8.2991
   20.385    8.4150
   20.400    8.3307
   20.415    7.8989
   20.430    8.0463
   20.445    8.0147
   20.460    8.0358
   20.475    8.1411
   20.490    7.6356
   20.505    8.0674
   20.520    7.9726
   20.535    7.6777
   20.550    7.8568
   20.565    7.9621
   20.580    8.0990
   20.595    7.9094
   20.610    7.7514
   20.625    7.7199
   20.640    7.4776
   20.655    7.6461
   20.670    7.8041
   20.685    8.2464
   20.700    7.9094
   20.715    7.8884
   20.730    7.8041
   20.745    8.4992
   20.760    7.8884
   20.775    7.5513
   20.790    8.0042
   20.805    7.8146
   20.820    8.5519
   20.835    8.2675
   20.850    8.1727
   20.865    8.2043
   20.880    7.5513
   20.895    7.5513
   20.910    7.8462
   20.925    7.5829
   20.940    7.6672
   20.955    8.5308
   20.970    8.0253
   20.985    7.8252
   21.000    7.9516
   21.015    7.6883
   21.030    7.9621
   21.045    8.3096
   21.060    7.9831
   21.075    8.0253
   21.090    7.9200
   21.105    8.2570
   21.120    7.8884
   21.135    7.8673
   21.150    8.0253
   21.165    7.7936
   21.180    8.1938
   21.195    8.2043
   21.210    8.2675
   21.225    8.2464
   21.240    7.9410
   21.255    8.2991
   21.270    8.3728
   21.285    8.1833
   21.300    8.2675
   21.315    8.3623
   21.330    8.0463
   21.345    8.0779
   21.360    7.9200
   21.375    7.9621
   21.390    8.0042
   21.405    8.2254
   21.420    8.1095
   21.435    8.1306
   21.450    8.0674
   21.465    8.4360
   21.480    8.4887
   21.495    8.0569
   21.510    8.2675
   21.525    8.3096
   21.540    7.9831
   21.555    7.6988
   21.570    7.6672
   21.585    7.7620
   21.600    8.0569
   21.615    8.1306
   21.630    8.1727
   21.645    8.2464
   21.660    8.5308
   21.675    8.2359
   21.690    8.2675
   21.705    7.8673
   21.720    7.9200
   21.735    8.1306
   21.750    8.2464
   21.765    8.3518
   21.780    8.6572
   21.795    8.2886
   21.810    8.1517
   21.825    8.0885
   21.840    8.5097
   21.855    8.2254
   21.870    8.7309
   21.885    7.7936
   21.900    7.7409
   21.915    7.9621
   21.930    8.4150
   21.945    8.6361
   21.960    8.4044
   21.975    8.0569
   21.990    8.5835
   22.005    8.4150
   22.020    8.4360
   22.035    8.0674
   22.050    8.1622
   22.065    8.4676
   22.080    8.6256
   22.095    7.9726
   22.110    8.0779
   22.125    8.2464
   22.140    8.3939
   22.155    8.4992
   22.170    8.4255
   22.185    8.2043
   22.200    8.6783
   22.215    8.5097
   22.230    7.9516
   22.245    7.9516
   22.260    8.3518
   22.275    8.0463
   22.290    8.2675
   22.305    8.3939
   22.320    8.4887
   22.335    8.3412
   22.350    8.4466
   22.365    8.3623
   22.380    8.3728
   22.395    8.5308
   22.410    8.4150
   22.425    8.1727
   22.440    8.0358
   22.455    8.1517
   22.470    8.1517
   22.485    8.0674
   22.500    8.5940
   22.515    8.6677
   22.530    8.5729
   22.545    8.4044
   22.560    8.5203
   22.575    8.7520
   22.590    8.2886
   22.605    8.2675
   22.620    8.8889
   22.635    8.5413
   22.650    8.4992
   22.665    8.2570
   22.680    8.4466
   22.695    8.2675
   22.710    7.7514
   22.725    8.4255
   22.740    8.2780
   22.755    8.3096
   22.770    8.2780
   22.785    8.6256
   22.800    8.3202
   22.815    8.5308
   22.830    8.2570
   22.845    8.2991
   22.860    8.2991
   22.875    8.7520
   22.890    8.4466
   22.905    8.1727
   22.920    8.4781
   22.935    8.3518
   22.950    8.6256
   22.965    8.0990
   22.980    8.5308
   22.995    8.1411
   23.010    8.2043
   23.025    8.4992
   23.040    8.1201
   23.055    7.8778
   23.070    8.1938
   23.085    8.3412
   23.100    8.4044
   23.115    8.2991
   23.130    8.4044
   23.145    8.4992
   23.160    8.5940
   23.175    8.4150
   23.190    8.7309
   23.205    8.2780
   23.220    8.3096
   23.235    8.4676
   23.250    8.2570
   23.265    7.9410
   23.280    8.2780
   23.295    8.1201
   23.310    8.4150
   23.325    8.0990
   23.340    8.4887
   23.355    8.5729
   23.370    8.4676
   23.385    8.1095
   23.400    7.9200
   23.415    7.8146
   23.430    7.9305
   23.445    8.0358
   23.460    8.6888
   23.475    8.3728
   23.490    8.2780
   23.505    8.0569
   23.520    8.1411
   23.535    8.3096
   23.550    8.5519
   23.565    8.4360
   23.580    8.2359
   23.595    8.4466
   23.610    8.5729
   23.625    8.4360
   23.640    8.2675
   23.655    7.9410
   23.670    8.1306
   23.685    8.1727
   23.700    8.2149
   23.715    7.8673
   23.730    7.8778
   23.745    7.6356
   23.760    7.6356
   23.775    8.0147
   23.790    8.1622
   23.805    8.1938
   23.820    8.4992
   23.835    7.8252
   23.850    8.4466
   23.865    8.1622
   23.880    8.6572
   23.895    8.3728
   23.910    8.2149
   23.925    7.9516
   23.940    8.2675
   23.955    8.0885
   23.970    8.4255
   23.985    8.3412
   24.000    8.0042
   24.015    8.1727
   24.030    8.4150
   24.045    7.8989
   24.060    8.3834
   24.075    8.1938
   24.090    7.9305
   24.105    8.0779
   24.120    7.9410
   24.135    7.6567
   24.150    7.4460
   24.165    7.9094
   24.180    7.9621
   24.195    8.2464
   24.210    8.1095
   24.225    8.2675
   24.240    8.4150
   24.255    8.7204
   24.270    8.0042
   24.285    7.6567
   24.300    7.6988
   24.315    8.0990
   24.330    7.9410
   24.345    8.3202
   24.360    7.8462
   24.375    8.1095
   24.390    7.8357
   24.405    7.6461
   24.420    7.8884
   24.435    8.0042
   24.450    7.7514
   24.465    7.9621
   24.480    8.4360
   24.495    8.3728
   24.510    7.8462
   24.525    8.3939
   24.540    7.8146
   24.555    8.2043
   24.570    7.9410
   24.585    8.0147
   24.600    8.0990
   24.615    7.8146
   24.630    7.9831
   24.645    8.1201
   24.660    8.1833
   24.675    8.1938
   24.690    8.2675
   24.705    8.2254
   24.720    7.9831
   24.735    8.4887
   24.750    8.1833
   24.765    8.2149
   24.780    8.4466
   24.795    8.2254
   24.810    8.2570
   24.825    8.3412
   24.840    8.3202
   24.855    8.2570
   24.870    7.8884
   24.885    7.8989
   24.900    7.8989
   24.915    7.8146
   24.930    8.1622
   24.945    8.4781
   24.960    8.1201
   24.975    7.8462
   24.990    8.1833
   25.005    7.9516
   25.020    8.3096
   25.035    7.6777
   25.050    7.8778
   25.065    8.1622
   25.080    8.0147
   25.095    7.8462
   25.110    8.0885
   25.125    8.4887
   25.140    7.9410
   25.155    8.1938
   25.170    7.5619
   25.185    7.3196
   25.200    8.1306
   25.215    8.2149
   25.230    8.2886
   25.245    8.4676
   25.260    7.9621
   25.275    7.7725
   25.290    8.2570
   25.305    8.1517
   25.320    7.8357
   25.335    7.8673
   25.350    8.2359
   25.365    7.9726
   25.380    7.8884
   25.395    8.2886
   25.410    8.1833
   25.425    8.4044
   25.440    7.8357
   25.455    8.0674
   25.470    7.9621
   25.485    8.0147
   25.500    8.2570
   25.515    8.2570
   25.530    8.0990
   25.545    8.0147
   25.560    7.7304
   25.575    7.6777
   25.590    8.1938
   25.605    7.8568
   25.620    7.8462
   25.635    8.0358
   25.650    7.9305
   25.665    8.1938
   25.680    7.8252
   25.695    7.9094
   25.710    8.5624
   25.725    8.0990
   25.740    7.8989
   25.755    8.3834
   25.770    8.4992
   25.785    8.2570
   25.800    8.0779
   25.815    8.2359
   25.830    8.0147
   25.845    7.9305
   25.860    7.6567
   25.875    8.0779
   25.890    8.1517
   25.905    7.7620
   25.920    7.9831
   25.935    7.8884
   25.950    7.7725
   25.965    8.3096
   25.980    8.0569
   25.995    8.4466
   26.010    7.9621
   26.025    8.1622
   26.040    7.9410
   26.055    8.0147
   26.070    8.0147
   26.085    8.3939
   26.100    8.3307
   26.115    7.8568
   26.130    8.1411
   26.145    7.9621
   26.160    7.7725
   26.175    8.0779
   26.190    8.2254
   26.205    7.8357
   26.220    8.3412
   26.235    8.0779
   26.250    7.8568
   26.265    7.6883
   26.280    8.0358
   26.295    8.1938
   26.310    8.1411
   26.325    7.7830
   26.340    7.5724
   26.355    7.0774
   26.370    7.8673
   26.385    7.9831
   26.400    8.3518
   26.415    8.2359
   26.430    7.6988
   26.445    7.9094
   26.460    7.4882
   26.475    7.8568
   26.490    7.6040
   26.505    7.9621
   26.520    8.2359
   26.535    7.8884
   26.550    7.9937
   26.565    8.0042
   26.580    7.7830
   26.595    8.0358
   26.610    7.9831
   26.625    7.6461
   26.640    7.8884
   26.655    8.1517
   26.670    8.0779
   26.685    7.8989
   26.700    8.0358
   26.715    8.3728
   26.730    7.9831
   26.745    7.8778
   26.760    8.1201
   26.775    7.4987
   26.790    7.5092
   26.805    7.8884
   26.820    7.8673
   26.835    7.9937
   26.850    8.4044
   26.865    8.0253
   26.880    8.1201
   26.895    7.6777
   26.910    7.9726
   26.925    7.7304
   26.940    7.8673
   26.955    7.9516
   26.970    7.8778
   26.985    7.8568
   27.000    7.4987
   27.015    7.3934
   27.030    7.7199
   27.045    8.2254
   27.060    8.0358
   27.075    8.5835
   27.090    8.2991
   27.105    7.9200
   27.120    7.7725
   27.135    7.7409
   27.150    7.5619
   27.165    7.5724
   27.180    7.9937
   27.195    8.0147
   27.210    8.0042
   27.225    8.2675
   27.240    7.8884
   27.255    7.8041
   27.270    7.8357
   27.285    7.3723
   27.300    7.9410
   27.315    8.0042
   27.330    7.5935
   27.345    7.8673
   27.360    8.1095
   27.375    8.4360
   27.390    7.5092
   27.405    7.5513
   27.420    8.0147
   27.435    7.4776
   27.450    7.3723
   27.465    7.4144
   27.480    7.5197
   27.495    8.1306
   27.510    7.8568
   27.525    7.8884
   27.540    8.1833
   27.555    7.9200
   27.570    8.0569
   27.585    7.6145
   27.600    7.8673
   27.615    8.1306
   27.630    7.7725
   27.645    7.9937
   27.660    8.3096
   27.675    7.8778
   27.690    7.9726
   27.705    7.9937
   27.720    7.4566
   27.735    7.6883
   27.750    7.8884
   27.765    8.3202
   27.780    7.8041
   27.795    7.8252
   27.810    8.0463
   27.825    7.7514
   27.840    7.4355
   27.855    8.0569
   27.870    7.9305
   27.885    7.9305
   27.900    7.7725
   27.915    7.7409
   27.930    8.0885
   27.945    8.3728
   27.960    8.5203
   27.975    8.4255
   27.990    8.6677
   28.005    9.0574
   28.020    8.6677
   28.035    8.3623
   28.050    7.9621
   28.065    8.4044
   28.080    8.1095
   28.095    7.9726
   28.110    8.2359
   28.125    8.1517
   28.140    7.8462
   28.155    7.7936
   28.170    7.8568
   28.185    7.7093
   28.200    7.4460
   28.215    7.9410
   28.230    7.5935
   28.245    7.6251
   28.260    7.4776
   28.275    8.0042
   28.290    7.8989
   28.305    7.4671
   28.320    7.9410
   28.335    7.6040
   28.350    8.1306
   28.365    8.0779
   28.380    8.0463
   28.395    7.8041
   28.410    7.9094
   28.425    8.3202
   28.440    8.0253
   28.455    8.1306
   28.470    8.2991
   28.485    8.2570
   28.500    7.9831
   28.515    8.0463
   28.530    7.7620
   28.545    8.0463
   28.560    7.8989
   28.575    7.8462
   28.590    7.7199
   28.605    7.3407
   28.620    7.5513
   28.635    7.6567
   28.650    7.7620
   28.665    7.6145
   28.680    7.8041
   28.695    7.6356
   28.710    7.5408
   28.725    7.8146
   28.740    7.7830
   28.755    7.8989
   28.770    8.0042
   28.785    7.4566
   28.800    7.4250
   28.815    7.6040
   28.830    7.8462
   28.845    8.1517
   28.860    7.8252
   28.875    7.9200
   28.890    8.2570
   28.905    7.9726
   28.920    8.3623
   28.935    8.4676
   28.950    8.4150
   28.965    8.4255
   28.980    8.8994
   28.995    8.2149
   29.010    8.0779
   29.025    7.9937
   29.040    7.9094
   29.055    8.2254
   29.070    8.0042
   29.085    7.8568
   29.100    7.7725
   29.115    7.6251
   29.130    7.7620
   29.145    7.7199
   29.160    7.8884
   29.175    8.0253
   29.190    7.5829
   29.205    7.9516
   29.220    8.0042
   29.235    7.9305
   29.250    7.8462
   29.265    7.5092
   29.280    7.7093
   29.295    7.5513
   29.310    7.0774
   29.325    7.5724
   29.340    7.5935
   29.355    7.5619
   29.370    7.9726
   29.385    7.5829
   29.400    7.9094
   29.415    7.6251
   29.430    7.7199
   29.445    7.6883
   29.460    7.5303
   29.475    7.9200
   29.490    7.6988
   29.505    7.4460
   29.520    7.3723
   29.535    7.6672
   29.550    7.6672
   29.565    7.4882
   29.580    7.2775
   29.595    7.5829
   29.610    7.7514
   29.625    7.7304
   29.640    7.8778
   29.655    8.0253
   29.670    7.6883
   29.685    7.4460
   29.700    7.5197
   29.715    7.5935
   29.730    7.6883
   29.745    7.7199
   29.760    7.5092
   29.775    7.6567
   29.790    7.6777
   29.805    7.5513
   29.820    7.7199
   29.835    7.5092
   29.850    7.4882
   29.865    7.4776
   29.880    7.6461
   29.895    7.6040
   29.910    7.8462
   29.925    7.9831
   29.940    7.8778
   29.955    8.0463
   29.970    8.0674
   29.985    8.0779
   30.000    7.9410
   30.015    7.8568
   30.030    8.0779
   30.045    7.7199
   30.060    7.6356
   30.075    7.6883
   30.090    7.8884
   30.105    7.4144
   30.120    7.3723
   30.135    7.5935
   30.150    7.4671
   30.165    7.5092
   30.180    7.9726
   30.195    7.5092
   30.210    7.6040
   30.225    7.7725
   30.240    7.8041
   30.255    8.2043
   30.270    7.9305
   30.285    7.6883
   30.300    7.7514
   30.315    8.2043
   30.330    8.3307
   30.345    7.7725
   30.360    7.9410
   30.375    7.9200
   30.390    8.0042
   30.405    8.1727
   30.420    7.5935
   30.435    7.9726
   30.450    7.9305
   30.465    7.9094
   30.480    7.5829
   30.495    7.7304
   30.510    7.8357
   30.525    7.8252
   30.540    7.6988
   30.555    8.0779
   30.570    7.7199
   30.585    7.8462
   30.600    7.6567
   30.615    8.1517
   30.630    8.2359
   30.645    7.9516
   30.660    7.8462
   30.675    7.7199
   30.690    7.9516
   30.705    7.5197
   30.720    7.8462
   30.735    7.8989
   30.750    8.1517
   30.765    7.8673
   30.780    8.1095
   30.795    7.8778
   30.810    7.9410
   30.825    7.7409
   30.840    7.6040
   30.855    7.9516
   30.870    8.0569
   30.885    8.0990
   30.900    7.6777
   30.915    7.7514
   30.930    7.8462
   30.945    8.3623
   30.960    8.1517
   30.975    7.3618
   30.990    7.7409
   31.005    8.0147
   31.020    8.0990
   31.035    7.7304
   31.050    7.4987
   31.065    7.7936
   31.080    7.7830
   31.095    7.6040
   31.110    7.6777
   31.125    7.8673
   31.140    7.8884
   31.155    8.1411
   31.170    7.7514
   31.185    7.9305
   31.200    8.2359
   31.215    7.7936
   31.230    7.8357
   31.245    7.8778
   31.260    7.9621
   31.275    8.2254
   31.290    8.1938
   31.305    8.0569
   31.320    7.9726
   31.335    8.0990
   31.350    7.8146
   31.365    7.7093
   31.380    7.9831
   31.395    8.3834
   31.410    7.9410
   31.425    8.3834
   31.440    7.8462
   31.455    7.8884
   31.470    7.5619
   31.485    7.8041
   31.500    8.0779
   31.515    7.8041
   31.530    7.6883
   31.545    7.8146
   31.560    7.6883
   31.575    7.4144
   31.590    7.8462
   31.605    8.2780
   31.620    8.4571
   31.635    8.1517
   31.650    7.4882
   31.665    8.3834
   31.680    8.8994
   31.695    8.5097
   31.710    8.4676
   31.725    8.2991
   31.740    8.6361
   31.755    8.5729
   31.770    8.9521
   31.785    8.6572
   31.800    8.6045
   31.815    8.5835
   31.830    8.4150
   31.845    8.5097
   31.860    8.5203
   31.875    8.5624
   31.890    8.7730
   31.905    8.6467
   31.920    8.4571
   31.935    8.4676
   31.950    8.5413
   31.965    8.7520
   31.980    9.2996
   31.995    9.1627
   32.010    9.1417
   32.025    8.7309
   32.040    9.1732
   32.055    9.6893
   32.070    9.3418
   32.085    9.7841
   32.100    9.5313
   32.115    9.6788
   32.130   10.2370
   32.145    9.5945
   32.160    9.3312
   32.175    9.1417
   32.190    8.9205
   32.205    8.2149
   32.220    7.8884
   32.235    8.1517
   32.250    7.8041
   32.265    7.8041
   32.280    7.8462
   32.295    8.1517
   32.310    7.3934
   32.325    7.8146
   32.340    8.1727
   32.355    7.2670
   32.370    7.6777
   32.385    7.7936
   32.400    7.9094
   32.415    8.1517
   32.430    7.9305
   32.445    8.0569
   32.460    7.6672
   32.475    7.2249
   32.490    7.9200
   32.505    8.3518
   32.520    8.0885
   32.535    7.4882
   32.550    7.9831
   32.565    8.2464
   32.580    7.8146
   32.595    7.9094
   32.610    7.9831
   32.625    7.6040
   32.640    7.6988
   32.655    7.4882
   32.670    7.5408
   32.685    7.5619
   32.700    7.7936
   32.715    7.6461
   32.730    7.8041
   32.745    8.0674
   32.760    7.9937
   32.775    7.2670
   32.790    7.5303
   32.805    7.8778
   32.820    7.6461
   32.835    7.5724
   32.850    7.4671
   32.865    7.6988
   32.880    7.3196
   32.895    7.4250
   32.910    7.3407
   32.925    7.9410
   32.940    8.0042
   32.955    7.9410
   32.970    7.4671
   32.985    7.6040
   33.000    7.0774
   33.015    7.1301
   33.030    7.6461
   33.045    7.8252
   33.060    7.4460
   33.075    7.4039
   33.090    7.6777
   33.105    7.5829
   33.120    7.3618
   33.135    7.2249
   33.150    7.3512
   33.165    7.5197
   33.180    7.2670
   33.195    7.5829
   33.210    7.2670
   33.225    7.3618
   33.240    7.3723
   33.255    7.5408
   33.270    7.5092
   33.285    7.4250
   33.300    7.2565
   33.315    7.7409
   33.330    7.5513
   33.345    7.6251
   33.360    7.0037
   33.375    6.7825
   33.390    7.0563
   33.405    7.4250
   33.420    7.1301
   33.435    6.8246
   33.450    7.5724
   33.465    7.4355
   33.480    7.5303
   33.495    7.2775
   33.510    7.6145
   33.525    7.9831
   33.540    7.2565
   33.555    7.3091
   33.570    7.4987
   33.585    6.9932
   33.600    7.3618
   33.615    7.5408
   33.630    7.4144
   33.645    7.6883
   33.660    7.2880
   33.675    7.3512
   33.690    7.4460
   33.705    7.2354
   33.720    7.4039
   33.735    7.1933
   33.750    7.7093
   33.765    7.7830
   33.780    7.5197
   33.795    7.8041
   33.810    7.9726
   33.825    7.7725
   33.840    7.6356
   33.855    8.0253
   33.870    7.4882
   33.885    7.9516
   33.900    7.5935
   33.915    7.5829
   33.930    7.7514
   33.945    7.6251
   33.960    7.7725
   33.975    7.6883
   33.990    7.6988
   34.005    7.9305
   34.020    7.7725
   34.035    7.7830
   34.050    7.6251
   34.065    7.4987
   34.080    7.1195
   34.095    7.3828
   34.110    7.3828
   34.125    7.5303
   34.140    7.2986
   34.155    7.2986
   34.170    7.5092
   34.185    7.4987
   34.200    7.1195
   34.215    7.5829
   34.230    7.8989
   34.245    7.3091
   34.260    7.2354
   34.275    7.4987
   34.290    7.3934
   34.305    7.2249
   34.320    7.5197
   34.335    7.2565
   34.350    7.3618
   34.365    7.5513
   34.380    7.3618
   34.395    6.9826
   34.410    7.2459
   34.425    7.1617
   34.440    7.2565
   34.455    7.1406
   34.470    7.4566
   34.485    7.6461
   34.500    7.2143
   34.515    7.4566
   34.530    7.3934
   34.545    7.0248
   34.560    7.0879
   34.575    6.9826
   34.590    7.2880
   34.605    7.1090
   34.620    7.1090
   34.635    7.1722
   34.650    7.0037
   34.665    7.3407
   34.680    6.7193
   34.695    6.9089
   34.710    7.2249
   34.725    7.5724
   34.740    6.9932
   34.755    7.3407
   34.770    7.3512
   34.785    6.8984
   34.800    6.9194
   34.815    7.2565
   34.830    7.3407
   34.845    7.6145
   34.860    7.2880
   34.875    6.9826
   34.890    7.1511
   34.905    7.3407
   34.920    7.4776
   34.935    6.8141
   34.950    7.2986
   34.965    7.3618
   34.980    7.1617
   34.995    7.1195
   35.010    7.0458
   35.025    6.8562
   35.040    7.0774
   35.055    6.6983
   35.070    6.8457
   35.085    7.7725
   35.100    7.1301
   35.115    7.0037
   35.130    7.4250
   35.145    7.1195
   35.160    6.8562
   35.175    7.1511
   35.190    7.0353
   35.205    7.0458
   35.220    7.0563
   35.235    7.0985
   35.250    7.1617
   35.265    7.4460
   35.280    7.3407
   35.295    7.2354
   35.310    7.0563
   35.325    7.4460
   35.340    7.5092
   35.355    7.5092
   35.370    7.3723
   35.385    7.2038
   35.400    7.2459
   35.415    7.0037
   35.430    7.0774
   35.445    7.2670
   35.460    7.2565
   35.475    6.5508
   35.490    7.3196
   35.505    7.5408
   35.520    7.1406
   35.535    7.0774
   35.550    7.4355
   35.565    7.3196
   35.580    7.4460
   35.595    7.3934
   35.610    7.4566
   35.625    7.0774
   35.640    7.0563
   35.655    7.1301
   35.670    6.8036
   35.685    7.1933
   35.700    7.0985
   35.715    7.3091
   35.730    7.3723
   35.745    7.0353
   35.760    7.4039
   35.775    7.5619
   35.790    7.2143
   35.805    7.1511
   35.820    6.9300
   35.835    7.0142
   35.850    7.5092
   35.865    7.2565
   35.880    7.1195
   35.895    7.2354
   35.910    7.3934
   35.925    6.6667
   35.940    7.1301
   35.955    7.3934
   35.970    7.4776
   35.985    7.0563
   36.000    6.7930
   36.015    7.1090
   36.030    7.3196
   36.045    7.0879
   36.060    7.3512
   36.075    7.2986
   36.090    6.9510
   36.105    7.3723
   36.120    7.2986
   36.135    6.7825
   36.150    7.0142
   36.165    6.8878
   36.180    7.1511
   36.195    7.0774
   36.210    6.9932
   36.225    6.9616
   36.240    7.3091
   36.255    7.0037
   36.270    7.3723
   36.285    7.4250
   36.300    6.9405
   36.315    7.1406
   36.330    6.8036
   36.345    7.1722
   36.360    7.3407
   36.375    7.1827
   36.390    7.2880
   36.405    7.5619
   36.420    7.2459
   36.435    7.2775
   36.450    7.3091
   36.465    7.1722
   36.480    7.3407
   36.495    7.1090
   36.510    7.2565
   36.525    7.2143
   36.540    6.5719
   36.555    7.1511
   36.570    7.1617
   36.585    7.3512
   36.600    7.1406
   36.615    7.2880
   36.630    7.2775
   36.645    7.0563
   36.660    7.0879
   36.675    7.2249
   36.690    7.3091
   36.705    7.4355
   36.720    7.3302
   36.735    7.0563
   36.750    7.1827
   36.765    6.8984
   36.780    7.1195
   36.795    6.8878
   36.810    6.9932
   36.825    7.0142
   36.840    6.8141
   36.855    7.3196
   36.870    7.2249
   36.885    6.9932
   36.900    7.3196
   36.915    7.3196
   36.930    7.0037
   36.945    7.4460
   36.960    7.1195
   36.975    6.9405
   36.990    7.3828
   37.005    7.1301
   37.020    7.3934
   37.035    7.2565
   37.050    7.1827
   37.065    6.8668
   37.080    7.1722
   37.095    7.2038
   37.110    7.0985
   37.125    7.3091
   37.140    7.6040
   37.155    7.1406
   37.170    7.0669
   37.185    6.7193
   37.200    6.5824
   37.215    6.6877
   37.230    7.3934
   37.245    6.6667
   37.260    6.9616
   37.275    7.4776
   37.290    7.2775
   37.305    7.0774
   37.320    6.9194
   37.335    7.0458
   37.350    6.9616
   37.365    7.3828
   37.380    6.8562
   37.395    7.0774
   37.410    6.8141
   37.425    7.0774
   37.440    6.8984
   37.455    6.8562
   37.470    6.8984
   37.485    7.0774
   37.500    6.8984
   37.515    6.9826
   37.530    7.5303
   37.545    6.8246
   37.560    6.9089
   37.575    7.0563
   37.590    6.9721
   37.605    6.9405
   37.620    7.1090
   37.635    7.0669
   37.650    7.0879
   37.665    7.4355
   37.680    7.4250
   37.695    7.0458
   37.710    6.7404
   37.725    7.2986
   37.740    6.9721
   37.755    7.0879
   37.770    7.4776
   37.785    7.1090
   37.800    7.2249
   37.815    7.0669
   37.830    7.0774
   37.845    7.0142
   37.860    6.6772
   37.875    7.0563
   37.890    7.3091
   37.905    7.3407
   37.920    6.8984
   37.935    6.9089
   37.950    6.7193
   37.965    6.9194
   37.980    7.1617
   37.995    7.2143
   38.010    7.4776
   38.025    7.2249
   38.040    6.8036
   38.055    7.0248
   38.070    6.8878
   38.085    7.0563
   38.100    7.3828
   38.115    7.2459
   38.130    7.1617
   38.145    6.7720
   38.160    7.1406
   38.175    7.3302
   38.190    7.0248
   38.205    7.0669
   38.220    6.9826
   38.235    6.7930
   38.250    6.7825
   38.265    7.1827
   38.280    7.2565
   38.295    7.0879
   38.310    7.1933
   38.325    7.0248
   38.340    7.5408
   38.355    7.0037
   38.370    6.9089
   38.385    7.1617
   38.400    7.1933
   38.415    7.4671
   38.430    7.1301
   38.445    7.7093
   38.460    7.5197
   38.475    7.4987
   38.490    7.3302
   38.505    7.2459
   38.520    7.4671
   38.535    7.4250
   38.550    7.4776
   38.565    7.6461
   38.580    7.8989
   38.595    8.0147
   38.610    7.4250
   38.625    7.6461
   38.640    7.7620
   38.655    7.6145
   38.670    7.5513
   38.685    7.4987
   38.700    7.7304
   38.715    7.8568
   38.730    7.2565
   38.745    7.8357
   38.760    7.5303
   38.775    7.5092
   38.790    7.1933
   38.805    7.5303
   38.820    7.4671
   38.835    7.8252
   38.850    7.8252
   38.865    7.6145
   38.880    7.9937
   38.895    8.1201
   38.910    7.7409
   38.925    7.7725
   38.940    7.8146
   38.955    7.8146
   38.970    7.5303
   38.985    7.5197
   39.000    7.6461
   39.015    7.8357
   39.030    7.9831
   39.045    7.9726
   39.060    7.7199
   39.075    8.3412
   39.090    8.6045
   39.105    7.8357
   39.120    8.1201
   39.135    8.0674
   39.150    8.3096
   39.165    8.1306
   39.180    8.5203
   39.195    8.5729
   39.210    8.0990
   39.225    7.9410
   39.240    8.3728
   39.255    8.3939
   39.270    8.8257
   39.285    7.9410
   39.300    8.2570
   39.315    7.7093
   39.330    8.3202
   39.345    8.2464
   39.360    8.2991
   39.375    8.1727
   39.390    7.7725
   39.405    7.9726
   39.420    7.6040
   39.435    7.7093
   39.450    7.6988
   39.465    7.9937
   39.480    7.8041
   39.495    7.7830
   39.510    7.7936
   39.525    7.7409
   39.540    7.7409
   39.555    7.9305
   39.570    7.5935
   39.585    7.6567
   39.600    8.0885
   39.615    7.6145
   39.630    7.9305
   39.645    7.5619
   39.660    8.0463
   39.675    7.1827
   39.690    7.2565
   39.705    7.8568
   39.720    7.1722
   39.735    7.5092
   39.750    7.5935
   39.765    7.5513
   39.780    7.3828
   39.795    7.4039
   39.810    7.4882
   39.825    7.0879
   39.840    7.3302
   39.855    7.3618
   39.870    7.4460
   39.885    7.2775
   39.900    7.1301
   39.915    6.9089
   39.930    7.0458
   39.945    6.8773
   39.960    6.8773
   39.975    7.1933
   39.990    7.4039
