    1.500   44.8447
    1.515   45.2238
    1.530   44.4655
    1.545   44.1496
    1.560   45.7820
    1.575   46.8246
    1.590   46.4771
    1.605   47.0353
    1.620   48.2570
    1.635   48.6993
    1.650   48.8784
    1.665   48.3834
    1.680   49.4260
    1.695   49.0469
    1.710   49.5524
    1.725   51.2375
    1.740   51.7220
    1.755   51.9010
    1.770   52.5013
    1.785   53.0384
    1.800   53.9126
    1.815   54.6288
    1.830   56.1769
    1.845   56.4192
    1.860   57.1669
    1.875   57.8726
    1.890   59.3049
    1.905   59.3260
    1.920   60.4318
    1.935   62.4329
    1.950   62.4013
    1.965   63.1069
    1.980   64.8552
    1.995   66.0032
    2.010   67.8462
    2.025   68.5940
    2.040   69.6577
    2.055   70.9847
    2.070   73.3333
    2.085   74.9447
    2.100   75.8399
    2.115   78.0516
    2.130   79.6946
    2.145   80.0527
    2.160   81.8852
    2.175   84.7815
    2.190   87.4882
    2.205   88.8257
    2.220   89.9631
    2.235   93.0595
    2.250   95.1343
    2.265   99.0205
    2.280  102.4223
    2.295  103.7283
    2.310  107.0248
    2.325  110.0158
    2.340  112.1116
    2.355  116.2612
    2.370  120.8742
    2.385  123.7072
    2.400  126.9405
    2.415  131.1848
    2.430  137.0300
    2.445  141.4007
    2.460  143.3491
    2.475  149.9842
    2.490  157.3671
    2.505  162.3065
    2.520  172.1959
    2.535  177.1037
    2.550  183.8125
    2.565  193.7968
    2.580  202.2644
    2.595  213.6914
    2.610  226.9194
    2.625  238.0516
    2.640  253.5861
    2.655  269.9632
    2.670  287.8673
    2.685  312.1327
    2.700  336.2612
    2.715  361.8220
    2.730  392.8068
    2.745  418.6730
    2.760  431.8168
    2.775  423.4229
    2.790  396.4192
    2.805  351.6588
    2.820  301.7272
    2.835  250.0369
    2.850  209.1733
    2.865  175.0711
    2.880  145.3713
    2.895  125.8557
    2.910  104.4971
    2.925   87.3828
    2.940   73.5124
    2.955   61.2217
    2.970   53.1648
    2.985   46.8036
    3.000   40.6951
    3.015   36.4297
    3.030   33.2491
    3.045   30.1527
    3.060   27.9832
    3.075   25.2870
    3.090   23.5914
    3.105   22.3170
    3.120   20.6003
    3.135   19.1469
    3.150   19.8736
    3.165   18.3044
    3.180   16.9352
    3.195   16.6087
    3.210   15.4186
    3.225   15.1343
    3.240   14.4076
    3.255   14.1443
    3.270   13.4702
    3.285   13.4808
    3.300   12.4381
    3.315   12.2380
    3.330   12.5224
    3.345   11.8905
    3.360   11.8483
    3.375   11.9221
    3.390   11.3007
    3.405   11.2375
    3.420   10.7320
    3.435   10.9637
    3.450   10.3949
    3.465    9.9105
    3.480   10.1211
    3.495   10.0053
    3.510    9.9737
    3.525    9.9737
    3.540    9.4260
    3.555    9.6788
    3.570    9.1311
    3.585    9.0679
    3.600    9.0363
    3.615    9.0995
    3.630    9.4155
    3.645    8.8994
    3.660    8.6045
    3.675    9.0785
    3.690    9.2154
    3.705    8.9731
    3.720    8.8994
    3.735    8.8468
    3.750    8.7309
    3.765    9.1522
    3.780    8.8468
    3.795    8.3307
    3.810    7.9726
    3.825    8.7098
    3.840    8.9415
    3.855    8.9100
    3.870    8.8257
    3.885    8.7836
    3.900    8.8889
    3.915    8.9626
    3.930    8.8362
    3.945    9.0047
    3.960    9.0469
    3.975    8.9205
    3.990    9.4787
    4.005    9.1417
    4.020    9.4576
    4.035    9.1838
    4.050    9.9210
    4.065    9.8894
    4.080    9.9737
    4.095   10.0263
    4.110   10.2896
    4.125   10.3844
    4.140   10.5108
    4.155   10.6056
    4.170   10.7952
    4.185   11.3849
    4.200   11.6377
    4.215   11.3849
    4.230   12.3117
    4.245   12.6066
    4.260   12.3117
    4.275   12.7857
    4.290   12.5961
    4.305   13.3649
    4.320   13.5440
    4.335   13.9863
    4.350   14.2180
    4.365   14.3339
    4.380   15.3976
    4.395   15.4924
    4.410   15.9031
    4.425   16.6930
    4.440   17.8410
    4.455   17.6725
    4.470   18.0411
    4.485   18.6625
    4.500   19.4945
    4.515   20.0316
    4.530   20.5161
    4.545   21.7272
    4.560   22.4539
    4.575   23.9600
    4.590   25.2975
    4.605   27.0774
    4.620   28.3518
    4.635   30.1316
    4.650   32.0063
    4.665   35.3133
    4.680   36.3770
    4.695   38.2622
    4.710   41.0532
    4.725   43.2754
    4.740   45.8347
    4.755   47.8146
    4.770   49.1838
    4.785   49.9631
    4.800   49.7630
    4.815   49.9631
    4.830   49.1733
    4.845   47.4776
    4.860   47.0458
    4.875   46.6035
    4.890   44.3286
    4.905   42.8436
    4.920   41.3797
    4.935   39.2944
    4.950   34.9131
    4.965   31.1427
    4.980   27.8357
    4.995   25.4555
    5.010   23.1596
    5.025   20.5371
    5.040   18.2201
    5.055   16.1769
    5.070   14.9552
    5.085   14.1759
    5.100   12.5961
    5.115   12.8489
    5.130   12.5013
    5.145   11.8483
    5.160   11.4165
    5.175   11.4692
    5.190   11.4165
    5.205   11.5640
    5.220   11.5850
    5.235   11.9642
    5.250   11.9221
    5.265   11.8273
    5.280   12.3117
    5.295   12.6172
    5.310   13.2280
    5.325   14.1022
    5.340   13.8073
    5.355   14.5129
    5.370   14.6393
    5.385   16.3981
    5.400   16.6614
    5.415   17.4724
    5.430   18.9047
    5.445   18.9995
    5.460   20.8004
    5.475   22.4013
    5.490   23.4966
    5.505   25.9716
    5.520   27.5092
    5.535   28.0463
    5.550   28.9415
    5.565   29.6472
    5.580   29.2259
    5.595   27.4039
    5.610   25.7188
    5.625   22.5066
    5.640   19.9789
    5.655   19.0627
    5.670   17.2301
    5.685   15.0606
    5.700   14.3655
    5.715   13.4702
    5.730   12.5540
    5.745   11.6798
    5.760   11.5008
    5.775   11.3849
    5.790   10.4265
    5.805    9.6156
    5.820    9.0679
    5.835    8.8573
    5.850    8.3096
    5.865    7.5724
    5.880    7.3091
    5.895    6.6772
    5.910    6.2559
    5.925    6.6561
    5.940    6.1822
    5.955    5.6345
    5.970    5.7609
    5.985    5.4344
    6.000    5.3081
    6.015    5.1290
    6.030    5.2554
    6.045    4.8763
    6.060    4.9078
    6.075    4.9710
    6.090    5.2449
    6.105    5.0553
    6.120    4.7393
    6.135    4.4971
    6.150    4.6972
    6.165    4.5708
    6.180    4.4234
    6.195    4.5919
    6.210    4.7393
    6.225    4.4760
    6.240    4.5708
    6.255    4.4866
    6.270    5.0342
    6.285    4.5392
    6.300    4.3918
    6.315    4.5076
    6.330    4.4234
    6.345    4.3075
    6.360    4.6235
    6.375    4.5287
    6.390    4.2654
    6.405    4.5708
    6.420    4.5603
    6.435    4.5814
    6.450    4.7604
    6.465    4.3391
    6.480    4.3391
    6.495    4.4234
    6.510    4.0442
    6.525    4.4023
    6.540    4.5603
    6.555    4.7920
    6.570    4.4339
    6.585    4.6340
    6.600    4.7393
    6.615    4.4760
    6.630    4.8341
    6.645    4.8025
    6.660    4.6656
    6.675    4.6867
    6.690    4.5182
    6.705    4.6761
    6.720    5.1501
    6.735    5.0974
    6.750    4.8868
    6.765    5.1290
    6.780    5.2554
    6.795    5.0658
    6.810    5.3291
    6.825    5.6240
    6.840    5.3818
    6.855    5.4134
    6.870    5.6345
    6.885    5.7188
    6.900    6.0453
    6.915    6.1822
    6.930    6.8036
    6.945    6.5613
    6.960    6.3402
    6.975    6.8036
    6.990    6.8352
    7.005    7.0458
    7.020    7.6988
    7.035    7.9094
    7.050    7.9621
    7.065    8.6151
    7.080    9.3944
    7.095    9.6051
    7.110    9.1838
    7.125   10.1316
    7.140   10.4792
    7.155   11.2586
    7.170   12.0274
    7.185   12.9121
    7.200   12.9437
    7.215   14.1443
    7.230   15.2923
    7.245   16.3981
    7.260   17.3460
    7.275   18.0305
    7.290   18.4202
    7.305   19.6314
    7.320   19.6209
    7.335   19.5366
    7.350   19.1469
    7.365   19.4523
    7.380   19.6103
    7.395   18.5361
    7.410   18.2096
    7.425   18.9679
    7.440   18.7467
    7.455   18.9679
    7.470   18.5466
    7.485   18.1675
    7.500   18.0200
    7.515   17.0827
    7.530   16.1348
    7.545   16.4508
    7.560   15.7241
    7.575   14.9236
    7.590   14.2707
    7.605   13.2807
    7.620   12.3749
    7.635   11.8378
    7.650   11.2375
    7.665   10.3212
    7.680    9.8262
    7.695    9.0363
    7.710    8.0463
    7.725    8.1833
    7.740    7.2880
    7.755    7.0248
    7.770    6.2454
    7.785    6.0979
    7.800    5.6240
    7.815    5.3186
    7.830    5.4766
    7.845    5.3923
    7.860    5.2343
    7.875    5.2238
    7.890    5.1501
    7.905    4.4550
    7.920    4.6656
    7.935    4.5392
    7.950    4.5182
    7.965    4.2865
    7.980    4.0969
    7.995    4.2127
    8.010    4.1285
    8.025    4.4550
    8.040    4.1074
    8.055    3.5914
    8.070    3.8863
    8.085    4.1601
    8.100    4.1917
    8.115    4.3707
    8.130    4.2970
    8.145    4.4866
    8.160    4.0548
    8.175    4.1496
    8.190    4.0337
    8.205    3.9810
    8.220    3.8441
    8.235    4.0758
    8.250    4.4023
    8.265    4.1706
    8.280    4.3813
    8.295    4.5392
    8.310    4.5498
    8.325    4.5708
    8.340    4.6551
    8.355    4.6130
    8.370    4.4023
    8.385    4.4971
    8.400    4.3813
    8.415    4.5076
    8.430    4.4444
    8.445    4.2865
    8.460    4.3497
    8.475    4.1706
    8.490    4.0232
    8.505    4.1706
    8.520    3.8968
    8.535    3.7704
    8.550    3.7388
    8.565    3.9073
    8.580    3.5282
    8.595    3.7072
    8.610    3.8441
    8.625    3.7072
    8.640    3.4334
    8.655    3.6862
    8.670    3.6440
    8.685    3.4123
    8.700    3.7283
    8.715    3.5282
    8.730    3.6967
    8.745    3.5176
    8.760    3.6335
    8.775    3.4650
    8.790    3.5808
    8.805    3.3386
    8.820    3.4018
    8.835    3.3597
    8.850    3.4334
    8.865    3.6230
    8.880    3.8441
    8.895    3.3491
    8.910    3.1174
    8.925    3.3386
    8.940    3.5071
    8.955    3.4860
    8.970    3.5492
    8.985    3.8757
    9.000    3.9494
    9.015    3.4334
    9.030    3.4544
    9.045    3.4755
    9.060    3.4229
    9.075    3.8125
    9.090    3.2859
    9.105    3.1701
    9.120    3.8441
    9.135    3.7177
    9.150    4.0232
    9.165    3.8863
    9.180    3.9284
    9.195    3.6019
    9.210    3.5914
    9.225    3.5808
    9.240    3.7388
    9.255    3.4229
    9.270    3.4229
    9.285    3.8757
    9.300    4.1390
    9.315    4.2865
    9.330    4.1390
    9.345    4.2443
    9.360    4.1180
    9.375    4.0758
    9.390    4.4234
    9.405    4.5287
    9.420    4.9394
    9.435    4.8341
    9.450    4.6340
    9.465    4.8236
    9.480    5.2238
    9.495    5.0448
    9.510    5.2343
    9.525    5.6029
    9.540    5.7188
    9.555    5.6240
    9.570    5.3607
    9.585    5.8557
    9.600    5.7820
    9.615    6.0874
    9.630    5.9294
    9.645    5.6135
    9.660    5.6556
    9.675    5.7188
    9.690    5.9505
    9.705    6.0664
    9.720    5.6240
    9.735    5.7293
    9.750    5.6556
    9.765    5.9926
    9.780    6.1927
    9.795    6.1401
    9.810    6.4982
    9.825    6.1611
    9.840    6.3086
    9.855    6.4034
    9.870    6.1927
    9.885    6.3612
    9.900    6.1822
    9.915    5.9084
    9.930    6.4139
    9.945    5.9505
    9.960    6.1927
    9.975    6.3086
    9.990    6.4455
   10.005    6.3612
   10.020    6.2033
   10.035    6.3086
   10.050    5.9505
   10.065    5.6451
   10.080    5.5292
   10.095    6.1506
   10.110    5.8452
   10.125    5.7399
   10.140    5.4239
   10.155    5.5503
   10.170    5.5292
   10.185    5.7399
   10.200    5.7715
   10.215    5.6556
   10.230    5.5608
   10.245    5.2238
   10.260    5.0132
   10.275    5.0553
   10.290    4.9394
   10.305    4.8552
   10.320    5.2238
   10.335    5.1290
   10.350    4.9710
   10.365    4.8763
   10.380    4.8131
   10.395    4.8236
   10.410    4.7077
   10.425    4.2127
   10.440    4.2443
   10.455    4.2759
   10.470    4.3918
   10.485    4.0442
   10.500    4.1706
   10.515    3.9810
   10.530    3.9705
   10.545    3.7072
   10.560    4.0653
   10.575    3.7493
   10.590    3.6230
   10.605    3.9600
   10.620    3.8863
   10.635    3.7704
   10.650    3.6862
   10.665    3.4966
   10.680    3.6335
   10.695    3.7493
   10.710    3.4229
   10.725    3.4860
   10.740    3.3807
   10.755    3.7072
   10.770    3.5387
   10.785    3.5598
   10.800    3.7809
   10.815    3.3386
   10.830    3.5387
   10.845    3.3070
   10.860    3.3807
   10.875    3.5176
   10.890    3.3491
   10.905    3.4439
   10.920    3.4123
   10.935    3.4439
   10.950    3.6335
   10.965    3.5598
   10.980    3.3386
   10.995    3.4334
   11.010    3.1701
   11.025    3.2859
   11.040    3.3807
   11.055    3.3281
   11.070    3.3386
   11.085    3.3281
   11.100    3.0437
   11.115    3.6019
   11.130    3.2543
   11.145    3.5808
   11.160    3.8336
   11.175    3.7388
   11.190    3.6756
   11.205    3.2438
   11.220    3.4755
   11.235    3.7072
   11.250    3.4544
   11.265    3.3175
   11.280    3.0753
   11.295    3.4018
   11.310    3.5176
   11.325    3.6124
   11.340    3.6124
   11.355    3.5387
   11.370    3.4334
   11.385    3.8125
   11.400    3.5071
   11.415    3.0753
   11.430    3.1280
   11.445    3.6230
   11.460    3.6335
   11.475    3.4966
   11.490    3.4966
   11.505    3.2965
   11.520    3.6440
   11.535    3.5598
   11.550    3.5176
   11.565    3.6019
   11.580    3.5914
   11.595    3.2965
   11.610    3.4439
   11.625    3.3913
   11.640    3.5598
   11.655    3.5914
   11.670    3.3913
   11.685    3.4650
   11.700    3.4439
   11.715    3.3913
   11.730    3.4966
   11.745    3.5703
   11.760    3.8125
   11.775    3.4018
   11.790    3.6335
   11.805    3.5808
   11.820    3.5703
   11.835    3.5387
   11.850    3.4123
   11.865    3.4229
   11.880    3.3070
   11.895    3.7915
   11.910    3.5598
   11.925    3.4544
   11.940    3.4755
   11.955    3.4755
   11.970    3.4650
   11.985    3.8336
   12.000    3.8231
   12.015    3.7388
   12.030    3.8125
   12.045    3.9705
   12.060    3.8863
   12.075    3.8336
   12.090    3.7915
   12.105    3.8757
   12.120    4.0758
   12.135    4.1180
   12.150    4.0232
   12.165    4.0548
   12.180    3.8757
   12.195    3.5808
   12.210    3.6862
   12.225    4.1074
   12.240    4.1496
   12.255    4.3391
   12.270    4.0126
   12.285    4.4444
   12.300    4.2759
   12.315    4.2759
   12.330    4.1601
   12.345    4.1496
   12.360    4.5603
   12.375    4.4444
   12.390    4.3391
   12.405    4.1390
   12.420    4.3391
   12.435    4.7499
   12.450    4.3707
   12.465    4.2865
   12.480    4.4866
   12.495    4.4971
   12.510    4.5182
   12.525    4.1180
   12.540    3.9494
   12.555    4.2549
   12.570    4.0864
   12.585    4.1390
   12.600    4.0126
   12.615    4.2654
   12.630    4.0232
   12.645    3.8968
   12.660    4.0548
   12.675    4.0126
   12.690    3.9179
   12.705    3.9179
   12.720    3.6756
   12.735    4.1917
   12.750    3.8441
   12.765    3.7809
   12.780    3.9705
   12.795    4.3181
   12.810    3.9705
   12.825    3.7388
   12.840    3.5914
   12.855    3.9916
   12.870    4.1811
   12.885    4.0126
   12.900    3.8231
   12.915    4.0126
   12.930    3.6651
   12.945    4.0021
   12.960    3.7704
   12.975    3.5914
   12.990    3.9810
   13.005    3.6230
   13.020    3.8336
   13.035    3.8020
   13.050    3.8020
   13.065    4.0021
   13.080    3.9073
   13.095    3.7915
   13.110    4.0126
   13.125    4.0548
   13.140    3.8231
   13.155    3.6862
   13.170    3.9389
   13.185    3.7599
   13.200    4.0337
   13.215    3.7915
   13.230    3.6967
   13.245    3.5808
   13.260    3.8757
   13.275    3.5808
   13.290    3.8757
   13.305    4.0232
   13.320    3.6862
   13.335    3.6862
   13.350    3.9073
   13.365    3.9600
   13.380    4.1285
   13.395    4.0442
   13.410    4.0126
   13.425    4.0232
   13.440    3.8547
   13.455    4.1074
   13.470    3.7704
   13.485    3.9179
   13.500    3.8968
   13.515    4.1601
   13.530    3.9810
   13.545    3.7388
   13.560    3.8231
   13.575    3.9705
   13.590    3.6862
   13.605    3.5598
   13.620    3.6862
   13.635    3.6651
   13.650    3.8020
   13.665    3.9810
   13.680    3.7704
   13.695    3.8652
   13.710    3.9916
   13.725    3.9705
   13.740    4.2233
   13.755    3.8757
   13.770    4.3707
   13.785    4.1496
   13.800    4.0442
   13.815    3.8757
   13.830    4.1706
   13.845    4.3181
   13.860    4.2338
   13.875    3.8863
   13.890    3.7704
   13.905    4.0442
   13.920    3.9600
   13.935    3.9284
   13.950    3.8757
   13.965    4.1074
   13.980    4.1074
   13.995    4.0653
   14.010    4.0232
   14.025    4.3286
   14.040    4.2022
   14.055    4.2549
   14.070    4.1706
   14.085    3.9916
   14.100    4.3391
   14.115    4.4655
   14.130    4.3391
   14.145    4.3813
   14.160    4.1074
   14.175    4.1074
   14.190    4.1917
   14.205    4.2127
   14.220    4.1706
   14.235    4.2549
   14.250    4.2127
   14.265    4.5182
   14.280    4.3918
   14.295    4.2759
   14.310    4.3391
   14.325    4.4550
   14.340    4.3602
   14.355    4.4234
   14.370    4.2022
   14.385    4.2654
   14.400    4.2549
   14.415    4.5076
   14.430    4.4550
   14.445    4.2338
   14.460    3.9916
   14.475    4.1390
   14.490    4.2970
   14.505    4.3497
   14.520    4.4023
   14.535    4.4128
   14.550    4.2443
   14.565    4.2654
   14.580    4.1180
   14.595    4.5076
   14.610    4.2549
   14.625    4.5076
   14.640    4.4339
   14.655    4.7077
   14.670    4.6130
   14.685    4.5287
   14.700    4.5498
   14.715    4.4234
   14.730    4.5603
   14.745    4.6972
   14.760    4.8236
   14.775    4.4760
   14.790    4.5814
   14.805    4.9816
   14.820    4.4444
   14.835    4.6130
   14.850    5.0342
   14.865    4.8868
   14.880    4.7393
   14.895    4.6235
   14.910    4.5708
   14.925    4.7077
   14.940    4.6551
   14.955    4.7815
   14.970    4.9289
   14.985    5.0342
   15.000    5.0342
   15.015    5.1501
   15.030    4.9184
   15.045    4.7815
   15.060    4.8973
   15.075    5.0342
   15.090    4.7077
   15.105    4.7920
   15.120    4.9184
   15.135    4.8763
   15.150    4.6867
   15.165    4.9605
   15.180    4.5919
   15.195    4.7077
   15.210    4.5919
   15.225    4.4444
   15.240    4.2443
   15.255    4.7604
   15.270    4.5287
   15.285    4.7499
   15.300    4.9289
   15.315    4.7604
   15.330    4.6340
   15.345    4.7499
   15.360    4.8447
   15.375    4.5708
   15.390    4.6130
   15.405    4.4234
   15.420    4.6340
   15.435    4.6130
   15.450    4.5498
   15.465    4.5603
   15.480    4.3918
   15.495    4.2865
   15.510    4.5814
   15.525    4.6867
   15.540    4.4128
   15.555    4.6445
   15.570    4.3813
   15.585    4.1285
   15.600    4.2338
   15.615    4.5603
   15.630    4.4550
   15.645    4.4655
   15.660    4.2022
   15.675    4.3286
   15.690    4.6972
   15.705    4.4655
   15.720    4.3497
   15.735    4.0021
   15.750    4.3391
   15.765    4.2654
   15.780    4.1180
   15.795    4.1706
   15.810    4.3286
   15.825    4.4866
   15.840    4.2970
   15.855    4.2022
   15.870    4.2443
   15.885    4.3391
   15.900    4.2443
   15.915    4.3075
   15.930    4.2549
   15.945    4.4866
   15.960    4.3707
   15.975    4.1706
   15.990    4.1811
   16.005    4.1706
   16.020    4.2338
   16.035    4.6551
   16.050    4.2022
   16.065    4.1917
   16.080    4.4866
   16.095    4.3602
   16.110    4.1811
   16.125    4.3813
   16.140    4.2443
   16.155    4.1180
   16.170    4.0653
   16.185    3.9179
   16.200    4.1601
   16.215    4.0021
   16.230    4.1811
   16.245    4.3286
   16.260    3.9705
   16.275    4.0337
   16.290    4.3286
   16.305    4.5076
   16.320    4.6656
   16.335    4.4444
   16.350    4.0442
   16.365    3.9810
   16.380    4.4128
   16.395    4.3075
   16.410    4.2865
   16.425    4.0232
   16.440    4.2654
   16.455    4.0758
   16.470    4.2127
   16.485    4.2549
   16.500    4.3602
   16.515    4.1601
   16.530    4.1601
   16.545    4.1706
   16.560    4.0969
   16.575    4.3602
   16.590    4.1917
   16.605    4.4128
   16.620    4.4760
   16.635    4.4444
   16.650    4.1811
   16.665    4.3707
   16.680    4.2127
   16.695    4.1074
   16.710    4.3497
   16.725    4.2443
   16.740    4.3181
   16.755    4.4760
   16.770    4.6445
   16.785    4.2127
   16.800    4.4550
   16.815    4.3181
   16.830    4.4655
   16.845    4.6761
   16.860    4.5498
   16.875    4.8025
   16.890    4.4971
   16.905    4.5814
   16.920    4.6761
   16.935    4.8236
   16.950    4.3391
   16.965    4.5814
   16.980    4.5603
   16.995    4.7288
   17.010    4.5708
   17.025    4.2022
   17.040    4.3075
   17.055    4.5919
   17.070    4.8868
   17.085    4.2127
   17.100    4.0969
   17.115    4.5814
   17.130    4.5287
   17.145    4.2233
   17.160    4.4444
   17.175    4.2654
   17.190    4.4128
   17.205    4.6445
   17.220    4.2127
   17.235    4.2970
   17.250    4.3181
   17.265    4.4023
   17.280    4.4971
   17.295    4.0969
   17.310    4.2759
   17.325    4.7815
   17.340    4.8236
   17.355    4.3918
   17.370    4.6024
   17.385    4.3181
   17.400    4.2759
   17.415    4.2443
   17.430    4.2233
   17.445    4.2759
   17.460    4.0232
   17.475    4.2338
   17.490    4.5392
   17.505    4.7077
   17.520    4.3075
   17.535    4.4444
   17.550    4.4234
   17.565    4.3602
   17.580    4.7499
   17.595    4.4128
   17.610    4.2759
   17.625    4.3602
   17.640    4.2759
   17.655    4.1285
   17.670    3.8441
   17.685    4.2233
   17.700    4.4023
   17.715    4.3286
   17.730    4.1706
   17.745    4.0864
   17.760    4.5603
   17.775    4.2443
   17.790    4.1074
   17.805    3.7915
   17.820    4.1285
   17.835    4.1601
   17.850    4.2233
   17.865    4.3918
   17.880    3.7704
   17.895    4.2549
   17.910    4.0864
   17.925    4.0969
   17.940    4.1390
   17.955    4.0126
   17.970    4.3391
   17.985    4.2759
   18.000    4.2654
   18.015    4.2022
   18.030    4.4444
   18.045    4.3181
   18.060    4.3075
   18.075    4.0969
   18.090    4.0864
   18.105    4.3602
   18.120    4.1601
   18.135    4.4339
   18.150    4.3707
   18.165    4.2970
   18.180    4.3602
   18.195    4.2970
   18.210    4.1811
   18.225    4.0969
   18.240    4.0548
   18.255    4.5392
   18.270    4.2654
   18.285    3.9705
   18.300    4.4023
   18.315    4.4023
   18.330    4.2759
   18.345    4.5814
   18.360    4.3813
   18.375    4.3918
   18.390    4.5708
   18.405    3.8652
   18.420    4.0021
   18.435    4.1390
   18.450    4.2443
   18.465    4.2759
   18.480    4.2759
   18.495    4.0758
   18.510    4.3391
   18.525    4.8552
   18.540    4.4234
   18.555    4.3391
   18.570    4.4023
   18.585    4.6024
   18.600    4.3813
   18.615    4.1496
   18.630    4.2654
   18.645    4.6445
   18.660    4.3602
   18.675    4.3497
   18.690    4.6867
   18.705    4.3602
   18.720    4.1706
   18.735    4.4760
   18.750    4.7077
   18.765    4.3181
   18.780    4.4971
   18.795    4.4023
   18.810    4.3707
   18.825    4.1180
   18.840    4.5182
   18.855    4.5498
   18.870    4.5919
   18.885    4.4866
   18.900    4.2970
   18.915    4.4444
   18.930    4.3181
   18.945    4.5076
   18.960    4.3602
   18.975    4.6972
   18.990    4.8131
   19.005    4.4655
   19.020    4.7077
   19.035    4.3075
   19.050    4.2233
   19.065    4.5182
   19.080    4.6235
   19.095    4.2127
   19.110    4.3181
   19.125    4.5919
   19.140    4.6972
   19.155    4.7288
   19.170    4.6656
   19.185    4.5708
   19.200    4.5287
   19.215    4.1390
   19.230    4.1180
   19.245    4.5392
   19.260    4.4444
   19.275    4.4128
   19.290    4.6235
   19.305    4.4655
   19.320    4.2549
   19.335    4.6130
   19.350    4.1390
   19.365    4.4128
   19.380    4.4444
   19.395    4.4444
   19.410    4.4234
   19.425    4.2549
   19.440    3.8020
   19.455    4.0864
   19.470    4.5392
   19.485    4.4339
   19.500    4.4655
   19.515    4.1601
   19.530    4.1180
   19.545    4.1074
   19.560    4.1811
   19.575    4.2549
   19.590    4.4234
   19.605    4.4655
   19.620    4.5814
   19.635    4.0969
   19.650    4.2022
   19.665    4.2443
   19.680    4.1074
   19.695    4.3181
   19.710    4.3391
   19.725    4.1917
   19.740    4.3497
   19.755    4.3391
   19.770    4.2865
   19.785    4.0864
   19.800    4.1390
   19.815    4.5182
   19.830    4.3813
   19.845    3.9600
   19.860    4.1285
   19.875    4.2022
   19.890    4.3286
   19.905    4.3497
   19.920    4.2865
   19.935    4.5392
   19.950    4.3497
   19.965    4.2443
   19.980    4.2338
   19.995    4.3813
   20.010    4.3181
   20.025    4.3707
   20.040    4.4550
   20.055    4.2549
   20.070    3.7809
   20.085    4.0021
   20.100    4.3602
   20.115    4.0758
   20.130    4.1601
   20.145    3.8863
   20.160    3.8863
   20.175    3.9705
   20.190    3.9810
   20.205    4.0653
   20.220    4.2443
   20.235    4.0969
   20.250    4.0548
   20.265    4.2759
   20.280    4.1706
   20.295    4.0653
   20.310    4.4234
   20.325    4.1496
   20.340    4.1285
   20.355    3.8652
   20.370    4.1074
   20.385    3.8231
   20.400    4.2443
   20.415    4.2233
   20.430    4.4023
   20.445    3.9600
   20.460    4.3075
   20.475    4.3497
   20.490    3.9284
   20.505    4.0021
   20.520    4.0337
   20.535    4.2443
   20.550    4.4023
   20.565    4.1285
   20.580    3.9916
   20.595    4.3602
   20.610    4.0969
   20.625    4.0653
   20.640    4.1285
   20.655    4.0653
   20.670    3.8336
   20.685    3.7915
   20.700    3.6967
   20.715    3.9073
   20.730    4.2443
   20.745    4.1074
   20.760    3.9494
   20.775    4.3286
   20.790    3.9494
   20.805    4.1706
   20.820    4.1917
   20.835    4.1601
   20.850    3.8441
   20.865    3.8125
   20.880    4.2970
   20.895    4.2022
   20.910    3.8652
   20.925    4.0758
   20.940    3.9600
   20.955    3.9705
   20.970    4.1390
   20.985    3.7915
   21.000    4.1390
   21.015    4.0548
   21.030    4.0126
   21.045    3.8757
   21.060    3.7177
   21.075    3.9600
   21.090    4.0653
   21.105    4.1706
   21.120    3.8547
   21.135    3.7809
   21.150    3.6019
   21.165    3.8336
   21.180    3.9073
   21.195    3.9810
   21.210    4.2970
   21.225    3.8757
   21.240    3.9284
   21.255    3.9073
   21.270    4.1496
   21.285    4.0758
   21.300    3.9389
   21.315    4.1706
   21.330    4.0864
   21.345    3.9810
   21.360    4.0758
   21.375    4.0232
   21.390    4.0232
   21.405    4.2233
   21.420    3.9705
   21.435    4.2022
   21.450    3.8441
   21.465    4.0758
   21.480    4.0969
   21.495    4.0864
   21.510    3.9389
   21.525    3.8547
   21.540    4.1601
   21.555    4.0758
   21.570    3.9389
   21.585    4.2549
   21.600    4.0653
   21.615    4.0653
   21.630    4.2759
   21.645    4.1074
   21.660    4.0969
   21.675    3.9810
   21.690    4.1180
   21.705    4.3918
   21.720    4.3075
   21.735    4.2654
   21.750    4.1917
   21.765    4.1496
   21.780    4.2970
   21.795    4.1496
   21.810    3.8231
   21.825    3.8547
   21.840    3.9705
   21.855    3.9916
   21.870    4.2338
   21.885    3.8020
   21.900    3.9179
   21.915    4.2654
   21.930    4.1074
   21.945    4.1180
   21.960    4.0969
   21.975    4.0126
   21.990    4.2549
   22.005    4.0758
   22.020    3.9179
   22.035    3.9600
   22.050    3.8020
   22.065    3.9179
   22.080    4.0021
   22.095    3.9494
   22.110    4.0758
   22.125    4.2127
   22.140    4.0021
   22.155    3.7809
   22.170    3.6546
   22.185    4.1706
   22.200    4.1390
   22.215    4.1180
   22.230    3.7388
   22.245    4.1285
   22.260    3.9179
   22.275    3.9284
   22.290    3.7388
   22.305    4.0126
   22.320    3.8020
   22.335    3.5914
   22.350    3.7283
   22.365    3.7809
   22.380    4.2654
   22.395    4.0864
   22.410    3.9179
   22.425    4.2443
   22.440    4.0969
   22.455    3.9073
   22.470    3.9073
   22.485    4.1601
   22.500    4.3707
   22.515    3.9810
   22.530    3.8652
   22.545    4.2022
   22.560    4.1601
   22.575    4.3075
   22.590    4.2022
   22.605    4.3707
   22.620    4.1917
   22.635    3.9810
   22.650    4.2654
   22.665    4.1074
   22.680    3.8441
   22.695    3.7388
   22.710    4.0126
   22.725    3.8231
   22.740    3.9705
   22.755    3.8968
   22.770    3.8020
   22.785    3.7809
   22.800    3.7599
   22.815    4.0232
   22.830    4.0126
   22.845    4.1917
   22.860    4.3497
   22.875    3.9600
   22.890    4.0653
   22.905    3.9705
   22.920    4.0126
   22.935    4.0864
   22.950    3.7809
   22.965    3.8863
   22.980    3.7493
   22.995    3.7072
   23.010    3.7493
   23.025    4.0232
   23.040    3.6862
   23.055    4.0653
   23.070    4.1601
   23.085    4.1601
   23.100    3.8968
   23.115    3.8441
   23.130    4.0653
   23.145    4.1917
   23.160    3.8125
   23.175    4.0337
   23.190    3.8547
   23.205    4.2549
   23.220    3.9389
   23.235    3.8547
   23.250    3.6862
   23.265    3.8231
   23.280    3.9600
   23.295    3.8547
   23.310    3.7493
   23.325    3.6967
   23.340    3.9284
   23.355    3.8968
   23.370    3.7704
   23.385    3.6756
   23.400    3.9284
   23.415    3.6967
   23.430    3.7599
   23.445    3.9705
   23.460    3.8231
   23.475    4.0442
   23.490    4.1074
   23.505    4.2127
   23.520    4.3707
   23.535    4.1601
   23.550    4.0126
   23.565    4.0232
   23.580    4.1390
   23.595    4.3286
   23.610    3.9916
   23.625    4.0126
   23.640    4.0126
   23.655    4.3918
   23.670    4.0442
   23.685    3.8441
   23.700    3.9073
   23.715    3.7072
   23.730    3.8125
   23.745    3.9810
   23.760    4.0021
   23.775    3.8231
   23.790    3.8441
   23.805    3.9705
   23.820    3.8547
   23.835    3.7704
   23.850    3.7493
   23.865    3.8547
   23.880    3.7704
   23.895    3.6019
   23.910    3.8968
   23.925    3.8020
   23.940    3.9600
   23.955    3.9389
   23.970    3.9916
   23.985    3.8020
   24.000    3.7388
   24.015    3.9179
   24.030    4.2233
   24.045    4.2233
   24.060    3.9916
   24.075    3.8231
   24.090    3.8968
   24.105    3.9073
   24.120    4.1496
   24.135    4.2970
   24.150    4.0337
   24.165    3.8231
   24.180    4.2970
   24.195    3.9284
   24.210    4.1917
   24.225    4.0126
   24.240    3.9179
   24.255    3.6756
   24.270    4.1285
   24.285    3.9389
   24.300    4.0337
   24.315    4.0864
   24.330    4.2970
   24.345    3.7809
   24.360    3.9389
   24.375    4.1285
   24.390    4.0653
   24.405    3.7915
   24.420    4.0021
   24.435    4.2233
   24.450    4.1811
   24.465    4.1180
   24.480    3.9600
   24.495    3.9389
   24.510    4.1285
   24.525    4.2127
   24.540    4.2654
   24.555    3.9916
   24.570    4.0969
   24.585    4.0337
   24.600    4.0969
   24.615    3.9705
   24.630    4.3497
   24.645    4.4550
   24.660    4.3707
   24.675    4.4234
   24.690    4.7288
   24.705    4.6024
   24.720    4.3602
   24.735    4.6445
   24.750    4.5708
   24.765    4.5919
   24.780    4.4550
   24.795    4.8763
   24.810    4.8868
   24.825    4.9184
   24.840    4.8552
   24.855    5.1185
   24.870    4.8973
   24.885    4.8025
   24.900    4.7604
   24.915    4.9816
   24.930    4.9605
   24.945    5.0869
   24.960    4.9921
   24.975    5.2027
   24.990    5.3712
   25.005    5.2449
   25.020    5.1395
   25.035    5.1606
   25.050    5.3502
   25.065    5.2133
   25.080    5.3712
   25.095    5.4660
   25.110    5.4660
   25.125    5.4028
   25.140    5.3081
   25.155    5.3923
   25.170    5.5503
   25.185    5.2975
   25.200    5.4766
   25.215    5.4028
   25.230    5.8347
   25.245    6.0137
   25.260    5.3923
   25.275    5.3818
   25.290    5.5187
   25.305    5.5082
   25.320    5.6872
   25.335    5.5292
   25.350    5.8768
   25.365    5.4450
   25.380    5.9610
   25.395    5.6556
   25.410    5.4660
   25.425    5.5503
   25.440    5.1501
   25.455    5.4450
   25.470    5.4239
   25.485    5.6661
   25.500    5.7399
   25.515    5.4766
   25.530    5.4450
   25.545    5.2238
   25.560    5.2027
   25.575    5.3502
   25.590    5.4134
   25.605    5.6345
   25.620    5.0658
   25.635    4.9394
   25.650    5.1817
   25.665    4.9816
   25.680    4.8657
   25.695    5.1185
   25.710    5.2133
   25.725    4.9184
   25.740    4.7077
   25.755    4.7499
   25.770    4.8973
   25.785    5.4871
   25.800    4.9605
   25.815    4.6761
   25.830    4.8341
   25.845    5.0026
   25.860    4.8341
   25.875    4.9394
   25.890    4.7077
   25.905    4.8236
   25.920    4.6761
   25.935    4.8025
   25.950    4.6867
   25.965    4.7499
   25.980    4.9078
   25.995    4.1917
   26.010    4.5603
   26.025    4.5708
   26.040    4.4444
   26.055    4.6761
   26.070    4.3286
   26.085    4.2654
   26.100    4.2654
   26.115    4.7604
   26.130    4.5603
   26.145    4.4655
   26.160    4.3602
   26.175    4.1601
   26.190    4.6867
   26.205    4.3391
   26.220    4.3181
   26.235    4.5287
   26.250    4.4234
   26.265    4.2127
   26.280    3.9389
   26.295    4.0126
   26.310    4.1917
   26.325    4.1496
   26.340    4.1285
   26.355    4.2970
   26.370    4.1074
   26.385    4.2022
   26.400    3.9600
   26.415    3.9494
   26.430    4.1706
   26.445    3.9073
   26.460    3.9705
   26.475    4.0548
   26.490    4.1811
   26.505    4.1180
   26.520    3.8441
   26.535    3.9494
   26.550    4.2127
   26.565    4.0126
   26.580    3.6967
   26.595    4.1706
   26.610    3.7915
   26.625    4.0337
   26.640    4.0337
   26.655    3.9705
   26.670    3.8968
   26.685    3.9179
   26.700    3.6756
   26.715    3.9705
   26.730    3.9284
   26.745    3.7072
   26.760    3.6019
   26.775    3.7704
   26.790    3.6230
   26.805    3.9284
   26.820    3.6651
   26.835    3.6230
   26.850    3.5703
   26.865    3.8125
   26.880    3.6862
   26.895    3.6862
   26.910    3.6546
   26.925    3.7704
   26.940    3.4650
   26.955    3.4755
   26.970    3.9810
   26.985    3.8231
   27.000    3.4755
   27.015    3.5492
   27.030    3.6124
   27.045    3.6019
   27.060    3.6862
   27.075    3.6862
   27.090    3.5176
   27.105    3.8020
   27.120    3.5914
   27.135    3.8441
   27.150    3.6440
   27.165    3.5914
   27.180    3.5387
   27.195    3.5808
   27.210    3.8547
   27.225    3.6651
   27.240    3.3913
   27.255    3.1806
   27.270    3.3597
   27.285    3.5703
   27.300    3.4229
   27.315    3.4229
   27.330    3.3807
   27.345    3.5071
   27.360    3.5282
   27.375    3.5914
   27.390    3.6651
   27.405    3.4018
   27.420    3.4123
   27.435    3.2649
   27.450    3.4755
   27.465    3.4439
   27.480    3.3491
   27.495    3.6546
   27.510    3.5703
   27.525    3.2859
   27.540    3.3386
   27.555    3.5703
   27.570    3.3386
   27.585    3.4544
   27.600    3.3386
   27.615    3.2122
   27.630    3.3702
   27.645    3.5071
   27.660    3.4860
   27.675    3.5387
   27.690    3.5914
   27.705    3.4439
   27.720    3.2227
   27.735    3.6230
   27.750    3.5703
   27.765    3.3386
   27.780    3.2333
   27.795    3.3386
   27.810    3.0332
   27.825    3.3597
   27.840    3.2859
   27.855    3.1490
   27.870    3.2543
   27.885    3.5598
   27.900    3.6651
   27.915    3.4755
   27.930    3.0858
   27.945    3.2333
   27.960    3.3175
   27.975    3.5387
   27.990    3.3807
   28.005    3.5492
   28.020    3.3807
   28.035    3.4229
   28.050    3.3491
   28.065    3.4334
   28.080    3.2227
   28.095    3.3175
   28.110    3.3070
   28.125    3.2649
   28.140    3.3597
   28.155    3.1174
   28.170    2.9595
   28.185    3.1912
   28.200    2.9910
   28.215    3.2017
   28.230    3.2438
   28.245    3.0964
   28.260    3.1806
   28.275    3.1701
   28.290    3.1806
   28.305    3.2227
   28.320    2.9805
   28.335    3.0121
   28.350    3.0226
   28.365    3.3597
   28.380    3.1174
   28.395    3.3386
   28.410    2.9700
   28.425    3.0332
   28.440    3.2859
   28.455    3.0542
   28.470    3.1385
   28.485    3.2649
   28.500    3.0964
   28.515    3.0648
   28.530    3.1385
   28.545    2.8752
   28.560    3.3070
   28.575    3.2649
   28.590    3.2227
   28.605    2.9279
   28.620    2.9384
   28.635    2.9805
   28.650    2.9384
   28.665    3.2333
   28.680    3.1701
   28.695    3.0016
   28.710    3.0858
   28.725    3.0648
   28.740    2.7383
   28.755    2.8963
   28.770    3.0226
   28.785    3.1490
   28.800    2.8752
   28.815    2.9173
   28.830    2.9384
   28.845    2.8225
   28.860    2.8647
   28.875    2.8647
   28.890    2.9068
   28.905    3.1385
   28.920    3.4229
   28.935    2.9595
   28.950    2.7488
   28.965    3.0542
   28.980    3.0332
   28.995    2.9489
   29.010    3.0121
   29.025    2.8857
   29.040    2.7172
   29.055    2.9489
   29.070    2.6962
   29.085    2.6751
   29.100    2.9173
   29.115    3.0648
   29.130    2.8120
   29.145    3.1385
   29.160    2.8857
   29.175    2.9068
   29.190    2.7804
   29.205    2.8857
   29.220    3.0121
   29.235    3.0858
   29.250    3.0332
   29.265    3.0437
   29.280    2.8225
   29.295    2.8120
   29.310    2.7278
   29.325    2.6435
   29.340    2.8963
   29.355    3.0226
   29.370    2.6119
   29.385    2.7278
   29.400    2.7488
   29.415    2.9489
   29.430    2.9173
   29.445    2.9805
   29.460    2.8015
   29.475    2.8120
   29.490    3.0226
   29.505    2.9173
   29.520    3.1174
   29.535    3.0121
   29.550    3.2333
   29.565    2.9384
   29.580    2.6962
   29.595    2.8541
   29.610    3.0226
   29.625    3.0964
   29.640    2.9489
   29.655    2.8015
   29.670    2.6330
   29.685    2.9805
   29.700    2.9279
   29.715    2.9805
   29.730    2.9700
   29.745    3.0858
   29.760    3.1490
   29.775    2.7699
   29.790    3.0437
   29.805    2.9068
   29.820    2.9173
   29.835    2.9489
   29.850    3.0542
   29.865    2.9279
   29.880    2.6119
   29.895    2.4223
   29.910    2.8857
   29.925    2.7488
   29.940    2.8541
   29.955    2.6646
   29.970    2.6014
   29.985    2.8015
   30.000    2.7699
   30.015    2.7172
   30.030    2.6435
   30.045    2.7909
   30.060    3.1385
   30.075    2.8331
   30.090    2.7278
   30.105    2.5803
   30.120    2.7067
   30.135    2.8015
   30.150    2.9279
   30.165    2.9595
   30.180    2.9279
   30.195    2.6646
   30.210    2.5382
   30.225    2.5698
   30.240    2.5803
   30.255    2.6435
   30.270    2.5908
   30.285    2.8120
   30.300    2.7488
   30.315    2.7278
   30.330    2.7067
   30.345    2.6119
   30.360    2.7278
   30.375    2.4539
   30.390    2.7172
   30.405    2.7909
   30.420    2.5698
   30.435    2.5592
   30.450    2.6751
   30.465    2.5487
   30.480    2.6646
   30.495    2.6856
   30.510    2.6646
   30.525    2.6119
   30.540    2.7804
   30.555    2.8647
   30.570    2.7278
   30.585    2.5908
   30.600    2.6224
   30.615    2.4961
   30.630    2.8120
   30.645    2.6856
   30.660    2.7699
   30.675    2.5698
   30.690    2.6435
   30.705    2.5276
   30.720    2.7383
   30.735    2.6224
   30.750    2.6962
   30.765    2.7067
   30.780    2.8857
   30.795    2.8541
   30.810    2.6014
   30.825    2.5908
   30.840    2.1801
   30.855    2.4539
   30.870    2.4434
   30.885    2.5698
   30.900    2.4855
   30.915    2.8120
   30.930    2.5066
   30.945    2.7278
   30.960    2.6014
   30.975    2.6014
   30.990    2.8331
   31.005    2.6119
   31.020    2.7383
   31.035    2.6540
   31.050    2.4645
   31.065    2.4118
   31.080    2.4013
   31.095    2.4434
   31.110    2.5487
   31.125    2.2643
   31.140    2.6014
   31.155    2.8857
   31.170    2.3170
   31.185    2.4434
   31.200    2.6224
   31.215    2.5276
   31.230    2.7067
   31.245    2.6224
   31.260    2.3275
   31.275    2.5276
   31.290    2.5592
   31.305    2.4434
   31.320    2.5171
   31.335    2.1696
   31.350    2.3381
   31.365    2.4539
   31.380    2.5908
   31.395    2.4750
   31.410    2.4539
   31.425    2.4750
   31.440    2.5803
   31.455    2.4329
   31.470    2.5276
   31.485    2.4855
   31.500    2.4961
   31.515    2.4118
   31.530    2.7067
   31.545    2.8225
   31.560    2.6224
   31.575    2.4750
   31.590    2.5803
   31.605    2.4855
   31.620    2.2222
   31.635    2.1801
   31.650    2.4539
   31.665    2.3591
   31.680    2.5592
   31.695    2.7278
   31.710    2.7699
   31.725    2.9700
   31.740    2.9805
   31.755    3.0332
   31.770    2.8857
   31.785    2.9279
   31.800    3.1806
   31.815    3.0016
   31.830    3.2122
   31.845    3.5492
   31.860    3.1701
   31.875    3.0016
   31.890    3.0121
   31.905    2.6751
   31.920    2.7067
   31.935    2.5698
   31.950    2.4855
   31.965    2.6014
   31.980    2.6224
   31.995    2.5803
   32.010    2.2538
   32.025    2.4118
   32.040    2.1906
   32.055    2.4750
   32.070    2.5276
   32.085    2.6014
   32.100    2.4961
   32.115    2.2433
   32.130    2.5698
   32.145    2.5908
   32.160    2.3381
   32.175    2.2854
   32.190    2.4118
   32.205    2.1485
   32.220    2.5592
   32.235    2.4223
   32.250    2.3907
   32.265    2.2854
   32.280    2.3486
   32.295    2.2854
   32.310    2.2643
   32.325    2.3170
   32.340    2.3802
   32.355    2.3907
   32.370    2.1064
   32.385    2.1380
   32.400    2.4223
   32.415    2.2538
   32.430    2.2012
   32.445    2.4223
   32.460    2.3697
   32.475    2.1485
   32.490    2.1906
   32.505    2.0537
   32.520    2.0011
   32.535    1.9800
   32.550    2.3381
   32.565    2.1590
   32.580    2.1696
   32.595    2.1485
   32.610    2.1169
   32.625    2.1906
   32.640    2.3275
   32.655    2.3170
   32.670    1.9168
   32.685    2.1801
   32.700    2.3275
   32.715    2.4434
   32.730    2.1274
   32.745    2.1064
   32.760    2.1064
   32.775    2.0537
   32.790    2.1169
   32.805    2.2749
   32.820    2.2433
   32.835    2.2538
   32.850    2.2643
   32.865    2.0537
   32.880    2.2012
   32.895    2.3275
   32.910    2.2643
   32.925    2.3697
   32.940    2.4329
   32.955    2.2959
   32.970    1.9168
   32.985    2.0326
   33.000    2.1064
   33.015    1.8957
   33.030    1.9800
   33.045    2.0432
   33.060    2.1274
   33.075    1.9589
   33.090    2.1485
   33.105    2.1801
   33.120    2.1274
   33.135    2.0011
   33.150    2.2643
   33.165    2.0326
   33.180    2.1274
   33.195    2.0221
   33.210    2.0958
   33.225    1.9589
   33.240    1.9273
   33.255    2.0432
   33.270    2.1906
   33.285    2.1590
   33.300    2.2222
   33.315    2.0432
   33.330    1.9063
   33.345    2.0116
   33.360    1.9168
   33.375    1.9273
   33.390    2.0432
   33.405    2.1590
   33.420    2.1169
   33.435    2.0011
   33.450    2.0642
   33.465    2.1696
   33.480    1.9800
   33.495    1.9273
   33.510    2.0221
   33.525    2.2749
   33.540    1.9168
   33.555    1.8641
   33.570    1.8957
   33.585    1.8957
   33.600    1.9905
   33.615    2.0853
   33.630    2.1380
   33.645    2.2959
   33.660    2.0748
   33.675    1.9800
   33.690    2.0221
   33.705    2.0221
   33.720    2.0326
   33.735    1.8325
   33.750    1.8220
   33.765    1.9800
   33.780    2.1801
   33.795    2.0221
   33.810    2.1169
   33.825    2.1801
   33.840    2.0748
   33.855    2.1380
   33.870    2.2117
   33.885    2.3381
   33.900    2.3486
   33.915    2.5382
   33.930    2.6119
   33.945    2.6856
   33.960    2.5698
   33.975    2.4013
   33.990    2.3486
   34.005    2.6540
   34.020    2.6119
   34.035    2.4118
   34.050    2.3065
   34.065    2.3486
   34.080    2.1274
   34.095    2.2117
   34.110    1.9168
   34.125    1.8641
   34.140    1.8115
   34.155    2.0011
   34.170    2.0642
   34.185    1.9589
   34.200    1.8957
   34.215    1.7904
   34.230    1.8009
   34.245    1.9379
   34.260    1.9379
   34.275    1.9800
   34.290    1.9695
   34.305    2.0116
   34.320    1.9695
   34.335    1.9063
   34.350    1.7167
   34.365    1.8536
   34.380    2.0221
   34.395    1.8957
   34.410    1.9905
   34.425    2.0432
   34.440    1.8957
   34.455    1.9273
   34.470    1.9589
   34.485    1.8325
   34.500    1.9168
   34.515    2.1380
   34.530    1.8431
   34.545    1.6219
   34.560    1.8957
   34.575    1.8431
   34.590    1.7799
   34.605    1.8536
   34.620    1.9273
   34.635    1.8431
   34.650    1.8115
   34.665    1.7378
   34.680    1.9905
   34.695    2.0011
   34.710    1.8431
   34.725    1.8536
   34.740    1.9484
   34.755    1.8009
   34.770    1.7062
   34.785    1.9273
   34.800    1.8852
   34.815    1.6535
   34.830    1.8747
   34.845    1.9063
   34.860    1.9379
   34.875    1.9063
   34.890    1.6430
   34.905    1.7799
   34.920    1.8536
   34.935    1.8641
   34.950    1.8325
   34.965    1.6430
   34.980    1.9273
   34.995    1.8115
   35.010    1.9484
   35.025    1.7904
   35.040    1.9800
   35.055    1.6640
   35.070    1.8957
   35.085    1.6851
   35.100    1.7062
   35.115    1.7694
   35.130    1.6535
   35.145    1.7483
   35.160    1.8431
   35.175    1.7272
   35.190    1.7378
   35.205    1.7167
   35.220    1.7694
   35.235    1.7167
   35.250    1.7588
   35.265    1.8220
   35.280    1.8852
   35.295    1.7904
   35.310    1.7904
   35.325    1.9273
   35.340    1.7904
   35.355    1.7904
   35.370    1.9589
   35.385    1.6640
   35.400    1.6219
   35.415    1.5692
   35.430    1.8220
   35.445    1.7272
   35.460    1.6746
   35.475    1.8747
   35.490    1.8536
   35.505    1.9168
   35.520    1.6851
   35.535    1.6430
   35.550    1.6956
   35.565    1.7483
   35.580    1.8325
   35.595    1.6746
   35.610    1.7588
   35.625    1.7272
   35.640    1.7694
   35.655    1.8431
   35.670    1.7588
   35.685    1.6219
   35.700    1.3902
   35.715    1.5903
   35.730    1.8115
   35.745    1.5692
   35.760    1.6746
   35.775    1.6956
   35.790    1.6640
   35.805    1.7483
   35.820    1.7799
   35.835    1.6430
   35.850    1.5798
   35.865    1.6430
   35.880    1.7167
   35.895    1.8009
   35.910    1.6851
   35.925    1.6430
   35.940    1.5377
   35.955    1.6008
   35.970    1.6956
   35.985    1.8220
   36.000    1.7904
   36.015    1.8115
   36.030    1.8747
   36.045    1.9905
   36.060    1.6324
   36.075    1.5798
   36.090    1.5271
   36.105    1.6535
   36.120    1.5692
   36.135    1.5377
   36.150    1.5482
   36.165    1.6219
   36.180    1.7062
   36.195    1.4745
   36.210    1.5377
   36.225    1.4955
   36.240    1.4639
   36.255    1.6746
   36.270    1.6008
   36.285    1.4639
   36.300    1.5798
   36.315    1.5166
   36.330    1.6430
   36.345    1.8536
   36.360    1.6219
   36.375    1.5482
   36.390    1.6114
   36.405    1.7904
   36.420    1.8431
   36.435    1.6219
   36.450    1.6746
   36.465    1.4429
   36.480    1.5061
   36.495    1.6114
   36.510    1.7272
   36.525    1.5903
   36.540    1.5482
   36.555    1.6008
   36.570    1.6114
   36.585    1.7694
   36.600    1.5271
   36.615    1.4323
   36.630    1.5482
   36.645    1.4323
   36.660    1.5271
   36.675    1.5587
   36.690    1.6535
   36.705    1.6851
   36.720    1.6219
   36.735    1.6114
   36.750    1.6430
   36.765    1.4218
   36.780    1.6535
   36.795    1.6324
   36.810    1.6851
   36.825    1.6324
   36.840    1.4534
   36.855    1.5061
   36.870    1.5903
   36.885    1.6324
   36.900    1.7483
   36.915    1.6640
   36.930    1.7167
   36.945    1.4955
   36.960    1.5166
   36.975    1.4745
   36.990    1.4955
   37.005    1.4113
   37.020    1.5166
   37.035    1.6008
   37.050    1.5798
   37.065    1.6535
   37.080    1.5798
   37.095    1.3586
   37.110    1.3586
   37.125    1.6008
   37.140    1.7904
   37.155    1.5166
   37.170    1.5903
   37.185    1.5061
   37.200    1.4850
   37.215    1.5166
   37.230    1.6430
   37.245    1.5692
   37.260    1.7062
   37.275    1.4113
   37.290    1.5377
   37.305    1.5798
   37.320    1.5061
   37.335    1.4218
   37.350    1.4113
   37.365    1.4639
   37.380    1.4429
   37.395    1.4429
   37.410    1.5587
   37.425    1.4534
   37.440    1.4113
   37.455    1.3586
   37.470    1.5903
   37.485    1.5271
   37.500    1.4850
   37.515    1.4007
   37.530    1.6430
   37.545    1.6324
   37.560    1.4429
   37.575    1.3481
   37.590    1.5587
   37.605    1.6114
   37.620    1.6219
   37.635    1.4850
   37.650    1.4639
   37.665    1.3691
   37.680    1.4218
   37.695    1.5482
   37.710    1.5798
   37.725    1.6746
   37.740    1.5271
   37.755    1.5061
   37.770    1.5061
   37.785    1.5482
   37.800    1.5482
   37.815    1.3586
   37.830    1.7167
   37.845    1.8009
   37.860    1.7062
   37.875    1.6219
   37.890    1.6114
   37.905    1.5061
   37.920    1.5903
   37.935    1.4323
   37.950    1.5061
   37.965    1.5271
   37.980    1.5271
   37.995    1.5903
   38.010    1.4745
   38.025    1.5692
   38.040    1.6851
   38.055    1.6008
   38.070    1.4639
   38.085    1.5271
   38.100    1.5377
   38.115    1.4745
   38.130    1.6640
   38.145    1.6114
   38.160    1.6114
   38.175    1.5692
   38.190    1.5798
   38.205    1.4639
   38.220    1.4955
   38.235    1.4218
   38.250    1.6430
   38.265    1.5061
   38.280    1.8009
   38.295    1.6956
   38.310    1.4850
   38.325    1.5271
   38.340    1.4429
   38.355    1.2849
   38.370    1.2112
   38.385    1.4429
   38.400    1.3797
   38.415    1.7062
   38.430    1.6430
   38.445    1.4745
   38.460    1.5166
   38.475    1.4639
   38.490    1.4429
   38.505    1.3691
   38.520    1.5692
   38.535    1.4955
   38.550    1.2744
   38.565    1.3165
   38.580    1.3375
   38.595    1.4850
   38.610    1.5377
   38.625    1.3586
   38.640    1.5166
   38.655    1.5166
   38.670    1.5061
   38.685    1.5482
   38.700    1.3586
   38.715    1.4534
   38.730    1.6324
   38.745    1.5692
   38.760    1.5377
   38.775    1.5061
   38.790    1.3586
   38.805    1.4955
   38.820    1.4850
   38.835    1.4007
   38.850    1.3586
   38.865    1.5482
   38.880    1.3375
   38.895    1.6324
   38.910    1.5061
   38.925    1.5692
   38.940    1.5692
   38.955    1.5377
   38.970    1.3375
   38.985    1.4113
   39.000    1.3060
   39.015    1.3586
   39.030    1.5166
   39.045    1.4113
   39.060    1.6851
   39.075    1.4113
   39.090    1.5692
   39.105    1.3797
   39.120    1.4850
   39.135    1.2849
   39.150    1.3691
   39.165    1.4113
   39.180    1.3586
   39.195    1.3060
   39.210    1.4534
   39.225    1.6851
   39.240    1.6324
   39.255    1.4745
   39.270    1.4429
   39.285    1.3481
   39.300    1.4955
   39.315    1.5061
   39.330    1.4323
   39.345    1.4955
   39.360    1.5061
   39.375    1.3691
   39.390    1.4639
   39.405    1.4218
   39.420    1.3481
   39.435    1.5166
   39.450    1.5061
   39.465    1.6746
   39.480    1.5271
   39.495    1.4955
   39.510    1.4007
   39.525    1.4955
   39.540    1.4639
   39.555    1.5482
   39.570    1.6746
   39.585    1.4323
   39.600    1.3586
   39.615    1.4113
   39.630    1.5903
   39.645    1.4745
   39.660    1.5377
   39.675    1.5166
   39.690    1.3375
   39.705    1.4323
   39.720    1.5798
   39.735    1.4113
   39.750    1.4323
   39.765    1.4007
   39.780    1.5692
   39.795    1.3902
   39.810    1.2638
   39.825    1.3481
   39.840    1.5587
   39.855    1.6430
   39.870    1.5166
   39.885    1.5377
   39.900    1.3797
   39.915    1.4534
   39.930    1.5061
   39.945    1.4639
   39.960    1.3375
   39.975    1.4323
   39.990    1.3797
