    1.500   13.3052
    1.515   13.6388
    1.530   12.9893
    1.545   12.4803
    1.560   12.6031
    1.575   12.6558
    1.590   11.7781
    1.605   11.8483
    1.620   12.3398
    1.635   12.0590
    1.650   11.9186
    1.665   11.3920
    1.680   11.0760
    1.695   11.7781
    1.710   11.3042
    1.725   10.7074
    1.740   11.0233
    1.755   10.4792
    1.770   10.5845
    1.785   11.0058
    1.800   10.4968
    1.815   10.4090
    1.830   10.4616
    1.845   10.6547
    1.860   10.3739
    1.875    9.6718
    1.890    9.9526
    1.905   10.4616
    1.920    9.5313
    1.935   10.5494
    1.950    9.5840
    1.965    9.9526
    1.980    9.3909
    1.995    9.8297
    2.010    9.9175
    2.025    9.6542
    2.040    9.3031
    2.055   10.1106
    2.070    9.5489
    2.085    9.0223
    2.100    9.1452
    2.115    9.5840
    2.130   10.0579
    2.145    9.4260
    2.160    9.5313
    2.175    9.4085
    2.190    9.1452
    2.205    8.7063
    2.220    9.3382
    2.235    8.8643
    2.250    9.4436
    2.265    9.1627
    2.280    8.6712
    2.295    9.0750
    2.310    8.5659
    2.325    9.1452
    2.340    9.2154
    2.355    9.0398
    2.370    8.6888
    2.385    8.8292
    2.400    9.1803
    2.415    8.9170
    2.430    8.7239
    2.445    8.7414
    2.460    8.8643
    2.475    8.6888
    2.490    8.6537
    2.505    9.5489
    2.520    9.4260
    2.535    8.6888
    2.550    8.2851
    2.565    8.7063
    2.580    8.7239
    2.595    8.7765
    2.610    8.7590
    2.625    9.3031
    2.640    8.2851
    2.655    8.4957
    2.670    8.6537
    2.685    8.9872
    2.700    9.3558
    2.715    9.2505
    2.730    8.9872
    2.745    8.8643
    2.760    9.3909
    2.775    9.7771
    2.790    9.0047
    2.805    9.1101
    2.820    9.1276
    2.835    9.9526
    2.850    9.4962
    2.865    9.8473
    2.880    9.0047
    2.895    9.6367
    2.910    9.6893
    2.925   10.0579
    2.940   10.7952
    2.955   10.6547
    2.970   10.9005
    2.985   11.1989
    3.000   10.9707
    3.015   11.3393
    3.030   11.4797
    3.045   12.0941
    3.060   13.1122
    3.075   12.8840
    3.090   13.7441
    3.105   13.7441
    3.120   14.4989
    3.135   16.0260
    3.150   15.5169
    3.165   15.8504
    3.180   15.7451
    3.195   14.6393
    3.210   13.5334
    3.225   13.2526
    3.240   12.1116
    3.255   11.8483
    3.270   11.1638
    3.285   10.1632
    3.300    9.8297
    3.315    9.9526
    3.330    9.9351
    3.345    9.9877
    3.360    9.9877
    3.375   10.7952
    3.390   10.7776
    3.405    9.9351
    3.420   10.4265
    3.435   10.5494
    3.450   10.4090
    3.465   10.2335
    3.480   10.5494
    3.495   11.1638
    3.510   11.5324
    3.525   12.1643
    3.540   11.7781
    3.555   12.9717
    3.570   13.3579
    3.585   12.7962
    3.600   13.0946
    3.615   14.4638
    3.630   15.2712
    3.645   15.1483
    3.660   16.2893
    3.675   17.2547
    3.690   17.6584
    3.705   18.8169
    3.720   20.7829
    3.735   22.4153
    3.750   24.7499
    3.765   27.9972
    3.780   27.9270
    3.795   26.6807
    3.810   23.4158
    3.825   19.7472
    3.840   14.4111
    3.855   11.9010
    3.870   10.6372
    3.885   10.0053
    3.900    9.4260
    3.915    9.2680
    3.930    9.0925
    3.945    8.9872
    3.960    9.1276
    3.975    8.1446
    3.990    8.6537
    4.005    8.3904
    4.020    8.4430
    4.035    8.6186
    4.050    8.2324
    4.065    8.2149
    4.080    7.6005
    4.095    7.0739
    4.110    7.7936
    4.125    7.4952
    4.140    7.5127
    4.155    7.4601
    4.170    7.6005
    4.185    7.6356
    4.200    7.5303
    4.215    7.7409
    4.230    7.2845
    4.245    6.8282
    4.260    7.5478
    4.275    7.4776
    4.290    7.7936
    4.305    7.6532
    4.320    7.8287
    4.335    8.0042
    4.350    7.2143
    4.365    7.2845
    4.380    7.3372
    4.395    7.2143
    4.410    7.5829
    4.425    7.1792
    4.440    7.5654
    4.455    7.3723
    4.470    7.3372
    4.485    7.0212
    4.500    7.9867
    4.515    7.1968
    4.530    7.4074
    4.545    7.7234
    4.560    7.6356
    4.575    7.5303
    4.590    7.3547
    4.605    7.4601
    4.620    7.1968
    4.635    7.3547
    4.650    7.1441
    4.665    7.7760
    4.680    7.7585
    4.695    7.3547
    4.710    7.7058
    4.725    8.1622
    4.740    7.7936
    4.755    7.2319
    4.770    7.8111
    4.785    8.0569
    4.800    7.3021
    4.815    7.5303
    4.830    7.6005
    4.845    7.5303
    4.860    7.9516
    4.875    7.7058
    4.890    7.8638
    4.905    7.8989
    4.920    8.1622
    4.935    8.3026
    4.950    7.9516
    4.965    8.0744
    4.980    8.2500
    4.995    8.3728
    5.010    8.4957
    5.025    8.5659
    5.040    8.8994
    5.055    8.4781
    5.070    8.8468
    5.085    8.5659
    5.100    8.3728
    5.115    8.7063
    5.130    9.3207
    5.145    9.2154
    5.160    9.1627
    5.175    9.4962
    5.190    9.8473
    5.205   10.2510
    5.220    9.8648
    5.235    9.8297
    5.250   10.0579
    5.265   10.8829
    5.280   11.3569
    5.295   12.1643
    5.310   12.3223
    5.325   12.5329
    5.340   13.2877
    5.355   13.9547
    5.370   13.6212
    5.385   13.0420
    5.400   12.0941
    5.415   11.2866
    5.430   10.9005
    5.445   10.7952
    5.460    9.8648
    5.475   10.0053
    5.490   10.0404
    5.505    9.1978
    5.520    9.7420
    5.535    9.6893
    5.550    9.8473
    5.565    9.7771
    5.580    9.7244
    5.595    9.2856
    5.610    9.7771
    5.625    9.7420
    5.640    9.5489
    5.655   10.2335
    5.670    9.4436
    5.685    9.6367
    5.700    9.8122
    5.715    9.4085
    5.730    9.1803
    5.745    9.3207
    5.760    9.4085
    5.775    8.7765
    5.790    8.5133
    5.805    8.7590
    5.820    8.7414
    5.835    8.3904
    5.850    8.5659
    5.865    8.3553
    5.880    8.8643
    5.895    8.2675
    5.910    8.2851
    5.925    8.4781
    5.940    8.1797
    5.955    8.4430
    5.970    8.5308
    5.985    8.1095
    6.000    7.8287
    6.015    7.6707
    6.030    7.9164
    6.045    7.4776
    6.060    7.8111
    6.075    7.4074
    6.090    7.5654
    6.105    8.2851
    6.120    7.8111
    6.135    7.5127
    6.150    7.5478
    6.165    7.3723
    6.180    7.4776
    6.195    7.7058
    6.210    7.7760
    6.225    7.3899
    6.240    7.3372
    6.255    7.5654
    6.270    8.2851
    6.285    7.8111
    6.300    7.7409
    6.315    7.2845
    6.330    7.8638
    6.345    7.8989
    6.360    8.4255
    6.375    8.0744
    6.390    8.3553
    6.405    8.1973
    6.420    7.4601
    6.435    8.3553
    6.450    7.8287
    6.465    7.8813
    6.480    8.0920
    6.495    8.3202
    6.510    7.8989
    6.525    7.7936
    6.540    8.1797
    6.555    7.7585
    6.570    8.2851
    6.585    8.4430
    6.600    8.2324
    6.615    8.1271
    6.630    7.8287
    6.645    7.4952
    6.660    7.0212
    6.675    6.1611
    6.690    6.2840
    6.705    6.5122
    6.720    6.4069
    6.735    6.3893
    6.750    6.3016
    6.765    6.8106
    6.780    6.4946
    6.795    6.0558
    6.810    6.0207
    6.825    6.1260
    6.840    6.0734
    6.855    6.5824
    6.870    6.6000
    6.885    6.1260
    6.900    6.6175
    6.915    6.5649
    6.930    6.8633
    6.945    6.4946
    6.960    5.9505
    6.975    6.3893
    6.990    6.7228
    7.005    6.5122
    7.020    6.6175
    7.035    5.9329
    7.050    5.9329
    7.065    6.0383
    7.080    6.2313
    7.095    5.9681
    7.110    6.0383
    7.125    6.2665
    7.140    5.8452
    7.155    5.9681
    7.170    6.2138
    7.185    5.6872
    7.200    6.0558
    7.215    6.0383
    7.230    6.3367
    7.245    5.9329
    7.260    5.7223
    7.275    5.8803
    7.290    5.6170
    7.305    5.5117
    7.320    5.3010
    7.335    5.7925
    7.350    6.0734
    7.365    5.8978
    7.380    6.1260
    7.395    5.7048
    7.410    6.4420
    7.425    5.7750
    7.440    6.0383
    7.455    6.1260
    7.470    5.9329
    7.485    5.5994
    7.500    5.8803
    7.515    5.6872
    7.530    5.6170
    7.545    5.6697
    7.560    5.9154
    7.575    6.1085
    7.590    6.4420
    7.605    6.7755
    7.620    6.2840
    7.635    6.5298
    7.650    5.7925
    7.665    6.1611
    7.680    6.3016
    7.695    5.5994
    7.710    6.0032
    7.725    5.9154
    7.740    5.3712
    7.755    5.3361
    7.770    5.6345
    7.785    5.8101
    7.800    5.6872
    7.815    5.3888
    7.830    5.3712
    7.845    5.7399
    7.860    5.3712
    7.875    4.9851
    7.890    5.5117
    7.905    5.3186
    7.920    5.1606
    7.935    5.1957
    7.950    5.3361
    7.965    5.7750
    7.980    5.3888
    7.995    5.2659
    8.010    4.8271
    8.025    4.7920
    8.040    4.9149
    8.055    4.8798
    8.070    4.8095
    8.085    5.1782
    8.100    5.0377
    8.115    4.9675
    8.130    5.0202
    8.145    4.7569
    8.160    4.8447
    8.175    4.7218
    8.190    4.6867
    8.205    4.6340
    8.220    5.0377
    8.235    4.9675
    8.250    4.8973
    8.265    5.4766
    8.280    4.9851
    8.295    4.7569
    8.310    4.8798
    8.325    4.5463
    8.340    4.7920
    8.355    4.6691
    8.370    5.1606
    8.385    4.7569
    8.400    5.1957
    8.415    4.7042
    8.430    4.7920
    8.445    5.1606
    8.460    4.7744
    8.475    4.7744
    8.490    5.4590
    8.505    5.4941
    8.520    5.7048
    8.535    5.4415
    8.550    5.0026
    8.565    4.8798
    8.580    4.6516
    8.595    5.0553
    8.610    4.6691
    8.625    4.8447
    8.640    4.6340
    8.655    4.5814
    8.670    4.3356
    8.685    4.6516
    8.700    4.4409
    8.715    4.7744
    8.730    4.8622
    8.745    4.4409
    8.760    4.7042
    8.775    4.5638
    8.790    4.6516
    8.805    4.7744
    8.820    4.2127
    8.835    4.5463
    8.850    4.9149
    8.865    4.6165
    8.880    4.8095
    8.895    5.0377
    8.910    4.6691
    8.925    4.6340
    8.940    4.5638
    8.955    4.8271
    8.970    4.6867
    8.985    4.4585
    9.000    4.5989
    9.015    4.5814
    9.030    4.6867
    9.045    4.7042
    9.060    4.5111
    9.075    5.0202
    9.090    4.8622
    9.105    3.9319
    9.120    4.5814
    9.135    4.5287
    9.150    4.5638
    9.165    4.9500
    9.180    4.6867
    9.195    4.5638
    9.210    4.5287
    9.225    4.5463
    9.240    4.5989
    9.255    4.7920
    9.270    4.7920
    9.285    4.7920
    9.300    5.0026
    9.315    5.7048
    9.330    5.8978
    9.345    5.8978
    9.360    5.1080
    9.375    5.3186
    9.390    5.5117
    9.405    4.8622
    9.420    4.4234
    9.435    4.5463
    9.450    4.1425
    9.465    4.0021
    9.480    4.2830
    9.495    4.5989
    9.510    4.2303
    9.525    4.9500
    9.540    4.8798
    9.555    4.4585
    9.570    4.2830
    9.585    4.5638
    9.600    4.9851
    9.615    4.4760
    9.630    4.0899
    9.645    4.3005
    9.660    4.5463
    9.675    4.5638
    9.690    3.9670
    9.705    4.5989
    9.720    4.4234
    9.735    4.4760
    9.750    4.2478
    9.765    4.1952
    9.780    4.0548
    9.795    4.0899
    9.810    4.2127
    9.825    4.5989
    9.840    4.6340
    9.855    4.5111
    9.870    4.2830
    9.885    4.5111
    9.900    4.4058
    9.915    4.4058
    9.930    4.5638
    9.945    4.4234
    9.960    4.9149
    9.975    4.9500
    9.990    4.9675
   10.005    4.7569
   10.020    5.2484
   10.035    5.1255
   10.050    5.1080
   10.065    5.4941
   10.080    6.4244
   10.095    6.0383
   10.110    6.0558
   10.125    5.8978
   10.140    5.5117
   10.155    5.4064
   10.170    5.4239
   10.185    4.7393
   10.200    4.6867
   10.215    4.9149
   10.230    4.6340
   10.245    4.9324
   10.260    4.7218
   10.275    4.3181
   10.290    4.4058
   10.305    4.4058
   10.320    4.5287
   10.335    4.2830
   10.350    4.3356
   10.365    4.6165
   10.380    4.3532
   10.395    4.9675
   10.410    4.7042
   10.425    4.4585
   10.440    4.6516
   10.455    4.7393
   10.470    4.5111
   10.485    4.5638
   10.500    4.6691
   10.515    4.4585
   10.530    4.8271
   10.545    4.7569
   10.560    4.8973
   10.575    4.9500
   10.590    4.8622
   10.605    4.6165
   10.620    4.8798
   10.635    4.7569
   10.650    4.7920
   10.665    4.7569
   10.680    4.9675
   10.695    4.6691
   10.710    4.5287
   10.725    4.8798
   10.740    4.7569
   10.755    5.2133
   10.770    4.9675
   10.785    5.1606
   10.800    5.4766
   10.815    5.1782
   10.830    4.9675
   10.845    5.0377
   10.860    4.5287
   10.875    4.8798
   10.890    4.5638
   10.905    4.6340
   10.920    4.7920
   10.935    5.1255
   10.950    5.1606
   10.965    4.9324
   10.980    5.0728
   10.995    4.7744
   11.010    4.9324
   11.025    4.9149
   11.040    4.6867
   11.055    4.6340
   11.070    4.5638
   11.085    4.7744
   11.100    5.0377
   11.115    4.9324
   11.130    5.2484
   11.145    5.0904
   11.160    5.4766
   11.175    4.8447
   11.190    4.7042
   11.205    4.8798
   11.220    4.7569
   11.235    4.5463
   11.250    4.8095
   11.265    5.4064
   11.280    4.8447
   11.295    4.8622
   11.310    4.7569
   11.325    4.5638
   11.340    4.6340
   11.355    5.0026
   11.370    4.9851
   11.385    4.9149
   11.400    4.9500
   11.415    5.0377
   11.430    4.5638
   11.445    5.3010
   11.460    5.7223
   11.475    4.9149
   11.490    5.0553
   11.505    5.0904
   11.520    5.2484
   11.535    4.6691
   11.550    4.8622
   11.565    4.7744
   11.580    4.8973
   11.595    4.4760
   11.610    4.4234
   11.625    4.9149
   11.640    5.1431
   11.655    4.6340
   11.670    4.6516
   11.685    4.6691
   11.700    4.4234
   11.715    4.5111
   11.730    4.3532
   11.745    4.3181
   11.760    4.7744
   11.775    4.8798
   11.790    4.8973
   11.805    4.5463
   11.820    4.4936
   11.835    4.2830
   11.850    4.3005
   11.865    4.3005
   11.880    4.4585
   11.895    4.7744
   11.910    4.6516
   11.925    4.8447
   11.940    5.0553
   11.955    4.6867
   11.970    4.2303
   11.985    4.1952
   12.000    4.3005
   12.015    4.5463
   12.030    4.7744
   12.045    4.5463
   12.060    4.4585
   12.075    4.6516
   12.090    4.7569
   12.105    4.6691
   12.120    4.7042
   12.135    4.7744
   12.150    4.4409
   12.165    4.3181
   12.180    4.1952
   12.195    4.2127
   12.210    4.7393
   12.225    4.4936
   12.240    4.4936
   12.255    4.9500
   12.270    4.5638
   12.285    4.5287
   12.300    4.3707
   12.315    4.5287
   12.330    4.5463
   12.345    4.4234
   12.360    4.4936
   12.375    4.5814
   12.390    4.5814
   12.405    4.5638
   12.420    4.2654
   12.435    4.4409
   12.450    4.4058
   12.465    4.3883
   12.480    4.5111
   12.495    4.1250
   12.510    4.5989
   12.525    4.8271
   12.540    4.6867
   12.555    4.0372
   12.570    4.1074
   12.585    4.6165
   12.600    4.5989
   12.615    4.5463
   12.630    4.7393
   12.645    5.0553
   12.660    5.0904
   12.675    5.0202
   12.690    5.1080
   12.705    4.9500
   12.720    4.8622
   12.735    4.7393
   12.750    4.5463
   12.765    4.4585
   12.780    4.5463
   12.795    4.7218
   12.810    4.3356
   12.825    4.2127
   12.840    4.5111
   12.855    4.4058
   12.870    4.3532
   12.885    4.2127
   12.900    4.2830
   12.915    4.4058
   12.930    4.3883
   12.945    4.2127
   12.960    4.2478
   12.975    4.2478
   12.990    4.1952
   13.005    4.2654
   13.020    4.1425
   13.035    4.4234
   13.050    4.5463
   13.065    4.2478
   13.080    4.0548
   13.095    4.2478
   13.110    4.3883
   13.125    4.4234
   13.140    4.8095
   13.155    4.3883
   13.170    4.6165
   13.185    4.4936
   13.200    4.3005
   13.215    4.2478
   13.230    5.0553
   13.245    5.1957
   13.260    4.5463
   13.275    4.4760
   13.290    4.3181
   13.305    4.5287
   13.320    4.2478
   13.335    4.5287
   13.350    4.7569
   13.365    4.7744
   13.380    4.3181
   13.395    4.3181
   13.410    4.3883
   13.425    4.3005
   13.440    4.6867
   13.455    4.2830
   13.470    4.3532
   13.485    4.2127
   13.500    3.9670
   13.515    4.0021
   13.530    4.3707
   13.545    4.3883
   13.560    4.4409
   13.575    4.4585
   13.590    4.1074
   13.605    4.5287
   13.620    4.4234
   13.635    4.6165
   13.650    4.3356
   13.665    4.3181
   13.680    4.6867
   13.695    4.5111
   13.710    4.6516
   13.725    4.2478
   13.740    4.5463
   13.755    5.0026
   13.770    4.7920
   13.785    4.7920
   13.800    5.0728
   13.815    5.3888
   13.830    4.8095
   13.845    4.5111
   13.860    4.8622
   13.875    4.6867
   13.890    4.4760
   13.905    4.4058
   13.920    4.7744
   13.935    5.0202
   13.950    4.6340
   13.965    4.5463
   13.980    4.6165
   13.995    4.7393
   14.010    4.5463
   14.025    4.5814
   14.040    4.4058
   14.055    4.6340
   14.070    4.4936
   14.085    4.5111
   14.100    4.7920
   14.115    4.8447
   14.130    4.7569
   14.145    4.9500
   14.160    4.5814
   14.175    5.0202
   14.190    4.3532
   14.205    4.7920
   14.220    4.5287
   14.235    5.2484
   14.250    4.6516
   14.265    5.0026
   14.280    4.7042
   14.295    4.7042
   14.310    4.8973
   14.325    4.7218
   14.340    4.6691
   14.355    4.7218
   14.370    4.8622
   14.385    4.9149
   14.400    4.5463
   14.415    4.6516
   14.430    4.5814
   14.445    4.4760
   14.460    4.7744
   14.475    4.7569
   14.490    5.1255
   14.505    4.7218
   14.520    5.0377
   14.535    4.7393
   14.550    4.8622
   14.565    4.9149
   14.580    4.4760
   14.595    4.4058
   14.610    4.7920
   14.625    4.5111
   14.640    4.4234
   14.655    4.9675
   14.670    4.8095
   14.685    4.8095
   14.700    4.9675
   14.715    4.7218
   14.730    4.7042
   14.745    4.3005
   14.760    4.4409
   14.775    4.5463
   14.790    4.5989
   14.805    4.5814
   14.820    4.6340
   14.835    4.8798
   14.850    4.3883
   14.865    4.3181
   14.880    4.3356
   14.895    4.8798
   14.910    5.0202
   14.925    4.6867
   14.940    4.6691
   14.955    4.4936
   14.970    4.5989
   14.985    4.2127
   15.000    4.6867
   15.015    4.8622
   15.030    4.5989
   15.045    4.3532
   15.060    4.5463
   15.075    4.6691
   15.090    4.7393
   15.105    4.6340
   15.120    4.4234
   15.135    4.0548
   15.150    4.1601
   15.165    4.7920
   15.180    4.5638
   15.195    4.5111
   15.210    4.4936
   15.225    4.1425
   15.240    4.2478
   15.255    4.4234
   15.270    4.7042
   15.285    4.0197
   15.300    4.1250
   15.315    4.0197
   15.330    4.3707
   15.345    4.1074
   15.360    4.3005
   15.375    4.4409
   15.390    4.4234
   15.405    4.6516
   15.420    4.3707
   15.435    4.4234
   15.450    4.8622
   15.465    4.6340
   15.480    4.3707
   15.495    4.5287
   15.510    4.4409
   15.525    4.3181
   15.540    4.2478
   15.555    4.5638
   15.570    4.4760
   15.585    4.0197
   15.600    4.1074
   15.615    4.1250
   15.630    4.3005
   15.645    4.3532
   15.660    4.6340
   15.675    3.8792
   15.690    4.1952
   15.705    4.2303
   15.720    4.3005
   15.735    4.3532
   15.750    4.4760
   15.765    4.5814
   15.780    4.5463
   15.795    4.4936
   15.810    4.4409
   15.825    4.2478
   15.840    4.3356
   15.855    4.1952
   15.870    4.5989
   15.885    4.5287
   15.900    4.7920
   15.915    4.4234
   15.930    4.5287
   15.945    4.0021
   15.960    4.6867
   15.975    4.2303
   15.990    4.3005
   16.005    4.1074
   16.020    4.0723
   16.035    4.0723
   16.050    4.1425
   16.065    4.2654
   16.080    4.2830
   16.095    4.1776
   16.110    4.3707
   16.125    4.0548
   16.140    4.0021
   16.155    4.3707
   16.170    4.3181
   16.185    4.8271
   16.200    4.5463
   16.215    4.1952
   16.230    4.5814
   16.245    4.5463
   16.260    4.8271
   16.275    4.3532
   16.290    3.8617
   16.305    4.2830
   16.320    4.2478
   16.335    4.2830
   16.350    4.8447
   16.365    4.2830
   16.380    3.8617
   16.395    4.1952
   16.410    4.3532
   16.425    4.5814
   16.440    4.1425
   16.455    4.2303
   16.470    4.6867
   16.485    4.5111
   16.500    3.8792
   16.515    3.8441
   16.530    4.1425
   16.545    4.4409
   16.560    4.3532
   16.575    3.8792
   16.590    4.0372
   16.605    4.5463
   16.620    4.2303
   16.635    4.0021
   16.650    4.4760
   16.665    4.4760
   16.680    4.2303
   16.695    4.4234
   16.710    4.2127
   16.725    4.7218
   16.740    4.3707
   16.755    4.3356
   16.770    4.3883
   16.785    4.2127
   16.800    4.0197
   16.815    4.1425
   16.830    4.0021
   16.845    4.1425
   16.860    4.2830
   16.875    3.8617
   16.890    4.0899
   16.905    4.0723
   16.920    4.0899
   16.935    4.4409
   16.950    4.1425
   16.965    4.1074
   16.980    4.3883
   16.995    4.6340
   17.010    4.5111
   17.025    3.9319
   17.040    3.8441
   17.055    3.9143
   17.070    4.1601
   17.085    4.2478
   17.100    4.0021
   17.115    3.9494
   17.130    4.0723
   17.145    4.2654
   17.160    4.7744
   17.175    4.6340
   17.190    4.8271
   17.205    4.6165
   17.220    4.2303
   17.235    3.9846
   17.250    4.0197
   17.265    4.4234
   17.280    4.2478
   17.295    4.4936
   17.310    4.2654
   17.325    4.5287
   17.340    4.3883
   17.355    4.5111
   17.370    4.2127
   17.385    4.3883
   17.400    4.0548
   17.415    4.4936
   17.430    4.4058
   17.445    4.1776
   17.460    4.4234
   17.475    4.4234
   17.490    4.1601
   17.505    4.2654
   17.520    4.1776
   17.535    4.5287
   17.550    4.3883
   17.565    3.8266
   17.580    4.1952
   17.595    3.9670
   17.610    4.2830
   17.625    3.9494
   17.640    4.1425
   17.655    4.5111
   17.670    4.3005
   17.685    3.9319
   17.700    4.1601
   17.715    3.9670
   17.730    3.9494
   17.745    3.9143
   17.760    4.1250
   17.775    4.4234
   17.790    4.1074
   17.805    4.5814
   17.820    4.3532
   17.835    4.2478
   17.850    4.0899
   17.865    4.1601
   17.880    4.0723
   17.895    4.3883
   17.910    4.3005
   17.925    3.8441
   17.940    4.4585
   17.955    4.1250
   17.970    4.1250
   17.985    4.2478
   18.000    4.1952
   18.015    4.3181
   18.030    4.1776
   18.045    4.1601
   18.060    4.4058
   18.075    4.0899
   18.090    4.0548
   18.105    4.6516
   18.120    4.2303
   18.135    4.1425
   18.150    4.2830
   18.165    3.8792
   18.180    4.1425
   18.195    3.8792
   18.210    4.3532
   18.225    4.2478
   18.240    3.9494
   18.255    3.8968
   18.270    3.9846
   18.285    4.3883
   18.300    4.4409
   18.315    4.2127
   18.330    4.3181
   18.345    4.0899
   18.360    4.1074
   18.375    4.4585
   18.390    4.4585
   18.405    4.2830
   18.420    4.1776
   18.435    4.2478
   18.450    4.2127
   18.465    4.4585
   18.480    4.1425
   18.495    4.2654
   18.510    4.0197
   18.525    4.2654
   18.540    3.9143
   18.555    3.9143
   18.570    4.0021
   18.585    3.7915
   18.600    4.1952
   18.615    3.9319
   18.630    3.8266
   18.645    4.2830
   18.660    4.4760
   18.675    4.1425
   18.690    4.6340
   18.705    4.0021
   18.720    3.5984
   18.735    4.5814
   18.750    4.1250
   18.765    3.8617
   18.780    3.8792
   18.795    4.3532
   18.810    4.1425
   18.825    4.0021
   18.840    3.9143
   18.855    3.7915
   18.870    4.0899
   18.885    4.0899
   18.900    4.1425
   18.915    4.1074
   18.930    4.6340
   18.945    4.8622
   18.960    4.9851
   18.975    4.7218
   18.990    4.4936
   19.005    4.5638
   19.020    4.6691
   19.035    4.7393
   19.050    4.6165
   19.065    3.8968
   19.080    4.1776
   19.095    3.9846
   19.110    3.8266
   19.125    4.2830
   19.140    3.9319
   19.155    4.1952
   19.170    4.0548
   19.185    4.2830
   19.200    4.3005
   19.215    4.1074
   19.230    3.7739
   19.245    4.1776
   19.260    4.0197
   19.275    3.8617
   19.290    4.5287
   19.305    4.0899
   19.320    4.1074
   19.335    4.0899
   19.350    4.0372
   19.365    4.2654
   19.380    4.0197
   19.395    3.9846
   19.410    4.0723
   19.425    3.9494
   19.440    3.7739
   19.455    3.8968
   19.470    4.0197
   19.485    3.7388
   19.500    4.0899
   19.515    3.9494
   19.530    4.0899
   19.545    4.1425
   19.560    3.8792
   19.575    4.0372
   19.590    3.9846
   19.605    4.1074
   19.620    4.1601
   19.635    3.9319
   19.650    3.7213
   19.665    3.8617
   19.680    3.8617
   19.695    3.7213
   19.710    4.0197
   19.725    4.1250
   19.740    4.0021
   19.755    3.9846
   19.770    4.0548
   19.785    3.8968
   19.800    3.7213
   19.815    3.8266
   19.830    3.7739
   19.845    4.1952
   19.860    3.5808
   19.875    3.6335
   19.890    3.7213
   19.905    3.8617
   19.920    3.8617
   19.935    4.3356
   19.950    3.9846
   19.965    3.8090
   19.980    4.0021
   19.995    4.1074
   20.010    4.1425
   20.025    3.6159
   20.040    3.8968
   20.055    3.7739
   20.070    4.1250
   20.085    4.1601
   20.100    3.9319
   20.115    3.9494
   20.130    3.8441
   20.145    3.8792
   20.160    3.8617
   20.175    4.1074
   20.190    4.1952
   20.205    3.7564
   20.220    3.8617
   20.235    3.7915
   20.250    4.2478
   20.265    3.5984
   20.280    3.9319
   20.295    4.4058
   20.310    3.7213
   20.325    3.7037
   20.340    3.9494
   20.355    3.7739
   20.370    3.7564
   20.385    3.8792
   20.400    3.9670
   20.415    3.7388
   20.430    3.7037
   20.445    3.4580
   20.460    3.2298
   20.475    3.8266
   20.490    3.8792
   20.505    3.6335
   20.520    3.6335
   20.535    3.9846
   20.550    3.9319
   20.565    3.7037
   20.580    3.8090
   20.595    3.8792
   20.610    3.8792
   20.625    3.7564
   20.640    3.5808
   20.655    3.8090
   20.670    3.7213
   20.685    3.8792
   20.700    3.5282
   20.715    4.0723
   20.730    3.6862
   20.745    3.7915
   20.760    4.0723
   20.775    3.9670
   20.790    3.8968
   20.805    3.5633
   20.820    3.6686
   20.835    3.7388
   20.850    3.7915
   20.865    3.9494
   20.880    3.9846
   20.895    3.8441
   20.910    3.4755
   20.925    3.7213
   20.940    3.8792
   20.955    3.5282
   20.970    4.0372
   20.985    3.8617
   21.000    3.8090
   21.015    3.6686
   21.030    3.8968
   21.045    3.9670
   21.060    3.9143
   21.075    3.7213
   21.090    3.8792
   21.105    3.8968
   21.120    3.8792
   21.135    3.9319
   21.150    3.4404
   21.165    3.7739
   21.180    4.1601
   21.195    3.8441
   21.210    3.7564
   21.225    3.5633
   21.240    3.6862
   21.255    3.8090
   21.270    3.7037
   21.285    3.4755
   21.300    3.8090
   21.315    3.6862
   21.330    3.9143
   21.345    3.4580
   21.360    3.6686
   21.375    4.1601
   21.390    4.0197
   21.405    3.4755
   21.420    4.0372
   21.435    3.9846
   21.450    3.9319
   21.465    3.9846
   21.480    3.7037
   21.495    3.4404
   21.510    3.6686
   21.525    4.0197
   21.540    3.8266
   21.555    3.5808
   21.570    3.8266
   21.585    3.8266
   21.600    3.4404
   21.615    3.8968
   21.630    3.7915
   21.645    3.5282
   21.660    3.6686
   21.675    3.7213
   21.690    4.0723
   21.705    3.5633
   21.720    3.6862
   21.735    3.7388
   21.750    3.7388
   21.765    3.5282
   21.780    3.4755
   21.795    3.9846
   21.810    3.7213
   21.825    3.7388
   21.840    3.6862
   21.855    4.0021
   21.870    3.9319
   21.885    3.7915
   21.900    3.8441
   21.915    3.4931
   21.930    3.3702
   21.945    3.5808
   21.960    3.8441
   21.975    3.3351
   21.990    3.3526
   22.005    3.7037
   22.020    3.9143
   22.035    3.7037
   22.050    3.5457
   22.065    4.2303
   22.080    3.9494
   22.095    3.8441
   22.110    3.7037
   22.125    3.7564
   22.140    3.7564
   22.155    3.7915
   22.170    3.7388
   22.185    3.9319
   22.200    3.6510
   22.215    3.7915
   22.230    3.5808
   22.245    3.3526
   22.260    3.0718
   22.275    3.0893
   22.290    3.4053
   22.305    3.4053
   22.320    3.4755
   22.335    3.4755
   22.350    3.7564
   22.365    3.4755
   22.380    3.8090
   22.395    3.6335
   22.410    3.7213
   22.425    3.7388
   22.440    3.4755
   22.455    3.7388
   22.470    3.7213
   22.485    3.7915
   22.500    3.6335
   22.515    3.5282
   22.530    3.5633
   22.545    3.5633
   22.560    3.7739
   22.575    3.4755
   22.590    3.6159
   22.605    3.3526
   22.620    3.4580
   22.635    3.5282
   22.650    3.6335
   22.665    3.4755
   22.680    3.5808
   22.695    3.8441
   22.710    3.7213
   22.725    3.5633
   22.740    3.2122
   22.755    3.1947
   22.770    2.9489
   22.785    3.4404
   22.800    3.5106
   22.815    3.6159
   22.830    3.4931
   22.845    3.5984
   22.860    3.8266
   22.875    3.3000
   22.890    3.3175
   22.905    3.3702
   22.920    3.3351
   22.935    3.7564
   22.950    3.6686
   22.965    3.3526
   22.980    3.4229
   22.995    3.3526
   23.010    3.6510
   23.025    3.3877
   23.040    3.6862
   23.055    4.0021
   23.070    3.4931
   23.085    3.2824
   23.100    3.5106
   23.115    3.7037
   23.130    3.6335
   23.145    3.5282
   23.160    3.6159
   23.175    3.4580
   23.190    3.2473
   23.205    3.4053
   23.220    3.2649
   23.235    3.3877
   23.250    3.6335
   23.265    3.1596
   23.280    3.2473
   23.295    3.5457
   23.310    3.7915
   23.325    3.6335
   23.340    3.5808
   23.355    3.7037
   23.370    3.8792
   23.385    3.5282
   23.400    3.2298
   23.415    3.4053
   23.430    3.4755
   23.445    3.3175
   23.460    2.9665
   23.475    3.4755
   23.490    3.8090
   23.505    3.4931
   23.520    3.4404
   23.535    3.4404
   23.550    3.3175
   23.565    3.2649
   23.580    3.3526
   23.595    3.7037
   23.610    3.5808
   23.625    3.5106
   23.640    3.4053
   23.655    3.4229
   23.670    2.9489
   23.685    3.1771
   23.700    3.1947
   23.715    3.0367
   23.730    3.3877
   23.745    3.2649
   23.760    3.1947
   23.775    3.4580
   23.790    3.3877
   23.805    3.3526
   23.820    3.3175
   23.835    3.2122
   23.850    3.4229
   23.865    3.2298
   23.880    3.2122
   23.895    3.4404
   23.910    3.7213
   23.925    3.4755
   23.940    3.1420
   23.955    3.1069
   23.970    3.0367
   23.985    3.1420
   24.000    3.0893
   24.015    3.3175
   24.030    3.3526
   24.045    3.5106
   24.060    3.3351
   24.075    2.9665
   24.090    3.0893
   24.105    3.0191
   24.120    3.1420
   24.135    3.1245
   24.150    3.4755
   24.165    3.5282
   24.180    3.2473
   24.195    3.2122
   24.210    3.0016
   24.225    2.8260
   24.240    3.2649
   24.255    3.7915
   24.270    3.6335
   24.285    3.3702
   24.300    3.4053
   24.315    3.2824
   24.330    3.3526
   24.345    3.4755
   24.360    3.1420
   24.375    3.2824
   24.390    2.9840
   24.405    2.6154
   24.420    3.3351
   24.435    3.1420
   24.450    3.3877
   24.465    3.5106
   24.480    3.1420
   24.495    3.2473
   24.510    2.9665
   24.525    3.1420
   24.540    3.2298
   24.555    3.0191
   24.570    3.0191
   24.585    3.4404
   24.600    3.1771
   24.615    3.0893
   24.630    3.1245
   24.645    3.2649
   24.660    2.7558
   24.675    3.0893
   24.690    2.8963
   24.705    3.0016
   24.720    3.3702
   24.735    3.2649
   24.750    3.2649
   24.765    2.7558
   24.780    3.1947
   24.795    3.3351
   24.810    3.0367
   24.825    3.3351
   24.840    2.9665
   24.855    2.9665
   24.870    3.0718
   24.885    3.3175
   24.900    3.0191
   24.915    3.3702
   24.930    3.1245
   24.945    3.0016
   24.960    3.0542
   24.975    3.2122
   24.990    3.0542
   25.005    3.0718
   25.020    3.1245
   25.035    3.2298
   25.050    3.2824
   25.065    3.0367
   25.080    3.2122
   25.095    2.9489
   25.110    2.9840
   25.125    3.0016
   25.140    2.7734
   25.155    3.1596
   25.170    3.3175
   25.185    3.3000
   25.200    3.1947
   25.215    3.3175
   25.230    3.3702
   25.245    3.2298
   25.260    3.1947
   25.275    3.4931
   25.290    3.7739
   25.305    3.2298
   25.320    3.2122
   25.335    3.1947
   25.350    3.4053
   25.365    2.9489
   25.380    3.2824
   25.395    3.1771
   25.410    3.0191
   25.425    3.0191
   25.440    3.0893
   25.455    2.6856
   25.470    3.0367
   25.485    2.8612
   25.500    2.9840
   25.515    3.0191
   25.530    3.3702
   25.545    3.2473
   25.560    2.8612
   25.575    3.2473
   25.590    2.9138
   25.605    2.8085
   25.620    2.8787
   25.635    3.0893
   25.650    2.9314
   25.665    2.9665
   25.680    3.0016
   25.695    2.9314
   25.710    3.1245
   25.725    2.9665
   25.740    3.0542
   25.755    3.1420
   25.770    3.0367
   25.785    2.9665
   25.800    2.9489
   25.815    3.2298
   25.830    3.1947
   25.845    3.2298
   25.860    3.2122
   25.875    3.2649
   25.890    2.9840
   25.905    3.1771
   25.920    3.2473
   25.935    2.8085
   25.950    3.0893
   25.965    3.1596
   25.980    2.7909
   25.995    2.9138
   26.010    2.7909
   26.025    2.7032
   26.040    2.9840
   26.055    2.7909
   26.070    2.9489
   26.085    2.9314
   26.100    2.5101
   26.115    2.8436
   26.130    3.1420
   26.145    3.1771
   26.160    2.9665
   26.175    2.7207
   26.190    3.3000
   26.205    2.8787
   26.220    2.7032
   26.235    2.8436
   26.250    3.1596
   26.265    3.1069
   26.280    3.1420
   26.295    2.9665
   26.310    2.8260
   26.325    2.9489
   26.340    2.9138
   26.355    2.8787
   26.370    2.7558
   26.385    3.0016
   26.400    3.1245
   26.415    3.0367
   26.430    2.8612
   26.445    3.1245
   26.460    3.5106
   26.475    3.0893
   26.490    3.3702
   26.505    3.1069
   26.520    2.8963
   26.535    3.0893
   26.550    2.8260
   26.565    2.9314
   26.580    2.7207
   26.595    2.9138
   26.610    3.0718
   26.625    3.2473
   26.640    3.0016
   26.655    2.8612
   26.670    2.7909
   26.685    2.8787
   26.700    2.7558
   26.715    2.8260
   26.730    3.1420
   26.745    2.9314
   26.760    2.8787
   26.775    3.1596
   26.790    2.8963
   26.805    2.7558
   26.820    2.9489
   26.835    3.0191
   26.850    3.0191
   26.865    2.6330
   26.880    2.9665
   26.895    2.9138
   26.910    2.7909
   26.925    2.8963
   26.940    2.8612
   26.955    3.0718
   26.970    2.8085
   26.985    2.9138
   27.000    3.1596
   27.015    2.7558
   27.030    2.8963
   27.045    2.9665
   27.060    2.6681
   27.075    2.6505
   27.090    2.8963
   27.105    2.9138
   27.120    2.8963
   27.135    2.9314
   27.150    2.5628
   27.165    2.8787
   27.180    2.3346
   27.195    2.7558
   27.210    2.9840
   27.225    2.7032
   27.240    2.4399
   27.255    2.8612
   27.270    2.6681
   27.285    2.4750
   27.300    2.8260
   27.315    2.8436
   27.330    2.5452
   27.345    2.7383
   27.360    2.8787
   27.375    3.0016
   27.390    2.5101
   27.405    2.6330
   27.420    3.0718
   27.435    2.8787
   27.450    2.9665
   27.465    3.0367
   27.480    2.9314
   27.495    2.7734
   27.510    2.9489
   27.525    2.9138
   27.540    2.9840
   27.555    2.6505
   27.570    2.4574
   27.585    2.7032
   27.600    2.7383
   27.615    2.6856
   27.630    2.4925
   27.645    2.6330
   27.660    2.6681
   27.675    2.9314
   27.690    2.8436
   27.705    2.7909
   27.720    2.6154
   27.735    2.7909
   27.750    2.4574
   27.765    2.1239
   27.780    2.5803
   27.795    2.8436
   27.810    2.6856
   27.825    2.6154
   27.840    2.9138
   27.855    2.7207
   27.870    2.7207
   27.885    2.8787
   27.900    2.8085
   27.915    2.7734
   27.930    3.1771
   27.945    2.9314
   27.960    3.1069
   27.975    3.0367
   27.990    3.4229
   28.005    3.0542
   28.020    3.1771
   28.035    3.1596
   28.050    2.8787
   28.065    2.6856
   28.080    2.5979
   28.095    2.6681
   28.110    2.5276
   28.125    2.5452
   28.140    2.7032
   28.155    2.6330
   28.170    2.7383
   28.185    2.3170
   28.200    2.8787
   28.215    2.6856
   28.230    2.8260
   28.245    3.0367
   28.260    2.6681
   28.275    2.4925
   28.290    2.8260
   28.305    2.7383
   28.320    2.5979
   28.335    2.2117
   28.350    2.4574
   28.365    2.4223
   28.380    2.8085
   28.395    2.7383
   28.410    2.5101
   28.425    2.5979
   28.440    2.5101
   28.455    2.7909
   28.470    2.8787
   28.485    2.5979
   28.500    2.5101
   28.515    2.5628
   28.530    2.6681
   28.545    2.9840
   28.560    2.8085
   28.575    2.9138
   28.590    2.3170
   28.605    2.6856
   28.620    2.8436
   28.635    2.3170
   28.650    2.6505
   28.665    2.7032
   28.680    2.8085
   28.695    2.6505
   28.710    2.8436
   28.725    2.4750
   28.740    2.5452
   28.755    2.7909
   28.770    2.8436
   28.785    2.7909
   28.800    2.7909
   28.815    2.5803
   28.830    2.5276
   28.845    2.5803
   28.860    3.0191
   28.875    2.7909
   28.890    2.4750
   28.905    2.6154
   28.920    2.8085
   28.935    2.8787
   28.950    3.3877
   28.965    3.2298
   28.980    3.0718
   28.995    3.1771
   29.010    2.9489
   29.025    2.4048
   29.040    2.6154
   29.055    2.6330
   29.070    2.6330
   29.085    2.5979
   29.100    2.2292
   29.115    2.5452
   29.130    2.5803
   29.145    2.5452
   29.160    2.7558
   29.175    2.7032
   29.190    2.9840
   29.205    2.7734
   29.220    2.4574
   29.235    2.7383
   29.250    3.1596
   29.265    2.8612
   29.280    2.6856
   29.295    2.5979
   29.310    2.7734
   29.325    2.8085
   29.340    2.5628
   29.355    2.4750
   29.370    2.3521
   29.385    2.3170
   29.400    2.5979
   29.415    2.4223
   29.430    2.4048
   29.445    2.4048
   29.460    2.4574
   29.475    2.1766
   29.490    2.1941
   29.505    2.2995
   29.520    2.4223
   29.535    2.2468
   29.550    2.4574
   29.565    2.4574
   29.580    2.2292
   29.595    2.2292
   29.610    2.4750
   29.625    2.3697
   29.640    2.0362
   29.655    2.4399
   29.670    2.1766
   29.685    2.0011
   29.700    2.3697
   29.715    2.6856
   29.730    2.6681
   29.745    2.4223
   29.760    2.1064
   29.775    1.6851
   29.790    2.1064
   29.805    2.2292
   29.820    2.5276
   29.835    2.3521
   29.850    2.2643
   29.865    2.5803
   29.880    2.2995
   29.895    2.0713
   29.910    2.3697
   29.925    2.4223
   29.940    1.8957
   29.955    2.2292
   29.970    2.2995
   29.985    2.4750
   30.000    2.1590
   30.015    2.2643
   30.030    2.3521
   30.045    2.0537
   30.060    1.9133
   30.075    2.3521
   30.090    2.2117
   30.105    2.4048
   30.120    2.5101
   30.135    2.3521
   30.150    2.4925
   30.165    2.4399
   30.180    2.2468
   30.195    2.2643
   30.210    2.3697
   30.225    2.2292
   30.240    2.1766
   30.255    2.2643
   30.270    2.5452
   30.285    2.4750
   30.300    2.0186
   30.315    2.2995
   30.330    2.2468
   30.345    2.0362
   30.360    2.0713
   30.375    2.1766
   30.390    2.0888
   30.405    2.3521
   30.420    2.3872
   30.435    2.4399
   30.450    2.0888
   30.465    2.3170
   30.480    2.3170
   30.495    2.2819
   30.510    2.1766
   30.525    2.0713
   30.540    2.2819
   30.555    2.1239
   30.570    2.4048
   30.585    2.4925
   30.600    2.1239
   30.615    2.2117
   30.630    2.3170
   30.645    2.1941
   30.660    2.0011
   30.675    2.1941
   30.690    2.3872
   30.705    2.3346
   30.720    2.2468
   30.735    2.2995
   30.750    2.0537
   30.765    2.0362
   30.780    2.4048
   30.795    2.0537
   30.810    2.2995
   30.825    2.0011
   30.840    2.3697
   30.855    2.1766
   30.870    2.2995
   30.885    2.3697
   30.900    2.1415
   30.915    2.2468
   30.930    1.9835
   30.945    2.0011
   30.960    2.2819
   30.975    2.2468
   30.990    2.4399
   31.005    2.3872
   31.020    2.0888
   31.035    2.0713
   31.050    2.2468
   31.065    2.2995
   31.080    2.2292
   31.095    2.2995
   31.110    1.9308
   31.125    1.9835
   31.140    2.0186
   31.155    2.0011
   31.170    1.9659
   31.185    2.2643
   31.200    1.7904
   31.215    2.1941
   31.230    2.2995
   31.245    2.0186
   31.260    2.0011
   31.275    2.1590
   31.290    2.4574
   31.305    1.9133
   31.320    2.1415
   31.335    2.1064
   31.350    2.1766
   31.365    1.8782
   31.380    1.9133
   31.395    2.2643
   31.410    2.2117
   31.425    1.9133
   31.440    1.8606
   31.455    2.0888
   31.470    2.2468
   31.485    2.2117
   31.500    1.9659
   31.515    2.0011
   31.530    2.0011
   31.545    2.0537
   31.560    2.1766
   31.575    1.9133
   31.590    1.7202
   31.605    1.8782
   31.620    2.1415
   31.635    1.9659
   31.650    2.0186
   31.665    1.8606
   31.680    2.0713
   31.695    2.1064
   31.710    1.9835
   31.725    1.9308
   31.740    2.1941
   31.755    2.2995
   31.770    2.0888
   31.785    1.9484
   31.800    2.2292
   31.815    2.0888
   31.830    1.9484
   31.845    2.0362
   31.860    1.9484
   31.875    2.1239
   31.890    2.0537
   31.905    2.1941
   31.920    2.0537
   31.935    2.0362
   31.950    2.0713
   31.965    1.7202
   31.980    1.8431
   31.995    1.8782
   32.010    2.1064
   32.025    2.2292
   32.040    2.3346
   32.055    2.7734
   32.070    3.0893
   32.085    3.3000
   32.100    3.1420
   32.115    3.1947
   32.130    2.6505
   32.145    2.0713
   32.160    2.0888
   32.175    2.1239
   32.190    2.0186
   32.205    2.0186
   32.220    2.0537
   32.235    2.0537
   32.250    2.0186
   32.265    2.0186
   32.280    2.0713
   32.295    1.8255
   32.310    1.8255
   32.325    1.6675
   32.340    2.0362
   32.355    2.0186
   32.370    1.9484
   32.385    1.8957
   32.400    1.9484
   32.415    1.9835
   32.430    1.8606
   32.445    1.8782
   32.460    1.7729
   32.475    2.1590
   32.490    1.9133
   32.505    1.9133
   32.520    1.9484
   32.535    2.1064
   32.550    1.9835
   32.565    2.1239
   32.580    1.8431
   32.595    1.7553
   32.610    1.9133
   32.625    1.8431
   32.640    1.7378
   32.655    1.7202
   32.670    1.8255
   32.685    1.9133
   32.700    1.7027
   32.715    2.1590
   32.730    2.0888
   32.745    2.0011
   32.760    1.7202
   32.775    1.7904
   32.790    1.9659
   32.805    1.8255
   32.820    1.8782
   32.835    1.4394
   32.850    1.6675
   32.865    1.8957
   32.880    1.6500
   32.895    1.9133
   32.910    1.8255
   32.925    1.9308
   32.940    1.8255
   32.955    2.0537
   32.970    1.9308
   32.985    1.7904
   33.000    1.7378
   33.015    1.5622
   33.030    1.9659
   33.045    1.9484
   33.060    2.0186
   33.075    1.9659
   33.090    1.9659
   33.105    1.8606
   33.120    1.6324
   33.135    1.9659
   33.150    1.8431
   33.165    1.9133
   33.180    1.7202
   33.195    1.8255
   33.210    1.7378
   33.225    1.7202
   33.240    1.9308
   33.255    2.0888
   33.270    1.8782
   33.285    1.5973
   33.300    1.7553
   33.315    1.6500
   33.330    1.8957
   33.345    1.8957
   33.360    1.9659
   33.375    1.7378
   33.390    1.6851
   33.405    1.8080
   33.420    1.7202
   33.435    1.8255
   33.450    1.9835
   33.465    1.7553
   33.480    1.6324
   33.495    1.9133
   33.510    1.7904
   33.525    1.7027
   33.540    1.7202
   33.555    1.7202
   33.570    1.7027
   33.585    1.6149
   33.600    1.7202
   33.615    1.7553
   33.630    1.7729
   33.645    1.9484
   33.660    1.8957
   33.675    1.8782
   33.690    1.9835
   33.705    1.5798
   33.720    1.7027
   33.735    1.9308
   33.750    1.7904
   33.765    2.1239
   33.780    2.2117
   33.795    2.3872
   33.810    2.4574
   33.825    2.4223
   33.840    2.3170
   33.855    2.0888
   33.870    1.8606
   33.885    1.8606
   33.900    1.7729
   33.915    1.7027
   33.930    1.8255
   33.945    2.0888
   33.960    1.9835
   33.975    2.2117
   33.990    1.9308
   34.005    1.8782
   34.020    2.0362
   34.035    1.8606
   34.050    1.8080
   34.065    1.8080
   34.080    1.8957
   34.095    1.8431
   34.110    1.7378
   34.125    1.6675
   34.140    2.1766
   34.155    1.9484
   34.170    1.7729
   34.185    1.6149
   34.200    1.5622
   34.215    1.9308
   34.230    1.5798
   34.245    1.3867
   34.260    1.8255
   34.275    1.7904
   34.290    1.8606
   34.305    1.8431
   34.320    1.7378
   34.335    1.8255
   34.350    1.9484
   34.365    1.8957
   34.380    1.7553
   34.395    1.5798
   34.410    1.7378
   34.425    1.5973
   34.440    1.4394
   34.455    1.5798
   34.470    1.6149
   34.485    1.7378
   34.500    1.8606
   34.515    1.9484
   34.530    2.0011
   34.545    1.7202
   34.560    1.4569
   34.575    1.5622
   34.590    1.7378
   34.605    1.7729
   34.620    1.6500
   34.635    1.7904
   34.650    1.8255
   34.665    1.7729
   34.680    1.5271
   34.695    1.7729
   34.710    1.8957
   34.725    1.4569
   34.740    1.9133
   34.755    2.0186
   34.770    1.8782
   34.785    1.9484
   34.800    1.6851
   34.815    1.6500
   34.830    1.5622
   34.845    1.5271
   34.860    1.7378
   34.875    1.6851
   34.890    1.7553
   34.905    1.8431
   34.920    1.8606
   34.935    1.7904
   34.950    1.7904
   34.965    1.7202
   34.980    1.8080
   34.995    1.6324
   35.010    1.7729
   35.025    1.7027
   35.040    1.6675
   35.055    1.9133
   35.070    1.8431
   35.085    1.7378
   35.100    1.6500
   35.115    1.9133
   35.130    1.7378
   35.145    1.9484
   35.160    1.9835
   35.175    2.0186
   35.190    1.7027
   35.205    1.6500
   35.220    1.7378
   35.235    1.7729
   35.250    1.8080
   35.265    1.5973
   35.280    1.5798
   35.295    1.7378
   35.310    1.5622
   35.325    1.1585
   35.340    1.6675
   35.355    1.9484
   35.370    1.8606
   35.385    1.8606
   35.400    1.5973
   35.415    1.8255
   35.430    1.7378
   35.445    1.7378
   35.460    1.9133
   35.475    1.8080
   35.490    1.7378
   35.505    1.8080
   35.520    1.8080
   35.535    1.6851
   35.550    1.7729
   35.565    1.9133
   35.580    2.0537
   35.595    1.8431
   35.610    1.6149
   35.625    1.7904
   35.640    1.4920
   35.655    1.8080
   35.670    1.6324
   35.685    1.5447
   35.700    1.7553
   35.715    1.7553
   35.730    1.6500
   35.745    1.7378
   35.760    1.5096
   35.775    1.5798
   35.790    1.8255
   35.805    1.7202
   35.820    1.5798
   35.835    1.7553
   35.850    1.7729
   35.865    1.7378
   35.880    1.7027
   35.895    1.8782
   35.910    1.8255
   35.925    1.6149
   35.940    1.8431
   35.955    1.9659
   35.970    1.5622
   35.985    1.8255
   36.000    1.9308
   36.015    1.8606
   36.030    1.4218
   36.045    1.6500
   36.060    1.5973
   36.075    1.7729
   36.090    2.0011
   36.105    1.7553
   36.120    1.4218
   36.135    1.5622
   36.150    1.5973
   36.165    1.9133
   36.180    1.5622
   36.195    1.4745
   36.210    1.4920
   36.225    1.5622
   36.240    1.5271
   36.255    1.8957
   36.270    1.7904
   36.285    1.7729
   36.300    1.7027
   36.315    1.7378
   36.330    1.5622
   36.345    1.6500
   36.360    1.7553
   36.375    1.8782
   36.390    1.5798
   36.405    1.8080
   36.420    1.8782
   36.435    1.7904
   36.450    1.7378
   36.465    1.4745
   36.480    1.5973
   36.495    1.8255
   36.510    1.8080
   36.525    1.9484
   36.540    1.7904
   36.555    1.6851
   36.570    1.6500
   36.585    1.5798
   36.600    1.7378
   36.615    1.8957
   36.630    1.9659
   36.645    1.7027
   36.660    1.7553
   36.675    1.6149
   36.690    1.4920
   36.705    1.5096
   36.720    1.6851
   36.735    1.6675
   36.750    1.6324
   36.765    1.7729
   36.780    1.5973
   36.795    1.9308
   36.810    1.8255
   36.825    1.7553
   36.840    1.5973
   36.855    1.5798
   36.870    1.5798
   36.885    1.5973
   36.900    1.7553
   36.915    1.7553
   36.930    2.0537
   36.945    1.7027
   36.960    1.8255
   36.975    1.7729
   36.990    1.8606
   37.005    1.6851
   37.020    1.7904
   37.035    1.8080
   37.050    1.9133
   37.065    1.8606
   37.080    1.6675
   37.095    1.5447
   37.110    1.5096
   37.125    1.6324
   37.140    1.6500
   37.155    1.5798
   37.170    1.6149
   37.185    1.5447
   37.200    1.5271
   37.215    1.9133
   37.230    1.7553
   37.245    1.6324
   37.260    1.7202
   37.275    1.8606
   37.290    1.6500
   37.305    1.9133
   37.320    1.8255
   37.335    1.5271
   37.350    1.6149
   37.365    1.7378
   37.380    1.6324
   37.395    1.6675
   37.410    1.6851
   37.425    1.7202
   37.440    1.6500
   37.455    1.7904
   37.470    1.5447
   37.485    1.5798
   37.500    1.6675
   37.515    1.5973
   37.530    1.8080
   37.545    1.6324
   37.560    1.4920
   37.575    1.6324
   37.590    1.5798
   37.605    1.6149
   37.620    1.6851
   37.635    1.7027
   37.650    1.5622
   37.665    1.5096
   37.680    1.5096
   37.695    1.4394
   37.710    1.5447
   37.725    1.5798
   37.740    1.3691
   37.755    1.6149
   37.770    1.7378
   37.785    1.5622
   37.800    1.5973
   37.815    1.6675
   37.830    1.6675
   37.845    1.6500
   37.860    1.5096
   37.875    1.7202
   37.890    1.7027
   37.905    1.5973
   37.920    1.6851
   37.935    1.5973
   37.950    1.7729
   37.965    1.6851
   37.980    1.6675
   37.995    1.7027
   38.010    1.8431
   38.025    1.4920
   38.040    1.5973
   38.055    1.5798
   38.070    1.4745
   38.085    1.5271
   38.100    1.5622
   38.115    1.7378
   38.130    1.6149
   38.145    1.2989
   38.160    1.5447
   38.175    1.7553
   38.190    1.7202
   38.205    1.8957
   38.220    1.8255
   38.235    1.5973
   38.250    1.4218
   38.265    1.5096
   38.280    1.4218
   38.295    1.5798
   38.310    1.5271
   38.325    1.4920
   38.340    1.5096
   38.355    1.7553
   38.370    1.7027
   38.385    1.4569
   38.400    1.6149
   38.415    1.4394
   38.430    1.5096
   38.445    1.5271
   38.460    1.4920
   38.475    1.5271
   38.490    1.6851
   38.505    1.8606
   38.520    1.5622
   38.535    1.6500
   38.550    1.7729
   38.565    1.9133
   38.580    1.9659
   38.595    1.7027
   38.610    1.9133
   38.625    2.0713
   38.640    1.7378
   38.655    1.5096
   38.670    1.6851
   38.685    1.5973
   38.700    1.7553
   38.715    1.6851
   38.730    1.7553
   38.745    1.7553
   38.760    1.6324
   38.775    1.5622
   38.790    1.4745
   38.805    1.4745
   38.820    1.5973
   38.835    1.7027
   38.850    1.5447
   38.865    1.6851
   38.880    1.6149
   38.895    1.5447
   38.910    1.4920
   38.925    1.6324
   38.940    1.7202
   38.955    1.7904
   38.970    1.4920
   38.985    1.5447
   39.000    1.5622
   39.015    1.5447
   39.030    1.4394
   39.045    1.2989
   39.060    1.4745
   39.075    1.4394
   39.090    1.7729
   39.105    1.4569
   39.120    1.4745
   39.135    1.5096
   39.150    1.4745
   39.165    1.5622
   39.180    1.5798
   39.195    1.5622
   39.210    1.6675
   39.225    1.7378
   39.240    1.4569
   39.255    1.3516
   39.270    1.4042
   39.285    1.5271
   39.300    1.4920
   39.315    1.4745
   39.330    1.4569
   39.345    1.5096
   39.360    1.7553
   39.375    1.5447
   39.390    1.6149
   39.405    1.5271
   39.420    1.7378
   39.435    1.7202
   39.450    1.7378
   39.465    1.7202
   39.480    1.6149
   39.495    1.5973
   39.510    1.6500
   39.525    1.7904
   39.540    1.5271
   39.555    1.5096
   39.570    1.4920
   39.585    1.4920
   39.600    1.6500
   39.615    1.6851
   39.630    1.7378
   39.645    1.5271
   39.660    1.6851
   39.675    1.5622
   39.690    1.6851
   39.705    1.5096
   39.720    1.7553
   39.735    1.5622
   39.750    1.5096
   39.765    1.4920
   39.780    1.5271
   39.795    1.2814
   39.810    1.4569
   39.825    1.6500
   39.840    1.3516
   39.855    1.5271
   39.870    1.3516
   39.885    1.2989
   39.900    1.3165
   39.915    1.4569
   39.930    1.5096
   39.945    1.3165
   39.960    1.5447
   39.975    1.5096
   39.990    1.5447
