    1.500   13.5334
    1.515   13.7967
    1.530   13.2701
    1.545   12.0906
    1.560   12.0274
    1.575   11.9221
    1.590   11.9537
    1.605   11.7430
    1.620   11.4376
    1.635   10.9110
    1.650   10.9637
    1.665   10.3739
    1.680   10.0158
    1.695    9.8262
    1.710    9.7736
    1.725    9.6472
    1.740    8.8257
    1.755    8.8362
    1.770    8.6888
    1.785    8.9415
    1.800    8.5940
    1.815    8.5519
    1.830    8.2991
    1.845    8.3518
    1.860    8.4360
    1.875    7.9516
    1.890    7.4987
    1.905    7.6040
    1.920    7.5513
    1.935    7.4144
    1.950    7.1406
    1.965    6.6245
    1.980    6.7193
    1.995    6.7930
    2.010    6.3086
    2.025    6.5508
    2.040    6.4455
    2.055    5.8031
    2.070    5.9610
    2.085    6.1190
    2.100    6.0664
    2.115    5.7504
    2.130    5.4555
    2.145    5.1395
    2.160    5.8873
    2.175    5.7820
    2.190    5.3818
    2.205    5.5398
    2.220    5.5608
    2.235    5.3502
    2.250    5.2975
    2.265    5.2554
    2.280    4.8973
    2.295    5.1080
    2.310    5.0132
    2.325    4.8657
    2.340    4.5919
    2.355    4.4550
    2.370    4.5076
    2.385    4.6130
    2.400    4.6445
    2.415    4.5287
    2.430    4.2865
    2.445    4.3918
    2.460    4.2127
    2.475    4.3391
    2.490    4.2022
    2.505    4.5392
    2.520    4.1917
    2.535    4.2970
    2.550    4.0442
    2.565    4.3391
    2.580    4.0021
    2.595    4.2654
    2.610    3.9494
    2.625    4.1917
    2.640    3.6546
    2.655    3.5808
    2.670    3.8863
    2.685    4.0548
    2.700    3.7177
    2.715    3.9284
    2.730    3.8652
    2.745    3.6440
    2.760    3.4755
    2.775    3.6546
    2.790    3.5492
    2.805    3.4439
    2.820    3.5176
    2.835    3.5808
    2.850    3.5808
    2.865    3.2965
    2.880    3.2017
    2.895    3.4755
    2.910    3.3491
    2.925    3.4544
    2.940    2.9279
    2.955    3.0753
    2.970    3.0858
    2.985    3.3175
    3.000    3.1385
    3.015    3.1280
    3.030    3.2122
    3.045    3.1596
    3.060    3.0226
    3.075    3.0542
    3.090    3.0753
    3.105    3.0753
    3.120    3.1385
    3.135    3.0226
    3.150    3.0226
    3.165    3.0226
    3.180    3.2965
    3.195    3.0121
    3.210    3.0121
    3.225    3.0648
    3.240    2.9384
    3.255    3.0648
    3.270    2.8015
    3.285    2.8647
    3.300    2.9595
    3.315    2.7383
    3.330    2.9384
    3.345    2.7172
    3.360    3.0121
    3.375    2.7383
    3.390    2.5592
    3.405    2.5908
    3.420    2.6856
    3.435    2.8752
    3.450    2.8120
    3.465    2.5803
    3.480    2.5908
    3.495    2.7067
    3.510    2.7278
    3.525    2.8752
    3.540    2.8752
    3.555    2.8015
    3.570    2.5803
    3.585    2.7172
    3.600    2.9279
    3.615    2.8331
    3.630    2.6330
    3.645    2.5276
    3.660    2.7488
    3.675    2.8647
    3.690    2.7067
    3.705    2.5592
    3.720    2.5171
    3.735    2.4539
    3.750    2.6435
    3.765    2.7278
    3.780    2.5908
    3.795    2.7383
    3.810    2.6330
    3.825    2.6330
    3.840    2.8963
    3.855    2.5382
    3.870    2.6014
    3.885    2.4855
    3.900    2.6962
    3.915    2.7383
    3.930    2.5698
    3.945    2.7172
    3.960    2.4961
    3.975    2.5066
    3.990    2.5487
    4.005    2.6330
    4.020    2.5171
    4.035    2.5698
    4.050    2.5382
    4.065    2.6224
    4.080    2.5171
    4.095    2.3170
    4.110    2.6330
    4.125    2.5592
    4.140    2.5592
    4.155    2.6014
    4.170    2.6962
    4.185    2.6962
    4.200    2.4434
    4.215    2.2538
    4.230    2.5171
    4.245    2.4118
    4.260    2.6646
    4.275    2.4539
    4.290    2.3697
    4.305    2.4855
    4.320    2.5487
    4.335    2.4750
    4.350    2.4645
    4.365    2.5487
    4.380    2.1801
    4.395    2.4645
    4.410    2.4434
    4.425    2.3065
    4.440    2.3591
    4.455    2.5908
    4.470    2.4434
    4.485    2.4118
    4.500    2.4434
    4.515    2.6962
    4.530    2.6330
    4.545    2.5066
    4.560    2.3907
    4.575    2.4013
    4.590    2.6962
    4.605    2.3802
    4.620    2.3802
    4.635    2.5382
    4.650    2.4750
    4.665    2.3907
    4.680    2.3697
    4.695    2.1380
    4.710    2.2749
    4.725    2.5171
    4.740    2.2643
    4.755    2.1906
    4.770    2.3381
    4.785    2.5171
    4.800    2.6751
    4.815    2.6646
    4.830    2.3591
    4.845    2.2222
    4.860    2.3275
    4.875    2.5592
    4.890    2.6540
    4.905    2.2959
    4.920    2.3381
    4.935    2.3275
    4.950    2.4223
    4.965    2.5066
    4.980    2.1801
    4.995    2.2643
    5.010    2.6962
    5.025    2.4013
    5.040    2.4434
    5.055    2.4223
    5.070    2.3591
    5.085    2.0748
    5.100    2.4855
    5.115    2.5171
    5.130    2.5382
    5.145    2.3591
    5.160    2.1906
    5.175    2.0537
    5.190    2.2117
    5.205    2.3275
    5.220    2.3802
    5.235    2.4645
    5.250    2.5171
    5.265    2.3065
    5.280    2.4961
    5.295    2.2854
    5.310    2.3591
    5.325    2.2538
    5.340    2.2749
    5.355    2.5171
    5.370    2.3381
    5.385    2.3591
    5.400    2.4434
    5.415    2.3170
    5.430    2.3802
    5.445    2.4013
    5.460    2.5171
    5.475    2.3381
    5.490    2.2538
    5.505    2.4645
    5.520    2.2433
    5.535    2.3381
    5.550    2.3591
    5.565    2.1380
    5.580    2.1801
    5.595    2.3065
    5.610    2.0432
    5.625    2.1169
    5.640    2.1801
    5.655    2.2643
    5.670    2.3381
    5.685    2.1169
    5.700    2.2117
    5.715    2.0537
    5.730    2.1590
    5.745    2.2222
    5.760    2.1274
    5.775    2.1590
    5.790    2.4118
    5.805    2.3170
    5.820    2.2012
    5.835    2.4434
    5.850    2.2854
    5.865    2.4013
    5.880    2.2959
    5.895    2.2959
    5.910    2.1590
    5.925    2.4855
    5.940    2.2854
    5.955    2.2222
    5.970    2.2012
    5.985    2.3591
    6.000    2.2538
    6.015    2.3065
    6.030    2.4118
    6.045    2.1801
    6.060    2.2538
    6.075    2.3275
    6.090    2.5487
    6.105    2.3065
    6.120    2.2222
    6.135    2.2854
    6.150    2.3170
    6.165    2.3170
    6.180    2.2959
    6.195    2.4645
    6.210    2.4539
    6.225    2.2959
    6.240    2.2012
    6.255    2.3486
    6.270    2.3591
    6.285    2.1064
    6.300    2.2433
    6.315    2.1801
    6.330    2.2959
    6.345    2.2959
    6.360    2.3802
    6.375    2.4961
    6.390    2.3170
    6.405    2.2433
    6.420    2.2012
    6.435    2.0432
    6.450    2.0221
    6.465    2.2749
    6.480    2.2433
    6.495    2.2854
    6.510    2.1696
    6.525    2.2854
    6.540    2.3065
    6.555    2.5698
    6.570    2.2433
    6.585    2.3170
    6.600    2.4645
    6.615    2.3697
    6.630    2.3697
    6.645    2.1380
    6.660    2.1696
    6.675    2.1380
    6.690    2.2328
    6.705    2.4223
    6.720    2.3486
    6.735    2.4329
    6.750    2.4223
    6.765    2.1485
    6.780    2.1064
    6.795    2.4750
    6.810    2.4961
    6.825    2.3802
    6.840    2.5171
    6.855    2.2959
    6.870    2.3907
    6.885    2.4013
    6.900    2.4329
    6.915    2.1801
    6.930    2.3486
    6.945    2.3802
    6.960    2.2538
    6.975    2.4223
    6.990    2.3591
    7.005    2.3591
    7.020    2.3381
    7.035    2.2959
    7.050    2.5276
    7.065    2.4750
    7.080    2.8752
    7.095    2.4961
    7.110    2.4329
    7.125    2.5276
    7.140    2.4434
    7.155    2.5698
    7.170    2.5698
    7.185    2.4750
    7.200    2.2643
    7.215    2.3486
    7.230    2.6224
    7.245    2.3065
    7.260    2.3170
    7.275    2.4013
    7.290    2.5171
    7.305    2.3065
    7.320    2.1696
    7.335    2.3907
    7.350    2.6330
    7.365    2.4329
    7.380    2.3697
    7.395    2.3065
    7.410    2.4539
    7.425    2.5066
    7.440    2.4645
    7.455    2.4329
    7.470    2.3381
    7.485    2.5803
    7.500    2.2117
    7.515    2.1801
    7.530    2.5803
    7.545    2.6330
    7.560    2.2854
    7.575    2.3381
    7.590    2.4118
    7.605    2.5066
    7.620    2.4645
    7.635    2.4434
    7.650    2.3697
    7.665    2.3381
    7.680    2.4223
    7.695    2.4329
    7.710    2.4855
    7.725    2.6014
    7.740    2.6119
    7.755    2.4855
    7.770    2.4329
    7.785    2.3697
    7.800    2.2117
    7.815    2.4118
    7.830    2.5698
    7.845    2.2222
    7.860    2.2643
    7.875    2.3697
    7.890    2.5276
    7.905    2.1696
    7.920    2.1696
    7.935    2.1696
    7.950    2.2328
    7.965    2.1485
    7.980    2.6014
    7.995    2.5908
    8.010    2.6435
    8.025    2.5487
    8.040    2.5066
    8.055    2.3907
    8.070    2.4118
    8.085    2.2643
    8.100    2.4434
    8.115    2.2117
    8.130    2.4434
    8.145    2.2117
    8.160    2.4223
    8.175    2.5276
    8.190    2.4434
    8.205    2.4434
    8.220    2.5592
    8.235    2.3381
    8.250    2.2959
    8.265    2.6014
    8.280    2.4013
    8.295    2.6224
    8.310    2.3802
    8.325    2.4961
    8.340    2.2538
    8.355    2.2328
    8.370    2.2959
    8.385    2.3275
    8.400    2.4750
    8.415    2.2643
    8.430    2.3486
    8.445    2.4539
    8.460    2.4645
    8.475    2.5066
    8.490    2.2538
    8.505    2.2222
    8.520    2.2749
    8.535    2.1801
    8.550    2.3170
    8.565    2.6119
    8.580    2.4645
    8.595    2.2643
    8.610    2.2538
    8.625    2.3697
    8.640    2.2433
    8.655    2.3802
    8.670    2.3170
    8.685    2.2117
    8.700    2.0221
    8.715    2.2222
    8.730    2.3697
    8.745    2.1590
    8.760    2.2538
    8.775    2.3907
    8.790    2.3275
    8.805    2.2643
    8.820    2.2538
    8.835    2.3381
    8.850    2.3907
    8.865    2.0853
    8.880    2.1590
    8.895    2.3697
    8.910    2.2433
    8.925    2.1380
    8.940    2.2222
    8.955    2.2328
    8.970    2.2749
    8.985    2.2643
    9.000    2.2433
    9.015    2.3170
    9.030    2.4329
    9.045    2.3591
    9.060    2.1590
    9.075    2.0432
    9.090    2.2117
    9.105    2.1696
    9.120    2.2433
    9.135    2.2328
    9.150    2.1274
    9.165    2.0221
    9.180    2.0537
    9.195    2.2012
    9.210    2.2643
    9.225    2.0642
    9.240    2.2538
    9.255    2.3802
    9.270    2.2433
    9.285    2.3275
    9.300    2.2012
    9.315    2.0432
    9.330    2.1696
    9.345    2.2643
    9.360    2.2749
    9.375    2.3591
    9.390    2.2749
    9.405    2.3381
    9.420    2.1274
    9.435    2.1696
    9.450    2.2328
    9.465    2.2012
    9.480    2.3170
    9.495    2.3907
    9.510    2.1590
    9.525    2.0011
    9.540    2.0748
    9.555    2.0537
    9.570    2.0221
    9.585    2.1590
    9.600    1.9484
    9.615    2.2012
    9.630    2.1380
    9.645    2.4223
    9.660    2.3907
    9.675    2.0853
    9.690    1.9589
    9.705    1.9379
    9.720    2.2222
    9.735    2.1801
    9.750    2.1485
    9.765    2.0326
    9.780    2.1696
    9.795    2.2328
    9.810    2.3170
    9.825    2.1169
    9.840    2.0326
    9.855    2.0748
    9.870    2.2012
    9.885    1.8747
    9.900    1.9589
    9.915    2.0958
    9.930    2.2222
    9.945    2.0853
    9.960    2.3486
    9.975    2.1380
    9.990    2.2328
   10.005    2.0748
   10.020    2.2328
   10.035    2.0958
   10.050    1.9484
   10.065    2.2538
   10.080    2.1696
   10.095    2.0537
   10.110    2.2959
   10.125    2.3065
   10.140    2.1906
   10.155    1.9379
   10.170    1.7799
   10.185    2.0748
   10.200    2.1590
   10.215    2.1590
   10.230    2.2117
   10.245    2.2117
   10.260    2.1906
   10.275    2.2328
   10.290    2.2749
   10.305    2.0642
   10.320    2.0853
   10.335    2.0221
   10.350    1.9800
   10.365    2.0221
   10.380    2.1064
   10.395    2.2749
   10.410    2.0642
   10.425    2.0116
   10.440    2.1801
   10.455    2.1801
   10.470    2.1485
   10.485    2.2117
   10.500    2.0642
   10.515    2.0537
   10.530    2.0958
   10.545    2.1906
   10.560    1.8220
   10.575    1.9168
   10.590    2.1169
   10.605    1.9905
   10.620    2.0326
   10.635    2.2538
   10.650    2.2117
   10.665    1.8957
   10.680    2.1064
   10.695    2.1801
   10.710    2.1906
   10.725    2.0432
   10.740    2.1274
   10.755    2.1169
   10.770    2.1274
   10.785    1.7483
   10.800    1.9800
   10.815    2.0853
   10.830    2.0221
   10.845    1.7588
   10.860    2.0221
   10.875    2.1380
   10.890    1.9484
   10.905    1.8852
   10.920    1.9589
   10.935    2.1590
   10.950    1.9589
   10.965    1.9168
   10.980    2.0537
   10.995    2.0116
   11.010    2.2012
   11.025    2.1590
   11.040    2.1169
   11.055    1.9800
   11.070    1.8431
   11.085    2.2117
   11.100    2.3697
   11.115    2.0537
   11.130    2.2749
   11.145    2.0326
   11.160    2.2854
   11.175    2.0958
   11.190    2.1906
   11.205    1.9589
   11.220    1.9273
   11.235    2.1064
   11.250    2.1064
   11.265    2.0221
   11.280    2.1380
   11.295    2.1169
   11.310    1.9379
   11.325    1.9589
   11.340    2.2117
   11.355    2.0958
   11.370    2.0116
   11.385    2.1274
   11.400    2.0537
   11.415    2.0011
   11.430    1.9379
   11.445    2.0748
   11.460    2.0432
   11.475    1.9063
   11.490    2.2854
   11.505    1.9589
   11.520    1.9168
   11.535    1.9168
   11.550    1.8536
   11.565    1.9695
   11.580    2.0958
   11.595    1.9589
   11.610    1.9800
   11.625    1.8431
   11.640    1.8325
   11.655    1.9379
   11.670    1.9168
   11.685    1.9905
   11.700    2.0537
   11.715    1.8431
   11.730    1.9589
   11.745    1.8641
   11.760    1.7799
   11.775    1.9379
   11.790    1.9273
   11.805    1.9695
   11.820    2.0853
   11.835    2.0116
   11.850    1.9168
   11.865    1.8957
   11.880    1.8957
   11.895    1.9589
   11.910    1.8536
   11.925    1.8325
   11.940    1.9695
   11.955    2.0326
   11.970    2.0221
   11.985    1.9273
   12.000    1.9905
   12.015    1.8747
   12.030    1.8536
   12.045    1.8325
   12.060    1.9589
   12.075    2.0116
   12.090    1.8009
   12.105    2.0853
   12.120    1.8641
   12.135    1.8852
   12.150    2.0011
   12.165    1.9063
   12.180    2.0748
   12.195    1.8957
   12.210    1.8220
   12.225    1.8747
   12.240    1.9168
   12.255    2.0432
   12.270    2.0958
   12.285    1.8852
   12.300    1.9273
   12.315    1.9800
   12.330    2.0326
   12.345    2.0642
   12.360    1.9379
   12.375    1.7272
   12.390    1.8009
   12.405    1.7799
   12.420    1.8641
   12.435    1.7799
   12.450    1.7588
   12.465    1.8009
   12.480    1.8115
   12.495    1.8957
   12.510    2.0011
   12.525    1.8009
   12.540    1.7483
   12.555    2.0221
   12.570    2.0116
   12.585    1.8220
   12.600    1.8009
   12.615    1.8220
   12.630    2.2012
   12.645    2.0011
   12.660    1.9484
   12.675    2.0958
   12.690    1.7694
   12.705    1.8641
   12.720    2.0011
   12.735    2.0748
   12.750    1.9589
   12.765    1.8641
   12.780    1.9273
   12.795    1.9379
   12.810    1.6535
   12.825    1.7483
   12.840    1.8747
   12.855    2.0326
   12.870    2.0748
   12.885    2.1380
   12.900    2.0642
   12.915    1.9063
   12.930    1.9063
   12.945    1.8852
   12.960    1.6324
   12.975    1.9063
   12.990    1.9063
   13.005    1.7904
   13.020    1.6851
   13.035    1.9168
   13.050    1.7904
   13.065    1.7483
   13.080    1.7378
   13.095    2.0537
   13.110    2.1380
   13.125    2.0221
   13.140    1.9379
   13.155    1.8325
   13.170    1.7799
   13.185    1.8115
   13.200    2.0642
   13.215    1.9800
   13.230    1.9695
   13.245    1.8641
   13.260    2.0642
   13.275    1.9589
   13.290    1.8220
   13.305    1.9168
   13.320    1.9379
   13.335    1.9273
   13.350    1.9168
   13.365    2.0011
   13.380    1.9589
   13.395    1.8220
   13.410    2.0221
   13.425    1.9484
   13.440    2.0642
   13.455    1.8009
   13.470    1.6746
   13.485    1.7483
   13.500    1.8009
   13.515    2.0011
   13.530    2.1485
   13.545    2.0537
   13.560    1.8641
   13.575    1.9589
   13.590    1.8536
   13.605    1.8431
   13.620    1.7062
   13.635    1.9168
   13.650    2.1380
   13.665    1.9695
   13.680    1.8009
   13.695    1.7378
   13.710    1.8431
   13.725    1.8747
   13.740    2.0958
   13.755    2.0221
   13.770    1.9168
   13.785    1.8431
   13.800    1.9168
   13.815    1.8852
   13.830    1.8220
   13.845    1.7483
   13.860    1.9063
   13.875    1.8747
   13.890    1.9379
   13.905    1.9695
   13.920    1.8325
   13.935    1.6851
   13.950    1.8431
   13.965    1.9168
   13.980    2.1380
   13.995    2.0958
   14.010    2.0432
   14.025    1.8220
   14.040    1.9063
   14.055    2.0537
   14.070    1.9379
   14.085    1.8641
   14.100    1.7378
   14.115    1.9379
   14.130    1.9589
   14.145    2.0432
   14.160    2.0642
   14.175    1.8009
   14.190    1.9168
   14.205    2.1274
   14.220    2.0221
   14.235    1.9905
   14.250    1.8115
   14.265    1.7483
   14.280    2.0537
   14.295    1.9063
   14.310    2.0221
   14.325    1.9484
   14.340    2.0011
   14.355    2.1169
   14.370    2.1485
   14.385    1.9063
   14.400    1.8957
   14.415    1.9695
   14.430    1.8536
   14.445    1.8536
   14.460    1.9589
   14.475    1.8957
   14.490    1.7272
   14.505    1.9695
   14.520    1.8220
   14.535    1.9273
   14.550    2.0326
   14.565    2.0326
   14.580    1.7904
   14.595    1.7694
   14.610    1.8220
   14.625    1.7378
   14.640    1.8431
   14.655    1.9589
   14.670    1.8957
   14.685    1.9484
   14.700    1.9273
   14.715    1.8957
   14.730    1.8325
   14.745    1.9484
   14.760    1.7483
   14.775    1.6114
   14.790    1.8115
   14.805    1.9484
   14.820    2.0116
   14.835    1.7588
   14.850    1.7904
   14.865    2.1169
   14.880    1.8747
   14.895    1.9905
   14.910    2.1380
   14.925    1.9905
   14.940    2.0537
   14.955    2.0221
   14.970    1.6956
   14.985    1.8220
   15.000    1.8431
   15.015    1.8747
   15.030    1.9168
   15.045    1.8852
   15.060    1.8009
   15.075    1.9273
   15.090    1.9063
   15.105    2.1064
   15.120    2.0958
   15.135    2.0116
   15.150    2.1169
   15.165    1.9905
   15.180    1.8220
   15.195    1.8431
   15.210    1.9695
   15.225    2.1274
   15.240    1.9800
   15.255    1.9800
   15.270    1.9800
   15.285    1.7904
   15.300    1.7378
   15.315    1.8220
   15.330    1.8431
   15.345    2.0958
   15.360    1.9695
   15.375    1.9379
   15.390    1.8957
   15.405    1.8220
   15.420    1.7588
   15.435    1.8747
   15.450    2.0116
   15.465    1.9905
   15.480    2.0537
   15.495    1.9589
   15.510    1.9800
   15.525    1.8431
   15.540    1.8325
   15.555    2.1169
   15.570    1.9379
   15.585    1.8641
   15.600    2.1064
   15.615    1.8641
   15.630    2.0221
   15.645    2.0748
   15.660    2.0537
   15.675    1.9695
   15.690    1.7694
   15.705    1.9589
   15.720    1.8957
   15.735    1.9063
   15.750    1.8325
   15.765    2.0326
   15.780    1.9905
   15.795    1.6956
   15.810    1.9168
   15.825    1.7272
   15.840    1.7272
   15.855    1.7272
   15.870    2.0432
   15.885    1.9800
   15.900    1.9484
   15.915    2.0537
   15.930    1.8115
   15.945    1.9168
   15.960    1.7799
   15.975    1.9905
   15.990    1.7694
   16.005    1.9273
   16.020    2.0116
   16.035    1.8115
   16.050    1.8641
   16.065    2.0432
   16.080    1.8747
   16.095    1.8641
   16.110    1.8957
   16.125    1.9168
   16.140    1.8747
   16.155    2.0432
   16.170    1.9695
   16.185    2.0853
   16.200    1.9273
   16.215    1.8536
   16.230    1.9589
   16.245    2.0537
   16.260    2.1064
   16.275    2.0642
   16.290    2.0116
   16.305    1.8641
   16.320    1.8852
   16.335    1.7483
   16.350    1.8009
   16.365    2.0537
   16.380    1.9905
   16.395    2.0116
   16.410    1.9063
   16.425    1.9063
   16.440    1.8957
   16.455    2.0011
   16.470    1.7904
   16.485    1.9168
   16.500    1.9800
   16.515    1.8852
   16.530    1.7588
   16.545    1.8115
   16.560    2.0432
   16.575    1.9905
   16.590    2.1696
   16.605    2.0011
   16.620    1.8431
   16.635    2.0326
   16.650    1.7799
   16.665    1.9063
   16.680    1.9695
   16.695    1.9589
   16.710    1.9905
   16.725    1.6535
   16.740    1.8325
   16.755    1.8852
   16.770    1.8852
   16.785    2.0326
   16.800    2.0116
   16.815    2.0221
   16.830    1.8641
   16.845    2.0326
   16.860    1.7904
   16.875    1.8747
   16.890    2.0011
   16.905    2.0432
   16.920    2.1485
   16.935    2.0642
   16.950    1.9905
   16.965    1.7062
   16.980    1.9800
   16.995    2.0326
   17.010    1.7062
   17.025    1.9273
   17.040    2.0011
   17.055    2.0432
   17.070    1.9168
   17.085    1.9273
   17.100    1.8536
   17.115    2.0011
   17.130    1.8852
   17.145    2.1380
   17.160    1.9484
   17.175    1.8957
   17.190    1.8220
   17.205    1.8431
   17.220    1.8536
   17.235    1.9800
   17.250    1.8641
   17.265    2.0221
   17.280    1.9905
   17.295    2.0748
   17.310    1.9379
   17.325    2.0537
   17.340    1.8431
   17.355    1.6956
   17.370    1.9800
   17.385    2.0221
   17.400    2.0011
   17.415    1.9273
   17.430    1.8852
   17.445    2.1590
   17.460    2.0642
   17.475    1.8957
   17.490    1.9063
   17.505    1.8536
   17.520    1.8431
   17.535    2.0326
   17.550    1.9168
   17.565    1.8747
   17.580    1.8957
   17.595    2.0748
   17.610    2.0221
   17.625    2.0011
   17.640    2.0958
   17.655    1.9589
   17.670    1.9589
   17.685    2.0116
   17.700    2.0748
   17.715    1.9800
   17.730    2.2538
   17.745    2.0853
   17.760    2.0537
   17.775    2.1801
   17.790    2.0958
   17.805    2.0326
   17.820    1.9695
   17.835    1.7588
   17.850    1.9695
   17.865    1.8852
   17.880    1.8431
   17.895    2.0537
   17.910    1.8641
   17.925    2.0326
   17.940    1.8852
   17.955    1.8641
   17.970    1.7799
   17.985    1.8852
   18.000    2.0326
   18.015    2.1169
   18.030    1.9379
   18.045    1.7799
   18.060    1.8852
   18.075    2.0642
   18.090    1.9800
   18.105    2.2012
   18.120    2.2328
   18.135    1.8431
   18.150    1.7904
   18.165    1.8747
   18.180    1.9695
   18.195    2.1590
   18.210    2.0116
   18.225    1.8852
   18.240    2.0642
   18.255    1.9063
   18.270    1.9168
   18.285    1.8641
   18.300    1.9379
   18.315    1.9273
   18.330    2.0958
   18.345    2.0748
   18.360    2.0642
   18.375    2.1801
   18.390    2.0537
   18.405    1.8852
   18.420    1.9905
   18.435    1.9063
   18.450    1.7904
   18.465    2.0326
   18.480    1.8431
   18.495    2.1064
   18.510    2.0326
   18.525    2.0011
   18.540    2.1380
   18.555    1.9589
   18.570    2.0432
   18.585    2.2222
   18.600    2.0221
   18.615    1.9905
   18.630    2.0326
   18.645    1.8957
   18.660    2.0116
   18.675    1.9484
   18.690    1.8325
   18.705    1.9800
   18.720    2.0748
   18.735    1.9800
   18.750    2.0958
   18.765    2.1801
   18.780    2.0432
   18.795    1.9800
   18.810    2.1274
   18.825    2.1274
   18.840    1.9905
   18.855    1.9063
   18.870    2.1274
   18.885    2.0116
   18.900    2.1380
   18.915    2.0432
   18.930    2.0011
   18.945    2.0958
   18.960    2.0853
   18.975    1.8009
   18.990    1.9379
   19.005    1.9905
   19.020    2.2959
   19.035    2.0537
   19.050    2.1274
   19.065    2.1169
   19.080    1.8325
   19.095    2.2433
   19.110    2.1380
   19.125    2.1064
   19.140    1.9273
   19.155    2.1801
   19.170    2.1801
   19.185    1.8536
   19.200    2.0326
   19.215    2.0642
   19.230    2.1064
   19.245    1.9063
   19.260    1.9905
   19.275    1.9695
   19.290    2.0326
   19.305    2.0221
   19.320    2.0011
   19.335    1.8431
   19.350    2.1590
   19.365    1.9379
   19.380    1.9905
   19.395    2.0432
   19.410    2.2643
   19.425    1.8747
   19.440    1.9063
   19.455    1.8115
   19.470    1.8641
   19.485    2.0642
   19.500    2.0748
   19.515    1.9589
   19.530    1.9589
   19.545    1.9589
   19.560    1.9273
   19.575    2.0116
   19.590    2.0432
   19.605    1.9589
   19.620    2.0537
   19.635    2.2854
   19.650    2.1906
   19.665    1.9589
   19.680    2.1801
   19.695    2.0432
   19.710    2.1064
   19.725    2.0011
   19.740    2.2222
   19.755    2.1169
   19.770    2.1169
   19.785    2.0853
   19.800    2.0432
   19.815    1.9484
   19.830    2.0221
   19.845    2.2959
   19.860    2.2854
   19.875    2.2433
   19.890    2.0116
   19.905    1.8220
   19.920    1.9063
   19.935    1.9800
   19.950    2.0748
   19.965    1.9379
   19.980    2.2328
   19.995    2.0537
   20.010    2.2749
   20.025    1.8431
   20.040    1.8852
   20.055    1.8115
   20.070    2.0116
   20.085    2.1380
   20.100    2.1906
   20.115    2.0326
   20.130    2.0853
   20.145    2.0011
   20.160    2.0221
   20.175    1.9063
   20.190    2.0011
   20.205    2.1380
   20.220    2.0642
   20.235    2.0221
   20.250    1.8852
   20.265    2.2749
   20.280    2.1801
   20.295    2.0853
   20.310    1.9800
   20.325    2.1590
   20.340    2.0326
   20.355    2.1169
   20.370    2.2433
   20.385    2.0116
   20.400    1.9484
   20.415    2.0537
   20.430    2.0537
   20.445    2.0853
   20.460    2.1064
   20.475    2.2959
   20.490    2.2643
   20.505    2.2854
   20.520    2.2433
   20.535    2.0537
   20.550    2.1064
   20.565    1.9800
   20.580    2.2643
   20.595    2.1274
   20.610    2.1485
   20.625    2.3591
   20.640    1.9905
   20.655    2.1906
   20.670    2.0642
   20.685    1.9484
   20.700    1.9484
   20.715    2.1274
   20.730    2.1274
   20.745    2.0853
   20.760    2.0011
   20.775    1.9484
   20.790    2.0748
   20.805    1.8431
   20.820    2.0958
   20.835    2.0432
   20.850    2.0853
   20.865    2.2012
   20.880    2.0221
   20.895    2.3065
   20.910    2.4434
   20.925    2.2749
   20.940    2.0853
   20.955    2.0432
   20.970    2.0221
   20.985    2.0748
   21.000    2.3381
   21.015    2.3591
   21.030    2.2117
   21.045    2.0748
   21.060    1.9800
   21.075    2.1696
   21.090    2.1590
   21.105    2.1169
   21.120    2.0642
   21.135    2.1696
   21.150    2.1801
   21.165    2.2117
   21.180    2.1274
   21.195    2.1801
   21.210    2.2012
   21.225    1.9589
   21.240    2.0748
   21.255    2.1696
   21.270    2.1801
   21.285    2.2433
   21.300    2.1485
   21.315    2.0748
   21.330    2.0326
   21.345    2.0011
   21.360    2.1380
   21.375    1.9800
   21.390    1.9905
   21.405    1.9905
   21.420    2.0748
   21.435    2.0326
   21.450    1.9168
   21.465    1.8957
   21.480    2.0748
   21.495    2.0958
   21.510    1.9589
   21.525    2.0326
   21.540    2.0537
   21.555    1.8747
   21.570    1.9273
   21.585    2.0326
   21.600    1.9168
   21.615    2.0537
   21.630    2.0432
   21.645    2.1169
   21.660    2.0432
   21.675    2.0116
   21.690    1.9379
   21.705    2.1380
   21.720    2.0537
   21.735    2.0853
   21.750    2.2117
   21.765    2.0326
   21.780    1.8747
   21.795    2.2538
   21.810    2.0642
   21.825    2.1169
   21.840    2.0326
   21.855    2.0642
   21.870    2.0537
   21.885    2.0011
   21.900    2.2222
   21.915    2.1274
   21.930    2.2643
   21.945    2.0116
   21.960    1.9800
   21.975    2.1485
   21.990    2.0116
   22.005    1.8325
   22.020    1.9589
   22.035    2.2012
   22.050    2.0432
   22.065    2.0116
   22.080    2.1274
   22.095    2.2012
   22.110    2.2854
   22.125    2.0642
   22.140    2.0958
   22.155    2.0958
   22.170    2.0853
   22.185    1.9800
   22.200    2.0011
   22.215    2.2222
   22.230    2.1590
   22.245    1.9484
   22.260    2.0853
   22.275    1.9168
   22.290    2.0537
   22.305    2.1801
   22.320    2.2328
   22.335    1.9379
   22.350    2.0116
   22.365    2.0642
   22.380    1.9695
   22.395    1.8747
   22.410    2.0958
   22.425    2.0642
   22.440    2.0116
   22.455    1.8431
   22.470    1.9273
   22.485    2.0011
   22.500    1.9273
   22.515    2.0432
   22.530    1.9589
   22.545    1.8957
   22.560    1.9273
   22.575    2.2328
   22.590    2.1169
   22.605    2.1274
   22.620    2.0326
   22.635    1.9379
   22.650    2.0221
   22.665    2.1696
   22.680    2.0011
   22.695    2.2328
   22.710    2.2012
   22.725    2.1906
   22.740    2.0011
   22.755    2.0432
   22.770    2.1274
   22.785    2.1380
   22.800    1.8747
   22.815    2.1801
   22.830    2.0853
   22.845    2.0116
   22.860    2.0326
   22.875    1.9695
   22.890    2.0011
   22.905    2.1906
   22.920    2.2854
   22.935    2.1274
   22.950    2.0326
   22.965    2.0748
   22.980    1.9063
   22.995    1.8431
   23.010    1.8957
   23.025    1.8957
   23.040    2.0116
   23.055    1.9800
   23.070    1.9379
   23.085    1.6851
   23.100    1.7904
   23.115    2.1064
   23.130    2.0642
   23.145    1.9379
   23.160    1.9695
   23.175    1.9379
   23.190    1.9168
   23.205    2.0958
   23.220    2.0537
   23.235    2.0432
   23.250    1.8431
   23.265    1.9168
   23.280    1.8957
   23.295    1.9484
   23.310    1.9063
   23.325    2.0432
   23.340    1.9800
   23.355    1.8957
   23.370    1.8220
   23.385    2.0116
   23.400    1.8431
   23.415    1.9800
   23.430    1.9905
   23.445    1.8641
   23.460    1.9589
   23.475    1.8852
   23.490    1.8431
   23.505    2.0642
   23.520    2.0853
   23.535    2.2643
   23.550    2.2538
   23.565    1.9800
   23.580    1.9589
   23.595    2.0326
   23.610    1.9905
   23.625    1.8325
   23.640    2.0011
   23.655    1.9589
   23.670    2.0011
   23.685    2.0116
   23.700    2.0326
   23.715    1.7588
   23.730    1.9063
   23.745    1.9905
   23.760    1.9589
   23.775    1.8957
   23.790    2.1274
   23.805    2.2222
   23.820    1.9589
   23.835    1.7799
   23.850    1.9484
   23.865    1.7904
   23.880    1.8431
   23.895    1.9273
   23.910    1.9484
   23.925    2.0853
   23.940    1.9589
   23.955    2.1274
   23.970    1.9273
   23.985    2.0011
   24.000    1.9273
   24.015    2.0748
   24.030    2.2012
   24.045    1.8009
   24.060    1.9168
   24.075    1.9695
   24.090    1.9273
   24.105    1.6956
   24.120    1.7272
   24.135    2.0116
   24.150    2.1906
   24.165    1.8641
   24.180    1.9168
   24.195    2.0116
   24.210    1.9379
   24.225    2.0326
   24.240    1.9484
   24.255    2.1169
   24.270    2.0958
   24.285    2.1380
   24.300    2.0011
   24.315    1.8747
   24.330    2.0958
   24.345    1.9695
   24.360    2.1380
   24.375    1.9589
   24.390    2.0011
   24.405    1.9589
   24.420    1.9800
   24.435    1.8115
   24.450    1.9273
   24.465    1.8957
   24.480    1.8852
   24.495    1.7378
   24.510    1.6746
   24.525    1.9800
   24.540    1.8431
   24.555    2.0853
   24.570    2.0642
   24.585    1.9589
   24.600    1.5798
   24.615    1.9800
   24.630    2.1485
   24.645    1.9273
   24.660    1.9800
   24.675    1.9695
   24.690    1.7483
   24.705    1.6746
   24.720    1.8536
   24.735    1.8431
   24.750    1.9484
   24.765    1.9484
   24.780    1.9695
   24.795    1.9063
   24.810    1.9063
   24.825    1.9484
   24.840    1.7904
   24.855    2.0432
   24.870    1.7588
   24.885    1.8852
   24.900    1.9168
   24.915    1.8220
   24.930    2.0116
   24.945    1.9379
   24.960    1.8536
   24.975    1.9063
   24.990    1.8641
   25.005    1.8852
   25.020    1.8325
   25.035    1.8009
   25.050    2.0642
   25.065    2.1801
   25.080    1.8852
   25.095    1.8957
   25.110    1.9063
   25.125    2.0011
   25.140    2.1274
   25.155    1.9379
   25.170    1.9273
   25.185    1.9589
   25.200    1.6851
   25.215    1.8641
   25.230    1.6430
   25.245    1.7062
   25.260    1.8431
   25.275    1.6746
   25.290    1.7799
   25.305    1.6640
   25.320    1.8852
   25.335    1.6535
   25.350    1.7588
   25.365    1.8325
   25.380    2.0011
   25.395    1.9063
   25.410    1.8431
   25.425    1.5271
   25.440    1.4955
   25.455    1.7378
   25.470    1.5903
   25.485    1.8325
   25.500    1.8536
   25.515    1.8641
   25.530    1.8115
   25.545    1.9484
   25.560    1.8115
   25.575    1.7588
   25.590    1.7904
   25.605    1.6851
   25.620    1.7904
   25.635    1.8747
   25.650    1.7483
   25.665    1.6430
   25.680    1.8009
   25.695    1.6535
   25.710    1.6746
   25.725    1.7588
   25.740    1.8009
   25.755    1.8641
   25.770    1.6219
   25.785    1.6640
   25.800    1.9484
   25.815    1.7483
   25.830    1.9063
   25.845    1.9800
   25.860    1.8325
   25.875    1.7588
   25.890    1.7588
   25.905    1.7904
   25.920    1.6956
   25.935    1.7062
   25.950    1.7483
   25.965    1.7588
   25.980    1.8325
   25.995    1.7062
   26.010    1.5587
   26.025    1.8115
   26.040    1.6640
   26.055    1.8431
   26.070    1.7062
   26.085    1.6008
   26.100    1.8431
   26.115    1.8009
   26.130    1.6008
   26.145    1.8431
   26.160    1.7483
   26.175    1.8009
   26.190    1.9063
   26.205    1.6535
   26.220    1.8115
   26.235    1.8431
   26.250    1.9168
   26.265    1.6008
   26.280    1.6008
   26.295    1.6640
   26.310    1.7483
   26.325    1.9063
   26.340    1.7799
   26.355    1.6114
   26.370    1.7062
   26.385    1.7588
   26.400    1.8220
   26.415    1.8009
   26.430    1.6324
   26.445    1.5166
   26.460    1.6640
   26.475    1.8220
   26.490    1.6956
   26.505    1.4955
   26.520    1.6219
   26.535    1.6535
   26.550    1.5377
   26.565    1.4955
   26.580    1.5377
   26.595    1.6008
   26.610    1.6851
   26.625    1.6956
   26.640    1.6640
   26.655    1.7694
   26.670    1.8009
   26.685    1.6430
   26.700    1.6851
   26.715    1.6535
   26.730    1.5692
   26.745    1.6640
   26.760    1.6956
   26.775    1.7062
   26.790    1.8115
   26.805    1.7378
   26.820    1.5692
   26.835    1.4850
   26.850    1.6430
   26.865    1.7062
   26.880    1.7272
   26.895    1.7272
   26.910    1.6324
   26.925    1.6956
   26.940    1.5903
   26.955    1.5692
   26.970    1.6851
   26.985    1.7904
   27.000    1.7272
   27.015    1.7062
   27.030    1.5271
   27.045    1.4745
   27.060    1.5482
   27.075    1.6219
   27.090    1.5166
   27.105    1.5061
   27.120    1.7799
   27.135    1.6535
   27.150    1.5482
   27.165    1.7694
   27.180    1.7272
   27.195    1.5377
   27.210    1.6324
   27.225    1.6430
   27.240    1.5903
   27.255    1.6008
   27.270    1.7062
   27.285    1.7272
   27.300    1.6219
   27.315    1.7694
   27.330    1.6851
   27.345    1.5798
   27.360    1.6008
   27.375    1.6114
   27.390    1.5903
   27.405    1.5587
   27.420    1.8431
   27.435    1.6956
   27.450    1.5692
   27.465    1.6008
   27.480    1.5482
   27.495    1.5482
   27.510    1.5061
   27.525    1.5061
   27.540    1.7694
   27.555    1.8747
   27.570    1.8220
   27.585    1.6746
   27.600    1.5377
   27.615    1.7588
   27.630    1.6008
   27.645    1.8220
   27.660    1.6430
   27.675    1.6219
   27.690    1.5587
   27.705    1.4534
   27.720    1.4218
   27.735    1.3060
   27.750    1.4955
   27.765    1.5903
   27.780    1.4850
   27.795    1.5903
   27.810    1.5482
   27.825    1.5587
   27.840    1.3691
   27.855    1.5271
   27.870    1.6535
   27.885    1.6851
   27.900    1.6851
   27.915    1.3902
   27.930    1.7904
   27.945    1.5587
   27.960    1.4534
   27.975    1.6008
   27.990    1.5903
   28.005    1.4639
   28.020    1.6324
   28.035    1.4639
   28.050    1.4639
   28.065    1.5587
   28.080    1.4745
   28.095    1.4639
   28.110    1.5798
   28.125    1.5271
   28.140    1.4639
   28.155    1.7167
   28.170    1.5271
   28.185    1.5061
   28.200    1.6746
   28.215    1.6219
   28.230    1.5166
   28.245    1.7588
   28.260    1.6956
   28.275    1.6746
   28.290    1.6114
   28.305    1.5061
   28.320    1.5166
   28.335    1.4218
   28.350    1.4429
   28.365    1.6851
   28.380    1.5903
   28.395    1.6956
   28.410    1.6008
   28.425    1.4429
   28.440    1.6008
   28.455    1.6746
   28.470    1.5166
   28.485    1.4745
   28.500    1.7167
   28.515    1.4323
   28.530    1.4955
   28.545    1.6746
   28.560    1.7272
   28.575    1.6851
   28.590    1.4745
   28.605    1.4218
   28.620    1.4850
   28.635    1.5061
   28.650    1.3375
   28.665    1.5587
   28.680    1.7378
   28.695    1.5166
   28.710    1.4323
   28.725    1.5692
   28.740    1.6324
   28.755    1.4745
   28.770    1.5061
   28.785    1.5903
   28.800    1.4955
   28.815    1.5903
   28.830    1.4955
   28.845    1.6535
   28.860    1.5587
   28.875    1.5587
   28.890    1.4323
   28.905    1.3060
   28.920    1.5587
   28.935    1.5482
   28.950    1.2533
   28.965    1.3691
   28.980    1.4218
   28.995    1.4113
   29.010    1.3060
   29.025    1.3797
   29.040    1.5061
   29.055    1.5798
   29.070    1.4850
   29.085    1.2954
   29.100    1.4745
   29.115    1.3902
   29.130    1.4429
   29.145    1.3586
   29.160    1.3270
   29.175    1.5587
   29.190    1.2112
   29.205    1.4639
   29.220    1.6430
   29.235    1.5166
   29.250    1.4113
   29.265    1.4429
   29.280    1.5166
   29.295    1.3375
   29.310    1.4113
   29.325    1.5482
   29.340    1.4113
   29.355    1.4429
   29.370    1.4955
   29.385    1.5166
   29.400    1.3691
   29.415    1.1901
   29.430    1.5166
   29.445    1.3586
   29.460    1.2954
   29.475    1.3586
   29.490    1.5692
   29.505    1.5587
   29.520    1.5377
   29.535    1.6956
   29.550    1.4955
   29.565    1.3797
   29.580    1.4113
   29.595    1.3060
   29.610    1.2006
   29.625    1.3797
   29.640    1.4955
   29.655    1.3691
   29.670    1.4639
   29.685    1.4218
   29.700    1.4007
   29.715    1.4007
   29.730    1.3481
   29.745    1.4850
   29.760    1.5271
   29.775    1.2428
   29.790    1.4218
   29.805    1.5903
   29.820    1.3797
   29.835    1.5271
   29.850    1.3375
   29.865    1.4218
   29.880    1.5271
   29.895    1.4323
   29.910    1.2954
   29.925    1.4745
   29.940    1.4429
   29.955    1.5377
   29.970    1.5061
   29.985    1.3797
   30.000    1.3481
   30.015    1.1374
   30.030    1.4007
   30.045    1.3797
   30.060    1.3165
   30.075    1.1796
   30.090    1.3270
   30.105    1.1374
   30.120    1.6956
   30.135    1.5798
   30.150    1.4113
   30.165    1.4955
   30.180    1.3165
   30.195    1.4113
   30.210    1.2638
   30.225    1.3165
   30.240    1.4007
   30.255    1.4113
   30.270    1.3165
   30.285    1.3481
   30.300    1.1480
   30.315    1.2533
   30.330    1.4323
   30.345    1.3902
   30.360    1.4534
   30.375    1.3165
   30.390    1.4113
   30.405    1.4429
   30.420    1.3797
   30.435    1.2322
   30.450    1.5061
   30.465    1.4850
   30.480    1.4639
   30.495    1.3375
   30.510    1.4955
   30.525    1.4218
   30.540    1.3270
   30.555    1.3060
   30.570    1.3902
   30.585    1.2217
   30.600    1.5166
   30.615    1.3691
   30.630    1.1690
   30.645    1.2954
   30.660    1.3586
   30.675    1.2006
   30.690    1.2638
   30.705    1.4429
   30.720    1.4218
   30.735    1.3060
   30.750    1.3481
   30.765    1.2744
   30.780    1.3165
   30.795    1.2849
   30.810    1.2849
   30.825    1.2533
   30.840    1.4429
   30.855    1.3691
   30.870    1.2954
   30.885    1.2428
   30.900    1.2744
   30.915    1.3586
   30.930    1.2006
   30.945    1.0532
   30.960    1.2638
   30.975    1.1901
   30.990    1.3691
   31.005    1.4113
   31.020    1.6535
   31.035    1.7167
   31.050    1.2112
   31.065    1.1901
   31.080    1.3691
   31.095    1.2006
   31.110    1.1690
   31.125    1.3375
   31.140    1.2533
   31.155    1.3797
   31.170    1.2533
   31.185    1.2954
   31.200    1.3165
   31.215    1.3797
   31.230    1.2954
   31.245    1.1901
   31.260    1.2744
   31.275    1.3375
   31.290    1.2638
   31.305    1.2744
   31.320    1.3375
   31.335    1.2006
   31.350    1.1901
   31.365    1.1690
   31.380    1.3902
   31.395    1.4323
   31.410    1.2112
   31.425    1.1901
   31.440    1.2744
   31.455    1.1901
   31.470    1.1480
   31.485    1.1901
   31.500    1.4007
   31.515    1.2744
   31.530    1.2849
   31.545    1.2849
   31.560    1.1901
   31.575    1.2533
   31.590    1.2112
   31.605    1.3375
   31.620    1.4323
   31.635    1.3481
   31.650    1.2954
   31.665    1.2322
   31.680    1.1585
   31.695    1.2217
   31.710    1.2322
   31.725    1.2849
   31.740    1.3165
   31.755    1.2428
   31.770    1.2954
   31.785    1.2954
   31.800    1.3902
   31.815    1.2533
   31.830    1.2638
   31.845    1.3060
   31.860    1.1796
   31.875    1.1480
   31.890    1.2322
   31.905    1.0953
   31.920    1.1374
   31.935    1.1374
   31.950    1.1901
   31.965    1.1690
   31.980    1.2849
   31.995    1.2322
   32.010    1.0953
   32.025    1.1269
   32.040    1.2954
   32.055    1.2006
   32.070    1.2849
   32.085    1.2638
   32.100    1.2533
   32.115    1.1901
   32.130    1.1164
   32.145    1.2217
   32.160    1.1901
   32.175    1.1269
   32.190    1.1690
   32.205    1.3481
   32.220    1.1058
   32.235    1.0848
   32.250    1.0216
   32.265    1.0427
   32.280    1.1374
   32.295    1.0848
   32.310    1.1585
   32.325    1.2006
   32.340    1.2849
   32.355    1.1374
   32.370    1.2322
   32.385    1.2217
   32.400    1.1901
   32.415    1.2112
   32.430    1.1796
   32.445    1.0637
   32.460    1.0742
   32.475    1.1585
   32.490    1.2533
   32.505    1.1058
   32.520    1.1480
   32.535    1.2849
   32.550    1.2322
   32.565    1.2428
   32.580    1.2744
   32.595    1.2428
   32.610    1.2428
   32.625    1.0953
   32.640    1.1269
   32.655    1.1058
   32.670    1.1796
   32.685    1.1901
   32.700    1.2428
   32.715    1.2217
   32.730    1.2112
   32.745    1.1585
   32.760    1.1480
   32.775    1.2428
   32.790    1.1901
   32.805    1.1374
   32.820    1.1901
   32.835    1.1796
   32.850    1.1058
   32.865    1.1585
   32.880    1.2533
   32.895    1.1901
   32.910    1.1058
   32.925    1.2006
   32.940    1.1585
   32.955    1.1585
   32.970    1.1901
   32.985    1.0953
   33.000    1.1374
   33.015    1.2112
   33.030    1.0216
   33.045    1.1480
   33.060    1.2533
   33.075    1.1269
   33.090    1.0111
   33.105    1.1164
   33.120    1.1901
   33.135    1.1269
   33.150    1.0427
   33.165    1.1796
   33.180    1.2322
   33.195    1.3270
   33.210    1.0532
   33.225    1.0953
   33.240    1.0111
   33.255    1.0427
   33.270    1.0427
   33.285    0.9900
   33.300    1.0953
   33.315    1.2638
   33.330    1.1690
   33.345    1.0532
   33.360    1.0427
   33.375    1.0532
   33.390    1.0953
   33.405    1.1585
   33.420    1.2006
   33.435    0.9584
   33.450    1.0005
   33.465    1.0532
   33.480    1.0532
   33.495    1.0848
   33.510    1.0953
   33.525    1.0953
   33.540    1.0321
   33.555    1.1164
   33.570    1.2006
   33.585    1.3481
   33.600    1.1164
   33.615    1.1585
   33.630    1.0321
   33.645    0.9689
   33.660    0.9795
   33.675    1.0532
   33.690    0.9795
   33.705    1.0532
   33.720    1.0953
   33.735    1.1269
   33.750    1.1374
   33.765    0.9373
   33.780    0.9795
   33.795    1.1480
   33.810    1.0742
   33.825    0.9795
   33.840    0.9057
   33.855    1.1480
   33.870    1.0427
   33.885    1.0953
   33.900    0.8847
   33.915    1.0848
   33.930    1.0953
   33.945    1.0216
   33.960    1.0742
   33.975    1.1374
   33.990    1.1164
   34.005    1.0111
   34.020    1.2006
   34.035    1.0742
   34.050    1.0848
   34.065    0.9795
   34.080    1.1374
   34.095    1.1269
   34.110    1.0953
   34.125    1.0637
   34.140    1.0848
   34.155    1.0005
   34.170    0.9584
   34.185    1.1269
   34.200    0.8320
   34.215    0.9795
   34.230    1.0848
   34.245    0.9584
   34.260    0.9163
   34.275    0.8952
   34.290    1.0111
   34.305    0.9584
   34.320    1.0848
   34.335    1.1690
   34.350    1.0216
   34.365    1.0532
   34.380    1.0637
   34.395    1.0321
   34.410    1.0742
   34.425    0.9479
   34.440    1.0111
   34.455    0.9900
   34.470    0.8636
   34.485    0.9163
   34.500    0.9057
   34.515    0.9373
   34.530    1.0953
   34.545    0.9900
   34.560    1.1690
   34.575    1.1164
   34.590    1.0427
   34.605    1.0005
   34.620    0.9795
   34.635    1.0848
   34.650    0.9057
   34.665    0.9479
   34.680    1.0742
   34.695    0.7688
   34.710    1.0532
   34.725    0.9900
   34.740    1.0005
   34.755    0.8847
   34.770    1.0005
   34.785    1.1690
   34.800    1.0637
   34.815    1.1269
   34.830    1.0111
   34.845    0.9479
   34.860    0.9057
   34.875    1.0005
   34.890    0.9479
   34.905    0.9795
   34.920    0.9584
   34.935    0.9795
   34.950    0.9689
   34.965    1.0005
   34.980    0.8425
   34.995    0.9479
   35.010    1.0953
   35.025    0.9479
   35.040    0.8952
   35.055    1.0111
   35.070    0.9584
   35.085    0.8004
   35.100    0.9795
   35.115    1.0427
   35.130    0.8425
   35.145    0.7794
   35.160    0.8847
   35.175    0.9163
   35.190    0.9163
   35.205    0.8531
   35.220    0.9057
   35.235    0.9479
   35.250    0.9057
   35.265    0.8110
   35.280    0.9057
   35.295    0.8531
   35.310    0.8320
   35.325    0.9268
   35.340    0.9689
   35.355    0.8004
   35.370    0.9584
   35.385    0.8952
   35.400    0.9057
   35.415    0.9689
   35.430    1.0216
   35.445    1.0427
   35.460    0.9057
   35.475    0.8004
   35.490    0.9795
   35.505    1.0637
   35.520    1.0111
   35.535    0.9373
   35.550    0.8110
   35.565    0.7162
   35.580    0.7162
   35.595    0.8110
   35.610    0.8425
   35.625    0.8004
   35.640    0.9479
   35.655    0.9268
   35.670    0.7478
   35.685    0.9479
   35.700    0.8425
   35.715    0.8636
   35.730    1.0216
   35.745    1.0321
   35.760    0.9689
   35.775    1.0953
   35.790    1.0321
   35.805    0.9689
   35.820    0.8320
   35.835    0.9373
   35.850    1.0005
   35.865    1.0111
   35.880    0.9057
   35.895    0.7899
   35.910    0.8320
   35.925    0.8320
   35.940    0.8004
   35.955    0.8531
   35.970    0.9373
   35.985    0.9689
   36.000    0.8004
   36.015    0.6635
   36.030    0.9268
   36.045    0.9479
   36.060    0.8425
   36.075    0.9689
   36.090    0.8741
   36.105    0.7794
   36.120    0.7899
   36.135    0.8425
   36.150    0.8425
   36.165    0.8741
   36.180    0.7899
   36.195    0.8215
   36.210    0.8636
   36.225    0.7372
   36.240    0.7583
   36.255    1.0848
   36.270    0.9373
   36.285    0.8110
   36.300    0.9689
   36.315    0.8425
   36.330    0.8215
   36.345    0.9584
   36.360    0.8636
   36.375    0.8636
   36.390    0.8636
   36.405    0.9373
   36.420    0.8741
   36.435    0.7162
   36.450    0.7794
   36.465    0.9689
   36.480    0.8636
   36.495    0.7583
   36.510    0.7899
   36.525    0.9373
   36.540    0.9268
   36.555    0.7583
   36.570    0.8215
   36.585    0.8847
   36.600    0.8425
   36.615    0.8425
   36.630    0.9163
   36.645    0.8531
   36.660    0.8215
   36.675    0.8004
   36.690    0.7583
   36.705    0.9163
   36.720    0.8847
   36.735    0.9584
   36.750    0.8004
   36.765    0.8004
   36.780    0.9479
   36.795    0.9057
   36.810    0.7688
   36.825    0.7267
   36.840    0.9373
   36.855    0.8741
   36.870    0.8215
   36.885    1.0005
   36.900    0.7478
   36.915    0.8110
   36.930    0.7899
   36.945    0.9900
   36.960    0.8847
   36.975    0.8215
   36.990    0.8320
   37.005    0.8741
   37.020    0.8004
   37.035    0.8531
   37.050    0.7267
   37.065    0.7267
   37.080    0.7899
   37.095    0.7688
   37.110    0.9057
   37.125    0.9373
   37.140    0.7583
   37.155    0.5687
   37.170    0.6003
   37.185    0.6740
   37.200    0.8636
   37.215    0.8425
   37.230    0.7688
   37.245    0.8004
   37.260    0.8531
   37.275    0.8847
   37.290    0.8425
   37.305    0.7478
   37.320    0.7794
   37.335    0.8531
   37.350    0.9268
   37.365    0.8531
   37.380    0.8847
   37.395    0.8215
   37.410    0.7794
   37.425    0.8004
   37.440    0.7794
   37.455    0.6951
   37.470    0.7162
   37.485    0.8847
   37.500    0.7794
   37.515    0.7267
   37.530    0.8320
   37.545    0.7162
   37.560    0.7267
   37.575    0.7478
   37.590    0.7056
   37.605    0.7162
   37.620    0.8847
   37.635    0.8320
   37.650    0.8004
   37.665    0.9057
   37.680    0.8320
   37.695    0.8952
   37.710    0.9057
   37.725    0.8320
   37.740    0.6846
   37.755    0.7688
   37.770    0.9689
   37.785    0.8952
   37.800    0.8215
   37.815    0.8110
   37.830    0.8741
   37.845    0.7688
   37.860    0.7478
   37.875    0.8847
   37.890    0.8110
   37.905    0.7478
   37.920    0.6846
   37.935    0.8847
   37.950    0.7583
   37.965    0.7794
   37.980    0.8004
   37.995    0.7478
   38.010    0.8425
   38.025    0.8741
   38.040    0.8847
   38.055    0.7688
   38.070    0.7688
   38.085    0.9268
   38.100    0.9268
   38.115    0.7478
   38.130    0.7478
   38.145    0.7794
   38.160    0.5898
   38.175    0.7267
   38.190    0.7372
   38.205    0.7688
   38.220    0.7794
   38.235    0.7688
   38.250    0.7372
   38.265    0.7583
   38.280    0.8110
   38.295    0.8636
   38.310    0.7794
   38.325    0.7794
   38.340    0.7899
   38.355    0.8952
   38.370    0.7794
   38.385    0.8215
   38.400    0.7688
   38.415    0.9268
   38.430    0.8004
   38.445    0.9268
   38.460    0.8636
   38.475    0.6740
   38.490    0.7372
   38.505    0.6003
   38.520    0.7478
   38.535    0.7794
   38.550    0.8425
   38.565    0.7478
   38.580    0.7372
   38.595    0.7267
   38.610    0.6424
   38.625    0.7162
   38.640    0.7583
   38.655    0.7267
   38.670    0.8531
   38.685    0.7794
   38.700    0.7162
   38.715    0.7162
   38.730    0.7794
   38.745    0.8004
   38.760    0.8531
   38.775    0.8847
   38.790    0.8004
   38.805    0.7478
   38.820    0.6530
   38.835    0.7372
   38.850    0.8531
   38.865    0.7583
   38.880    0.6951
   38.895    0.7899
   38.910    0.8215
   38.925    0.6846
   38.940    0.7583
   38.955    0.7372
   38.970    0.7372
   38.985    0.7794
   39.000    0.7162
   39.015    0.7478
   39.030    0.8425
   39.045    0.6951
   39.060    0.8110
   39.075    0.7372
   39.090    0.7267
   39.105    0.6214
   39.120    0.6530
   39.135    0.7162
   39.150    0.6846
   39.165    0.6424
   39.180    0.7372
   39.195    0.6740
   39.210    0.8636
   39.225    0.8215
   39.240    0.7794
   39.255    0.7056
   39.270    0.8004
   39.285    0.8952
   39.300    0.7583
   39.315    0.6635
   39.330    0.8215
   39.345    0.6635
   39.360    0.6846
   39.375    0.7583
   39.390    0.8004
   39.405    0.8110
   39.420    0.9163
   39.435    0.8215
   39.450    0.6530
   39.465    0.6530
   39.480    0.7583
   39.495    0.6319
   39.510    0.7688
   39.525    0.7583
   39.540    0.6846
   39.555    0.6846
   39.570    0.7794
   39.585    0.7688
   39.600    0.8110
   39.615    0.7267
   39.630    0.7794
   39.645    0.8215
   39.660    0.8110
   39.675    0.8320
   39.690    0.7899
   39.705    0.6846
   39.720    0.6740
   39.735    0.7899
   39.750    0.8847
   39.765    0.7267
   39.780    0.8004
   39.795    0.8215
   39.810    0.8215
   39.825    0.6951
   39.840    0.7372
   39.855    0.7583
   39.870    0.7899
   39.885    0.7478
   39.900    0.5687
   39.915    0.6424
   39.930    0.7267
   39.945    0.7688
   39.960    0.7688
   39.975    0.7794
   39.990    0.6635
