    1.500   25.8241
    1.515   26.5403
    1.530   25.1080
    1.545   24.0021
    1.560   23.6967
    1.575   24.1390
    1.590   23.2333
    1.605   23.1806
    1.620   22.7488
    1.635   21.4113
    1.650   20.6003
    1.665   20.3370
    1.680   19.9895
    1.695   20.0948
    1.710   19.6525
    1.725   19.2733
    1.740   19.5682
    1.755   18.7046
    1.770   18.0727
    1.785   18.3992
    1.800   17.4513
    1.815   17.3249
    1.830   17.5566
    1.845   17.3144
    1.860   16.8194
    1.875   16.2717
    1.890   16.6614
    1.905   16.6825
    1.920   15.8189
    1.935   15.3239
    1.950   16.0295
    1.965   15.6293
    1.980   15.3870
    1.995   15.2185
    2.010   14.5129
    2.025   14.1654
    2.040   14.5445
    2.055   13.8073
    2.070   14.2391
    2.085   14.0916
    2.100   13.7335
    2.115   13.1859
    2.130   13.5756
    2.145   13.1332
    2.160   13.3860
    2.175   13.4808
    2.190   13.9547
    2.205   12.4908
    2.220   12.7330
    2.235   12.6488
    2.250   12.7014
    2.265   12.3433
    2.280   12.3539
    2.295   12.3012
    2.310   12.3960
    2.325   12.2275
    2.340   12.5961
    2.355   12.1432
    2.370   11.9642
    2.385   11.9326
    2.400   11.9431
    2.415   12.0484
    2.430   11.4481
    2.445   11.9326
    2.460   11.6166
    2.475   11.7852
    2.490   11.2691
    2.505   11.4692
    2.520   11.7220
    2.535   11.0585
    2.550   11.6061
    2.565   11.2375
    2.580   11.3323
    2.595   10.8268
    2.610   10.8899
    2.625   11.2586
    2.640   10.8899
    2.655   10.6266
    2.670   11.0690
    2.685   10.4792
    2.700   11.0269
    2.715   10.5319
    2.730    9.8473
    2.745   10.5951
    2.760   10.3844
    2.775   10.7109
    2.790   10.6898
    2.805   10.3212
    2.820   10.7320
    2.835   10.2054
    2.850   10.3949
    2.865    9.9631
    2.880   10.3633
    2.895   10.1948
    2.910   10.4476
    2.925   10.3002
    2.940   10.0158
    2.955   10.2475
    2.970   10.0579
    2.985   10.2475
    3.000   10.4055
    3.015   10.1632
    3.030   10.0579
    3.045   10.0474
    3.060   10.1422
    3.075   10.5529
    3.090    9.4576
    3.105    9.7630
    3.120   10.0579
    3.135    9.9526
    3.150    9.8578
    3.165   10.1001
    3.180   10.3002
    3.195    9.7841
    3.210    9.6156
    3.225    9.5840
    3.240    9.7209
    3.255   10.2896
    3.270   10.3318
    3.285    9.8684
    3.300   10.1422
    3.315   10.3949
    3.330   10.0895
    3.345   10.2580
    3.360   10.3739
    3.375   10.0369
    3.390   10.7846
    3.405   10.9215
    3.420   10.8583
    3.435   10.5951
    3.450   10.4160
    3.465   10.6582
    3.480   10.6898
    3.495   10.9637
    3.510   10.8794
    3.525   10.7846
    3.540   11.0269
    3.555   11.1322
    3.570   11.1638
    3.585   11.3112
    3.600   11.4692
    3.615   11.5745
    3.630   11.5008
    3.645   11.6588
    3.660   11.9010
    3.675   11.7641
    3.690   11.9115
    3.705   12.7330
    3.720   12.7120
    3.735   13.2175
    3.750   13.7967
    3.765   14.2285
    3.780   14.5656
    3.795   14.9658
    3.810   15.4924
    3.825   17.3565
    3.840   18.6730
    3.855   19.4102
    3.870   19.5577
    3.885   18.8415
    3.900   17.3249
    3.915   15.3028
    3.930   12.6488
    3.945   10.5635
    3.960    9.0047
    3.975    8.6467
    3.990    9.1206
    4.005    9.1943
    4.020    8.4360
    4.035    8.3518
    4.050    8.3623
    4.065    8.6256
    4.080    8.6572
    4.095    8.8046
    4.110    8.7836
    4.125    8.6677
    4.140    8.6467
    4.155    8.6361
    4.170    8.5203
    4.185    8.3412
    4.200    8.4255
    4.215    8.1727
    4.230    8.5835
    4.245    8.6677
    4.260    8.4255
    4.275    8.4887
    4.290    8.3728
    4.305    8.4360
    4.320    8.2570
    4.335    8.1833
    4.350    8.4360
    4.365    8.5519
    4.380    8.5940
    4.395    8.8152
    4.410    8.5940
    4.425    8.3834
    4.440    8.2149
    4.455    8.8678
    4.470    8.4360
    4.485    8.3202
    4.500    8.6677
    4.515    8.1833
    4.530    8.3834
    4.545    8.6993
    4.560    8.5624
    4.575    8.4360
    4.590    8.5203
    4.605    8.4360
    4.620    8.3412
    4.635    8.2570
    4.650    8.0042
    4.665    8.7625
    4.680    8.1833
    4.695    8.4466
    4.710    8.0990
    4.725    7.8989
    4.740    8.3412
    4.755    8.1622
    4.770    8.4571
    4.785    8.5413
    4.800    8.2570
    4.815    8.0042
    4.830    8.3096
    4.845    8.2780
    4.860    8.6256
    4.875    8.6783
    4.890    8.7309
    4.905    8.6361
    4.920    8.7309
    4.935    8.8678
    4.950    8.8152
    4.965    8.3412
    4.980    8.5413
    4.995    8.5097
    5.010    8.2780
    5.025    8.7625
    5.040    8.3202
    5.055    8.3202
    5.070    8.6888
    5.085    8.4887
    5.100    8.7098
    5.115    8.7520
    5.130    8.6256
    5.145    8.6677
    5.160    8.7941
    5.175    8.6888
    5.190    8.9415
    5.205    8.7836
    5.220    8.7941
    5.235    9.2154
    5.250    9.0679
    5.265    8.9205
    5.280    9.0363
    5.295    9.0785
    5.310    9.2996
    5.325    9.6472
    5.340    9.7420
    5.355    9.6682
    5.370   10.0263
    5.385    9.9421
    5.400   10.4371
    5.415   11.0374
    5.430   10.9215
    5.445   11.2796
    5.460   11.7430
    5.475   11.6798
    5.490   12.5013
    5.505   12.5540
    5.520   11.3428
    5.535   10.6372
    5.550    9.9315
    5.565    9.3312
    5.580    8.5835
    5.595    8.6783
    5.610    8.5203
    5.625    8.5519
    5.640    8.4360
    5.655    8.5624
    5.670    8.2464
    5.685    8.4676
    5.700    8.6467
    5.715    8.3202
    5.730    8.2780
    5.745    8.2254
    5.760    7.8357
    5.775    8.1095
    5.790    8.1411
    5.805    8.0569
    5.820    8.0042
    5.835    8.0569
    5.850    7.6356
    5.865    7.9200
    5.880    7.5829
    5.895    7.9937
    5.910    7.7199
    5.925    7.7409
    5.940    7.8989
    5.955    7.9200
    5.970    8.4781
    5.985    7.8146
    6.000    8.1411
    6.015    8.2675
    6.030    7.8778
    6.045    7.9410
    6.060    7.9410
    6.075    8.5940
    6.090    8.3623
    6.105    7.8462
    6.120    8.3939
    6.135    8.0147
    6.150    8.2675
    6.165    8.0779
    6.180    8.2886
    6.195    8.3096
    6.210    8.5413
    6.225    8.2359
    6.240    8.2464
    6.255    7.8146
    6.270    8.0358
    6.285    8.0463
    6.300    7.9621
    6.315    8.2254
    6.330    8.1411
    6.345    8.5203
    6.360    8.5097
    6.375    8.0990
    6.390    8.2043
    6.405    8.2675
    6.420    8.4676
    6.435    8.6151
    6.450    8.4992
    6.465    8.3412
    6.480    8.4466
    6.495    7.9410
    6.510    8.1727
    6.525    8.3939
    6.540    8.0779
    6.555    8.2254
    6.570    8.4044
    6.585    8.3412
    6.600    8.4044
    6.615    8.1938
    6.630    8.8046
    6.645    8.8046
    6.660    8.8152
    6.675    8.7414
    6.690    8.8362
    6.705    8.8784
    6.720    9.4260
    6.735    9.3839
    6.750    9.3312
    6.765    8.9837
    6.780    8.8784
    6.795    8.4887
    6.810    8.4571
    6.825    7.7830
    6.840    7.7199
    6.855    7.6567
    6.870    8.3412
    6.885    8.4887
    6.900    8.1517
    6.915    8.0042
    6.930    7.9516
    6.945    8.0042
    6.960    8.0358
    6.975    7.9410
    6.990    8.2991
    7.005    8.0779
    7.020    8.0569
    7.035    8.1727
    7.050    8.2780
    7.065    7.8568
    7.080    7.9200
    7.095    8.0253
    7.110    7.6777
    7.125    7.7936
    7.140    8.2675
    7.155    8.6045
    7.170    8.1517
    7.185    7.8673
    7.200    8.0569
    7.215    8.5835
    7.230    8.2675
    7.245    8.0885
    7.260    8.3623
    7.275    8.0147
    7.290    8.1411
    7.305    8.1095
    7.320    7.8041
    7.335    8.2464
    7.350    8.3307
    7.365    8.1517
    7.380    8.2570
    7.395    8.2780
    7.410    7.9305
    7.425    8.1306
    7.440    8.6467
    7.455    8.2991
    7.470    7.5829
    7.485    7.8462
    7.500    8.5413
    7.515    8.4150
    7.530    8.4571
    7.545    8.3307
    7.560    8.4992
    7.575    8.8678
    7.590    8.5308
    7.605    7.8884
    7.620    8.1517
    7.635    8.0463
    7.650    8.2675
    7.665    8.3623
    7.680    8.9100
    7.695    8.6572
    7.710    8.1306
    7.725    8.7520
    7.740    8.6677
    7.755    9.2680
    7.770    8.8046
    7.785    8.9731
    7.800    8.6888
    7.815    9.0469
    7.830    8.9310
    7.845    8.9310
    7.860    8.4150
    7.875    8.6256
    7.890    8.2149
    7.905    8.1727
    7.920    8.1938
    7.935    8.0042
    7.950    8.3412
    7.965    8.1833
    7.980    8.3623
    7.995    7.9200
    8.010    8.2043
    8.025    7.9516
    8.040    8.3623
    8.055    8.3623
    8.070    8.3096
    8.085    8.0253
    8.100    7.7409
    8.115    7.8884
    8.130    7.9726
    8.145    8.2464
    8.160    8.7414
    8.175    8.5940
    8.190    8.7414
    8.205    8.3202
    8.220    8.2991
    8.235    8.3939
    8.250    8.3834
    8.265    8.3623
    8.280    8.2043
    8.295    8.4887
    8.310    8.1201
    8.325    8.5097
    8.340    7.9937
    8.355    8.0042
    8.370    8.2464
    8.385    8.1517
    8.400    8.4781
    8.415    8.1727
    8.430    8.0463
    8.445    8.2254
    8.460    8.5835
    8.475    8.4676
    8.490    8.4150
    8.505    8.5519
    8.520    9.1417
    8.535    8.5835
    8.550    8.2570
    8.565    8.3728
    8.580    8.3728
    8.595    8.2886
    8.610    8.2149
    8.625    8.5624
    8.640    8.6361
    8.655    8.6677
    8.670    8.3096
    8.685    8.5835
    8.700    8.5519
    8.715    8.1938
    8.730    8.6151
    8.745    8.7204
    8.760    8.7520
    8.775    8.8362
    8.790    8.7414
    8.805    8.4571
    8.820    8.6151
    8.835    8.7730
    8.850    8.2464
    8.865    8.3096
    8.880    8.4571
    8.895    8.3623
    8.910    7.9726
    8.925    8.2043
    8.940    8.7414
    8.955    8.8573
    8.970    8.1411
    8.985    8.3307
    9.000    8.5308
    9.015    8.6993
    9.030    8.6151
    9.045    8.5729
    9.060    8.5835
    9.075    8.7730
    9.090    8.2570
    9.105    8.6993
    9.120    8.5203
    9.135    8.8573
    9.150    8.8784
    9.165    8.7309
    9.180    8.8468
    9.195    9.0574
    9.210    9.3102
    9.225    8.8257
    9.240    8.6045
    9.255    8.2780
    9.270    8.3939
    9.285    9.1101
    9.300    8.7520
    9.315    8.6256
    9.330    8.7836
    9.345    9.1206
    9.360    8.8889
    9.375    9.0047
    9.390    9.0785
    9.405    9.2259
    9.420    8.9942
    9.435    8.8362
    9.450    9.2891
    9.465    9.6261
    9.480    9.4260
    9.495    9.9421
    9.510    9.4787
    9.525   10.0053
    9.540   10.1738
    9.555    9.8578
    9.570    9.8157
    9.585    9.4155
    9.600    9.0679
    9.615    9.1943
    9.630    8.7836
    9.645    8.4360
    9.660    8.4044
    9.675    8.0042
    9.690    8.2886
    9.705    8.3728
    9.720    8.1201
    9.735    8.3728
    9.750    8.3728
    9.765    8.2991
    9.780    8.2991
    9.795    8.3307
    9.810    8.4676
    9.825    8.2886
    9.840    7.9937
    9.855    8.4360
    9.870    8.7941
    9.885    8.5097
    9.900    7.9621
    9.915    8.0885
    9.930    8.4466
    9.945    8.1938
    9.960    8.4255
    9.975    8.1306
    9.990    8.4150
   10.005    8.6783
   10.020    8.7204
   10.035    8.4150
   10.050    8.4676
   10.065    8.6888
   10.080    9.0047
   10.095    8.2886
   10.110    8.3202
   10.125    8.3518
   10.140    8.6045
   10.155    8.9942
   10.170    8.7730
   10.185    8.4676
   10.200    8.4255
   10.215    9.1943
   10.230    8.6467
   10.245    8.8678
   10.260    9.1311
   10.275    9.1311
   10.290    8.8784
   10.305    8.6256
   10.320    8.9837
   10.335    8.8573
   10.350    8.7836
   10.365    8.5940
   10.380    8.6677
   10.395    8.4781
   10.410    8.6783
   10.425    8.4044
   10.440    8.2886
   10.455    8.4255
   10.470    8.1833
   10.485    8.1517
   10.500    8.2886
   10.515    8.5729
   10.530    8.7098
   10.545    8.5097
   10.560    8.1938
   10.575    8.4887
   10.590    8.6045
   10.605    8.3623
   10.620    8.3834
   10.635    8.2991
   10.650    8.4150
   10.665    8.2254
   10.680    8.3202
   10.695    8.0674
   10.710    8.1411
   10.725    8.6361
   10.740    8.0569
   10.755    7.9410
   10.770    8.5519
   10.785    7.9726
   10.800    8.3939
   10.815    8.4360
   10.830    8.0569
   10.845    7.9410
   10.860    8.3728
   10.875    8.0990
   10.890    8.4781
   10.905    8.5413
   10.920    7.9726
   10.935    8.4466
   10.950    8.7309
   10.965    8.4676
   10.980    8.7098
   10.995    8.5203
   11.010    8.7941
   11.025    9.0995
   11.040    8.5624
   11.055    8.5940
   11.070    8.6993
   11.085    8.6151
   11.100    8.0569
   11.115    8.0779
   11.130    8.3202
   11.145    8.2464
   11.160    8.2043
   11.175    8.4466
   11.190    8.8362
   11.205    8.5308
   11.220    8.2886
   11.235    8.2780
   11.250    8.5203
   11.265    8.3412
   11.280    7.9621
   11.295    7.4987
   11.310    7.8252
   11.325    8.0042
   11.340    8.0779
   11.355    8.1622
   11.370    8.0885
   11.385    8.3307
   11.400    7.7093
   11.415    8.2991
   11.430    8.2359
   11.445    7.7620
   11.460    8.0674
   11.475    7.9410
   11.490    7.9937
   11.505    7.8146
   11.520    7.8146
   11.535    7.8568
   11.550    8.2991
   11.565    7.5513
   11.580    8.0463
   11.595    7.7830
   11.610    8.0779
   11.625    7.9305
   11.640    8.5413
   11.655    8.6045
   11.670    8.5624
   11.685    8.2991
   11.700    8.7520
   11.715    8.5835
   11.730    8.7836
   11.745    8.3202
   11.760    8.3834
   11.775    8.1622
   11.790    8.0885
   11.805    7.8146
   11.820    8.1201
   11.835    8.3518
   11.850    7.6988
   11.865    7.9937
   11.880    7.8357
   11.895    7.8778
   11.910    7.8146
   11.925    7.8568
   11.940    7.7093
   11.955    7.6672
   11.970    7.7409
   11.985    7.5829
   12.000    7.6777
   12.015    7.8357
   12.030    7.8041
   12.045    8.0253
   12.060    7.7936
   12.075    8.1622
   12.090    7.7830
   12.105    8.0358
   12.120    7.9831
   12.135    7.9305
   12.150    7.4987
   12.165    7.6356
   12.180    8.0990
   12.195    7.9726
   12.210    7.9305
   12.225    7.7304
   12.240    8.0463
   12.255    7.6567
   12.270    7.9621
   12.285    7.8884
   12.300    7.9200
   12.315    8.0463
   12.330    7.9937
   12.345    7.8462
   12.360    8.0990
   12.375    8.0674
   12.390    7.9726
   12.405    8.0885
   12.420    8.1517
   12.435    8.0990
   12.450    7.5619
   12.465    7.6461
   12.480    7.4250
   12.495    7.7620
   12.510    7.8357
   12.525    7.5829
   12.540    7.8041
   12.555    7.7409
   12.570    7.8673
   12.585    7.6988
   12.600    7.9200
   12.615    7.6777
   12.630    7.8252
   12.645    8.0042
   12.660    7.5619
   12.675    7.9831
   12.690    7.8778
   12.705    7.9937
   12.720    7.5724
   12.735    7.6145
   12.750    8.0253
   12.765    7.7620
   12.780    7.5303
   12.795    8.0463
   12.810    7.4460
   12.825    7.5724
   12.840    7.8884
   12.855    7.5197
   12.870    8.2149
   12.885    8.2464
   12.900    8.1517
   12.915    7.8989
   12.930    8.2464
   12.945    8.0674
   12.960    7.7409
   12.975    8.1411
   12.990    8.4044
   13.005    7.8041
   13.020    7.8041
   13.035    7.6988
   13.050    7.6988
   13.065    7.6567
   13.080    7.5408
   13.095    7.3723
   13.110    7.2986
   13.125    7.5724
   13.140    7.5829
   13.155    7.3407
   13.170    7.8041
   13.185    7.7830
   13.200    7.9937
   13.215    8.0358
   13.230    7.7725
   13.245    7.4776
   13.260    7.3828
   13.275    7.1511
   13.290    7.3302
   13.305    7.3512
   13.320    7.5303
   13.335    7.4144
   13.350    7.2775
   13.365    7.4987
   13.380    7.4460
   13.395    7.5829
   13.410    7.3618
   13.425    7.2249
   13.440    7.4987
   13.455    7.6777
   13.470    7.7936
   13.485    7.8357
   13.500    7.2986
   13.515    7.4144
   13.530    7.9410
   13.545    7.6461
   13.560    7.5513
   13.575    7.6777
   13.590    7.3618
   13.605    7.4250
   13.620    7.9621
   13.635    7.6567
   13.650    7.6777
   13.665    7.3407
   13.680    7.4566
   13.695    7.4250
   13.710    7.6356
   13.725    7.7093
   13.740    7.8673
   13.755    7.5619
   13.770    7.5197
   13.785    7.6883
   13.800    7.3407
   13.815    7.7199
   13.830    7.5619
   13.845    7.2670
   13.860    7.3407
   13.875    7.1933
   13.890    7.3512
   13.905    7.5408
   13.920    7.2986
   13.935    7.3828
   13.950    7.4039
   13.965    7.2670
   13.980    7.5408
   13.995    7.8673
   14.010    8.0147
   14.025    7.6461
   14.040    7.8989
   14.055    7.9726
   14.070    7.7830
   14.085    7.2459
   14.100    7.8041
   14.115    7.5829
   14.130    7.8989
   14.145    7.6145
   14.160    7.6567
   14.175    7.3934
   14.190    7.9094
   14.205    7.7304
   14.220    7.4776
   14.235    7.2880
   14.250    7.1090
   14.265    7.6461
   14.280    7.4566
   14.295    7.4671
   14.310    7.6777
   14.325    7.4776
   14.340    7.2986
   14.355    7.5829
   14.370    7.4566
   14.385    7.3934
   14.400    7.8989
   14.415    7.3091
   14.430    7.4250
   14.445    7.8041
   14.460    7.3196
   14.475    7.4882
   14.490    7.7093
   14.505    7.3618
   14.520    7.5092
   14.535    7.5408
   14.550    7.5724
   14.565    7.4882
   14.580    7.5408
   14.595    7.7199
   14.610    7.5092
   14.625    7.3618
   14.640    7.3934
   14.655    7.6251
   14.670    7.6988
   14.685    7.6988
   14.700    7.5513
   14.715    7.3618
   14.730    7.7304
   14.745    7.8252
   14.760    7.9831
   14.775    7.8146
   14.790    7.2775
   14.805    7.3828
   14.820    7.4039
   14.835    7.3828
   14.850    7.4355
   14.865    7.3723
   14.880    7.2143
   14.895    7.4776
   14.910    7.4144
   14.925    7.4671
   14.940    7.7304
   14.955    7.3091
   14.970    7.6251
   14.985    7.9937
   15.000    7.6145
   15.015    7.3302
   15.030    7.6777
   15.045    7.9200
   15.060    7.6883
   15.075    7.3934
   15.090    7.4460
   15.105    7.6356
   15.120    7.5829
   15.135    7.9094
   15.150    8.0463
   15.165    7.9516
   15.180    7.8357
   15.195    7.8041
   15.210    7.8357
   15.225    7.4039
   15.240    7.8041
   15.255    7.5092
   15.270    7.3934
   15.285    7.6988
   15.300    7.6988
   15.315    7.5829
   15.330    7.6672
   15.345    7.4671
   15.360    7.7409
   15.375    7.7199
   15.390    7.7409
   15.405    7.6672
   15.420    7.4671
   15.435    7.2565
   15.450    7.1090
   15.465    7.5935
   15.480    8.1517
   15.495    7.7620
   15.510    7.3618
   15.525    7.5303
   15.540    7.7093
   15.555    7.6672
   15.570    7.7725
   15.585    7.7830
   15.600    8.0779
   15.615    7.5935
   15.630    7.5408
   15.645    7.9937
   15.660    7.9305
   15.675    7.3512
   15.690    7.4566
   15.705    7.9937
   15.720    7.7830
   15.735    8.0147
   15.750    7.8041
   15.765    7.7199
   15.780    7.2986
   15.795    7.8778
   15.810    8.2149
   15.825    8.2780
   15.840    7.6040
   15.855    7.8252
   15.870    7.9937
   15.885    8.2043
   15.900    7.8252
   15.915    8.4044
   15.930    8.1411
   15.945    8.4255
   15.960    8.1517
   15.975    7.9831
   15.990    8.0674
   16.005    8.4992
   16.020    8.5097
   16.035    8.5308
   16.050    7.9200
   16.065    8.1622
   16.080    8.4676
   16.095    8.4571
   16.110    8.4992
   16.125    8.6361
   16.140    8.4466
   16.155    8.2991
   16.170    8.5519
   16.185    8.2464
   16.200    8.3518
   16.215    8.7414
   16.230    8.8257
   16.245    8.1938
   16.260    8.2780
   16.275    8.0569
   16.290    8.0990
   16.305    8.2675
   16.320    8.3939
   16.335    8.0779
   16.350    8.0990
   16.365    8.5308
   16.380    7.9726
   16.395    8.0569
   16.410    8.0463
   16.425    8.1411
   16.440    7.8252
   16.455    8.2254
   16.470    7.9621
   16.485    8.2043
   16.500    8.1938
   16.515    8.2254
   16.530    7.2459
   16.545    7.2354
   16.560    7.8041
   16.575    7.5619
   16.590    7.9516
   16.605    8.1938
   16.620    7.9937
   16.635    7.8462
   16.650    7.7620
   16.665    7.9094
   16.680    7.6145
   16.695    7.8778
   16.710    7.5829
   16.725    8.1517
   16.740    8.0674
   16.755    8.0463
   16.770    8.0569
   16.785    7.8989
   16.800    7.0563
   16.815    7.3934
   16.830    7.7304
   16.845    8.0253
   16.860    7.5513
   16.875    7.6777
   16.890    7.6356
   16.905    7.3723
   16.920    7.9200
   16.935    7.4776
   16.950    7.8568
   16.965    7.4250
   16.980    7.6461
   16.995    7.7304
   17.010    8.0147
   17.025    8.4255
   17.040    7.8673
   17.055    7.9410
   17.070    7.5513
   17.085    7.7620
   17.100    7.8568
   17.115    7.9621
   17.130    7.9726
   17.145    7.7093
   17.160    7.7830
   17.175    7.5408
   17.190    7.9200
   17.205    7.5619
   17.220    7.9726
   17.235    8.0358
   17.250    7.3723
   17.265    7.1090
   17.280    7.8989
   17.295    7.7725
   17.310    7.5408
   17.325    7.3934
   17.340    7.8357
   17.355    7.7725
   17.370    7.9516
   17.385    7.8357
   17.400    7.5619
   17.415    7.4460
   17.430    7.6251
   17.445    8.0253
   17.460    7.5513
   17.475    7.4250
   17.490    7.8673
   17.505    7.6567
   17.520    7.5408
   17.535    8.1095
   17.550    8.0042
   17.565    7.6883
   17.580    7.5829
   17.595    7.7936
   17.610    8.1517
   17.625    7.9410
   17.640    7.5303
   17.655    7.8884
   17.670    8.2675
   17.685    7.8884
   17.700    7.7199
   17.715    7.8252
   17.730    7.7409
   17.745    8.2991
   17.760    8.0885
   17.775    7.6040
   17.790    7.9094
   17.805    7.7514
   17.820    7.7304
   17.835    8.2359
   17.850    8.2570
   17.865    8.2991
   17.880    8.0253
   17.895    8.0147
   17.910    8.6361
   17.925    8.4992
   17.940    8.2464
   17.955    8.1622
   17.970    7.9621
   17.985    8.3623
   18.000    8.7730
   18.015    8.4044
   18.030    8.2675
   18.045    8.4255
   18.060    8.5097
   18.075    8.8152
   18.090    8.0885
   18.105    8.0463
   18.120    8.2464
   18.135    8.1833
   18.150    8.0463
   18.165    7.9831
   18.180    8.1517
   18.195    7.7936
   18.210    7.7199
   18.225    8.0779
   18.240    7.6883
   18.255    7.5935
   18.270    8.0253
   18.285    7.9094
   18.300    7.8989
   18.315    7.4776
   18.330    7.7093
   18.345    7.5092
   18.360    8.0463
   18.375    7.3091
   18.390    7.6777
   18.405    7.5303
   18.420    7.5935
   18.435    7.4460
   18.450    7.5829
   18.465    7.6040
   18.480    7.8041
   18.495    7.7620
   18.510    7.5513
   18.525    7.7093
   18.540    8.0990
   18.555    7.2986
   18.570    7.5408
   18.585    8.0674
   18.600    7.7409
   18.615    7.7936
   18.630    7.8357
   18.645    7.9410
   18.660    7.5829
   18.675    7.7830
   18.690    7.8884
   18.705    7.6567
   18.720    7.5513
   18.735    7.8252
   18.750    7.6461
   18.765    7.7409
   18.780    7.4882
   18.795    7.5935
   18.810    7.5619
   18.825    8.1095
   18.840    8.0463
   18.855    8.1201
   18.870    7.7620
   18.885    7.5408
   18.900    7.2880
   18.915    7.2670
   18.930    7.4250
   18.945    7.7620
   18.960    7.5724
   18.975    8.0569
   18.990    8.0463
   19.005    8.1201
   19.020    7.9516
   19.035    8.1306
   19.050    7.9410
   19.065    8.3307
   19.080    8.2991
   19.095    7.6567
   19.110    7.8146
   19.125    7.7409
   19.140    7.2986
   19.155    7.6356
   19.170    7.6883
   19.185    7.6777
   19.200    7.6251
   19.215    7.7620
   19.230    7.4882
   19.245    7.4776
   19.260    7.7409
   19.275    7.6356
   19.290    7.8252
   19.305    7.8146
   19.320    7.8778
   19.335    7.7725
   19.350    7.7514
   19.365    7.6672
   19.380    7.6356
   19.395    7.8357
   19.410    7.3618
   19.425    7.6040
   19.440    7.6567
   19.455    7.7620
   19.470    7.8146
   19.485    7.7936
   19.500    7.5935
   19.515    7.7725
   19.530    7.7936
   19.545    7.6251
   19.560    7.5935
   19.575    7.6777
   19.590    7.5513
   19.605    8.0990
   19.620    8.0358
   19.635    7.7304
   19.650    7.6672
   19.665    7.8673
   19.680    7.7199
   19.695    7.7725
   19.710    7.8462
   19.725    7.6567
   19.740    7.4039
   19.755    7.4882
   19.770    7.4671
   19.785    8.0674
   19.800    7.9200
   19.815    7.5724
   19.830    7.7936
   19.845    7.3723
   19.860    7.8041
   19.875    7.5513
   19.890    7.1406
   19.905    7.3828
   19.920    7.9516
   19.935    7.4460
   19.950    7.5724
   19.965    7.9410
   19.980    7.5935
   19.995    8.1411
   20.010    8.1411
   20.025    7.6883
   20.040    8.0358
   20.055    7.9516
   20.070    7.7304
   20.085    7.9094
   20.100    7.7304
   20.115    8.0779
   20.130    8.1727
   20.145    7.5197
   20.160    7.7620
   20.175    7.9831
   20.190    7.8146
   20.205    7.6988
   20.220    7.8778
   20.235    7.4671
   20.250    8.0147
   20.265    7.9410
   20.280    7.6777
   20.295    7.9305
   20.310    8.0674
   20.325    8.0463
   20.340    7.8884
   20.355    7.4460
   20.370    7.7093
   20.385    8.0147
   20.400    7.7936
   20.415    8.2359
   20.430    7.8462
   20.445    7.6988
   20.460    7.7830
   20.475    7.7093
   20.490    8.0885
   20.505    7.5724
   20.520    7.6567
   20.535    7.5092
   20.550    7.8041
   20.565    7.9094
   20.580    7.4250
   20.595    7.3407
   20.610    7.5829
   20.625    7.1195
   20.640    7.2249
   20.655    7.3618
   20.670    7.7514
   20.685    7.8989
   20.700    7.6567
   20.715    7.6988
   20.730    8.1517
   20.745    7.9831
   20.760    7.9831
   20.775    7.7725
   20.790    7.7409
   20.805    7.9410
   20.820    7.9305
   20.835    8.2675
   20.850    8.0885
   20.865    7.5092
   20.880    7.8673
   20.895    7.6040
   20.910    7.4776
   20.925    7.6356
   20.940    8.0253
   20.955    7.7093
   20.970    7.5092
   20.985    8.0147
   21.000    7.9305
   21.015    7.9937
   21.030    8.0147
   21.045    7.9200
   21.060    7.6040
   21.075    7.6356
   21.090    8.1517
   21.105    7.7830
   21.120    7.7304
   21.135    7.6040
   21.150    7.4987
   21.165    7.7620
   21.180    7.7936
   21.195    7.5408
   21.210    7.5935
   21.225    8.0463
   21.240    7.9937
   21.255    8.0147
   21.270    8.2149
   21.285    7.7199
   21.300    8.3202
   21.315    7.8568
   21.330    7.6567
   21.345    7.9516
   21.360    7.8568
   21.375    7.9200
   21.390    7.6883
   21.405    7.8357
   21.420    7.8778
   21.435    7.5619
   21.450    8.0990
   21.465    7.7936
   21.480    7.9726
   21.495    8.0885
   21.510    7.5513
   21.525    7.9621
   21.540    7.6567
   21.555    8.1095
   21.570    7.7830
   21.585    7.8041
   21.600    7.8778
   21.615    8.0463
   21.630    8.1411
   21.645    8.1833
   21.660    8.0147
   21.675    7.7830
   21.690    8.0042
   21.705    8.0885
   21.720    8.0147
   21.735    7.9410
   21.750    7.5092
   21.765    8.0463
   21.780    7.9410
   21.795    7.7199
   21.810    7.8673
   21.825    7.8673
   21.840    7.9094
   21.855    7.9094
   21.870    8.0990
   21.885    8.5097
   21.900    7.7936
   21.915    7.4355
   21.930    7.3091
   21.945    8.1517
   21.960    8.1411
   21.975    7.7199
   21.990    8.2254
   22.005    7.7199
   22.020    7.6988
   22.035    7.6672
   22.050    7.7409
   22.065    7.9305
   22.080    7.6145
   22.095    7.9094
   22.110    8.0358
   22.125    7.9831
   22.140    8.0990
   22.155    7.8884
   22.170    8.1938
   22.185    8.1833
   22.200    7.9726
   22.215    7.9516
   22.230    8.0674
   22.245    7.8146
   22.260    7.8778
   22.275    7.5724
   22.290    8.3096
   22.305    8.0042
   22.320    7.6988
   22.335    7.8357
   22.350    8.1938
   22.365    7.8146
   22.380    7.8462
   22.395    8.0358
   22.410    8.1095
   22.425    8.2043
   22.440    7.9831
   22.455    8.0042
   22.470    7.8884
   22.485    7.8041
   22.500    8.3834
   22.515    8.2043
   22.530    8.1833
   22.545    8.5308
   22.560    7.9831
   22.575    8.2254
   22.590    8.0569
   22.605    8.1938
   22.620    7.8884
   22.635    8.4360
   22.650    8.3202
   22.665    7.7409
   22.680    7.5935
   22.695    7.8568
   22.710    8.4887
   22.725    8.2254
   22.740    7.8357
   22.755    8.0147
   22.770    8.0674
   22.785    7.5197
   22.800    8.0569
   22.815    8.1201
   22.830    8.1938
   22.845    8.3412
   22.860    8.2886
   22.875    7.6567
   22.890    7.8989
   22.905    7.7620
   22.920    7.8146
   22.935    7.8146
   22.950    7.8357
   22.965    7.6356
   22.980    8.2149
   22.995    8.0779
   23.010    7.9831
   23.025    7.8041
   23.040    8.0569
   23.055    8.2675
   23.070    8.0674
   23.085    7.7830
   23.100    8.2991
   23.115    8.2464
   23.130    8.4466
   23.145    8.5413
   23.160    7.7093
   23.175    7.9726
   23.190    7.8462
   23.205    8.2359
   23.220    7.9831
   23.235    7.7830
   23.250    7.9937
   23.265    8.0358
   23.280    8.1622
   23.295    7.8041
   23.310    7.9937
   23.325    7.8778
   23.340    7.6883
   23.355    7.5513
   23.370    7.5724
   23.385    7.5619
   23.400    7.6672
   23.415    7.6251
   23.430    7.9200
   23.445    7.4460
   23.460    7.8146
   23.475    7.9516
   23.490    7.6356
   23.505    7.3512
   23.520    7.9200
   23.535    8.3834
   23.550    7.9410
   23.565    7.8884
   23.580    7.6251
   23.595    7.4460
   23.610    7.9305
   23.625    7.6777
   23.640    7.6145
   23.655    8.0253
   23.670    7.7199
   23.685    7.4144
   23.700    7.6672
   23.715    7.7725
   23.730    7.4882
   23.745    7.5197
   23.760    7.9200
   23.775    8.0358
   23.790    7.9621
   23.805    7.9831
   23.820    7.6777
   23.835    7.7199
   23.850    7.9831
   23.865    8.0042
   23.880    7.8778
   23.895    7.7409
   23.910    7.8041
   23.925    7.6777
   23.940    7.7725
   23.955    7.6040
   23.970    7.4566
   23.985    7.4776
   24.000    7.4987
   24.015    7.5829
   24.030    7.7409
   24.045    7.6672
   24.060    7.6883
   24.075    7.8989
   24.090    7.4250
   24.105    7.3512
   24.120    7.6883
   24.135    7.8146
   24.150    7.6883
   24.165    7.6988
   24.180    7.7936
   24.195    7.8357
   24.210    7.4987
   24.225    8.0253
   24.240    7.9937
   24.255    8.0253
   24.270    8.0990
   24.285    7.8357
   24.300    7.9410
   24.315    8.0253
   24.330    8.1622
   24.345    7.6883
   24.360    7.6777
   24.375    7.6567
   24.390    7.1301
   24.405    7.9094
   24.420    7.5513
   24.435    7.9305
   24.450    8.2149
   24.465    7.5197
   24.480    7.5303
   24.495    7.8252
   24.510    7.8462
   24.525    8.0147
   24.540    7.5935
   24.555    7.6145
   24.570    7.5619
   24.585    7.6567
   24.600    7.4882
   24.615    7.7830
   24.630    7.5513
   24.645    7.2986
   24.660    7.5724
   24.675    7.5303
   24.690    7.7514
   24.705    7.2143
   24.720    7.6040
   24.735    7.9726
   24.750    8.1517
   24.765    7.2775
   24.780    7.6040
   24.795    7.5513
   24.810    7.8357
   24.825    8.2254
   24.840    7.7514
   24.855    7.3828
   24.870    7.2143
   24.885    7.9094
   24.900    7.6988
   24.915    7.3407
   24.930    7.5724
   24.945    8.2149
   24.960    7.8778
   24.975    7.6461
   24.990    8.0674
   25.005    8.0779
   25.020    8.0358
   25.035    7.7620
   25.050    7.6777
   25.065    7.7304
   25.080    7.6988
   25.095    7.6251
   25.110    7.7620
   25.125    7.6040
   25.140    7.5303
   25.155    7.6777
   25.170    7.6040
   25.185    7.8989
   25.200    7.5935
   25.215    7.4566
   25.230    7.8041
   25.245    7.4776
   25.260    7.4039
   25.275    7.6883
   25.290    7.1933
   25.305    6.9932
   25.320    7.4460
   25.335    7.4039
   25.350    7.4776
   25.365    7.5724
   25.380    7.2249
   25.395    7.1827
   25.410    7.1827
   25.425    7.2775
   25.440    7.8462
   25.455    7.8041
   25.470    7.7304
   25.485    7.6040
   25.500    7.6672
   25.515    7.6567
   25.530    8.0779
   25.545    7.5408
   25.560    7.8357
   25.575    7.4039
   25.590    7.0458
   25.605    7.4460
   25.620    7.8673
   25.635    7.8462
   25.650    7.4882
   25.665    7.6251
   25.680    7.3091
   25.695    7.5513
   25.710    7.3723
   25.725    7.5408
   25.740    7.7725
   25.755    7.9305
   25.770    7.7936
   25.785    7.8041
   25.800    7.8252
   25.815    7.4776
   25.830    7.2986
   25.845    7.5619
   25.860    7.5197
   25.875    7.3934
   25.890    7.4566
   25.905    7.8568
   25.920    7.8673
   25.935    7.5303
   25.950    7.7093
   25.965    7.4250
   25.980    7.4671
   25.995    7.4144
   26.010    7.4987
   26.025    7.5197
   26.040    7.7304
   26.055    7.4882
   26.070    7.4776
   26.085    7.6356
   26.100    7.8568
   26.115    7.3091
   26.130    7.0879
   26.145    7.1933
   26.160    7.2986
   26.175    7.5724
   26.190    7.2249
   26.205    7.3723
   26.220    7.5303
   26.235    7.5303
   26.250    8.1306
   26.265    7.4144
   26.280    7.6040
   26.295    7.5829
   26.310    7.5935
   26.325    7.3407
   26.340    7.3196
   26.355    7.2670
   26.370    7.7936
   26.385    7.6988
   26.400    7.3934
   26.415    7.5829
   26.430    7.3618
   26.445    7.9410
   26.460    7.8462
   26.475    7.5303
   26.490    7.6777
   26.505    7.3302
   26.520    7.1301
   26.535    7.4144
   26.550    7.5408
   26.565    7.3618
   26.580    7.7936
   26.595    7.6145
   26.610    8.0885
   26.625    7.4987
   26.640    7.4566
   26.655    7.6461
   26.670    7.4882
   26.685    7.2354
   26.700    7.2249
   26.715    7.1827
   26.730    7.7304
   26.745    7.6567
   26.760    7.1722
   26.775    7.1827
   26.790    7.3618
   26.805    7.3723
   26.820    7.6672
   26.835    7.9937
   26.850    7.5724
   26.865    7.4355
   26.880    7.2459
   26.895    7.1511
   26.910    7.8989
   26.925    7.9726
   26.940    7.5408
   26.955    7.4039
   26.970    7.0985
   26.985    7.3512
   27.000    6.8352
   27.015    7.4882
   27.030    7.5197
   27.045    7.4566
   27.060    7.7725
   27.075    7.4776
   27.090    7.6672
   27.105    7.7304
   27.120    7.2249
   27.135    7.4355
   27.150    7.1301
   27.165    7.4671
   27.180    7.3512
   27.195    7.4250
   27.210    7.5303
   27.225    7.2775
   27.240    7.2670
   27.255    7.3302
   27.270    7.0774
   27.285    7.0879
   27.300    7.4776
   27.315    7.2775
   27.330    6.9932
   27.345    7.1195
   27.360    7.4671
   27.375    7.2249
   27.390    7.1827
   27.405    7.7199
   27.420    7.0669
   27.435    7.0669
   27.450    6.7615
   27.465    7.0353
   27.480    7.6145
   27.495    7.3512
   27.510    7.3407
   27.525    7.5303
   27.540    7.0458
   27.555    7.2249
   27.570    7.5092
   27.585    7.5619
   27.600    7.5092
   27.615    6.9405
   27.630    7.0563
   27.645    7.1933
   27.660    7.3723
   27.675    7.4355
   27.690    7.4776
   27.705    7.2143
   27.720    7.4987
   27.735    7.2249
   27.750    6.9721
   27.765    7.1195
   27.780    7.3196
   27.795    7.3091
   27.810    7.5303
   27.825    7.5303
   27.840    7.3091
   27.855    7.2249
   27.870    7.6251
   27.885    7.2670
   27.900    7.6356
   27.915    7.5619
   27.930    7.4144
   27.945    7.2565
   27.960    7.3934
   27.975    7.6883
   27.990    7.6567
   28.005    7.4144
   28.020    7.3407
   28.035    7.2775
   28.050    7.2670
   28.065    7.2459
   28.080    7.6777
   28.095    7.5408
   28.110    7.4250
   28.125    7.6251
   28.140    7.2670
   28.155    7.2249
   28.170    7.1195
   28.185    6.8457
   28.200    6.8773
   28.215    7.1933
   28.230    7.4566
   28.245    7.0669
   28.260    7.2354
   28.275    7.2038
   28.290    7.1722
   28.305    7.3618
   28.320    7.5513
   28.335    7.3407
   28.350    7.0037
   28.365    7.2354
   28.380    7.1195
   28.395    7.4144
   28.410    7.2143
   28.425    7.0879
   28.440    7.4039
   28.455    7.6145
   28.470    7.5197
   28.485    7.7830
   28.500    6.8562
   28.515    6.8773
   28.530    7.1722
   28.545    6.8984
   28.560    6.9300
   28.575    7.1406
   28.590    7.1195
   28.605    7.1301
   28.620    7.0353
   28.635    7.4355
   28.650    7.3196
   28.665    7.5724
   28.680    7.0563
   28.695    7.2880
   28.710    7.1301
   28.725    6.7404
   28.740    6.5824
   28.755    6.9932
   28.770    7.3512
   28.785    7.1617
   28.800    6.7615
   28.815    6.8246
   28.830    6.9616
   28.845    7.1406
   28.860    7.1617
   28.875    7.2038
   28.890    7.3302
   28.905    7.5197
   28.920    7.7199
   28.935    7.6251
   28.950    7.6567
   28.965    7.5092
   28.980    7.5303
   28.995    7.2986
   29.010    7.4144
   29.025    7.1827
   29.040    7.2565
   29.055    7.0563
   29.070    7.1827
   29.085    6.8984
   29.100    6.8457
   29.115    7.0879
   29.130    7.1617
   29.145    7.2249
   29.160    7.1933
   29.175    7.1406
   29.190    7.0248
   29.205    7.1827
   29.220    7.1090
   29.235    6.8457
   29.250    6.9405
   29.265    7.4882
   29.280    7.2354
   29.295    7.2249
   29.310    7.0985
   29.325    7.1090
   29.340    7.1090
   29.355    7.3196
   29.370    7.1090
   29.385    6.9300
   29.400    6.7825
   29.415    7.1301
   29.430    7.0458
   29.445    7.3196
   29.460    7.1511
   29.475    6.8984
   29.490    6.8878
   29.505    6.9194
   29.520    6.8246
   29.535    7.1617
   29.550    7.3828
   29.565    7.4250
   29.580    7.1617
   29.595    7.0879
   29.610    7.2143
   29.625    6.9721
   29.640    6.8352
   29.655    6.7509
   29.670    7.1301
   29.685    7.0037
   29.700    7.2565
   29.715    7.2459
   29.730    7.0774
   29.745    6.9826
   29.760    6.9089
   29.775    6.8457
   29.790    6.8878
   29.805    6.6035
   29.820    6.7930
   29.835    6.7720
   29.850    6.9300
   29.865    7.1406
   29.880    7.2670
   29.895    7.2143
   29.910    6.9510
   29.925    6.8668
   29.940    6.9510
   29.955    6.8773
   29.970    7.0879
   29.985    7.1933
   30.000    6.9932
   30.015    7.2565
   30.030    7.1933
   30.045    6.7615
   30.060    6.9616
   30.075    7.0563
   30.090    6.9826
   30.105    6.8352
   30.120    6.8246
   30.135    6.8562
   30.150    7.2038
   30.165    7.3302
   30.180    6.7299
   30.195    6.8984
   30.210    6.9616
   30.225    7.0774
   30.240    6.9616
   30.255    6.4139
   30.270    6.4771
   30.285    6.8773
   30.300    7.0563
   30.315    7.1933
   30.330    7.1933
   30.345    7.1406
   30.360    7.2143
   30.375    7.3828
   30.390    7.0458
   30.405    6.6245
   30.420    6.8878
   30.435    7.0142
   30.450    6.6456
   30.465    6.8878
   30.480    6.7615
   30.495    7.0248
   30.510    7.2670
   30.525    7.2249
   30.540    7.0774
   30.555    7.0353
   30.570    7.0879
   30.585    6.9932
   30.600    7.2775
   30.615    6.6983
   30.630    6.8562
   30.645    6.8878
   30.660    6.8457
   30.675    6.9932
   30.690    7.1617
   30.705    6.9616
   30.720    6.6877
   30.735    6.6561
   30.750    6.6351
   30.765    6.8878
   30.780    6.9510
   30.795    6.9510
   30.810    6.8773
   30.825    6.9616
   30.840    6.7930
   30.855    7.2038
   30.870    7.0037
   30.885    7.2038
   30.900    7.3091
   30.915    7.1406
   30.930    6.6667
   30.945    6.6351
   30.960    6.9089
   30.975    7.0774
   30.990    7.1406
   31.005    7.4039
   31.020    7.4882
   31.035    7.4039
   31.050    7.1090
   31.065    6.8984
   31.080    7.0458
   31.095    6.8773
   31.110    6.7615
   31.125    7.1195
   31.140    7.0879
   31.155    7.1195
   31.170    7.3828
   31.185    6.9405
   31.200    6.8246
   31.215    7.0563
   31.230    6.9721
   31.245    6.8668
   31.260    7.1195
   31.275    7.1195
   31.290    7.4039
   31.305    7.0142
   31.320    7.2354
   31.335    7.1090
   31.350    7.0669
   31.365    6.7930
   31.380    6.8984
   31.395    6.9405
   31.410    7.0458
   31.425    6.9932
   31.440    7.4460
   31.455    6.9721
   31.470    6.8562
   31.485    7.1722
   31.500    7.0248
   31.515    7.0142
   31.530    7.0353
   31.545    7.0985
   31.560    7.1301
   31.575    7.0985
   31.590    6.9194
   31.605    7.0879
   31.620    7.2354
   31.635    6.9826
   31.650    6.9089
   31.665    6.9300
   31.680    7.2354
   31.695    7.5092
   31.710    7.2670
   31.725    7.0563
   31.740    7.0248
   31.755    6.8878
   31.770    6.7930
   31.785    7.1933
   31.800    7.0985
   31.815    6.8352
   31.830    7.1195
   31.845    7.5197
   31.860    7.5408
   31.875    7.2880
   31.890    7.2459
   31.905    7.3196
   31.920    7.2880
   31.935    7.1195
   31.950    7.0669
   31.965    7.1722
   31.980    7.1933
   31.995    7.7093
   32.010    7.4882
   32.025    7.7936
   32.040    7.6356
   32.055    7.2775
   32.070    7.7620
   32.085    7.9726
   32.100    8.0463
   32.115    7.7409
   32.130    7.5513
   32.145    7.6356
   32.160    7.4250
   32.175    7.4250
   32.190    7.4144
   32.205    7.2670
   32.220    6.9300
   32.235    7.2354
   32.250    7.3407
   32.265    6.8457
   32.280    6.8141
   32.295    6.8141
   32.310    6.8036
   32.325    6.8036
   32.340    6.5087
   32.355    6.6245
   32.370    6.8984
   32.385    6.7088
   32.400    6.8036
   32.415    6.7825
   32.430    7.0669
   32.445    6.7299
   32.460    6.7193
   32.475    6.2665
   32.490    6.7404
   32.505    6.6772
   32.520    6.5192
   32.535    6.7404
   32.550    6.8352
   32.565    6.9405
   32.580    6.4982
   32.595    6.7720
   32.610    6.3086
   32.625    6.7404
   32.640    6.4139
   32.655    6.7404
   32.670    6.9194
   32.685    7.0985
   32.700    6.3928
   32.715    6.6140
   32.730    6.6140
   32.745    6.7193
   32.760    6.6772
   32.775    6.9826
   32.790    6.7825
   32.805    6.9300
   32.820    6.4034
   32.835    6.8878
   32.850    6.5508
   32.865    6.8562
   32.880    6.6877
   32.895    6.6877
   32.910    6.5192
   32.925    6.5192
   32.940    6.4666
   32.955    6.1717
   32.970    6.5192
   32.985    6.2875
   33.000    6.6456
   33.015    6.8141
   33.030    6.5298
   33.045    6.5824
   33.060    6.6456
   33.075    6.5719
   33.090    6.9194
   33.105    6.6667
   33.120    6.6035
   33.135    6.7404
   33.150    6.4560
   33.165    6.6035
   33.180    6.5719
   33.195    6.7299
   33.210    6.2454
   33.225    6.4560
   33.240    6.4350
   33.255    6.6245
   33.270    6.6351
   33.285    6.8246
   33.300    6.5929
   33.315    6.5613
   33.330    6.9616
   33.345    6.7509
   33.360    6.6140
   33.375    6.3296
   33.390    6.3086
   33.405    6.6772
   33.420    6.8562
   33.435    6.3718
   33.450    6.4771
   33.465    6.6140
   33.480    6.4876
   33.495    6.5508
   33.510    6.6140
   33.525    6.4666
   33.540    6.8773
   33.555    6.4139
   33.570    6.2665
   33.585    6.1190
   33.600    6.4666
   33.615    6.8773
   33.630    6.7509
   33.645    6.3402
   33.660    6.5087
   33.675    6.5298
   33.690    6.5508
   33.705    6.6456
   33.720    6.5929
   33.735    7.1406
   33.750    6.6667
   33.765    6.8457
   33.780    6.5508
   33.795    6.7615
   33.810    7.0037
   33.825    7.3196
   33.840    7.4566
   33.855    6.9721
   33.870    6.9089
   33.885    6.6561
   33.900    7.1722
   33.915    6.7088
   33.930    6.8878
   33.945    6.8562
   33.960    6.4139
   33.975    6.0242
   33.990    6.9510
   34.005    6.9510
   34.020    6.7615
   34.035    6.7088
   34.050    7.0774
   34.065    6.6983
   34.080    6.6245
   34.095    6.2454
   34.110    6.6456
   34.125    6.8773
   34.140    6.7299
   34.155    6.1822
   34.170    6.3928
   34.185    6.1190
   34.200    6.4666
   34.215    6.3823
   34.230    6.7509
   34.245    6.4034
   34.260    6.4139
   34.275    6.5298
   34.290    6.2665
   34.305    6.3402
   34.320    6.5824
   34.335    6.5613
   34.350    6.4244
   34.365    6.3612
   34.380    6.3823
   34.395    6.7088
   34.410    6.4244
   34.425    6.2770
   34.440    6.3191
   34.455    6.1085
   34.470    6.3086
   34.485    6.1611
   34.500    6.4244
   34.515    6.8246
   34.530    6.6140
   34.545    6.3612
   34.560    6.4139
   34.575    6.4982
   34.590    5.7820
   34.605    6.4244
   34.620    6.3402
   34.635    6.0348
   34.650    5.8557
   34.665    6.2875
   34.680    6.3296
   34.695    6.5087
   34.710    6.6351
   34.725    6.2349
   34.740    6.1611
   34.755    6.3402
   34.770    6.3296
   34.785    6.4244
   34.800    6.3296
   34.815    6.4982
   34.830    6.4034
   34.845    6.5824
   34.860    6.2454
   34.875    6.7193
   34.890    6.3086
   34.905    6.3402
   34.920    6.3191
   34.935    6.0874
   34.950    6.4455
   34.965    6.5508
   34.980    6.2138
   34.995    5.8978
   35.010    6.2349
   35.025    6.0348
   35.040    6.4455
   35.055    6.2770
   35.070    6.2875
   35.085    6.3402
   35.100    6.4560
   35.115    6.3928
   35.130    6.2875
   35.145    6.6667
   35.160    6.1927
   35.175    6.5087
   35.190    6.5192
   35.205    6.4244
   35.220    6.1085
   35.235    6.2875
   35.250    6.2981
   35.265    6.5298
   35.280    6.2981
   35.295    6.3191
   35.310    6.5508
   35.325    6.2454
   35.340    6.5613
   35.355    6.2665
   35.370    5.8873
   35.385    6.4350
   35.400    6.3718
   35.415    6.4139
   35.430    6.0664
   35.445    6.2138
   35.460    6.4666
   35.475    6.1927
   35.490    6.2243
   35.505    6.3402
   35.520    6.7088
   35.535    6.7299
   35.550    6.7193
   35.565    6.2559
   35.580    6.2559
   35.595    6.3612
   35.610    6.1401
   35.625    6.4244
   35.640    6.2665
   35.655    6.1611
   35.670    6.2559
   35.685    6.2981
   35.700    6.4771
   35.715    6.4771
   35.730    6.5298
   35.745    6.5613
   35.760    6.2981
   35.775    6.1927
   35.790    6.1085
   35.805    6.0032
   35.820    6.4034
   35.835    6.0558
   35.850    6.5087
   35.865    6.3823
   35.880    6.1927
   35.895    6.0874
   35.910    6.3507
   35.925    6.2454
   35.940    6.2981
   35.955    6.4350
   35.970    6.4139
   35.985    5.9189
   36.000    6.3296
   36.015    6.3507
   36.030    6.5298
   36.045    5.7293
   36.060    6.0664
   36.075    6.2243
   36.090    6.3612
   36.105    6.4876
   36.120    6.2559
   36.135    5.9189
   36.150    6.0137
   36.165    6.6561
   36.180    6.5192
   36.195    6.2665
   36.210    6.2454
   36.225    6.1085
   36.240    6.7088
   36.255    6.6667
   36.270    6.5192
   36.285    6.1190
   36.300    6.4034
   36.315    6.2454
   36.330    6.4455
   36.345    6.3191
   36.360    6.3086
   36.375    6.2243
   36.390    6.4560
   36.405    6.2138
   36.420    5.9610
   36.435    6.1506
   36.450    6.1717
   36.465    6.4876
   36.480    6.6667
   36.495    6.5087
   36.510    6.3823
   36.525    6.1401
   36.540    6.0558
   36.555    6.0979
   36.570    6.4560
   36.585    6.4455
   36.600    6.4982
   36.615    6.2243
   36.630    6.2138
   36.645    6.3086
   36.660    6.4771
   36.675    6.3086
   36.690    6.6456
   36.705    6.6456
   36.720    6.3718
   36.735    6.2138
   36.750    6.2875
   36.765    6.3296
   36.780    6.3191
   36.795    6.2349
   36.810    6.3507
   36.825    6.1295
   36.840    6.5192
   36.855    6.3718
   36.870    6.4350
   36.885    6.1190
   36.900    6.0453
   36.915    6.3402
   36.930    6.2770
   36.945    6.1822
   36.960    6.0032
   36.975    6.4139
   36.990    5.9821
   37.005    5.9716
   37.020    5.9189
   37.035    6.3402
   37.050    6.2454
   37.065    6.2981
   37.080    6.2875
   37.095    5.8136
   37.110    6.0664
   37.125    6.1085
   37.140    6.2454
   37.155    6.4034
   37.170    6.3191
   37.185    6.6561
   37.200    6.3296
   37.215    6.7930
   37.230    6.1506
   37.245    6.1717
   37.260    5.9610
   37.275    6.2559
   37.290    5.9716
   37.305    6.3402
   37.320    5.9400
   37.335    6.0348
   37.350    6.0032
   37.365    6.3402
   37.380    6.3612
   37.395    6.3823
   37.410    6.2138
   37.425    6.1927
   37.440    6.2981
   37.455    6.1822
   37.470    6.1717
   37.485    5.8136
   37.500    5.9189
   37.515    5.9610
   37.530    6.3507
   37.545    6.2770
   37.560    6.3507
   37.575    6.3402
   37.590    6.4034
   37.605    6.2454
   37.620    6.3507
   37.635    6.3612
   37.650    6.0348
   37.665    6.4034
   37.680    6.0979
   37.695    6.2349
   37.710    6.4455
   37.725    6.3823
   37.740    6.6561
   37.755    6.2770
   37.770    6.4771
   37.785    6.2770
   37.800    6.6877
   37.815    6.1401
   37.830    6.1295
   37.845    5.7399
   37.860    6.2033
   37.875    5.9610
   37.890    6.3402
   37.905    6.2033
   37.920    6.3507
   37.935    6.5403
   37.950    6.4034
   37.965    5.9610
   37.980    6.1190
   37.995    5.6135
   38.010    5.9926
   38.025    6.1295
   38.040    5.8452
   38.055    5.9189
   38.070    5.8452
   38.085    6.6351
   38.100    6.2033
   38.115    6.2875
   38.130    6.1822
   38.145    6.3823
   38.160    6.3402
   38.175    6.0664
   38.190    6.0979
   38.205    6.3086
   38.220    6.2138
   38.235    6.1190
   38.250    6.1822
   38.265    6.1190
   38.280    5.9926
   38.295    6.0874
   38.310    5.9821
   38.325    6.1927
   38.340    6.2033
   38.355    6.6983
   38.370    6.2665
   38.385    5.8662
   38.400    5.9294
   38.415    6.0032
   38.430    6.3296
   38.445    6.5192
   38.460    6.5929
   38.475    6.2138
   38.490    6.3191
   38.505    6.1822
   38.520    6.2138
   38.535    6.3718
   38.550    6.3612
   38.565    6.2875
   38.580    6.5824
   38.595    6.5192
   38.610    6.4350
   38.625    6.4139
   38.640    6.3402
   38.655    6.4666
   38.670    6.5087
   38.685    5.8768
   38.700    6.2665
   38.715    6.4771
   38.730    6.1611
   38.745    6.3191
   38.760    6.2033
   38.775    6.3612
   38.790    6.4034
   38.805    6.2349
   38.820    6.6561
   38.835    6.6561
   38.850    6.5613
   38.865    6.5613
   38.880    6.5192
   38.895    5.9400
   38.910    6.6035
   38.925    6.4771
   38.940    6.2349
   38.955    6.4350
   38.970    6.3823
   38.985    6.7193
   39.000    6.4876
   39.015    6.5929
   39.030    7.0458
   39.045    6.5508
   39.060    6.9089
   39.075    6.6351
   39.090    6.4350
   39.105    6.8246
   39.120    6.6351
   39.135    6.3296
   39.150    6.4982
   39.165    6.4350
   39.180    6.8036
   39.195    6.8457
   39.210    6.9405
   39.225    6.6983
   39.240    6.4771
   39.255    7.0037
   39.270    7.1511
   39.285    6.4244
   39.300    6.7615
   39.315    6.3507
   39.330    6.5403
   39.345    6.7404
   39.360    6.5613
   39.375    6.4455
   39.390    6.1822
   39.405    6.4139
   39.420    6.6983
   39.435    6.3928
   39.450    6.8773
   39.465    6.6351
   39.480    6.7720
   39.495    6.7088
   39.510    6.1717
   39.525    6.3191
   39.540    6.2770
   39.555    6.2349
   39.570    5.7504
   39.585    6.0769
   39.600    6.4455
   39.615    6.2665
   39.630    6.4350
   39.645    6.3402
   39.660    6.4876
   39.675    6.1717
   39.690    6.3823
   39.705    6.3191
   39.720    6.2559
   39.735    5.8347
   39.750    6.2981
   39.765    6.1085
   39.780    6.1295
   39.795    6.4876
   39.810    6.4560
   39.825    6.3191
   39.840    5.9716
   39.855    6.4034
   39.870    6.3718
   39.885    5.9821
   39.900    6.2770
   39.915    6.3718
   39.930    6.4666
   39.945    6.2770
   39.960    6.2559
   39.975    6.1506
   39.990    5.9926
