    1.500   16.6930
    1.515   16.4648
    1.530   16.9212
    1.545   16.3419
    1.560   15.7978
    1.575   15.5696
    1.590   14.9201
    1.605   15.1132
    1.620   14.7446
    1.635   14.3233
    1.650   13.5685
    1.665   13.8143
    1.680   13.5334
    1.695   13.7265
    1.710   13.9196
    1.725   13.4983
    1.740   12.8664
    1.755   12.7611
    1.770   13.5510
    1.785   12.4627
    1.800   12.3925
    1.815   12.9542
    1.830   13.1473
    1.845   12.0414
    1.860   11.3744
    1.875   12.0414
    1.890   12.2696
    1.905   12.2345
    1.920   12.0765
    1.935   11.1989
    1.950   11.7255
    1.965   11.2691
    1.980   11.0760
    1.995   11.5324
    2.010   10.7776
    2.025   10.1983
    2.040   10.9531
    2.055   11.1813
    2.070   10.6547
    2.085   10.7425
    2.100   10.7600
    2.115   10.6547
    2.130   10.2159
    2.145   10.4792
    2.160   10.2861
    2.175   10.2510
    2.190   10.0228
    2.205    9.9351
    2.220    9.2154
    2.235    9.9877
    2.250   10.3914
    2.265    9.8824
    2.280    9.4436
    2.295    9.4436
    2.310    9.3558
    2.325    9.3031
    2.340    9.0750
    2.355    9.2154
    2.370    8.8819
    2.385    9.2154
    2.400    9.2856
    2.415    9.6893
    2.430    9.4260
    2.445    9.2505
    2.460    8.8819
    2.475    9.3382
    2.490    8.8292
    2.505    8.6712
    2.520    8.5835
    2.535    8.2324
    2.550    9.3382
    2.565    8.6888
    2.580    8.7239
    2.595    9.3031
    2.610    9.4436
    2.625    8.4255
    2.640    8.6361
    2.655    8.0393
    2.670    8.5484
    2.685    8.3904
    2.700    8.1622
    2.715    7.9691
    2.730    8.5133
    2.745    8.2500
    2.760    7.8111
    2.775    7.7409
    2.790    8.1797
    2.805    8.6186
    2.820    8.6537
    2.835    7.8462
    2.850    7.6707
    2.865    7.7936
    2.880    8.3026
    2.895    8.0218
    2.910    7.9164
    2.925    7.9340
    2.940    7.9516
    2.955    8.4079
    2.970    8.5484
    2.985    8.1622
    3.000    8.1797
    3.015    8.0744
    3.030    8.0744
    3.045    7.8638
    3.060    7.9516
    3.075    7.4601
    3.090    7.6180
    3.105    8.0218
    3.120    7.6356
    3.135    7.7058
    3.150    7.8462
    3.165    7.9691
    3.180    7.5303
    3.195    6.9861
    3.210    8.1973
    3.225    7.9340
    3.240    7.9691
    3.255    7.3196
    3.270    7.5829
    3.285    7.8813
    3.300    8.0569
    3.315    7.4776
    3.330    7.7058
    3.345    8.1973
    3.360    8.4430
    3.375    7.8638
    3.390    8.2149
    3.405    8.4606
    3.420    8.5835
    3.435    7.9340
    3.450    8.4957
    3.465    8.0744
    3.480    8.2675
    3.495    8.9696
    3.510    8.5659
    3.525    8.6537
    3.540    9.1978
    3.555    9.1803
    3.570    9.3207
    3.585    8.5659
    3.600    8.4255
    3.615    9.1803
    3.630    9.7420
    3.645   10.0228
    3.660   10.4616
    3.675   11.1287
    3.690   11.5324
    3.705   11.2866
    3.720   11.4095
    3.735   12.1994
    3.750   12.2345
    3.765   12.5154
    3.780   13.9372
    3.795   14.2531
    3.810   16.4297
    3.825   16.9212
    3.840   16.7632
    3.855   16.6403
    3.870   16.8334
    3.885   15.0255
    3.900   13.7616
    3.915   12.3047
    3.930   11.2691
    3.945   10.1457
    3.960    9.3734
    3.975    8.3904
    3.990    8.1797
    4.005    7.7936
    4.020    7.7936
    4.035    7.6532
    4.050    7.8287
    4.065    7.9164
    4.080    7.7760
    4.095    7.6707
    4.110    7.5829
    4.125    7.6356
    4.140    7.2494
    4.155    7.0388
    4.170    7.4425
    4.185    8.0393
    4.200    7.6532
    4.215    7.5127
    4.230    7.3899
    4.245    7.3723
    4.260    7.3723
    4.275    7.2845
    4.290    7.1968
    4.305    7.2670
    4.320    7.4250
    4.335    7.3899
    4.350    6.8633
    4.365    7.0212
    4.380    7.9340
    4.395    7.5303
    4.410    7.2670
    4.425    7.4952
    4.440    7.2670
    4.455    7.0212
    4.470    7.5127
    4.485    7.2143
    4.500    7.2494
    4.515    7.5654
    4.530    7.2494
    4.545    7.4776
    4.560    6.8106
    4.575    7.3899
    4.590    6.9510
    4.605    7.7585
    4.620    6.7930
    4.635    7.4776
    4.650    7.1617
    4.665    7.4776
    4.680    7.1617
    4.695    7.6356
    4.710    7.5478
    4.725    7.0563
    4.740    7.1266
    4.755    7.6180
    4.770    7.4776
    4.785    7.4425
    4.800    7.3899
    4.815    7.4601
    4.830    7.7409
    4.845    7.6707
    4.860    7.4601
    4.875    7.7585
    4.890    8.1797
    4.905    7.3899
    4.920    8.1095
    4.935    7.2670
    4.950    7.2845
    4.965    7.6883
    4.980    7.3196
    4.995    7.6707
    5.010    7.8111
    5.025    7.8638
    5.040    7.7234
    5.055    8.0042
    5.070    7.5478
    5.085    8.1271
    5.100    8.4255
    5.115    8.0569
    5.130    7.8462
    5.145    8.2500
    5.160    8.3728
    5.175    8.0569
    5.190    8.3377
    5.205    8.8994
    5.220    8.7941
    5.235    9.4436
    5.250    8.6537
    5.265    8.8292
    5.280    9.1452
    5.295    8.8117
    5.310    9.6015
    5.325    9.6718
    5.340    9.4085
    5.355    9.0925
    5.370    9.3031
    5.385    9.4260
    5.400   10.1983
    5.415   10.9531
    5.430   10.0228
    5.445    9.8648
    5.460    9.9526
    5.475   10.2510
    5.490   10.6021
    5.505   10.5670
    5.520   10.3212
    5.535    9.7420
    5.550    9.6893
    5.565    8.9170
    5.580    9.1101
    5.595    9.9175
    5.610    9.3207
    5.625    9.0223
    5.640    8.9696
    5.655    8.3904
    5.670    8.9170
    5.685    8.8117
    5.700    8.4079
    5.715    8.0042
    5.730    8.5659
    5.745    8.4957
    5.760    8.3377
    5.775    8.2324
    5.790    8.8643
    5.805    7.6532
    5.820    8.5133
    5.835    8.2675
    5.850    7.8813
    5.865    8.1973
    5.880    8.2675
    5.895    7.5478
    5.910    7.6180
    5.925    7.9340
    5.940    7.9516
    5.955    7.1266
    5.970    7.6180
    5.985    7.3547
    6.000    7.3723
    6.015    7.2319
    6.030    7.4425
    6.045    7.2845
    6.060    6.9861
    6.075    7.2143
    6.090    7.8989
    6.105    7.1266
    6.120    7.0037
    6.135    7.1441
    6.150    6.4771
    6.165    6.8984
    6.180    6.7930
    6.195    7.2845
    6.210    7.3021
    6.225    7.0388
    6.240    7.3021
    6.255    6.9861
    6.270    7.1090
    6.285    7.3723
    6.300    7.1266
    6.315    6.9159
    6.330    6.9861
    6.345    6.3191
    6.360    6.4946
    6.375    6.8106
    6.390    7.1090
    6.405    7.3021
    6.420    7.4952
    6.435    7.0388
    6.450    7.3021
    6.465    6.5122
    6.480    6.8282
    6.495    6.6351
    6.510    7.0915
    6.525    6.7579
    6.540    6.5122
    6.555    6.5298
    6.570    6.8984
    6.585    7.0037
    6.600    6.7053
    6.615    7.1617
    6.630    6.9510
    6.645    6.5298
    6.660    6.8457
    6.675    6.4946
    6.690    6.7755
    6.705    7.2845
    6.720    7.5654
    6.735    6.9510
    6.750    6.8282
    6.765    7.1792
    6.780    6.7755
    6.795    6.9335
    6.810    6.8282
    6.825    6.6351
    6.840    6.4946
    6.855    6.1085
    6.870    6.2313
    6.885    6.7053
    6.900    6.7228
    6.915    6.4595
    6.930    6.1611
    6.945    6.6175
    6.960    6.7579
    6.975    6.3016
    6.990    6.1962
    7.005    6.4595
    7.020    6.1085
    7.035    6.2665
    7.050    6.2313
    7.065    6.3893
    7.080    6.0558
    7.095    6.0207
    7.110    6.7579
    7.125    5.9856
    7.140    5.9505
    7.155    6.0383
    7.170    5.8803
    7.185    5.8101
    7.200    5.6170
    7.215    6.4244
    7.230    6.2840
    7.245    6.0734
    7.260    6.0032
    7.275    5.7048
    7.290    5.9154
    7.305    6.3016
    7.320    5.7925
    7.335    6.1260
    7.350    6.1611
    7.365    5.7223
    7.380    5.4239
    7.395    5.7048
    7.410    5.9154
    7.425    5.6697
    7.440    5.7750
    7.455    6.1962
    7.470    5.8978
    7.485    5.1255
    7.500    5.6345
    7.515    5.8452
    7.530    5.9154
    7.545    5.5643
    7.560    5.7223
    7.575    5.3888
    7.590    5.7574
    7.605    5.9505
    7.620    5.8276
    7.635    5.8803
    7.650    5.9154
    7.665    5.7223
    7.680    6.1436
    7.695    6.1260
    7.710    5.8627
    7.725    5.4590
    7.740    5.9856
    7.755    5.9856
    7.770    5.6345
    7.785    6.0383
    7.800    6.2138
    7.815    6.2138
    7.830    5.7574
    7.845    5.8803
    7.860    5.8452
    7.875    5.5468
    7.890    5.1255
    7.905    5.6345
    7.920    5.1957
    7.935    5.0202
    7.950    5.5292
    7.965    5.2659
    7.980    5.3010
    7.995    5.1255
    8.010    5.1957
    8.025    5.5819
    8.040    5.3186
    8.055    5.1782
    8.070    5.3888
    8.085    5.4415
    8.100    5.9505
    8.115    5.8276
    8.130    5.4590
    8.145    5.1782
    8.160    5.7223
    8.175    5.7048
    8.190    5.7048
    8.205    5.3888
    8.220    5.3888
    8.235    5.3537
    8.250    5.1080
    8.265    5.3537
    8.280    5.1782
    8.295    5.1782
    8.310    5.3537
    8.325    4.8095
    8.340    4.7744
    8.355    5.1080
    8.370    5.1255
    8.385    4.8973
    8.400    4.9324
    8.415    5.2659
    8.430    5.2133
    8.445    5.3712
    8.460    5.1782
    8.475    5.0904
    8.490    5.2308
    8.505    5.2835
    8.520    5.2308
    8.535    4.9324
    8.550    5.1431
    8.565    5.6872
    8.580    5.4239
    8.595    5.0026
    8.610    5.0553
    8.625    5.2133
    8.640    4.8973
    8.655    5.1080
    8.670    5.3010
    8.685    5.0377
    8.700    5.1782
    8.715    5.0553
    8.730    5.5643
    8.745    5.1782
    8.760    4.7393
    8.775    5.2133
    8.790    4.8973
    8.805    4.9500
    8.820    4.9324
    8.835    4.6516
    8.850    4.9675
    8.865    5.1957
    8.880    5.0026
    8.895    4.5989
    8.910    5.0026
    8.925    4.9149
    8.940    5.2133
    8.955    5.4941
    8.970    4.8447
    8.985    4.8447
    9.000    5.1431
    9.015    5.2308
    9.030    5.4415
    9.045    5.3361
    9.060    4.8798
    9.075    4.9500
    9.090    5.3888
    9.105    5.0202
    9.120    5.2133
    9.135    4.9324
    9.150    4.8095
    9.165    4.9324
    9.180    5.3010
    9.195    5.1957
    9.210    5.3361
    9.225    4.9675
    9.240    4.9324
    9.255    5.1080
    9.270    5.1255
    9.285    5.2133
    9.300    5.7399
    9.315    5.3010
    9.330    5.3712
    9.345    4.8447
    9.360    5.4064
    9.375    5.2659
    9.390    4.9500
    9.405    5.5643
    9.420    5.6697
    9.435    5.7223
    9.450    5.8627
    9.465    4.9675
    9.480    5.5819
    9.495    5.6170
    9.510    5.7925
    9.525    6.1436
    9.540    5.9505
    9.555    6.3893
    9.570    5.8276
    9.585    5.6345
    9.600    5.5292
    9.615    5.7399
    9.630    5.0904
    9.645    5.4239
    9.660    5.4766
    9.675    5.1606
    9.690    5.0026
    9.705    4.8271
    9.720    5.0377
    9.735    5.5117
    9.750    4.8447
    9.765    5.3010
    9.780    4.9324
    9.795    5.1255
    9.810    5.2484
    9.825    5.0728
    9.840    5.0377
    9.855    4.7744
    9.870    5.4064
    9.885    5.8276
    9.900    5.3537
    9.915    5.4064
    9.930    5.6345
    9.945    5.2835
    9.960    5.0904
    9.975    5.3712
    9.990    5.6872
   10.005    5.1606
   10.020    5.1957
   10.035    4.8973
   10.050    5.0377
   10.065    4.7920
   10.080    4.9675
   10.095    5.3712
   10.110    5.7750
   10.125    5.2835
   10.140    5.5994
   10.155    5.5468
   10.170    5.1957
   10.185    5.4239
   10.200    5.7574
   10.215    5.4064
   10.230    5.3712
   10.245    5.5643
   10.260    6.0734
   10.275    6.0558
   10.290    5.9856
   10.305    5.9856
   10.320    6.0909
   10.335    6.3191
   10.350    6.1611
   10.365    5.6521
   10.380    5.5819
   10.395    5.3712
   10.410    5.4239
   10.425    5.5994
   10.440    5.2835
   10.455    5.1782
   10.470    5.0377
   10.485    5.5117
   10.500    5.8803
   10.515    5.2308
   10.530    5.1255
   10.545    5.2133
   10.560    5.2835
   10.575    5.0026
   10.590    5.3888
   10.605    5.4064
   10.620    5.7574
   10.635    5.0904
   10.650    4.8095
   10.665    5.0202
   10.680    5.2308
   10.695    5.3888
   10.710    5.4239
   10.725    5.5819
   10.740    5.2308
   10.755    5.2484
   10.770    5.2835
   10.785    5.5117
   10.800    5.0904
   10.815    4.7393
   10.830    5.4064
   10.845    5.4064
   10.860    5.6521
   10.875    5.5117
   10.890    5.2835
   10.905    5.4590
   10.920    5.3712
   10.935    5.4064
   10.950    5.6345
   10.965    5.4415
   10.980    5.7574
   10.995    5.8627
   11.010    5.7223
   11.025    5.3712
   11.040    5.9856
   11.055    5.5994
   11.070    5.4766
   11.085    5.9329
   11.100    5.3186
   11.115    5.2484
   11.130    5.4415
   11.145    5.2308
   11.160    5.0553
   11.175    5.0553
   11.190    5.4766
   11.205    5.4239
   11.220    5.5292
   11.235    5.1957
   11.250    5.3361
   11.265    4.9149
   11.280    5.2659
   11.295    5.2484
   11.310    5.4766
   11.325    5.5819
   11.340    5.5468
   11.355    5.0202
   11.370    5.4239
   11.385    5.4239
   11.400    5.5643
   11.415    5.5468
   11.430    5.3712
   11.445    5.7048
   11.460    5.3186
   11.475    5.2835
   11.490    5.3186
   11.505    4.9851
   11.520    5.0377
   11.535    4.9324
   11.550    5.3010
   11.565    4.9500
   11.580    5.1431
   11.595    5.3361
   11.610    5.7925
   11.625    5.3537
   11.640    5.8803
   11.655    5.7399
   11.670    5.5292
   11.685    5.7048
   11.700    5.6345
   11.715    5.9856
   11.730    5.7750
   11.745    5.2308
   11.760    5.4415
   11.775    5.3010
   11.790    5.6170
   11.805    5.6170
   11.820    5.1080
   11.835    4.8798
   11.850    4.7393
   11.865    5.4239
   11.880    5.1782
   11.895    5.0202
   11.910    5.2659
   11.925    5.0026
   11.940    4.5814
   11.955    4.5989
   11.970    4.8798
   11.985    5.1255
   12.000    5.0728
   12.015    5.0202
   12.030    4.4936
   12.045    4.4234
   12.060    4.9149
   12.075    4.9149
   12.090    5.0202
   12.105    5.1431
   12.120    4.7920
   12.135    4.8271
   12.150    4.3356
   12.165    4.8271
   12.180    5.0202
   12.195    4.9324
   12.210    4.9149
   12.225    4.8798
   12.240    5.0904
   12.255    4.7042
   12.270    4.8622
   12.285    4.6516
   12.300    5.0026
   12.315    4.6516
   12.330    4.7042
   12.345    5.5117
   12.360    5.2835
   12.375    5.2133
   12.390    4.9324
   12.405    4.4409
   12.420    4.7744
   12.435    5.2484
   12.450    5.1606
   12.465    4.8973
   12.480    4.8798
   12.495    4.7744
   12.510    4.6691
   12.525    5.1606
   12.540    5.0377
   12.555    4.3883
   12.570    4.6340
   12.585    5.1606
   12.600    5.2133
   12.615    4.7569
   12.630    4.8798
   12.645    4.6691
   12.660    4.7218
   12.675    4.8798
   12.690    4.6165
   12.705    4.7042
   12.720    5.0026
   12.735    5.0904
   12.750    4.6867
   12.765    4.9675
   12.780    4.8271
   12.795    4.8798
   12.810    5.0202
   12.825    4.6867
   12.840    4.6165
   12.855    5.2133
   12.870    4.8447
   12.885    5.0728
   12.900    4.9500
   12.915    4.9500
   12.930    4.9324
   12.945    5.1431
   12.960    5.3186
   12.975    5.3537
   12.990    5.1080
   13.005    5.0553
   13.020    5.1431
   13.035    5.0728
   13.050    4.7569
   13.065    5.1606
   13.080    4.7218
   13.095    5.1255
   13.110    4.8271
   13.125    4.9851
   13.140    4.9324
   13.155    4.8973
   13.170    5.0377
   13.185    5.3888
   13.200    5.0377
   13.215    5.2659
   13.230    4.6516
   13.245    4.9324
   13.260    5.1255
   13.275    4.8973
   13.290    4.3356
   13.305    4.5814
   13.320    4.2830
   13.335    4.8798
   13.350    4.8271
   13.365    5.0377
   13.380    4.3707
   13.395    4.6516
   13.410    5.0728
   13.425    4.9324
   13.440    4.8798
   13.455    5.0377
   13.470    4.8447
   13.485    4.5638
   13.500    4.8973
   13.515    4.9675
   13.530    5.3888
   13.545    4.9851
   13.560    5.0377
   13.575    4.7744
   13.590    4.4936
   13.605    5.1782
   13.620    4.9324
   13.635    5.2308
   13.650    4.8798
   13.665    4.3532
   13.680    4.3005
   13.695    4.7042
   13.710    4.7744
   13.725    5.0026
   13.740    5.0728
   13.755    4.7393
   13.770    4.8095
   13.785    4.9500
   13.800    4.9149
   13.815    4.8447
   13.830    4.6516
   13.845    4.4936
   13.860    4.7744
   13.875    5.2835
   13.890    5.0553
   13.905    4.4409
   13.920    5.0026
   13.935    4.8447
   13.950    4.7920
   13.965    5.0202
   13.980    4.9500
   13.995    4.6340
   14.010    4.8798
   14.025    5.2484
   14.040    5.4941
   14.055    5.1431
   14.070    4.7393
   14.085    4.9675
   14.100    5.0377
   14.115    4.8622
   14.130    5.0026
   14.145    4.8798
   14.160    5.1255
   14.175    5.5292
   14.190    5.3010
   14.205    5.2133
   14.220    5.2133
   14.235    4.9500
   14.250    5.1255
   14.265    4.8095
   14.280    5.1606
   14.295    4.8447
   14.310    4.8095
   14.325    5.3010
   14.340    5.4766
   14.355    5.0377
   14.370    5.4239
   14.385    5.3537
   14.400    5.3712
   14.415    5.0553
   14.430    4.9851
   14.445    4.9675
   14.460    5.4415
   14.475    5.3186
   14.490    5.3361
   14.505    5.4766
   14.520    5.5819
   14.535    5.2133
   14.550    5.0202
   14.565    5.0553
   14.580    5.0026
   14.595    5.1606
   14.610    5.0377
   14.625    5.3712
   14.640    4.9324
   14.655    5.1782
   14.670    5.1255
   14.685    5.0904
   14.700    5.4415
   14.715    5.0904
   14.730    5.2133
   14.745    4.8973
   14.760    4.6867
   14.775    4.6691
   14.790    4.6165
   14.805    4.8447
   14.820    5.1080
   14.835    5.3186
   14.850    4.9500
   14.865    4.8798
   14.880    4.7920
   14.895    4.7393
   14.910    5.0377
   14.925    4.7042
   14.940    4.9851
   14.955    5.0553
   14.970    4.7218
   14.985    4.8271
   15.000    4.8973
   15.015    4.9324
   15.030    4.4760
   15.045    4.8798
   15.060    5.0202
   15.075    4.8447
   15.090    4.7744
   15.105    4.8095
   15.120    4.7042
   15.135    5.1431
   15.150    5.0202
   15.165    5.1782
   15.180    4.9500
   15.195    4.8095
   15.210    4.8973
   15.225    5.0202
   15.240    4.7393
   15.255    4.4058
   15.270    4.9149
   15.285    4.5814
   15.300    4.6165
   15.315    4.5287
   15.330    4.3532
   15.345    4.6516
   15.360    4.6867
   15.375    4.6165
   15.390    4.5814
   15.405    4.6691
   15.420    4.6691
   15.435    4.8447
   15.450    4.5638
   15.465    4.5463
   15.480    4.4760
   15.495    4.7393
   15.510    5.0377
   15.525    4.9324
   15.540    4.8622
   15.555    4.3883
   15.570    4.6340
   15.585    4.6867
   15.600    4.4936
   15.615    4.6516
   15.630    4.4058
   15.645    4.4760
   15.660    5.0026
   15.675    4.4058
   15.690    4.6165
   15.705    4.6340
   15.720    4.5989
   15.735    5.0202
   15.750    4.9500
   15.765    4.8798
   15.780    4.7042
   15.795    4.5814
   15.810    4.4760
   15.825    4.1074
   15.840    4.8798
   15.855    5.1080
   15.870    4.7744
   15.885    4.8447
   15.900    4.5463
   15.915    4.4760
   15.930    4.8447
   15.945    5.1957
   15.960    5.0026
   15.975    5.2308
   15.990    5.0553
   16.005    4.6867
   16.020    4.5989
   16.035    4.3883
   16.050    4.5638
   16.065    5.3010
   16.080    5.4415
   16.095    4.9149
   16.110    4.5111
   16.125    4.7393
   16.140    4.8095
   16.155    5.0728
   16.170    4.9149
   16.185    4.3707
   16.200    5.0904
   16.215    5.2484
   16.230    4.7920
   16.245    5.0377
   16.260    4.9851
   16.275    5.0026
   16.290    5.0728
   16.305    4.8271
   16.320    4.6340
   16.335    5.2659
   16.350    5.0904
   16.365    5.0026
   16.380    4.5814
   16.395    4.7218
   16.410    4.5111
   16.425    4.5989
   16.440    4.6867
   16.455    4.5989
   16.470    4.3005
   16.485    5.0553
   16.500    4.9324
   16.515    5.1080
   16.530    4.6867
   16.545    4.9324
   16.560    4.7218
   16.575    4.7393
   16.590    4.6516
   16.605    4.5287
   16.620    4.9500
   16.635    5.0904
   16.650    5.3537
   16.665    4.7744
   16.680    5.0026
   16.695    4.7744
   16.710    4.3883
   16.725    4.4760
   16.740    5.0202
   16.755    4.7920
   16.770    5.0904
   16.785    4.7920
   16.800    4.9149
   16.815    4.8798
   16.830    4.8973
   16.845    4.5638
   16.860    4.3181
   16.875    4.4760
   16.890    4.7218
   16.905    4.8271
   16.920    4.7218
   16.935    4.5989
   16.950    5.1957
   16.965    4.5287
   16.980    4.5989
   16.995    4.9324
   17.010    5.1606
   17.025    5.1255
   17.040    4.9500
   17.055    5.1606
   17.070    5.1957
   17.085    5.6521
   17.100    4.8095
   17.115    5.0202
   17.130    5.0728
   17.145    4.7042
   17.160    4.9324
   17.175    4.7920
   17.190    4.5638
   17.205    4.9500
   17.220    4.8622
   17.235    4.5463
   17.250    4.6691
   17.265    4.7744
   17.280    4.8271
   17.295    4.8622
   17.310    4.4585
   17.325    4.2654
   17.340    5.2484
   17.355    4.8095
   17.370    4.8095
   17.385    4.9675
   17.400    4.2303
   17.415    4.7569
   17.430    4.4585
   17.445    4.8447
   17.460    4.6516
   17.475    4.7569
   17.490    4.9851
   17.505    4.6340
   17.520    4.6165
   17.535    4.4234
   17.550    4.6340
   17.565    5.1080
   17.580    4.7569
   17.595    4.5814
   17.610    5.1957
   17.625    4.7042
   17.640    4.5814
   17.655    4.5989
   17.670    4.4585
   17.685    4.8271
   17.700    4.4936
   17.715    4.9500
   17.730    4.5989
   17.745    4.8798
   17.760    4.5463
   17.775    4.4409
   17.790    4.4409
   17.805    4.6165
   17.820    4.5814
   17.835    4.7218
   17.850    5.2133
   17.865    4.9324
   17.880    5.0377
   17.895    5.0202
   17.910    4.2478
   17.925    4.5638
   17.940    4.5814
   17.955    4.7042
   17.970    4.6340
   17.985    4.4234
   18.000    4.4585
   18.015    5.0202
   18.030    4.5287
   18.045    4.6516
   18.060    5.2308
   18.075    4.7744
   18.090    4.6340
   18.105    4.3005
   18.120    4.5814
   18.135    4.5111
   18.150    4.7569
   18.165    4.6516
   18.180    4.2830
   18.195    4.1776
   18.210    4.5463
   18.225    4.3532
   18.240    4.2478
   18.255    4.6691
   18.270    4.8271
   18.285    4.5814
   18.300    4.1952
   18.315    4.4585
   18.330    4.3356
   18.345    4.5814
   18.360    4.7569
   18.375    4.6340
   18.390    4.6516
   18.405    4.6516
   18.420    4.6340
   18.435    4.5463
   18.450    4.5111
   18.465    4.5814
   18.480    4.4409
   18.495    4.5989
   18.510    4.2654
   18.525    4.6165
   18.540    4.6165
   18.555    4.6516
   18.570    4.4936
   18.585    4.3883
   18.600    4.5814
   18.615    4.7218
   18.630    4.6165
   18.645    4.5111
   18.660    4.6340
   18.675    4.1776
   18.690    4.3883
   18.705    4.8798
   18.720    4.4585
   18.735    4.4234
   18.750    4.7393
   18.765    4.6691
   18.780    4.7393
   18.795    5.1255
   18.810    4.5989
   18.825    4.3356
   18.840    4.8798
   18.855    4.5989
   18.870    4.8095
   18.885    4.9149
   18.900    4.7042
   18.915    4.8271
   18.930    4.4936
   18.945    4.1952
   18.960    4.5287
   18.975    4.4760
   18.990    4.2830
   19.005    4.3883
   19.020    4.0548
   19.035    4.4234
   19.050    4.9149
   19.065    4.4760
   19.080    4.1250
   19.095    4.2478
   19.110    4.3181
   19.125    4.3356
   19.140    4.5111
   19.155    4.4585
   19.170    4.0899
   19.185    4.3356
   19.200    4.7393
   19.215    4.7218
   19.230    4.8447
   19.245    4.5638
   19.260    4.5814
   19.275    4.2303
   19.290    4.2830
   19.305    4.5814
   19.320    4.6867
   19.335    4.6691
   19.350    4.3707
   19.365    4.4234
   19.380    4.5111
   19.395    4.5814
   19.410    4.7042
   19.425    4.5814
   19.440    4.0899
   19.455    4.0723
   19.470    4.4585
   19.485    4.2478
   19.500    4.3707
   19.515    4.7042
   19.530    4.7744
   19.545    4.6516
   19.560    4.5463
   19.575    4.4234
   19.590    4.5287
   19.605    4.4234
   19.620    4.5989
   19.635    4.5638
   19.650    4.3532
   19.665    4.5989
   19.680    4.4234
   19.695    5.0904
   19.710    4.1952
   19.725    4.3707
   19.740    3.8968
   19.755    4.4760
   19.770    4.4234
   19.785    4.5111
   19.800    4.1776
   19.815    4.5287
   19.830    4.5463
   19.845    4.1074
   19.860    3.9143
   19.875    4.5111
   19.890    4.7042
   19.905    5.0026
   19.920    4.4058
   19.935    4.2830
   19.950    4.1250
   19.965    3.7564
   19.980    4.3883
   19.995    4.4936
   20.010    4.3005
   20.025    4.6516
   20.040    4.1776
   20.055    4.2127
   20.070    4.4409
   20.085    4.3707
   20.100    4.0548
   20.115    4.7920
   20.130    4.8095
   20.145    4.2127
   20.160    4.3707
   20.175    4.3181
   20.190    4.8271
   20.205    4.5814
   20.220    4.1952
   20.235    4.0899
   20.250    4.2303
   20.265    4.5111
   20.280    4.2654
   20.295    4.4234
   20.310    4.2478
   20.325    4.5287
   20.340    4.8271
   20.355    4.6165
   20.370    4.5111
   20.385    4.4760
   20.400    4.3181
   20.415    4.2830
   20.430    4.0899
   20.445    3.8968
   20.460    4.4234
   20.475    4.7393
   20.490    4.5287
   20.505    4.0723
   20.520    4.0021
   20.535    4.4585
   20.550    4.5989
   20.565    4.0372
   20.580    4.4760
   20.595    4.6691
   20.610    4.6340
   20.625    4.2654
   20.640    4.2478
   20.655    4.5463
   20.670    4.9149
   20.685    4.6340
   20.700    4.2303
   20.715    4.1074
   20.730    4.2478
   20.745    4.7569
   20.760    4.1074
   20.775    4.4409
   20.790    4.4409
   20.805    4.3356
   20.820    4.3707
   20.835    4.2654
   20.850    3.8617
   20.865    4.0723
   20.880    4.5463
   20.895    4.0372
   20.910    4.5111
   20.925    4.6516
   20.940    4.0548
   20.955    3.7388
   20.970    3.9846
   20.985    4.4234
   21.000    4.1952
   21.015    4.6340
   21.030    4.5287
   21.045    4.5814
   21.060    4.2303
   21.075    4.1601
   21.090    4.1601
   21.105    4.5814
   21.120    4.3356
   21.135    4.2654
   21.150    3.9494
   21.165    4.0548
   21.180    4.1776
   21.195    4.2127
   21.210    4.4058
   21.225    4.3181
   21.240    3.8266
   21.255    3.9143
   21.270    4.2654
   21.285    4.2478
   21.300    4.3005
   21.315    4.5111
   21.330    4.2303
   21.345    4.0899
   21.360    4.1074
   21.375    4.0899
   21.390    3.8090
   21.405    4.2303
   21.420    4.6165
   21.435    4.3532
   21.450    3.9846
   21.465    4.0723
   21.480    4.4234
   21.495    4.3707
   21.510    4.1250
   21.525    4.2830
   21.540    4.5989
   21.555    4.5814
   21.570    4.4760
   21.585    4.5287
   21.600    4.7393
   21.615    4.2478
   21.630    4.4058
   21.645    4.1601
   21.660    4.2303
   21.675    4.4234
   21.690    4.1776
   21.705    4.4058
   21.720    4.0899
   21.735    4.1601
   21.750    4.4058
   21.765    4.4234
   21.780    4.2654
   21.795    4.3532
   21.810    4.1425
   21.825    4.4058
   21.840    4.0548
   21.855    4.2478
   21.870    4.1776
   21.885    4.0548
   21.900    4.1952
   21.915    4.3883
   21.930    4.5638
   21.945    4.6340
   21.960    4.0723
   21.975    4.0723
   21.990    4.1074
   22.005    3.9670
   22.020    3.8968
   22.035    3.9494
   22.050    4.0899
   22.065    3.9670
   22.080    4.1952
   22.095    4.0899
   22.110    4.1250
   22.125    4.1250
   22.140    4.2654
   22.155    4.1074
   22.170    4.0372
   22.185    4.3532
   22.200    4.3005
   22.215    4.1952
   22.230    4.0723
   22.245    4.4409
   22.260    3.7213
   22.275    4.1074
   22.290    4.3532
   22.305    4.1601
   22.320    4.1250
   22.335    3.9670
   22.350    4.1250
   22.365    4.2654
   22.380    4.4585
   22.395    3.7915
   22.410    4.1250
   22.425    4.3532
   22.440    4.0372
   22.455    3.9143
   22.470    4.0197
   22.485    4.0372
   22.500    4.3005
   22.515    4.0723
   22.530    4.0899
   22.545    4.6516
   22.560    4.3356
   22.575    4.2127
   22.590    4.4936
   22.605    4.2830
   22.620    4.3005
   22.635    4.5463
   22.650    4.2478
   22.665    4.3883
   22.680    3.9319
   22.695    3.8617
   22.710    3.6510
   22.725    4.0021
   22.740    4.0723
   22.755    4.0372
   22.770    3.7388
   22.785    3.7388
   22.800    4.0021
   22.815    4.1074
   22.830    4.0548
   22.845    4.3356
   22.860    4.3707
   22.875    4.1250
   22.890    3.8792
   22.905    3.9846
   22.920    4.3707
   22.935    4.3181
   22.950    4.0372
   22.965    4.0197
   22.980    4.1425
   22.995    4.3707
   23.010    4.1952
   23.025    3.9143
   23.040    4.0723
   23.055    4.0021
   23.070    3.6335
   23.085    4.0197
   23.100    4.0372
   23.115    3.9846
   23.130    4.1074
   23.145    3.9494
   23.160    4.2127
   23.175    3.8266
   23.190    3.7037
   23.205    3.9846
   23.220    4.2830
   23.235    3.8968
   23.250    3.6159
   23.265    4.2830
   23.280    3.9670
   23.295    4.1250
   23.310    4.0197
   23.325    3.9670
   23.340    3.6159
   23.355    3.8792
   23.370    3.8266
   23.385    3.9846
   23.400    3.5984
   23.415    4.0197
   23.430    4.0197
   23.445    3.8968
   23.460    3.8441
   23.475    4.2830
   23.490    3.7564
   23.505    3.9494
   23.520    3.9319
   23.535    3.6159
   23.550    3.8090
   23.565    3.9143
   23.580    3.8792
   23.595    3.9670
   23.610    3.9319
   23.625    3.8617
   23.640    3.5633
   23.655    3.7915
   23.670    3.8441
   23.685    3.5808
   23.700    3.8090
   23.715    3.8968
   23.730    3.9670
   23.745    3.8266
   23.760    3.7739
   23.775    3.9670
   23.790    3.4755
   23.805    3.5984
   23.820    3.5984
   23.835    3.5984
   23.850    3.8441
   23.865    4.0021
   23.880    3.9494
   23.895    3.8266
   23.910    3.8968
   23.925    4.0021
   23.940    4.1425
   23.955    3.9846
   23.970    4.0197
   23.985    3.6159
   24.000    3.8090
   24.015    4.2127
   24.030    4.1601
   24.045    4.0021
   24.060    3.5282
   24.075    3.6159
   24.090    3.8441
   24.105    3.7388
   24.120    3.6510
   24.135    3.9143
   24.150    4.0197
   24.165    3.5808
   24.180    3.6335
   24.195    3.9846
   24.210    3.4755
   24.225    3.4755
   24.240    4.1074
   24.255    4.0021
   24.270    3.9846
   24.285    3.6159
   24.300    3.6862
   24.315    3.9494
   24.330    3.9670
   24.345    3.8968
   24.360    3.6335
   24.375    3.6510
   24.390    3.9846
   24.405    3.8968
   24.420    3.7388
   24.435    4.0899
   24.450    3.5106
   24.465    3.5633
   24.480    3.7564
   24.495    3.8968
   24.510    4.0021
   24.525    3.7739
   24.540    3.7037
   24.555    3.7213
   24.570    3.5808
   24.585    3.7564
   24.600    3.6862
   24.615    3.5808
   24.630    3.5633
   24.645    3.8968
   24.660    3.5457
   24.675    3.5984
   24.690    3.9494
   24.705    3.5633
   24.720    3.4404
   24.735    3.8266
   24.750    3.9670
   24.765    4.0548
   24.780    3.9846
   24.795    3.7388
   24.810    3.8090
   24.825    3.8441
   24.840    3.2824
   24.855    3.6686
   24.870    3.4580
   24.885    3.5808
   24.900    3.4404
   24.915    3.3175
   24.930    3.6510
   24.945    3.7213
   24.960    3.5808
   24.975    3.3702
   24.990    3.5106
   25.005    3.6159
   25.020    3.4580
   25.035    3.6510
   25.050    3.6510
   25.065    3.5984
   25.080    3.5984
   25.095    3.9670
   25.110    3.6335
   25.125    3.6335
   25.140    3.4053
   25.155    3.6686
   25.170    3.6510
   25.185    3.5808
   25.200    3.7915
   25.215    3.4931
   25.230    3.7739
   25.245    3.6335
   25.260    3.8441
   25.275    3.5633
   25.290    3.8090
   25.305    4.1952
   25.320    3.7915
   25.335    4.0372
   25.350    3.7915
   25.365    3.4053
   25.380    3.9143
   25.395    3.4404
   25.410    3.4931
   25.425    3.6510
   25.440    3.6686
   25.455    3.5808
   25.470    3.6510
   25.485    3.6862
   25.500    4.0021
   25.515    3.9143
   25.530    3.4053
   25.545    3.3351
   25.560    3.3351
   25.575    3.7388
   25.590    3.4580
   25.605    3.6159
   25.620    3.4229
   25.635    3.3877
   25.650    3.5808
   25.665    3.4404
   25.680    3.3526
   25.695    3.4404
   25.710    3.7739
   25.725    3.4053
   25.740    3.1245
   25.755    3.5282
   25.770    3.6335
   25.785    3.7037
   25.800    3.3175
   25.815    4.0021
   25.830    3.6862
   25.845    3.8617
   25.860    4.1074
   25.875    3.8090
   25.890    3.5457
   25.905    3.5984
   25.920    3.9143
   25.935    3.6335
   25.950    3.1245
   25.965    3.2649
   25.980    3.6159
   25.995    3.9846
   26.010    3.4931
   26.025    3.4580
   26.040    3.2122
   26.055    3.5808
   26.070    3.6686
   26.085    3.5808
   26.100    3.6686
   26.115    3.5282
   26.130    3.4404
   26.145    3.3000
   26.160    3.5984
   26.175    3.8266
   26.190    3.6335
   26.205    3.4404
   26.220    3.4580
   26.235    3.5633
   26.250    3.8441
   26.265    3.7388
   26.280    3.4580
   26.295    3.5457
   26.310    3.4053
   26.325    3.6335
   26.340    3.5457
   26.355    3.8617
   26.370    3.1771
   26.385    3.3000
   26.400    3.6862
   26.415    3.7564
   26.430    3.7213
   26.445    3.7564
   26.460    3.8441
   26.475    4.1250
   26.490    3.8617
   26.505    3.7213
   26.520    3.4404
   26.535    3.4755
   26.550    3.5106
   26.565    3.3175
   26.580    3.1947
   26.595    3.3702
   26.610    3.2649
   26.625    3.5106
   26.640    3.4580
   26.655    3.4931
   26.670    3.4404
   26.685    3.2824
   26.700    3.4053
   26.715    3.7739
   26.730    3.7564
   26.745    3.3877
   26.760    3.4229
   26.775    3.6686
   26.790    3.2473
   26.805    3.7213
   26.820    3.5984
   26.835    3.6686
   26.850    3.3526
   26.865    3.1771
   26.880    3.4404
   26.895    3.7213
   26.910    3.1069
   26.925    3.4229
   26.940    3.5984
   26.955    3.2122
   26.970    3.2824
   26.985    3.6159
   27.000    3.4229
   27.015    3.1420
   27.030    3.6159
   27.045    3.6159
   27.060    3.8266
   27.075    3.5457
   27.090    3.4931
   27.105    3.6335
   27.120    3.7915
   27.135    3.8441
   27.150    3.3351
   27.165    3.3526
   27.180    3.3702
   27.195    3.1596
   27.210    3.3000
   27.225    3.4404
   27.240    3.0542
   27.255    3.3351
   27.270    3.5106
   27.285    3.1596
   27.300    3.0718
   27.315    3.2122
   27.330    3.2122
   27.345    3.5808
   27.360    3.2649
   27.375    3.2649
   27.390    3.3000
   27.405    3.0367
   27.420    3.1771
   27.435    3.0367
   27.450    3.1420
   27.465    3.1771
   27.480    2.9314
   27.495    3.2824
   27.510    3.1596
   27.525    3.4931
   27.540    3.3000
   27.555    3.2649
   27.570    3.4053
   27.585    3.2298
   27.600    3.6510
   27.615    3.6335
   27.630    3.5808
   27.645    3.2122
   27.660    3.4404
   27.675    3.3351
   27.690    3.1245
   27.705    3.2122
   27.720    3.1596
   27.735    3.2649
   27.750    3.3175
   27.765    3.6159
   27.780    3.3351
   27.795    3.2122
   27.810    3.0542
   27.825    3.1947
   27.840    3.0893
   27.855    3.4229
   27.870    3.2298
   27.885    3.5106
   27.900    3.4931
   27.915    3.1596
   27.930    3.4755
   27.945    3.3702
   27.960    2.9665
   27.975    3.3526
   27.990    3.0542
   28.005    2.8085
   28.020    3.4580
   28.035    3.1245
   28.050    3.3877
   28.065    3.0893
   28.080    3.1771
   28.095    3.1947
   28.110    3.2122
   28.125    3.2824
   28.140    3.2649
   28.155    3.1596
   28.170    3.7388
   28.185    3.7915
   28.200    3.1069
   28.215    2.7383
   28.230    3.0191
   28.245    3.4229
   28.260    3.3175
   28.275    3.4053
   28.290    3.4931
   28.305    3.1947
   28.320    3.1420
   28.335    3.0542
   28.350    2.8963
   28.365    2.9138
   28.380    3.0191
   28.395    3.3175
   28.410    3.2122
   28.425    2.9138
   28.440    3.3877
   28.455    3.0191
   28.470    2.9665
   28.485    3.5808
   28.500    3.4053
   28.515    3.0016
   28.530    3.0016
   28.545    2.9314
   28.560    3.2298
   28.575    3.1596
   28.590    3.3877
   28.605    2.9840
   28.620    3.0893
   28.635    3.2649
   28.650    2.9314
   28.665    2.9665
   28.680    3.1069
   28.695    3.0542
   28.710    3.1420
   28.725    3.0016
   28.740    3.1069
   28.755    3.0542
   28.770    3.3877
   28.785    3.2824
   28.800    3.1245
   28.815    3.2122
   28.830    3.3877
   28.845    3.4053
   28.860    3.0542
   28.875    3.1771
   28.890    3.3000
   28.905    3.4755
   28.920    3.2824
   28.935    3.3175
   28.950    3.1596
   28.965    3.0367
   28.980    3.1245
   28.995    3.4931
   29.010    3.2824
   29.025    3.1771
   29.040    3.3351
   29.055    3.5282
   29.070    3.3702
   29.085    3.0367
   29.100    3.0542
   29.115    3.3526
   29.130    2.9665
   29.145    2.9840
   29.160    3.3000
   29.175    3.1947
   29.190    3.1069
   29.205    2.8260
   29.220    3.2473
   29.235    2.8963
   29.250    3.5106
   29.265    3.1596
   29.280    3.2824
   29.295    3.2473
   29.310    3.5282
   29.325    3.0016
   29.340    2.7734
   29.355    3.0367
   29.370    3.2298
   29.385    3.1947
   29.400    3.3526
   29.415    3.0718
   29.430    3.1069
   29.445    2.8436
   29.460    3.0893
   29.475    3.0718
   29.490    3.4053
   29.505    3.3702
   29.520    2.8963
   29.535    3.3175
   29.550    2.8963
   29.565    2.8260
   29.580    2.7207
   29.595    3.0367
   29.610    3.1069
   29.625    2.8787
   29.640    3.0191
   29.655    2.7558
   29.670    2.8085
   29.685    3.0542
   29.700    2.7734
   29.715    2.7909
   29.730    2.8436
   29.745    3.1947
   29.760    3.0367
   29.775    2.6856
   29.790    2.5628
   29.805    2.9489
   29.820    3.0191
   29.835    2.8436
   29.850    2.8612
   29.865    2.9489
   29.880    3.1947
   29.895    2.8612
   29.910    3.0367
   29.925    3.0367
   29.940    3.0718
   29.955    2.8085
   29.970    2.6681
   29.985    3.1420
   30.000    3.1771
   30.015    2.8963
   30.030    2.6154
   30.045    2.7207
   30.060    2.6505
   30.075    2.9489
   30.090    2.9489
   30.105    2.9138
   30.120    3.2298
   30.135    3.0367
   30.150    3.1245
   30.165    3.2473
   30.180    3.0016
   30.195    3.0367
   30.210    2.6856
   30.225    2.6505
   30.240    3.0893
   30.255    2.9665
   30.270    3.1245
   30.285    3.2298
   30.300    3.1947
   30.315    2.7558
   30.330    2.9840
   30.345    3.3000
   30.360    3.1245
   30.375    2.7032
   30.390    3.0893
   30.405    3.0893
   30.420    3.3351
   30.435    3.1596
   30.450    2.7734
   30.465    2.9489
   30.480    3.0016
   30.495    2.7909
   30.510    3.1420
   30.525    3.2298
   30.540    3.0542
   30.555    2.7909
   30.570    2.9665
   30.585    3.1245
   30.600    2.7558
   30.615    2.7734
   30.630    3.1069
   30.645    2.9138
   30.660    2.7558
   30.675    2.9489
   30.690    2.9840
   30.705    2.7207
   30.720    3.1771
   30.735    2.7558
   30.750    2.5979
   30.765    2.8963
   30.780    3.2473
   30.795    2.6681
   30.810    2.6154
   30.825    2.8085
   30.840    2.8787
   30.855    2.8436
   30.870    2.6681
   30.885    2.7383
   30.900    2.8436
   30.915    2.7558
   30.930    2.6856
   30.945    2.5628
   30.960    2.6330
   30.975    2.3697
   30.990    2.8612
   31.005    2.7558
   31.020    2.8260
   31.035    2.5628
   31.050    2.7032
   31.065    3.0016
   31.080    2.9314
   31.095    2.8612
   31.110    2.8436
   31.125    2.6154
   31.140    2.7909
   31.155    3.0367
   31.170    2.7383
   31.185    2.8963
   31.200    2.9665
   31.215    3.1596
   31.230    2.8612
   31.245    2.8260
   31.260    2.7734
   31.275    2.7032
   31.290    2.6505
   31.305    2.9314
   31.320    2.9138
   31.335    2.9138
   31.350    2.8436
   31.365    2.8963
   31.380    3.3000
   31.395    2.6330
   31.410    2.9840
   31.425    3.2298
   31.440    3.0893
   31.455    3.0542
   31.470    2.9840
   31.485    2.8787
   31.500    2.8787
   31.515    2.9840
   31.530    2.7383
   31.545    2.7558
   31.560    2.8260
   31.575    2.7032
   31.590    2.5101
   31.605    2.4925
   31.620    2.6154
   31.635    2.6856
   31.650    2.8612
   31.665    2.8436
   31.680    2.6154
   31.695    2.5276
   31.710    2.9665
   31.725    2.8260
   31.740    2.8085
   31.755    2.9489
   31.770    3.0016
   31.785    2.7734
   31.800    2.9840
   31.815    3.2473
   31.830    3.1245
   31.845    3.0367
   31.860    2.5979
   31.875    3.0367
   31.890    3.0718
   31.905    2.7734
   31.920    2.7383
   31.935    2.7383
   31.950    2.5803
   31.965    2.2819
   31.980    2.3872
   31.995    2.5979
   32.010    2.8612
   32.025    2.5628
   32.040    2.6681
   32.055    2.8612
   32.070    2.9138
   32.085    2.6154
   32.100    2.7558
   32.115    2.7909
   32.130    2.8436
   32.145    2.5101
   32.160    2.6681
   32.175    2.4925
   32.190    2.5628
   32.205    2.5628
   32.220    2.8085
   32.235    3.0718
   32.250    2.8085
   32.265    2.7734
   32.280    2.7207
   32.295    2.6856
   32.310    2.5276
   32.325    2.4048
   32.340    2.7558
   32.355    2.5979
   32.370    2.3521
   32.385    2.7032
   32.400    3.0718
   32.415    2.4925
   32.430    2.5276
   32.445    2.3697
   32.460    2.5628
   32.475    2.6505
   32.490    2.8963
   32.505    2.7032
   32.520    2.7734
   32.535    2.9314
   32.550    2.7909
   32.565    2.5628
   32.580    2.6681
   32.595    2.6681
   32.610    2.4574
   32.625    2.3697
   32.640    3.0542
   32.655    2.9314
   32.670    2.3697
   32.685    2.2643
   32.700    2.3346
   32.715    2.2995
   32.730    2.3521
   32.745    2.2819
   32.760    2.0888
   32.775    2.5276
   32.790    2.5276
   32.805    2.4574
   32.820    2.5101
   32.835    2.6505
   32.850    2.5452
   32.865    2.6505
   32.880    2.5803
   32.895    2.3170
   32.910    2.3697
   32.925    2.3697
   32.940    2.4574
   32.955    2.4574
   32.970    2.5628
   32.985    2.3697
   33.000    2.5803
   33.015    2.4223
   33.030    2.3170
   33.045    2.2995
   33.060    2.4223
   33.075    2.4399
   33.090    2.4750
   33.105    2.3697
   33.120    2.3170
   33.135    2.5979
   33.150    2.2995
   33.165    2.4223
   33.180    2.4399
   33.195    2.5979
   33.210    2.6856
   33.225    2.5452
   33.240    2.4048
   33.255    2.8612
   33.270    2.8436
   33.285    2.6681
   33.300    2.5276
   33.315    2.3521
   33.330    2.4750
   33.345    2.5101
   33.360    2.5101
   33.375    2.6505
   33.390    2.4925
   33.405    2.1239
   33.420    2.5276
   33.435    2.7207
   33.450    2.7032
   33.465    2.7207
   33.480    2.6330
   33.495    2.4925
   33.510    2.3346
   33.525    2.4750
   33.540    2.6330
   33.555    2.4399
   33.570    2.4925
   33.585    2.5628
   33.600    2.4925
   33.615    2.4048
   33.630    2.4223
   33.645    2.2643
   33.660    2.4223
   33.675    2.3697
   33.690    2.3872
   33.705    2.4048
   33.720    2.2995
   33.735    2.4048
   33.750    2.6681
   33.765    2.5628
   33.780    2.6505
   33.795    2.9314
   33.810    2.8085
   33.825    2.5979
   33.840    2.2468
   33.855    2.2995
   33.870    2.6330
   33.885    2.4925
   33.900    2.5101
   33.915    2.5101
   33.930    2.2292
   33.945    2.7032
   33.960    2.4925
   33.975    2.6681
   33.990    2.6856
   34.005    2.6330
   34.020    2.4574
   34.035    2.5276
   34.050    2.2292
   34.065    2.1766
   34.080    2.1415
   34.095    2.4048
   34.110    2.6681
   34.125    2.2995
   34.140    1.9659
   34.155    2.3521
   34.170    2.5276
   34.185    2.5276
   34.200    2.3872
   34.215    2.2643
   34.230    2.7558
   34.245    2.5803
   34.260    2.4750
   34.275    2.2995
   34.290    2.5452
   34.305    2.6330
   34.320    2.3521
   34.335    2.3346
   34.350    2.2995
   34.365    2.2117
   34.380    2.3521
   34.395    2.3872
   34.410    2.5452
   34.425    2.7032
   34.440    2.3346
   34.455    2.1766
   34.470    2.1590
   34.485    2.2643
   34.500    2.3346
   34.515    2.5276
   34.530    2.4048
   34.545    2.5979
   34.560    2.2643
   34.575    2.2643
   34.590    2.3872
   34.605    2.4048
   34.620    2.3872
   34.635    2.4574
   34.650    2.6681
   34.665    2.3170
   34.680    2.5979
   34.695    2.2819
   34.710    2.2468
   34.725    2.4399
   34.740    2.5101
   34.755    2.4048
   34.770    2.4223
   34.785    2.1941
   34.800    2.2468
   34.815    2.3697
   34.830    2.3872
   34.845    2.6154
   34.860    2.5803
   34.875    2.6856
   34.890    2.6681
   34.905    2.4399
   34.920    2.5979
   34.935    2.2292
   34.950    2.3521
   34.965    2.1064
   34.980    2.6330
   34.995    2.6856
   35.010    2.4925
   35.025    2.4223
   35.040    2.5452
   35.055    2.4223
   35.070    2.4399
   35.085    2.3346
   35.100    2.6154
   35.115    2.3697
   35.130    2.3170
   35.145    2.1064
   35.160    2.2468
   35.175    2.6505
   35.190    2.4574
   35.205    2.2643
   35.220    2.3346
   35.235    2.1590
   35.250    2.3170
   35.265    2.4223
   35.280    2.4399
   35.295    2.2819
   35.310    2.4925
   35.325    2.4223
   35.340    2.2117
   35.355    2.4399
   35.370    2.3346
   35.385    2.4399
   35.400    2.2468
   35.415    2.4399
   35.430    2.2117
   35.445    2.3697
   35.460    2.4399
   35.475    2.4048
   35.490    2.3872
   35.505    2.1415
   35.520    2.3521
   35.535    2.4574
   35.550    2.3872
   35.565    2.6681
   35.580    2.2468
   35.595    2.2819
   35.610    2.3697
   35.625    2.3872
   35.640    2.1064
   35.655    2.2117
   35.670    2.5628
   35.685    2.4750
   35.700    2.3346
   35.715    2.3170
   35.730    2.5979
   35.745    2.8260
   35.760    2.6330
   35.775    2.3872
   35.790    2.4048
   35.805    2.5979
   35.820    2.4574
   35.835    2.4925
   35.850    2.5628
   35.865    2.5803
   35.880    2.6154
   35.895    2.2643
   35.910    2.5276
   35.925    2.7734
   35.940    2.5628
   35.955    2.4925
   35.970    2.2468
   35.985    2.3521
   36.000    2.1941
   36.015    2.2468
   36.030    2.5452
   36.045    2.9314
   36.060    2.4574
   36.075    2.3170
   36.090    2.3521
   36.105    2.4574
   36.120    2.4925
   36.135    2.2643
   36.150    2.4574
   36.165    2.5276
   36.180    2.1941
   36.195    2.5276
   36.210    2.5101
   36.225    2.4925
   36.240    2.3521
   36.255    2.5276
   36.270    2.5452
   36.285    2.5452
   36.300    2.4750
   36.315    2.2995
   36.330    2.4925
   36.345    2.2995
   36.360    2.3346
   36.375    2.6154
   36.390    2.2468
   36.405    2.3170
   36.420    2.1941
   36.435    2.3170
   36.450    2.5452
   36.465    2.2995
   36.480    2.5101
   36.495    2.5628
   36.510    2.3521
   36.525    2.0362
   36.540    2.4925
   36.555    2.4574
   36.570    2.2468
   36.585    2.0888
   36.600    2.1590
   36.615    2.1941
   36.630    2.3346
   36.645    2.4925
   36.660    2.6681
   36.675    2.4925
   36.690    2.4750
   36.705    2.2995
   36.720    2.6330
   36.735    2.4925
   36.750    2.2995
   36.765    2.4925
   36.780    2.3872
   36.795    2.1766
   36.810    2.2643
   36.825    2.2995
   36.840    2.1766
   36.855    2.4574
   36.870    2.2643
   36.885    2.2468
   36.900    2.1590
   36.915    2.1941
   36.930    2.2468
   36.945    2.5101
   36.960    2.4574
   36.975    2.5101
   36.990    2.7032
   37.005    2.4223
   37.020    2.5452
   37.035    2.1239
   37.050    2.3346
   37.065    2.4750
   37.080    2.5101
   37.095    2.4925
   37.110    2.1941
   37.125    2.2292
   37.140    2.4399
   37.155    2.3346
   37.170    2.2292
   37.185    2.4925
   37.200    2.2995
   37.215    2.2995
   37.230    2.5628
   37.245    2.2468
   37.260    2.2292
   37.275    2.4223
   37.290    2.3872
   37.305    2.1415
   37.320    2.2292
   37.335    2.7207
   37.350    2.5452
   37.365    2.2643
   37.380    2.5276
   37.395    2.4574
   37.410    2.3346
   37.425    2.3697
   37.440    2.5101
   37.455    2.5276
   37.470    2.5101
   37.485    2.7207
   37.500    2.5803
   37.515    2.5979
   37.530    2.5979
   37.545    2.3872
   37.560    2.2995
   37.575    2.2819
   37.590    2.5276
   37.605    2.4399
   37.620    2.4574
   37.635    2.6505
   37.650    2.5276
   37.665    2.3872
   37.680    2.1415
   37.695    2.1941
   37.710    2.2995
   37.725    2.2819
   37.740    2.4048
   37.755    2.4399
   37.770    2.4399
   37.785    2.2643
   37.800    2.2995
   37.815    2.3170
   37.830    2.4223
   37.845    2.8085
   37.860    2.2819
   37.875    2.2468
   37.890    2.2117
   37.905    2.1941
   37.920    2.1941
   37.935    2.1766
   37.950    2.1239
   37.965    2.3521
   37.980    2.4223
   37.995    2.1941
   38.010    2.3521
   38.025    2.4048
   38.040    2.4925
   38.055    2.2468
   38.070    2.3170
   38.085    2.4048
   38.100    2.0362
   38.115    2.1415
   38.130    2.2643
   38.145    2.5628
   38.160    2.2643
   38.175    2.5276
   38.190    2.7383
   38.205    2.5979
   38.220    2.3697
   38.235    2.0888
   38.250    2.4048
   38.265    2.3346
   38.280    2.4048
   38.295    2.1239
   38.310    2.0713
   38.325    2.2995
   38.340    2.1590
   38.355    2.6505
   38.370    2.1590
   38.385    2.3170
   38.400    2.2468
   38.415    2.1064
   38.430    2.1941
   38.445    2.2819
   38.460    2.3170
   38.475    2.3346
   38.490    2.2643
   38.505    2.1941
   38.520    2.2468
   38.535    2.3170
   38.550    2.2995
   38.565    2.1941
   38.580    2.0713
   38.595    2.2117
   38.610    2.0888
   38.625    2.0537
   38.640    2.4750
   38.655    2.1941
   38.670    2.3697
   38.685    2.3346
   38.700    2.2995
   38.715    2.3521
   38.730    2.2995
   38.745    2.2468
   38.760    2.3346
   38.775    2.5979
   38.790    2.3521
   38.805    2.2468
   38.820    2.2292
   38.835    2.4399
   38.850    2.4048
   38.865    2.1941
   38.880    1.9308
   38.895    2.3521
   38.910    2.3872
   38.925    1.9835
   38.940    2.3170
   38.955    2.2468
   38.970    2.2117
   38.985    2.1766
   39.000    2.3697
   39.015    2.1239
   39.030    2.1590
   39.045    2.1941
   39.060    2.4223
   39.075    2.3346
   39.090    2.2643
   39.105    2.4223
   39.120    2.2995
   39.135    2.4750
   39.150    2.3872
   39.165    2.0888
   39.180    2.2292
   39.195    2.3697
   39.210    2.3170
   39.225    2.2643
   39.240    2.3521
   39.255    2.3170
   39.270    2.5101
   39.285    2.5803
   39.300    2.4574
   39.315    2.0888
   39.330    2.1941
   39.345    2.1941
   39.360    2.0713
   39.375    2.3346
   39.390    2.2819
   39.405    2.0888
   39.420    2.0713
   39.435    2.3872
   39.450    2.4399
   39.465    1.9659
   39.480    2.0537
   39.495    2.4399
   39.510    2.4223
   39.525    2.3697
   39.540    2.2468
   39.555    2.3170
   39.570    2.2995
   39.585    2.0713
   39.600    2.1590
   39.615    2.3346
   39.630    2.2643
   39.645    2.2292
   39.660    2.2117
   39.675    2.3697
   39.690    2.1941
   39.705    2.2117
   39.720    2.1590
   39.735    2.1239
   39.750    2.1415
   39.765    2.5452
   39.780    2.3346
   39.795    2.2819
   39.810    2.1415
   39.825    2.1766
   39.840    2.3346
   39.855    2.2819
   39.870    2.0537
   39.885    1.9835
   39.900    2.1941
   39.915    2.0362
   39.930    2.1415
   39.945    2.0888
   39.960    2.1766
   39.975    2.1415
   39.990    2.1766
