    1.500   40.8110
    1.515   41.1164
    1.530   40.5055
    1.545   40.9163
    1.560   38.9679
    1.575   38.6309
    1.590   38.9679
    1.605   36.3770
    1.620   37.1037
    1.635   36.7141
    1.650   35.6082
    1.665   34.7235
    1.680   33.9442
    1.695   33.9547
    1.710   34.1548
    1.725   32.1327
    1.740   31.6482
    1.755   30.9110
    1.770   30.9847
    1.785   31.3007
    1.800   29.7736
    1.815   29.8473
    1.830   29.8262
    1.845   28.2464
    1.860   27.8041
    1.875   27.4987
    1.890   26.3086
    1.905   26.7509
    1.920   26.4139
    1.935   25.6451
    1.950   25.0026
    1.965   25.3502
    1.980   24.5076
    1.995   24.1811
    2.010   24.7815
    2.025   23.7809
    2.040   24.0864
    2.055   24.4550
    2.070   23.2859
    2.085   23.2017
    2.100   23.0226
    2.115   22.4118
    2.130   21.6219
    2.145   22.0958
    2.160   21.5271
    2.175   20.7478
    2.190   20.5687
    2.205   21.1690
    2.220   20.7583
    2.235   21.5166
    2.250   20.0948
    2.265   20.7478
    2.280   20.2422
    2.295   19.8210
    2.310   19.6630
    2.325   19.5682
    2.340   18.8204
    2.355   18.8204
    2.370   19.2417
    2.385   18.6098
    2.400   18.2096
    2.415   17.8410
    2.430   18.2412
    2.445   17.7357
    2.460   17.8515
    2.475   17.5566
    2.490   17.1985
    2.505   17.3354
    2.520   17.0721
    2.535   17.5777
    2.550   16.7351
    2.565   16.9879
    2.580   16.8931
    2.595   16.9563
    2.610   16.7351
    2.625   15.8294
    2.640   16.3033
    2.655   15.5450
    2.670   15.5977
    2.685   15.3870
    2.700   14.8078
    2.715   15.7662
    2.730   15.9136
    2.745   15.6398
    2.760   15.3870
    2.775   15.5134
    2.790   14.6814
    2.805   14.4181
    2.820   14.5024
    2.835   14.5972
    2.850   14.6603
    2.865   13.5756
    2.880   13.8599
    2.895   13.8810
    2.910   13.5650
    2.925   14.0074
    2.940   14.2285
    2.955   14.0179
    2.970   14.0390
    2.985   14.1654
    3.000   13.7230
    3.015   13.6598
    3.030   13.7967
    3.045   12.8594
    3.060   13.4071
    3.075   13.2491
    3.090   13.2280
    3.105   13.4281
    3.120   13.3649
    3.135   12.6382
    3.150   13.0174
    3.165   12.4908
    3.180   12.5961
    3.195   12.7751
    3.210   12.0695
    3.225   12.1538
    3.240   12.5645
    3.255   13.0174
    3.270   12.5434
    3.285   12.3328
    3.300   11.7536
    3.315   12.3539
    3.330   11.8167
    3.345   12.0063
    3.360   12.1327
    3.375   12.5434
    3.390   12.3012
    3.405   11.8273
    3.420   11.9010
    3.435   11.3639
    3.450   11.8062
    3.465   11.7009
    3.480   11.6377
    3.495   11.4481
    3.510   11.4376
    3.525   11.4271
    3.540   11.3112
    3.555   11.2270
    3.570   11.3744
    3.585   11.7220
    3.600   11.0585
    3.615   10.9847
    3.630   11.5113
    3.645   11.1322
    3.660   10.9215
    3.675   11.3639
    3.690   10.8794
    3.705   10.9953
    3.720   10.9426
    3.735   10.8794
    3.750   10.9110
    3.765   11.1427
    3.780   10.4581
    3.795   11.2375
    3.810   11.1427
    3.825   10.9742
    3.840   10.5213
    3.855   10.6793
    3.870   10.6161
    3.885   10.7425
    3.900   10.4897
    3.915   10.6477
    3.930   10.7214
    3.945   10.5951
    3.960   10.0685
    3.975    9.9421
    3.990   10.7846
    4.005   10.0263
    4.020   10.1738
    4.035   10.2370
    4.050   10.0790
    4.065   10.1738
    4.080    9.9737
    4.095   10.1422
    4.110    9.7946
    4.125   10.3844
    4.140   10.3528
    4.155   10.6372
    4.170   10.5529
    4.185   10.1843
    4.200    9.5735
    4.215   10.4897
    4.230   10.5108
    4.245    9.8789
    4.260    9.9105
    4.275    9.9947
    4.290   10.5213
    4.305   10.0158
    4.320   10.0474
    4.335   10.0158
    4.350    9.9210
    4.365    9.2891
    4.380   10.0158
    4.395    9.6156
    4.410    9.6051
    4.425    9.8052
    4.440    9.8999
    4.455    9.4787
    4.470    9.5735
    4.485    9.2786
    4.500    9.5524
    4.515    9.8684
    4.530    9.3628
    4.545    9.1943
    4.560    9.9737
    4.575   10.1632
    4.590    9.6472
    4.605    9.8684
    4.620    9.3523
    4.635    9.5419
    4.650    8.9942
    4.665    9.1943
    4.680    9.5313
    4.695    9.5735
    4.710    9.1838
    4.725    9.2575
    4.740    9.2470
    4.755    9.2680
    4.770    9.0890
    4.785    9.2575
    4.800    8.9415
    4.815    9.3418
    4.830    9.0679
    4.845    9.2996
    4.860    9.0363
    4.875    9.2154
    4.890    9.4787
    4.905    9.3312
    4.920    8.9205
    4.935    9.2891
    4.950    9.2470
    4.965    8.9837
    4.980    8.9731
    4.995    9.0153
    5.010    8.7730
    5.025    9.1206
    5.040    9.4365
    5.055    9.2470
    5.070    9.4471
    5.085    8.7414
    5.100    9.2364
    5.115    9.1206
    5.130    8.7625
    5.145    8.9310
    5.160    8.6888
    5.175    9.2364
    5.190    8.9310
    5.205    8.8046
    5.220    8.6467
    5.235    8.9415
    5.250    8.6888
    5.265    8.7836
    5.280    9.4997
    5.295    8.9415
    5.310    8.4992
    5.325    9.1732
    5.340    8.9942
    5.355    8.8994
    5.370    9.5419
    5.385    8.9521
    5.400    8.4781
    5.415    8.4887
    5.430    8.5624
    5.445    9.0047
    5.460    8.8257
    5.475    8.7309
    5.490    8.8152
    5.505    8.8152
    5.520    8.8468
    5.535    8.9415
    5.550    8.7625
    5.565    8.4044
    5.580    8.6467
    5.595    8.6572
    5.610    9.0890
    5.625    8.9205
    5.640    8.6888
    5.655    8.9205
    5.670    8.9942
    5.685    8.4044
    5.700    8.9415
    5.715    9.0047
    5.730    9.1206
    5.745    9.0047
    5.760    8.5308
    5.775    8.4887
    5.790    8.9415
    5.805    8.8889
    5.820    9.0469
    5.835    9.2259
    5.850    8.8994
    5.865    8.5519
    5.880    8.4676
    5.895    8.2780
    5.910    8.5413
    5.925    9.0785
    5.940    8.9205
    5.955    8.2886
    5.970    8.5519
    5.985    8.7730
    6.000    8.9100
    6.015    8.7414
    6.030    8.5624
    6.045    8.2886
    6.060    8.9100
    6.075    8.7520
    6.090    8.6572
    6.105    8.7204
    6.120    8.7414
    6.135    8.5729
    6.150    8.4887
    6.165    8.3728
    6.180    8.7941
    6.195    8.8784
    6.210    8.8046
    6.225    8.3834
    6.240    8.4466
    6.255    9.0890
    6.270    8.6045
    6.285    8.8678
    6.300    8.4150
    6.315    8.8678
    6.330    8.7836
    6.345    8.1938
    6.360    8.2780
    6.375    8.5940
    6.390    8.6256
    6.405    8.7520
    6.420    8.4255
    6.435    8.1411
    6.450    8.0147
    6.465    8.5624
    6.480    8.4044
    6.495    8.4992
    6.510    8.5203
    6.525    8.8046
    6.540    8.6993
    6.555    8.8784
    6.570    8.6361
    6.585    8.7625
    6.600    8.3728
    6.615    8.3623
    6.630    8.7098
    6.645    8.5308
    6.660    8.5835
    6.675    8.2043
    6.690    8.7204
    6.705    8.7730
    6.720    8.6677
    6.735    8.6467
    6.750    8.5940
    6.765    8.3939
    6.780    8.3939
    6.795    8.7730
    6.810    8.4150
    6.825    8.2886
    6.840    8.2464
    6.855    8.4255
    6.870    8.3939
    6.885    9.0153
    6.900    8.5940
    6.915    8.2675
    6.930    8.6677
    6.945    8.8994
    6.960    8.4781
    6.975    8.9205
    6.990    8.3096
    7.005    8.5624
    7.020    8.6151
    7.035    8.8889
    7.050    8.5203
    7.065    8.2780
    7.080    8.5413
    7.095    8.8573
    7.110    8.7309
    7.125    8.3728
    7.140    8.4044
    7.155    8.2043
    7.170    8.4676
    7.185    8.4992
    7.200    8.5729
    7.215    8.6256
    7.230    8.5097
    7.245    8.0885
    7.260    8.5835
    7.275    8.6677
    7.290    9.2154
    7.305    8.8573
    7.320    8.1833
    7.335    8.6572
    7.350    8.5519
    7.365    8.7941
    7.380    8.4992
    7.395    8.2570
    7.410    8.5097
    7.425    8.6467
    7.440    8.6256
    7.455    8.4466
    7.470    8.6045
    7.485    9.0469
    7.500    8.2780
    7.515    8.2780
    7.530    8.2149
    7.545    8.6993
    7.560    8.4571
    7.575    8.2043
    7.590    8.0674
    7.605    8.1622
    7.620    8.3202
    7.635    8.4150
    7.650    8.6572
    7.665    9.1311
    7.680    8.6361
    7.695    8.8468
    7.710    8.7098
    7.725    8.5835
    7.740    8.9942
    7.755    9.2048
    7.770    8.5519
    7.785    8.6045
    7.800    8.9626
    7.815    8.7836
    7.830    8.7204
    7.845    8.4887
    7.860    8.8994
    7.875    8.8994
    7.890    8.5624
    7.905    8.8046
    7.920    9.0574
    7.935    8.9310
    7.950    8.9837
    7.965    8.9521
    7.980    8.2570
    7.995    8.5835
    8.010    8.8994
    8.025    9.3312
    8.040    9.0258
    8.055    9.6998
    8.070    8.7836
    8.085    8.6993
    8.100    8.8784
    8.115    8.4992
    8.130    8.7414
    8.145    8.4887
    8.160    8.4676
    8.175    8.7941
    8.190    9.0258
    8.205    8.6677
    8.220    9.0574
    8.235    9.0469
    8.250    8.9415
    8.265    8.9521
    8.280    8.6572
    8.295    8.1306
    8.310    8.5729
    8.325    8.6888
    8.340    8.5835
    8.355    8.8889
    8.370    9.3102
    8.385    8.8889
    8.400    9.3418
    8.415    8.4781
    8.430    8.8994
    8.445    8.5835
    8.460    8.6572
    8.475    9.1101
    8.490    8.8784
    8.505    8.9521
    8.520    8.5940
    8.535    8.7204
    8.550    8.8889
    8.565    9.0153
    8.580    8.9415
    8.595    8.9626
    8.610    8.8678
    8.625    8.5940
    8.640    8.9415
    8.655    8.8257
    8.670    9.2154
    8.685    9.0153
    8.700    8.2991
    8.715    8.7941
    8.730    9.3207
    8.745    8.9310
    8.760    8.6783
    8.775    8.5519
    8.790    9.1732
    8.805    9.0469
    8.820    9.0995
    8.835    8.8362
    8.850    8.8046
    8.865    9.3207
    8.880    9.0574
    8.895    8.7730
    8.910    9.1732
    8.925    9.3207
    8.940    9.3839
    8.955    9.0679
    8.970    8.8784
    8.985    8.7204
    9.000    8.4466
    9.015    8.8468
    9.030    8.9521
    9.045    8.7625
    9.060    8.8573
    9.075    8.8889
    9.090    8.5097
    9.105    8.6151
    9.120    9.0258
    9.135    9.0890
    9.150    9.2786
    9.165    9.4155
    9.180    9.3207
    9.195    9.1311
    9.210    9.1838
    9.225    9.0258
    9.240    9.1838
    9.255    9.0995
    9.270    9.2470
    9.285    9.0679
    9.300    8.3518
    9.315    9.2575
    9.330    9.1943
    9.345    8.9942
    9.360    9.2259
    9.375    8.6888
    9.390    9.3628
    9.405    9.2575
    9.420    9.0995
    9.435    9.2996
    9.450    9.2786
    9.465    9.2680
    9.480    8.6677
    9.495    8.8046
    9.510    8.8678
    9.525    8.9205
    9.540    9.0469
    9.555    9.2364
    9.570    9.0890
    9.585    8.3728
    9.600    9.1943
    9.615    9.1206
    9.630    9.1732
    9.645    9.2048
    9.660    9.0153
    9.675    8.9521
    9.690    9.0469
    9.705    9.3944
    9.720    9.2786
    9.735    9.3207
    9.750    9.0890
    9.765    9.1311
    9.780    9.0574
    9.795    9.6788
    9.810    8.9415
    9.825    9.0574
    9.840    9.2048
    9.855    8.7204
    9.870    9.1627
    9.885    8.9626
    9.900    9.1627
    9.915    8.9415
    9.930    8.8152
    9.945    9.4365
    9.960    9.1627
    9.975    8.9415
    9.990    9.0258
   10.005    8.7204
   10.020    8.9310
   10.035    9.1943
   10.050    9.0469
   10.065    9.3418
   10.080    8.8468
   10.095    8.6888
   10.110    8.8152
   10.125    9.2470
   10.140    9.5208
   10.155    8.8152
   10.170    9.0153
   10.185    9.1627
   10.200    8.7941
   10.215    8.9521
   10.230    9.0995
   10.245    9.3418
   10.260    9.4365
   10.275    9.0363
   10.290    9.4576
   10.305    9.1101
   10.320    8.9415
   10.335    8.7730
   10.350    9.0258
   10.365    8.9205
   10.380    8.7836
   10.395    8.6888
   10.410    9.3102
   10.425    9.1522
   10.440    8.8362
   10.455    8.4255
   10.470    8.7098
   10.485    9.0995
   10.500    8.8889
   10.515    9.0047
   10.530    9.0995
   10.545    9.1206
   10.560    9.0890
   10.575    8.6888
   10.590    8.8573
   10.605    8.7520
   10.620    8.8046
   10.635    8.7941
   10.650    8.3939
   10.665    8.9415
   10.680    9.1627
   10.695    8.8046
   10.710    8.9942
   10.725    8.6677
   10.740    8.6783
   10.755    8.9310
   10.770    8.9521
   10.785    8.9731
   10.800    9.0679
   10.815    8.8257
   10.830    8.4150
   10.845    8.6572
   10.860    9.0785
   10.875    8.4781
   10.890    8.9100
   10.905    8.4676
   10.920    8.6467
   10.935    8.8046
   10.950    8.6256
   10.965    8.4044
   10.980    8.7309
   10.995    8.5624
   11.010    8.6045
   11.025    8.5729
   11.040    8.7836
   11.055    8.4992
   11.070    9.2048
   11.085    8.6783
   11.100    8.7309
   11.115    8.9205
   11.130    8.8784
   11.145    8.6783
   11.160    8.6467
   11.175    8.2886
   11.190    8.7520
   11.205    8.7836
   11.220    8.7941
   11.235    9.0785
   11.250    8.9942
   11.265    8.5835
   11.280    8.3623
   11.295    8.7309
   11.310    8.8046
   11.325    8.7309
   11.340    8.5835
   11.355    8.6045
   11.370    8.5203
   11.385    8.4781
   11.400    8.5519
   11.415    8.3728
   11.430    8.5097
   11.445    7.9937
   11.460    8.1727
   11.475    8.0463
   11.490    8.1938
   11.505    8.2464
   11.520    8.2043
   11.535    8.4466
   11.550    8.8889
   11.565    8.7625
   11.580    8.3202
   11.595    8.1095
   11.610    8.4466
   11.625    8.1938
   11.640    8.3623
   11.655    8.2886
   11.670    8.2570
   11.685    8.4255
   11.700    8.6361
   11.715    8.4887
   11.730    8.4360
   11.745    8.4571
   11.760    8.2886
   11.775    8.0253
   11.790    8.2359
   11.805    8.7309
   11.820    8.2149
   11.835    8.6467
   11.850    8.4150
   11.865    8.4150
   11.880    8.2043
   11.895    8.5203
   11.910    8.5203
   11.925    8.6045
   11.940    8.4571
   11.955    8.4360
   11.970    8.2991
   11.985    8.2359
   12.000    8.5624
   12.015    8.2886
   12.030    8.2043
   12.045    8.1938
   12.060    8.1833
   12.075    8.1201
   12.090    8.3096
   12.105    8.2149
   12.120    8.4255
   12.135    8.4887
   12.150    8.5624
   12.165    8.1306
   12.180    8.1622
   12.195    8.1095
   12.210    8.3623
   12.225    7.8041
   12.240    8.0569
   12.255    8.0147
   12.270    7.8357
   12.285    7.8357
   12.300    7.9094
   12.315    7.4776
   12.330    7.6672
   12.345    7.6988
   12.360    7.8778
   12.375    7.8884
   12.390    7.9305
   12.405    7.9094
   12.420    7.8568
   12.435    8.1727
   12.450    7.8252
   12.465    7.9937
   12.480    8.1727
   12.495    7.9410
   12.510    7.9831
   12.525    7.9831
   12.540    8.2570
   12.555    7.8462
   12.570    7.9200
   12.585    7.7620
   12.600    7.5408
   12.615    7.8884
   12.630    7.7409
   12.645    7.8568
   12.660    7.8462
   12.675    8.2149
   12.690    7.6777
   12.705    7.5935
   12.720    7.5724
   12.735    7.9410
   12.750    8.1411
   12.765    7.8673
   12.780    7.5197
   12.795    7.8146
   12.810    8.0147
   12.825    8.1938
   12.840    7.5303
   12.855    7.8884
   12.870    8.0885
   12.885    7.8989
   12.900    7.7199
   12.915    8.0042
   12.930    7.9516
   12.945    7.5724
   12.960    7.9726
   12.975    7.7830
   12.990    7.4776
   13.005    7.8252
   13.020    7.7304
   13.035    7.6251
   13.050    7.9410
   13.065    7.8462
   13.080    7.5513
   13.095    8.0358
   13.110    7.7199
   13.125    7.6251
   13.140    7.2565
   13.155    7.4882
   13.170    7.9831
   13.185    7.9305
   13.200    7.9200
   13.215    7.7936
   13.230    8.2464
   13.245    7.9410
   13.260    7.7514
   13.275    7.4355
   13.290    8.0253
   13.305    7.6145
   13.320    7.5935
   13.335    8.0463
   13.350    8.0779
   13.365    7.4144
   13.380    7.4987
   13.395    7.5829
   13.410    7.9200
   13.425    7.5513
   13.440    7.6567
   13.455    7.8357
   13.470    7.8673
   13.485    7.7199
   13.500    8.1306
   13.515    7.5092
   13.530    7.8041
   13.545    7.5935
   13.560    7.4460
   13.575    7.7514
   13.590    7.5513
   13.605    7.8462
   13.620    7.6567
   13.635    7.7409
   13.650    7.7620
   13.665    7.5303
   13.680    8.1201
   13.695    7.7093
   13.710    7.6777
   13.725    7.8568
   13.740    7.5829
   13.755    7.7304
   13.770    7.7936
   13.785    7.3618
   13.800    7.4355
   13.815    7.4144
   13.830    7.2986
   13.845    7.6883
   13.860    7.7620
   13.875    7.8568
   13.890    7.5092
   13.905    7.8462
   13.920    7.6251
   13.935    7.6040
   13.950    7.4039
   13.965    7.3828
   13.980    7.7936
   13.995    7.9516
   14.010    7.9621
   14.025    7.4566
   14.040    7.3512
   14.055    7.2880
   14.070    7.3302
   14.085    7.4987
   14.100    7.8041
   14.115    7.6883
   14.130    7.7304
   14.145    7.8778
   14.160    7.6672
   14.175    7.5619
   14.190    7.3091
   14.205    7.8146
   14.220    7.6777
   14.235    7.3828
   14.250    7.3196
   14.265    7.8357
   14.280    7.6356
   14.295    7.3723
   14.310    7.4987
   14.325    7.9094
   14.340    7.5619
   14.355    7.9516
   14.370    7.4039
   14.385    7.7409
   14.400    8.1201
   14.415    7.3196
   14.430    7.6356
   14.445    7.7936
   14.460    7.5303
   14.475    7.6567
   14.490    7.9200
   14.505    7.9621
   14.520    7.7093
   14.535    7.3407
   14.550    7.8041
   14.565    7.7093
   14.580    7.3723
   14.595    7.6567
   14.610    7.6040
   14.625    7.3934
   14.640    7.9516
   14.655    7.5408
   14.670    7.2354
   14.685    7.3302
   14.700    7.7620
   14.715    7.5408
   14.730    7.6672
   14.745    7.5724
   14.760    7.7620
   14.775    7.4566
   14.790    7.4566
   14.805    7.3828
   14.820    7.2670
   14.835    7.4250
   14.850    7.7936
   14.865    7.4566
   14.880    7.0248
   14.895    7.3934
   14.910    7.7725
   14.925    7.4776
   14.940    7.6988
   14.955    8.0569
   14.970    7.4566
   14.985    7.4882
   15.000    7.4250
   15.015    7.7093
   15.030    7.2038
   15.045    7.5619
   15.060    7.5619
   15.075    7.3091
   15.090    7.6883
   15.105    7.5829
   15.120    7.5197
   15.135    7.2986
   15.150    7.5303
   15.165    7.6883
   15.180    7.7936
   15.195    7.5303
   15.210    7.3407
   15.225    7.4355
   15.240    8.0253
   15.255    7.6672
   15.270    7.6883
   15.285    7.7093
   15.300    7.8041
   15.315    7.7725
   15.330    7.6145
   15.345    7.4144
   15.360    7.3196
   15.375    7.5197
   15.390    7.3828
   15.405    7.4566
   15.420    7.8041
   15.435    7.8041
   15.450    7.5513
   15.465    7.6672
   15.480    7.8989
   15.495    7.7093
   15.510    7.8673
   15.525    7.5092
   15.540    7.6040
   15.555    8.1833
   15.570    7.5092
   15.585    7.2249
   15.600    7.4671
   15.615    7.4882
   15.630    7.8357
   15.645    7.2670
   15.660    7.7830
   15.675    7.6461
   15.690    6.8773
   15.705    7.4144
   15.720    7.5513
   15.735    7.5724
   15.750    7.4250
   15.765    7.2880
   15.780    7.5408
   15.795    7.3723
   15.810    7.4144
   15.825    7.6883
   15.840    7.6040
   15.855    7.4250
   15.870    7.4355
   15.885    7.8146
   15.900    7.9726
   15.915    7.8462
   15.930    7.6251
   15.945    7.4671
   15.960    7.6883
   15.975    8.0990
   15.990    7.7304
   16.005    8.0147
   16.020    7.8041
   16.035    8.0147
   16.050    7.7725
   16.065    7.2880
   16.080    7.5303
   16.095    7.4987
   16.110    7.6251
   16.125    7.7830
   16.140    8.0358
   16.155    7.5619
   16.170    7.6145
   16.185    7.7304
   16.200    7.4776
   16.215    7.8989
   16.230    8.2464
   16.245    7.9094
   16.260    7.6988
   16.275    7.6461
   16.290    7.8252
   16.305    7.8357
   16.320    7.4987
   16.335    8.0463
   16.350    7.8778
   16.365    7.6883
   16.380    7.2249
   16.395    7.5829
   16.410    7.8462
   16.425    7.5197
   16.440    7.3407
   16.455    7.3196
   16.470    7.6040
   16.485    7.8357
   16.500    7.4882
   16.515    7.8462
   16.530    7.5408
   16.545    7.8146
   16.560    7.6567
   16.575    7.4882
   16.590    7.4671
   16.605    7.5092
   16.620    7.6988
   16.635    7.4250
   16.650    7.1933
   16.665    7.3723
   16.680    7.9831
   16.695    7.5408
   16.710    7.5513
   16.725    7.7620
   16.740    8.1306
   16.755    7.6777
   16.770    7.4566
   16.785    7.5303
   16.800    7.0037
   16.815    7.4987
   16.830    7.7725
   16.845    7.3723
   16.860    7.7936
   16.875    7.7093
   16.890    7.6777
   16.905    7.6988
   16.920    7.4039
   16.935    7.8462
   16.950    7.7936
   16.965    7.5092
   16.980    7.6883
   16.995    7.7409
   17.010    7.8041
   17.025    7.7725
   17.040    8.0147
   17.055    7.8041
   17.070    7.8357
   17.085    7.5092
   17.100    7.5619
   17.115    8.1095
   17.130    7.7093
   17.145    7.7830
   17.160    7.4987
   17.175    7.9516
   17.190    7.5092
   17.205    7.7620
   17.220    7.6040
   17.235    7.4882
   17.250    7.7514
   17.265    7.7199
   17.280    7.4987
   17.295    7.3723
   17.310    7.6988
   17.325    7.5197
   17.340    7.6777
   17.355    7.6777
   17.370    7.7830
   17.385    7.7830
   17.400    7.8778
   17.415    8.0885
   17.430    7.8146
   17.445    7.3302
   17.460    7.2459
   17.475    7.5829
   17.490    7.7093
   17.505    8.1938
   17.520    7.9831
   17.535    8.1201
   17.550    8.1727
   17.565    7.8989
   17.580    7.6883
   17.595    7.7199
   17.610    8.0358
   17.625    7.9621
   17.640    7.9726
   17.655    7.6777
   17.670    8.0253
   17.685    7.7936
   17.700    7.8568
   17.715    8.2043
   17.730    8.3518
   17.745    7.8568
   17.760    7.8673
   17.775    8.0358
   17.790    7.8884
   17.805    8.0147
   17.820    8.2675
   17.835    8.3834
   17.850    8.2359
   17.865    8.5097
   17.880    8.5097
   17.895    8.5835
   17.910    8.4466
   17.925    8.1833
   17.940    8.5308
   17.955    8.3939
   17.970    9.2048
   17.985    8.6361
   18.000    9.3207
   18.015    9.1417
   18.030    9.2891
   18.045    9.1627
   18.060    9.4997
   18.075    9.1311
   18.090    9.3839
   18.105    8.6572
   18.120    8.3728
   18.135    7.9516
   18.150    8.0674
   18.165    8.4676
   18.180    8.1833
   18.195    7.8252
   18.210    8.2886
   18.225    8.2254
   18.240    7.9410
   18.255    7.6883
   18.270    8.0674
   18.285    8.1201
   18.300    7.8462
   18.315    7.6567
   18.330    7.5513
   18.345    8.1411
   18.360    7.9516
   18.375    7.8673
   18.390    7.5197
   18.405    7.4039
   18.420    7.6777
   18.435    8.0253
   18.450    8.1727
   18.465    7.8462
   18.480    7.6883
   18.495    7.7725
   18.510    7.6988
   18.525    7.7093
   18.540    7.6461
   18.555    7.4671
   18.570    7.7093
   18.585    7.8673
   18.600    7.4566
   18.615    7.8041
   18.630    8.0042
   18.645    8.1306
   18.660    8.0253
   18.675    7.9305
   18.690    8.1411
   18.705    7.5935
   18.720    7.4566
   18.735    7.7936
   18.750    7.9410
   18.765    7.8989
   18.780    7.5724
   18.795    7.9410
   18.810    7.7199
   18.825    7.7093
   18.840    7.5829
   18.855    7.8778
   18.870    8.0042
   18.885    7.7830
   18.900    8.0885
   18.915    7.7936
   18.930    8.3834
   18.945    8.1201
   18.960    7.6988
   18.975    7.8041
   18.990    7.7199
   19.005    7.6145
   19.020    7.6251
   19.035    7.5513
   19.050    8.0569
   19.065    7.5935
   19.080    7.7725
   19.095    7.6356
   19.110    7.5619
   19.125    7.6461
   19.140    8.1095
   19.155    7.7830
   19.170    7.9410
   19.185    8.0253
   19.200    7.5935
   19.215    7.7620
   19.230    7.5829
   19.245    7.8989
   19.260    7.4460
   19.275    7.5303
   19.290    8.2043
   19.305    7.4671
   19.320    7.6251
   19.335    7.7093
   19.350    7.7830
   19.365    8.0569
   19.380    7.7304
   19.395    8.1938
   19.410    7.7514
   19.425    7.7304
   19.440    7.3723
   19.455    7.7936
   19.470    7.7620
   19.485    7.7620
   19.500    7.7725
   19.515    7.6356
   19.530    7.7725
   19.545    7.6672
   19.560    8.0147
   19.575    7.7725
   19.590    7.5408
   19.605    7.5513
   19.620    7.9305
   19.635    7.7514
   19.650    7.7830
   19.665    7.6777
   19.680    7.8462
   19.695    7.9621
   19.710    7.9621
   19.725    8.0463
   19.740    8.0042
   19.755    7.8357
   19.770    7.9516
   19.785    7.6567
   19.800    7.9621
   19.815    7.8146
   19.830    7.6356
   19.845    7.9200
   19.860    7.4566
   19.875    7.8989
   19.890    8.0253
   19.905    7.8252
   19.920    8.0147
   19.935    8.3412
   19.950    7.9831
   19.965    8.0042
   19.980    7.9726
   19.995    7.5513
   20.010    7.6145
   20.025    7.6251
   20.040    7.8252
   20.055    7.7409
   20.070    7.7409
   20.085    7.8884
   20.100    8.0147
   20.115    7.8673
   20.130    8.1727
   20.145    8.2254
   20.160    8.0042
   20.175    7.9831
   20.190    7.9516
   20.205    8.0674
   20.220    7.8568
   20.235    8.0358
   20.250    7.9094
   20.265    7.9305
   20.280    7.9831
   20.295    7.8884
   20.310    7.6356
   20.325    7.8462
   20.340    7.9937
   20.355    8.2570
   20.370    8.0358
   20.385    8.0885
   20.400    7.6777
   20.415    7.7620
   20.430    7.9305
   20.445    7.6040
   20.460    7.4144
   20.475    7.7936
   20.490    7.7830
   20.505    7.7725
   20.520    7.6883
   20.535    8.0358
   20.550    7.5303
   20.565    7.7620
   20.580    7.9831
   20.595    7.7093
   20.610    8.1306
   20.625    8.0569
   20.640    7.9831
   20.655    7.9831
   20.670    7.8041
   20.685    8.0674
   20.700    8.0674
   20.715    7.9305
   20.730    7.7936
   20.745    8.1095
   20.760    7.9831
   20.775    8.0674
   20.790    7.8989
   20.805    7.6040
   20.820    7.7093
   20.835    7.7514
   20.850    7.5829
   20.865    7.7620
   20.880    7.6567
   20.895    7.7830
   20.910    7.8884
   20.925    7.6672
   20.940    7.7409
   20.955    8.0990
   20.970    7.8357
   20.985    7.8146
   21.000    8.1306
   21.015    8.2570
   21.030    8.6256
   21.045    7.8673
   21.060    7.6672
   21.075    7.7409
   21.090    7.6040
   21.105    7.4987
   21.120    7.8989
   21.135    8.4044
   21.150    7.9831
   21.165    7.7620
   21.180    7.8146
   21.195    7.2249
   21.210    7.8989
   21.225    8.0674
   21.240    8.1938
   21.255    8.1622
   21.270    8.1938
   21.285    8.1095
   21.300    8.1727
   21.315    7.8884
   21.330    7.8146
   21.345    8.2991
   21.360    7.8989
   21.375    8.2991
   21.390    8.3412
   21.405    7.8673
   21.420    8.2149
   21.435    8.3202
   21.450    8.0042
   21.465    7.6567
   21.480    7.6988
   21.495    7.4882
   21.510    8.0463
   21.525    7.8041
   21.540    8.3202
   21.555    8.3623
   21.570    8.0463
   21.585    8.1517
   21.600    8.1306
   21.615    8.1938
   21.630    7.8884
   21.645    7.8778
   21.660    7.9831
   21.675    8.0463
   21.690    7.8041
   21.705    8.1622
   21.720    8.3412
   21.735    8.3096
   21.750    8.0147
   21.765    7.9621
   21.780    7.9200
   21.795    7.4566
   21.810    8.2675
   21.825    8.4150
   21.840    8.2675
   21.855    7.8357
   21.870    7.9726
   21.885    7.6777
   21.900    7.9516
   21.915    8.3939
   21.930    8.2570
   21.945    8.1095
   21.960    7.8884
   21.975    7.9831
   21.990    7.5829
   22.005    7.5724
   22.020    8.1306
   22.035    8.3096
   22.050    8.0990
   22.065    8.2780
   22.080    7.9937
   22.095    8.0042
   22.110    7.7199
   22.125    7.9305
   22.140    7.6883
   22.155    7.9621
   22.170    7.9410
   22.185    8.2359
   22.200    7.6251
   22.215    7.7620
   22.230    8.1095
   22.245    8.2254
   22.260    7.9094
   22.275    8.1306
   22.290    7.7830
   22.305    8.0779
   22.320    7.9726
   22.335    7.4671
   22.350    8.1095
   22.365    8.0674
   22.380    8.0990
   22.395    8.0042
   22.410    8.2464
   22.425    8.2675
   22.440    7.8357
   22.455    8.1095
   22.470    8.2254
   22.485    7.9621
   22.500    8.0463
   22.515    8.2991
   22.530    7.9410
   22.545    8.2254
   22.560    8.0147
   22.575    8.1201
   22.590    7.8673
   22.605    7.7620
   22.620    8.3939
   22.635    7.6777
   22.650    7.4250
   22.665    7.8673
   22.680    8.4255
   22.695    8.1517
   22.710    8.3939
   22.725    8.2359
   22.740    7.8673
   22.755    7.6461
   22.770    8.0885
   22.785    8.3202
   22.800    8.0885
   22.815    7.7830
   22.830    8.5519
   22.845    8.0674
   22.860    7.8989
   22.875    8.1095
   22.890    7.8568
   22.905    7.5408
   22.920    8.1095
   22.935    8.1727
   22.950    8.2149
   22.965    8.1306
   22.980    8.1938
   22.995    7.7409
   23.010    8.0463
   23.025    8.4676
   23.040    7.8673
   23.055    7.9094
   23.070    7.8568
   23.085    7.5303
   23.100    7.5408
   23.115    7.9937
   23.130    7.8568
   23.145    8.2254
   23.160    8.1938
   23.175    7.7304
   23.190    8.3939
   23.205    8.2359
   23.220    7.9410
   23.235    7.5935
   23.250    7.8146
   23.265    8.2464
   23.280    7.9516
   23.295    7.8568
   23.310    7.8989
   23.325    8.2780
   23.340    8.1727
   23.355    8.1095
   23.370    8.1306
   23.385    8.1938
   23.400    7.8673
   23.415    7.8357
   23.430    7.8884
   23.445    8.4781
   23.460    7.8884
   23.475    7.6672
   23.490    8.1833
   23.505    8.1833
   23.520    7.8778
   23.535    7.6672
   23.550    7.5724
   23.565    8.0885
   23.580    7.8462
   23.595    7.7620
   23.610    7.7936
   23.625    7.9937
   23.640    7.6145
   23.655    7.8462
   23.670    7.5829
   23.685    7.3618
   23.700    8.1306
   23.715    8.1411
   23.730    8.1727
   23.745    7.7725
   23.760    7.6040
   23.775    7.9516
   23.790    8.2254
   23.805    8.2149
   23.820    7.5935
   23.835    7.5092
   23.850    7.6567
   23.865    8.2464
   23.880    8.0885
   23.895    7.6040
   23.910    7.7830
   23.925    8.0147
   23.940    7.9621
   23.955    7.6672
   23.970    7.6988
   23.985    7.7936
   24.000    7.9516
   24.015    7.8146
   24.030    7.7514
   24.045    7.2354
   24.060    7.7093
   24.075    7.4671
   24.090    7.6672
   24.105    7.7514
   24.120    7.7725
   24.135    7.7409
   24.150    7.4882
   24.165    8.1306
   24.180    7.9410
   24.195    7.6567
   24.210    7.6988
   24.225    7.8673
   24.240    7.8146
   24.255    7.7620
   24.270    8.1201
   24.285    7.8778
   24.300    7.8568
   24.315    7.8357
   24.330    8.4044
   24.345    8.2359
   24.360    8.0674
   24.375    7.7093
   24.390    8.0147
   24.405    7.8989
   24.420    7.7620
   24.435    7.6672
   24.450    7.8252
   24.465    7.1090
   24.480    7.6883
   24.495    7.7936
   24.510    7.7304
   24.525    8.0885
   24.540    8.2359
   24.555    7.8989
   24.570    7.7830
   24.585    8.0042
   24.600    7.9831
   24.615    7.5092
   24.630    7.6040
   24.645    7.9516
   24.660    8.0147
   24.675    7.5197
   24.690    7.6040
   24.705    7.5092
   24.720    7.5303
   24.735    7.7199
   24.750    7.4355
   24.765    8.0779
   24.780    7.7936
   24.795    7.6356
   24.810    7.6777
   24.825    7.0248
   24.840    7.6461
   24.855    7.8462
   24.870    7.6567
   24.885    7.6356
   24.900    7.4882
   24.915    7.6461
   24.930    7.4566
   24.945    7.8989
   24.960    7.7936
   24.975    7.5513
   24.990    7.5829
   25.005    7.6567
   25.020    7.4250
   25.035    7.4671
   25.050    7.3091
   25.065    7.5303
   25.080    8.0358
   25.095    7.6251
   25.110    7.9726
   25.125    7.7093
   25.140    7.3828
   25.155    7.5408
   25.170    7.7409
   25.185    8.1411
   25.200    7.7304
   25.215    7.2249
   25.230    7.5619
   25.245    7.7830
   25.260    7.8041
   25.275    7.6461
   25.290    7.6461
   25.305    7.4039
   25.320    7.4355
   25.335    7.2038
   25.350    8.0147
   25.365    7.3407
   25.380    7.3196
   25.395    7.3196
   25.410    7.6988
   25.425    7.3723
   25.440    7.3723
   25.455    7.4250
   25.470    7.8252
   25.485    8.1095
   25.500    7.4460
   25.515    7.8357
   25.530    7.7936
   25.545    7.8884
   25.560    7.6567
   25.575    7.5092
   25.590    7.7093
   25.605    7.5303
   25.620    7.1406
   25.635    7.5619
   25.650    7.4039
   25.665    7.4776
   25.680    7.4039
   25.695    7.8252
   25.710    7.9516
   25.725    8.0147
   25.740    7.9305
   25.755    7.1827
   25.770    7.4144
   25.785    7.7830
   25.800    7.8146
   25.815    7.4250
   25.830    7.2565
   25.845    7.2670
   25.860    7.5092
   25.875    7.0985
   25.890    7.2249
   25.905    7.6356
   25.920    7.8673
   25.935    7.4776
   25.950    7.5829
   25.965    7.8041
   25.980    7.8673
   25.995    7.4144
   26.010    7.2986
   26.025    7.0142
   26.040    7.0563
   26.055    7.2143
   26.070    7.1406
   26.085    7.4039
   26.100    7.6040
   26.115    7.6040
   26.130    7.2459
   26.145    7.3828
   26.160    7.6883
   26.175    7.5197
   26.190    7.4039
   26.205    7.4355
   26.220    7.5724
   26.235    7.8462
   26.250    7.6040
   26.265    7.5935
   26.280    7.8252
   26.295    7.4566
   26.310    7.4776
   26.325    7.1406
   26.340    7.3407
   26.355    7.4355
   26.370    7.3302
   26.385    7.2670
   26.400    6.9194
   26.415    6.7615
   26.430    6.7193
   26.445    7.2459
   26.460    7.2249
   26.475    6.8562
   26.490    7.1933
   26.505    7.2459
   26.520    6.6245
   26.535    7.2459
   26.550    7.3934
   26.565    7.1301
   26.580    7.8462
   26.595    7.7093
   26.610    7.6883
   26.625    7.6567
   26.640    7.6040
   26.655    7.2354
   26.670    7.0248
   26.685    7.6040
   26.700    7.2354
   26.715    7.4039
   26.730    7.2565
   26.745    7.4144
   26.760    7.4250
   26.775    7.3512
   26.790    7.0985
   26.805    7.4776
   26.820    7.3934
   26.835    7.4460
   26.850    7.2565
   26.865    7.4882
   26.880    7.7620
   26.895    7.6461
   26.910    7.0248
   26.925    6.9721
   26.940    7.2670
   26.955    7.0248
   26.970    7.2459
   26.985    7.6040
   27.000    6.9194
   27.015    7.0563
   27.030    6.9300
   27.045    7.5303
   27.060    7.2143
   27.075    7.1406
   27.090    7.2459
   27.105    7.0985
   27.120    6.8352
   27.135    7.0458
   27.150    7.0037
   27.165    6.8246
   27.180    7.1933
   27.195    7.0142
   27.210    7.4776
   27.225    7.3512
   27.240    7.1301
   27.255    7.1933
   27.270    6.7930
   27.285    6.8141
   27.300    7.0458
   27.315    7.3618
   27.330    6.9826
   27.345    7.4987
   27.360    6.9510
   27.375    7.3512
   27.390    7.1617
   27.405    7.2459
   27.420    7.1090
   27.435    7.2670
   27.450    7.1722
   27.465    7.4776
   27.480    7.4776
   27.495    7.1090
   27.510    6.9721
   27.525    7.0353
   27.540    6.9510
   27.555    7.3091
   27.570    7.0037
   27.585    6.7930
   27.600    6.8141
   27.615    7.0353
   27.630    6.3823
   27.645    6.7404
   27.660    6.8984
   27.675    7.1617
   27.690    6.8984
   27.705    7.2354
   27.720    7.1195
   27.735    7.1195
   27.750    6.7930
   27.765    6.7825
   27.780    6.9089
   27.795    7.3512
   27.810    6.9721
   27.825    6.9826
   27.840    6.9089
   27.855    6.7088
   27.870    6.9300
   27.885    6.8773
   27.900    6.4771
   27.915    6.5613
   27.930    7.0248
   27.945    7.2880
   27.960    7.0774
   27.975    7.2143
   27.990    7.2670
   28.005    7.2038
   28.020    6.9405
   28.035    6.8773
   28.050    6.6456
   28.065    6.8352
   28.080    6.9405
   28.095    7.1722
   28.110    6.6772
   28.125    6.8457
   28.140    7.0458
   28.155    7.1090
   28.170    7.2459
   28.185    6.7825
   28.200    6.9300
   28.215    6.9932
   28.230    6.7404
   28.245    6.7615
   28.260    6.4455
   28.275    6.8878
   28.290    7.2880
   28.305    6.6245
   28.320    7.0774
   28.335    6.7825
   28.350    6.8036
   28.365    7.0037
   28.380    7.1722
   28.395    6.7193
   28.410    6.8036
   28.425    6.9616
   28.440    6.8773
   28.455    6.9089
   28.470    6.7193
   28.485    7.3618
   28.500    7.0563
   28.515    6.8352
   28.530    6.9510
   28.545    6.7299
   28.560    7.0142
   28.575    6.5192
   28.590    6.8773
   28.605    6.6772
   28.620    6.3928
   28.635    6.5298
   28.650    6.6772
   28.665    6.9826
   28.680    7.1195
   28.695    6.9194
   28.710    7.0563
   28.725    6.8352
   28.740    6.6456
   28.755    6.5403
   28.770    6.4034
   28.785    6.6877
   28.800    6.6351
   28.815    6.9616
   28.830    6.4350
   28.845    6.5929
   28.860    6.7615
   28.875    7.0669
   28.890    6.9510
   28.905    6.8036
   28.920    6.7509
   28.935    7.2143
   28.950    6.9510
   28.965    6.1822
   28.980    6.5719
   28.995    6.9616
   29.010    6.4876
   29.025    6.9089
   29.040    6.7193
   29.055    6.7930
   29.070    6.9089
   29.085    6.8773
   29.100    6.8352
   29.115    7.0458
   29.130    6.4771
   29.145    6.6877
   29.160    6.6772
   29.175    6.8141
   29.190    6.4139
   29.205    6.3612
   29.220    6.6456
   29.235    6.3191
   29.250    6.5192
   29.265    6.7720
   29.280    6.8457
   29.295    6.5719
   29.310    6.7088
   29.325    6.3928
   29.340    6.8036
   29.355    6.6035
   29.370    6.6245
   29.385    6.7299
   29.400    6.4244
   29.415    6.6456
   29.430    6.7088
   29.445    6.8668
   29.460    6.6245
   29.475    6.7299
   29.490    6.6245
   29.505    6.6351
   29.520    6.4876
   29.535    6.7193
   29.550    6.6667
   29.565    6.6351
   29.580    6.6140
   29.595    6.5192
   29.610    6.8668
   29.625    6.6140
   29.640    6.5719
   29.655    6.3718
   29.670    6.6667
   29.685    6.7299
   29.700    6.7825
   29.715    6.5719
   29.730    6.6877
   29.745    6.8773
   29.760    6.7404
   29.775    6.6667
   29.790    6.7930
   29.805    6.3928
   29.820    6.4876
   29.835    6.4771
   29.850    6.7720
   29.865    7.1301
   29.880    6.6667
   29.895    6.6983
   29.910    6.8984
   29.925    6.7825
   29.940    6.4771
   29.955    6.6456
   29.970    6.4034
   29.985    6.6561
   30.000    6.7299
   30.015    6.3718
   30.030    6.8036
   30.045    6.1717
   30.060    6.5613
   30.075    6.7720
   30.090    6.8984
   30.105    6.7720
   30.120    6.7088
   30.135    6.5719
   30.150    6.5192
   30.165    6.6877
   30.180    6.4350
   30.195    6.4139
   30.210    6.6667
   30.225    6.8246
   30.240    6.7299
   30.255    6.8141
   30.270    6.5508
   30.285    7.0774
   30.300    6.4771
   30.315    6.4771
   30.330    6.1085
   30.345    6.2138
   30.360    6.3296
   30.375    6.4560
   30.390    6.8246
   30.405    6.7404
   30.420    6.5403
   30.435    6.8878
   30.450    6.8878
   30.465    6.9300
   30.480    6.4350
   30.495    6.4771
   30.510    6.4666
   30.525    6.6245
   30.540    6.4139
   30.555    6.0664
   30.570    6.5613
   30.585    6.4666
   30.600    6.6140
   30.615    6.4034
   30.630    6.4982
   30.645    6.4771
   30.660    6.3928
   30.675    6.8562
   30.690    6.8352
   30.705    6.7720
   30.720    6.3086
   30.735    5.9084
   30.750    6.3928
   30.765    6.6456
   30.780    6.2243
   30.795    5.9189
   30.810    6.2033
   30.825    5.9926
   30.840    6.3718
   30.855    6.2243
   30.870    6.4034
   30.885    6.0348
   30.900    6.2033
   30.915    6.2454
   30.930    6.3928
   30.945    6.0769
   30.960    6.2559
   30.975    6.3191
   30.990    6.4560
   31.005    6.0769
   31.020    6.1401
   31.035    6.2875
   31.050    6.2349
   31.065    6.2559
   31.080    6.4666
   31.095    6.2665
   31.110    6.3296
   31.125    6.8036
   31.140    6.8984
   31.155    6.9405
   31.170    6.4139
   31.185    6.4350
   31.200    6.3507
   31.215    6.1822
   31.230    6.6877
   31.245    6.5403
   31.260    6.3928
   31.275    6.5087
   31.290    6.3086
   31.305    6.0558
   31.320    6.2665
   31.335    6.2243
   31.350    6.2559
   31.365    6.4666
   31.380    6.3928
   31.395    6.2559
   31.410    6.1190
   31.425    6.2770
   31.440    6.3296
   31.455    6.2349
   31.470    6.1927
   31.485    6.0032
   31.500    6.7088
   31.515    6.0137
   31.530    6.2665
   31.545    6.3612
   31.560    6.2875
   31.575    6.1927
   31.590    6.4666
   31.605    6.6140
   31.620    6.6351
   31.635    6.5192
   31.650    6.0769
   31.665    6.3191
   31.680    6.2349
   31.695    6.1717
   31.710    6.1611
   31.725    6.4455
   31.740    6.2454
   31.755    6.0979
   31.770    6.3507
   31.785    6.0137
   31.800    6.1506
   31.815    6.0242
   31.830    5.7925
   31.845    5.7399
   31.860    6.0874
   31.875    6.3612
   31.890    6.4560
   31.905    5.9926
   31.920    6.2138
   31.935    6.2454
   31.950    6.1717
   31.965    6.1401
   31.980    6.0979
   31.995    6.4034
   32.010    6.1295
   32.025    6.2243
   32.040    6.3718
   32.055    6.3191
   32.070    6.2349
   32.085    6.0242
   32.100    6.2454
   32.115    6.2033
   32.130    6.0242
   32.145    6.0137
   32.160    6.0979
   32.175    6.3191
   32.190    6.0348
   32.205    5.8136
   32.220    6.1717
   32.235    5.8978
   32.250    6.2770
   32.265    6.0979
   32.280    6.1295
   32.295    6.1295
   32.310    6.2981
   32.325    6.4982
   32.340    5.9084
   32.355    5.9716
   32.370    6.2665
   32.385    6.2665
   32.400    6.1927
   32.415    6.1085
   32.430    6.1295
   32.445    5.9716
   32.460    6.1611
   32.475    6.0664
   32.490    6.6245
   32.505    6.5087
   32.520    6.0769
   32.535    5.8136
   32.550    5.9926
   32.565    6.2349
   32.580    5.9610
   32.595    6.3507
   32.610    5.9926
   32.625    6.0874
   32.640    5.5608
   32.655    6.0032
   32.670    5.6135
   32.685    6.2243
   32.700    6.0242
   32.715    6.2665
   32.730    6.0769
   32.745    5.8768
   32.760    6.2770
   32.775    6.2875
   32.790    5.8452
   32.805    5.9294
   32.820    5.6345
   32.835    6.0558
   32.850    5.9189
   32.865    5.7504
   32.880    5.8662
   32.895    5.9084
   32.910    6.1190
   32.925    6.6245
   32.940    5.8978
   32.955    5.6872
   32.970    5.9610
   32.985    5.7820
   33.000    5.9400
   33.015    6.3507
   33.030    6.0769
   33.045    6.0137
   33.060    5.9189
   33.075    6.1295
   33.090    6.0874
   33.105    6.0453
   33.120    5.6661
   33.135    5.9610
   33.150    5.8452
   33.165    6.0242
   33.180    5.8873
   33.195    6.0348
   33.210    5.7820
   33.225    6.6140
   33.240    5.9189
   33.255    5.9716
   33.270    6.0137
   33.285    5.9821
   33.300    5.8347
   33.315    6.0769
   33.330    5.8768
   33.345    5.9716
   33.360    5.8136
   33.375    6.0242
   33.390    5.7820
   33.405    5.6135
   33.420    6.0453
   33.435    5.8452
   33.450    6.0874
   33.465    5.6240
   33.480    5.6345
   33.495    5.8347
   33.510    5.7820
   33.525    5.8557
   33.540    5.9926
   33.555    6.2559
   33.570    6.1085
   33.585    5.8978
   33.600    5.9400
   33.615    5.9505
   33.630    5.7188
   33.645    6.0242
   33.660    5.7715
   33.675    5.5398
   33.690    6.0242
   33.705    6.1611
   33.720    5.9610
   33.735    5.8452
   33.750    5.7715
   33.765    6.0664
   33.780    6.3086
   33.795    6.1927
   33.810    6.0032
   33.825    6.0348
   33.840    5.6135
   33.855    5.6556
   33.870    6.0664
   33.885    6.0137
   33.900    5.7820
   33.915    5.8662
   33.930    5.6451
   33.945    5.5714
   33.960    5.8241
   33.975    5.7715
   33.990    5.4766
   34.005    5.5187
   34.020    5.7399
   34.035    5.8452
   34.050    6.1295
   34.065    6.1295
   34.080    6.1927
   34.095    6.2770
   34.110    5.6661
   34.125    5.8136
   34.140    5.9505
   34.155    5.9084
   34.170    6.0558
   34.185    5.5924
   34.200    5.6556
   34.215    5.8557
   34.230    5.6345
   34.245    5.6556
   34.260    5.7504
   34.275    5.7504
   34.290    5.5714
   34.305    5.7083
   34.320    5.4976
   34.335    5.9084
   34.350    5.8031
   34.365    5.8873
   34.380    5.7293
   34.395    5.6556
   34.410    5.7399
   34.425    5.4976
   34.440    5.7925
   34.455    5.7083
   34.470    5.3818
   34.485    5.8241
   34.500    5.4660
   34.515    5.5503
   34.530    5.6556
   34.545    5.9294
   34.560    5.7504
   34.575    5.8241
   34.590    5.8136
   34.605    5.7609
   34.620    5.5924
   34.635    5.8241
   34.650    5.8347
   34.665    5.7399
   34.680    5.6661
   34.695    5.8241
   34.710    5.6029
   34.725    5.6240
   34.740    5.7715
   34.755    5.5398
   34.770    5.6029
   34.785    5.5714
   34.800    5.6345
   34.815    5.7083
   34.830    5.5292
   34.845    5.8873
   34.860    5.9084
   34.875    5.3712
   34.890    5.3397
   34.905    5.6977
   34.920    5.4344
   34.935    5.5608
   34.950    5.6135
   34.965    5.6977
   34.980    6.0874
   34.995    5.8136
   35.010    5.5082
   35.025    5.6345
   35.040    5.3397
   35.055    5.1395
   35.070    5.3186
   35.085    5.4028
   35.100    5.1606
   35.115    5.5503
   35.130    6.0137
   35.145    5.6556
   35.160    5.6029
   35.175    5.6029
   35.190    5.6029
   35.205    5.8241
   35.220    5.4871
   35.235    5.2343
   35.250    5.7293
   35.265    5.7399
   35.280    5.8241
   35.295    5.8768
   35.310    5.5924
   35.325    5.5608
   35.340    5.7715
   35.355    5.9084
   35.370    5.5924
   35.385    5.5292
   35.400    5.7399
   35.415    5.5082
   35.430    5.6661
   35.445    5.9294
   35.460    5.6767
   35.475    5.7609
   35.490    5.5714
   35.505    5.5398
   35.520    5.6661
   35.535    5.6029
   35.550    5.3397
   35.565    5.4450
   35.580    5.3291
   35.595    5.5819
   35.610    5.5819
   35.625    5.3712
   35.640    5.3502
   35.655    5.6872
   35.670    5.4871
   35.685    5.4028
   35.700    5.5187
   35.715    5.6767
   35.730    5.9926
   35.745    5.5714
   35.760    5.7715
   35.775    5.6135
   35.790    5.4766
   35.805    5.6661
   35.820    5.8662
   35.835    5.8662
   35.850    6.0348
   35.865    5.6661
   35.880    5.5292
   35.895    5.3607
   35.910    5.7504
   35.925    5.7399
   35.940    5.7925
   35.955    5.7188
   35.970    5.6977
   35.985    6.1401
   36.000    5.6556
   36.015    5.0553
   36.030    5.3818
   36.045    5.5292
   36.060    5.3607
   36.075    5.6345
   36.090    5.7083
   36.105    5.4450
   36.120    5.3712
   36.135    5.4660
   36.150    5.6977
   36.165    5.2765
   36.180    5.3291
   36.195    5.4555
   36.210    5.7504
   36.225    5.8031
   36.240    5.2870
   36.255    5.1606
   36.270    5.3502
   36.285    5.6556
   36.300    5.4450
   36.315    5.1922
   36.330    5.3923
   36.345    5.8347
   36.360    5.7504
   36.375    5.4028
   36.390    5.3712
   36.405    5.8347
   36.420    5.7293
   36.435    5.8136
   36.450    5.6240
   36.465    5.5503
   36.480    5.4134
   36.495    5.7715
   36.510    5.6767
   36.525    5.7188
   36.540    5.6451
   36.555    5.4766
   36.570    5.4976
   36.585    5.6451
   36.600    5.4660
   36.615    5.5608
   36.630    5.0974
   36.645    5.3712
   36.660    5.3186
   36.675    5.3291
   36.690    5.2765
   36.705    5.8557
   36.720    5.8241
   36.735    5.3397
   36.750    5.2133
   36.765    5.4976
   36.780    5.4871
   36.795    5.5924
   36.810    5.5187
   36.825    5.5819
   36.840    5.3081
   36.855    5.1080
   36.870    5.5819
   36.885    5.6767
   36.900    5.4344
   36.915    5.2870
   36.930    5.2449
   36.945    5.3186
   36.960    5.6556
   36.975    5.4555
   36.990    5.5819
   37.005    5.6135
   37.020    5.1711
   37.035    5.5187
   37.050    5.6135
   37.065    5.4450
   37.080    5.2027
   37.095    5.1395
   37.110    5.5398
   37.125    5.4344
   37.140    4.9921
   37.155    5.3607
   37.170    5.5819
   37.185    5.4555
   37.200    5.4450
   37.215    5.3186
   37.230    5.1606
   37.245    5.1817
   37.260    5.3397
   37.275    5.0974
   37.290    5.5398
   37.305    5.6556
   37.320    5.7399
   37.335    5.4871
   37.350    5.7083
   37.365    5.0237
   37.380    5.6345
   37.395    5.9610
   37.410    5.7293
   37.425    5.5292
   37.440    5.4871
   37.455    5.2343
   37.470    5.3081
   37.485    5.4344
   37.500    5.4239
   37.515    5.6240
   37.530    5.7293
   37.545    5.6872
   37.560    5.2765
   37.575    5.1395
   37.590    5.1606
   37.605    5.3923
   37.620    5.2343
   37.635    5.1501
   37.650    5.5292
   37.665    5.2449
   37.680    5.5398
   37.695    5.5924
   37.710    5.0342
   37.725    5.6029
   37.740    5.4660
   37.755    5.7820
   37.770    5.1290
   37.785    5.3712
   37.800    5.6029
   37.815    5.3502
   37.830    5.2659
   37.845    5.5503
   37.860    5.7188
   37.875    5.5187
   37.890    5.6872
   37.905    5.5714
   37.920    5.6029
   37.935    5.7715
   37.950    5.6977
   37.965    5.5187
   37.980    5.3923
   37.995    5.4028
   38.010    5.6240
   38.025    5.8873
   38.040    5.4134
   38.055    5.2133
   38.070    5.5503
   38.085    5.2449
   38.100    5.1395
   38.115    5.1606
   38.130    5.6029
   38.145    5.1185
   38.160    5.5608
   38.175    5.2554
   38.190    5.4134
   38.205    5.4660
   38.220    5.2449
   38.235    5.3081
   38.250    5.4134
   38.265    5.3923
   38.280    5.1711
   38.295    5.6135
   38.310    5.6345
   38.325    5.4344
   38.340    5.5714
   38.355    5.3818
   38.370    5.2027
   38.385    5.2765
   38.400    5.4450
   38.415    5.7820
   38.430    5.1606
   38.445    5.3923
   38.460    5.3186
   38.475    5.3291
   38.490    5.2238
   38.505    5.1817
   38.520    5.0237
   38.535    5.0658
   38.550    5.3186
   38.565    5.7083
   38.580    5.5608
   38.595    5.4239
   38.610    5.3397
   38.625    5.3712
   38.640    5.3081
   38.655    5.1290
   38.670    5.8978
   38.685    5.4976
   38.700    4.8657
   38.715    5.5608
   38.730    5.4344
   38.745    5.2765
   38.760    5.5398
   38.775    5.3186
   38.790    5.5187
   38.805    5.4450
   38.820    5.2133
   38.835    5.3081
   38.850    5.4450
   38.865    5.2343
   38.880    5.1922
   38.895    5.3607
   38.910    5.4134
   38.925    5.7399
   38.940    5.0026
   38.955    5.1817
   38.970    5.1922
   38.985    5.1922
   39.000    5.1501
   39.015    5.4766
   39.030    5.1606
   39.045    5.3607
   39.060    5.5292
   39.075    5.3712
   39.090    5.3502
   39.105    5.3502
   39.120    5.1395
   39.135    5.0342
   39.150    5.0869
   39.165    5.2449
   39.180    5.5292
   39.195    5.3186
   39.210    5.2449
   39.225    5.2870
   39.240    5.4660
   39.255    5.4555
   39.270    5.1817
   39.285    5.4239
   39.300    5.6556
   39.315    5.2343
   39.330    5.6872
   39.345    5.7293
   39.360    5.2554
   39.375    5.3186
   39.390    5.0869
   39.405    5.1080
   39.420    5.2133
   39.435    5.2975
   39.450    5.1711
   39.465    5.1606
   39.480    5.1711
   39.495    5.3923
   39.510    5.1185
   39.525    5.2765
   39.540    5.7083
   39.555    5.4344
   39.570    5.2659
   39.585    5.2870
   39.600    5.0764
   39.615    5.6240
   39.630    5.4239
   39.645    5.1290
   39.660    5.3712
   39.675    5.6556
   39.690    4.9078
   39.705    4.8868
   39.720    5.3291
   39.735    5.0658
   39.750    5.6135
   39.765    5.2238
   39.780    5.2343
   39.795    5.2554
   39.810    5.3186
   39.825    5.6029
   39.840    4.9394
   39.855    5.1606
   39.870    5.0869
   39.885    4.9816
   39.900    5.2765
   39.915    5.2449
   39.930    5.2449
   39.945    5.2343
   39.960    5.4239
   39.975    5.3397
   39.990    5.2027
