    1.500   15.8083
    1.515   15.1764
    1.530   16.4402
    1.545   16.9247
    1.560   16.8088
    1.575   16.9247
    1.590   16.8826
    1.605   16.8615
    1.620   16.2928
    1.635   15.5872
    1.650   15.9874
    1.665   15.1553
    1.680   15.5766
    1.695   15.8820
    1.710   15.4292
    1.725   14.8920
    1.740   15.3976
    1.755   15.4924
    1.770   15.2185
    1.785   14.9974
    1.800   14.4076
    1.815   14.8815
    1.830   14.3760
    1.845   13.9968
    1.860   13.7967
    1.875   14.2601
    1.890   14.3444
    1.905   14.6709
    1.920   14.3128
    1.935   13.5545
    1.950   14.2917
    1.965   14.7446
    1.980   13.7757
    1.995   14.1864
    2.010   13.4597
    2.025   13.7546
    2.040   13.7019
    2.055   13.5545
    2.070   13.4702
    2.085   13.3228
    2.100   13.2280
    2.115   12.8594
    2.130   12.9331
    2.145   12.7646
    2.160   13.0174
    2.175   13.0174
    2.190   13.1964
    2.205   12.9226
    2.220   12.9121
    2.235   12.7962
    2.250   12.7857
    2.265   12.4171
    2.280   12.2380
    2.295   13.0490
    2.310   13.1859
    2.325   13.3333
    2.340   13.4808
    2.355   13.1754
    2.370   12.7751
    2.385   12.5224
    2.400   12.8594
    2.415   12.8699
    2.430   12.8173
    2.445   12.4592
    2.460   12.6909
    2.475   12.9015
    2.490   12.4697
    2.505   12.7330
    2.520   12.8278
    2.535   12.7541
    2.550   12.5645
    2.565   12.4697
    2.580   13.0490
    2.595   13.0174
    2.610   13.2701
    2.625   12.8594
    2.640   13.1438
    2.655   13.1438
    2.670   12.6066
    2.685   13.3333
    2.700   13.5756
    2.715   13.8494
    2.730   13.3755
    2.745   13.3228
    2.760   13.5861
    2.775   13.4387
    2.790   13.5756
    2.805   13.8810
    2.820   14.1127
    2.835   13.9758
    2.850   13.5966
    2.865   14.7551
    2.880   14.7657
    2.895   14.6814
    2.910   14.3865
    2.925   14.4708
    2.940   14.7446
    2.955   14.9868
    2.970   15.1975
    2.985   15.4081
    3.000   15.7557
    3.015   14.8078
    3.030   15.6609
    3.045   15.6925
    3.060   16.2612
    3.075   16.4192
    3.090   16.2296
    3.105   17.0827
    3.120   17.4829
    3.135   18.3886
    3.150   18.4939
    3.165   18.8836
    3.180   18.8099
    3.195   19.2944
    3.210   19.8631
    3.225   20.4739
    3.240   20.2212
    3.255   20.9268
    3.270   21.8009
    3.285   21.0848
    3.300   22.5276
    3.315   22.8015
    3.330   23.0964
    3.345   24.3391
    3.360   24.5498
    3.375   25.2133
    3.390   26.2665
    3.405   27.4776
    3.420   27.4566
    3.435   28.7625
    3.450   29.8999
    3.465   30.7846
    3.480   31.5535
    3.495   32.9647
    3.510   32.8805
    3.525   34.6814
    3.540   35.9768
    3.555   37.2723
    3.570   38.7256
    3.585   39.6419
    3.600   40.4529
    3.615   42.2749
    3.630   44.3707
    3.645   45.5187
    3.660   48.0885
    3.675   51.9115
    3.690   55.9136
    3.705   58.3360
    3.720   60.8847
    3.735   64.4445
    3.750   68.9205
    3.765   73.4492
    3.780   81.6956
    3.795   89.5945
    3.810   98.7994
    3.825  109.9842
    3.840  126.2138
    3.855  140.0105
    3.870  146.9405
    3.885  145.5714
    3.900  132.5750
    3.915  105.9610
    3.930   71.9958
    3.945   43.4018
    3.960   27.5408
    3.975   20.0843
    3.990   16.0821
    4.005   14.0390
    4.020   12.9226
    4.035   12.4487
    4.050   11.2480
    4.065   10.8162
    4.080   10.2370
    4.095   10.0158
    4.110    9.1732
    4.125    9.6682
    4.140    9.3312
    4.155    8.7625
    4.170    8.7520
    4.185    8.7309
    4.200    8.6572
    4.215    8.3096
    4.230    8.4466
    4.245    7.8989
    4.260    7.8462
    4.275    7.9200
    4.290    7.7725
    4.305    7.4671
    4.320    7.7936
    4.335    7.3302
    4.350    7.4039
    4.365    7.5829
    4.380    7.4671
    4.395    7.4882
    4.410    7.7936
    4.425    7.4460
    4.440    7.6145
    4.455    7.7093
    4.470    7.5408
    4.485    7.9200
    4.500    7.7936
    4.515    7.1301
    4.530    7.4460
    4.545    7.5935
    4.560    7.5408
    4.575    7.3723
    4.590    7.5197
    4.605    7.4882
    4.620    7.5829
    4.635    7.3302
    4.650    7.8357
    4.665    7.5935
    4.680    7.8568
    4.695    7.5303
    4.710    7.5092
    4.725    7.8041
    4.740    7.5303
    4.755    8.0253
    4.770    7.6040
    4.785    7.3723
    4.800    7.4671
    4.815    7.4776
    4.830    7.7936
    4.845    7.8989
    4.860    8.1306
    4.875    8.0885
    4.890    8.3096
    4.905    8.3412
    4.920    8.3518
    4.935    8.4044
    4.950    8.0569
    4.965    8.6256
    4.980    8.6467
    4.995    8.6151
    5.010    9.0153
    5.025    8.9731
    5.040    8.9837
    5.055    8.9310
    5.070    9.3839
    5.085    9.2996
    5.100    9.8368
    5.115    9.8368
    5.130    9.9421
    5.145    9.8999
    5.160   10.1632
    5.175   10.8162
    5.190   11.0900
    5.205   11.3744
    5.220   11.8905
    5.235   11.8273
    5.250   11.9115
    5.265   12.6488
    5.280   12.7857
    5.295   13.5440
    5.310   14.2917
    5.325   14.9342
    5.340   15.7241
    5.355   16.2717
    5.370   17.4092
    5.385   18.7888
    5.400   18.8942
    5.415   20.4845
    5.430   23.0226
    5.445   25.1395
    5.460   27.5197
    5.475   30.4055
    5.490   32.1327
    5.505   32.3223
    5.520   29.7946
    5.535   25.5714
    5.550   19.2628
    5.565   14.0811
    5.580   10.4581
    5.595    8.9626
    5.610    8.5413
    5.625    8.0042
    5.640    7.3723
    5.655    7.1933
    5.670    7.1511
    5.685    6.6140
    5.700    6.8246
    5.715    6.8668
    5.730    6.7404
    5.745    6.4139
    5.760    6.4876
    5.775    6.4034
    5.790    6.5403
    5.805    6.3296
    5.820    6.6772
    5.835    6.2875
    5.850    6.5719
    5.865    6.6772
    5.880    6.3928
    5.895    6.2875
    5.910    6.3718
    5.925    6.2981
    5.940    6.5087
    5.955    6.4034
    5.970    6.2033
    5.985    6.2033
    6.000    6.1611
    6.015    6.2875
    6.030    6.4244
    6.045    6.4034
    6.060    6.7193
    6.075    6.2138
    6.090    6.5824
    6.105    6.5403
    6.120    6.1717
    6.135    6.6035
    6.150    6.2559
    6.165    6.4982
    6.180    6.1822
    6.195    6.5824
    6.210    6.3718
    6.225    6.5719
    6.240    6.0558
    6.255    6.4455
    6.270    6.2454
    6.285    6.6351
    6.300    7.1301
    6.315    6.6456
    6.330    7.0142
    6.345    6.5613
    6.360    6.3402
    6.375    6.6983
    6.390    7.0669
    6.405    6.7720
    6.420    6.7825
    6.435    6.6983
    6.450    6.8457
    6.465    6.6140
    6.480    6.9194
    6.495    7.0353
    6.510    6.7720
    6.525    7.0563
    6.540    7.5724
    6.555    7.1195
    6.570    7.3618
    6.585    7.5513
    6.600    7.7514
    6.615    7.8989
    6.630    7.9305
    6.645    7.9726
    6.660    8.1201
    6.675    9.2575
    6.690    9.1101
    6.705   10.1422
    6.720   10.5213
    6.735   10.8268
    6.750   10.8268
    6.765   10.7214
    6.780    9.9105
    6.795    8.8257
    6.810    8.2570
    6.825    6.7825
    6.840    6.7509
    6.855    6.5087
    6.870    6.5403
    6.885    6.5192
    6.900    6.6035
    6.915    6.4034
    6.930    6.4034
    6.945    6.9089
    6.960    6.5403
    6.975    6.2875
    6.990    6.5087
    7.005    6.7930
    7.020    6.5824
    7.035    6.0242
    7.050    6.1506
    7.065    6.0242
    7.080    6.4350
    7.095    6.4876
    7.110    6.1295
    7.125    6.3612
    7.140    6.5508
    7.155    6.2875
    7.170    6.6983
    7.185    6.0769
    7.200    6.0348
    7.215    6.1822
    7.230    6.3612
    7.245    6.6351
    7.260    6.2770
    7.275    6.5508
    7.290    6.5613
    7.305    6.1927
    7.320    6.1295
    7.335    6.7404
    7.350    6.3507
    7.365    6.5403
    7.380    6.9405
    7.395    7.1090
    7.410    6.6140
    7.425    6.8352
    7.440    6.5508
    7.455    6.3928
    7.470    6.8141
    7.485    6.5824
    7.500    7.0248
    7.515    6.8773
    7.530    7.2775
    7.545    7.2986
    7.560    7.4250
    7.575    7.6356
    7.590    7.5724
    7.605    7.9621
    7.620    7.9305
    7.635    7.3407
    7.650    8.0253
    7.665    8.7414
    7.680    8.4466
    7.695    8.6256
    7.710    9.6367
    7.725    9.9526
    7.740   10.8162
    7.755   11.2796
    7.770   11.6272
    7.785   12.5224
    7.800   12.7962
    7.815   12.3644
    7.830   11.4060
    7.845   10.0579
    7.860    8.6151
    7.875    7.5092
    7.890    6.8036
    7.905    6.2665
    7.920    6.3612
    7.935    6.8352
    7.950    6.6456
    7.965    6.1295
    7.980    6.1611
    7.995    6.7930
    8.010    6.3612
    8.025    6.0874
    8.040    6.4771
    8.055    6.3823
    8.070    6.2349
    8.085    6.3402
    8.100    6.2981
    8.115    5.9610
    8.130    6.1822
    8.145    5.8978
    8.160    6.3718
    8.175    6.2033
    8.190    6.3823
    8.205    6.3402
    8.220    6.1717
    8.235    6.2138
    8.250    6.4876
    8.265    6.4455
    8.280    5.9610
    8.295    5.9716
    8.310    5.9821
    8.325    5.8452
    8.340    5.9716
    8.355    6.2559
    8.370    6.1717
    8.385    6.3507
    8.400    6.2243
    8.415    6.1295
    8.430    6.4139
    8.445    6.1295
    8.460    6.3718
    8.475    6.7193
    8.490    6.3402
    8.505    6.4666
    8.520    6.6772
    8.535    6.2559
    8.550    6.5298
    8.565    6.6667
    8.580    6.1295
    8.595    6.4350
    8.610    6.5929
    8.625    6.5719
    8.640    6.3402
    8.655    6.5403
    8.670    6.5824
    8.685    6.8984
    8.700    7.2354
    8.715    7.0458
    8.730    6.9932
    8.745    6.4771
    8.760    6.5192
    8.775    6.6667
    8.790    6.5613
    8.805    6.2875
    8.820    6.1295
    8.835    6.3296
    8.850    6.3191
    8.865    6.2559
    8.880    6.2665
    8.895    6.4139
    8.910    6.6456
    8.925    6.3296
    8.940    6.4350
    8.955    6.2770
    8.970    6.1927
    8.985    6.2875
    9.000    6.2875
    9.015    6.7825
    9.030    6.4350
    9.045    6.4771
    9.060    6.4560
    9.075    6.2981
    9.090    6.4560
    9.105    6.6561
    9.120    6.4455
    9.135    6.7193
    9.150    6.8246
    9.165    6.6035
    9.180    6.8036
    9.195    7.1617
    9.210    7.3091
    9.225    7.0037
    9.240    7.1195
    9.255    7.4987
    9.270    7.4355
    9.285    7.5092
    9.300    7.6145
    9.315    7.7936
    9.330    8.3939
    9.345    8.1938
    9.360    8.0990
    9.375    9.3102
    9.390    9.7104
    9.405    8.9626
    9.420    9.6472
    9.435   10.3002
    9.450   10.8899
    9.465   11.6904
    9.480   12.3539
    9.495   13.9337
    9.510   15.1764
    9.525   15.7978
    9.540   16.7667
    9.555   18.6730
    9.570   18.1569
    9.585   17.3038
    9.600   14.7341
    9.615   12.4381
    9.630   10.4687
    9.645    8.6993
    9.660    7.8252
    9.675    7.5303
    9.690    7.1511
    9.705    6.8457
    9.720    6.5719
    9.735    6.7299
    9.750    6.5508
    9.765    6.6456
    9.780    6.8246
    9.795    6.7193
    9.810    6.4666
    9.825    6.3718
    9.840    6.4560
    9.855    6.5613
    9.870    5.8768
    9.885    6.3718
    9.900    6.0979
    9.915    6.4455
    9.930    6.7299
    9.945    6.4244
    9.960    6.4666
    9.975    6.2454
    9.990    6.5403
   10.005    6.8457
   10.020    7.0563
   10.035    6.4560
   10.050    6.6561
   10.065    6.6983
   10.080    6.8984
   10.095    6.7615
   10.110    6.6983
   10.125    7.0985
   10.140    7.3407
   10.155    7.2143
   10.170    7.0563
   10.185    7.4039
   10.200    7.5197
   10.215    7.6251
   10.230    7.9726
   10.245    8.4150
   10.260    8.5729
   10.275    8.8257
   10.290    9.5103
   10.305   10.0790
   10.320   10.2370
   10.335   10.3212
   10.350   10.2791
   10.365    9.6893
   10.380    9.0679
   10.395    7.7304
   10.410    7.3828
   10.425    6.8457
   10.440    6.7615
   10.455    6.2559
   10.470    6.2454
   10.485    6.2770
   10.500    6.4982
   10.515    6.2243
   10.530    6.4876
   10.545    6.3612
   10.560    6.3928
   10.575    6.2138
   10.590    6.0769
   10.605    6.2770
   10.620    6.2875
   10.635    6.1822
   10.650    6.1085
   10.665    6.0453
   10.680    6.6245
   10.695    6.2875
   10.710    6.1822
   10.725    6.2349
   10.740    6.4455
   10.755    6.2349
   10.770    6.3718
   10.785    6.4350
   10.800    6.6035
   10.815    6.6877
   10.830    6.6561
   10.845    6.7299
   10.860    6.5613
   10.875    6.7825
   10.890    7.1511
   10.905    6.8562
   10.920    6.8141
   10.935    7.4250
   10.950    7.5619
   10.965    7.8673
   10.980    8.4360
   10.995    8.1411
   11.010    8.4887
   11.025    9.2891
   11.040    9.4787
   11.055    9.8157
   11.070    9.3523
   11.085    8.9731
   11.100    8.0147
   11.115    7.9200
   11.130    7.1301
   11.145    6.4455
   11.160    6.5298
   11.175    6.6245
   11.190    6.4139
   11.205    6.3718
   11.220    6.3718
   11.235    6.2875
   11.250    5.9294
   11.265    6.0242
   11.280    6.0348
   11.295    5.9610
   11.310    5.7820
   11.325    5.8241
   11.340    6.1611
   11.355    6.3086
   11.370    5.7504
   11.385    5.9610
   11.400    6.3507
   11.415    6.3191
   11.430    6.3718
   11.445    6.4560
   11.460    6.6035
   11.475    6.1190
   11.490    6.0137
   11.505    6.0032
   11.520    6.3086
   11.535    6.4982
   11.550    7.0458
   11.565    7.3934
   11.580    7.0037
   11.595    6.8668
   11.610    7.4039
   11.625    8.0674
   11.640    7.4144
   11.655    7.8778
   11.670    8.0779
   11.685    8.8152
   11.700    9.2996
   11.715    9.6261
   11.730    9.0469
   11.745    9.6261
   11.760    9.1943
   11.775    8.1517
   11.790    7.2670
   11.805    7.1827
   11.820    6.7193
   11.835    6.1822
   11.850    6.1927
   11.865    6.3402
   11.880    6.6456
   11.895    6.2770
   11.910    6.0874
   11.925    5.9294
   11.940    5.7609
   11.955    5.6240
   11.970    5.9610
   11.985    6.0979
   12.000    6.0453
   12.015    5.7609
   12.030    6.0558
   12.045    6.0348
   12.060    5.9400
   12.075    5.8662
   12.090    5.9294
   12.105    5.3291
   12.120    5.6345
   12.135    5.7083
   12.150    5.6240
   12.165    5.6240
   12.180    5.6345
   12.195    5.8557
   12.210    5.8241
   12.225    5.8557
   12.240    5.8557
   12.255    5.7609
   12.270    6.1506
   12.285    6.2981
   12.300    6.3718
   12.315    5.9610
   12.330    6.3718
   12.345    6.6456
   12.360    6.0874
   12.375    6.4139
   12.390    6.6561
   12.405    6.4244
   12.420    6.1506
   12.435    5.9716
   12.450    5.8768
   12.465    5.6345
   12.480    5.5714
   12.495    5.3081
   12.510    5.2133
   12.525    5.7609
   12.540    5.9926
   12.555    5.9505
   12.570    5.9821
   12.585    5.8557
   12.600    5.7715
   12.615    5.7820
   12.630    5.8136
   12.645    5.6240
   12.660    5.7609
   12.675    5.7609
   12.690    5.5503
   12.705    5.9084
   12.720    6.0558
   12.735    6.0242
   12.750    6.0242
   12.765    6.0453
   12.780    6.0032
   12.795    6.2454
   12.810    6.2454
   12.825    6.0032
   12.840    6.0558
   12.855    6.2138
   12.870    6.7930
   12.885    7.0037
   12.900    7.1511
   12.915    7.2038
   12.930    8.0569
   12.945    8.2780
   12.960    8.3096
   12.975    8.5519
   12.990    8.0147
   13.005    7.6883
   13.020    7.1195
   13.035    6.5087
   13.050    6.3928
   13.065    5.9294
   13.080    5.6872
   13.095    5.9294
   13.110    5.9716
   13.125    5.4450
   13.140    5.3818
   13.155    5.4239
   13.170    5.7715
   13.185    5.4239
   13.200    5.7504
   13.215    5.8452
   13.230    5.5608
   13.245    5.9610
   13.260    5.4239
   13.275    6.0032
   13.290    5.8873
   13.305    5.9189
   13.320    5.8452
   13.335    5.6451
   13.350    5.4976
   13.365    5.7715
   13.380    6.0242
   13.395    6.0874
   13.410    5.8241
   13.425    5.7925
   13.440    6.0242
   13.455    6.3612
   13.470    6.8036
   13.485    6.4771
   13.500    6.9089
   13.515    6.8246
   13.530    7.1722
   13.545    6.9300
   13.560    6.9826
   13.575    6.9089
   13.590    6.8562
   13.605    6.3507
   13.620    6.0874
   13.635    5.5924
   13.650    5.8031
   13.665    5.7504
   13.680    5.7293
   13.695    5.3397
   13.710    5.5082
   13.725    5.3712
   13.740    5.6556
   13.755    5.4766
   13.770    5.4766
   13.785    5.4344
   13.800    5.2870
   13.815    5.5924
   13.830    5.5819
   13.845    5.6767
   13.860    5.6556
   13.875    6.0137
   13.890    5.7399
   13.905    5.6661
   13.920    5.8031
   13.935    5.9400
   13.950    5.8978
   13.965    5.7715
   13.980    5.6556
   13.995    6.0137
   14.010    6.1401
   14.025    6.5298
   14.040    6.8773
   14.055    6.9826
   14.070    7.1827
   14.085    7.6461
   14.100    8.0569
   14.115    7.8884
   14.130    7.6145
   14.145    7.0037
   14.160    6.7193
   14.175    6.4666
   14.190    6.3823
   14.205    6.1927
   14.220    5.5608
   14.235    5.4660
   14.250    5.6345
   14.265    5.4134
   14.280    5.3923
   14.295    5.7188
   14.310    5.8873
   14.325    5.4976
   14.340    5.7609
   14.355    5.7188
   14.370    5.5398
   14.385    5.2133
   14.400    5.2343
   14.415    5.3712
   14.430    5.2870
   14.445    5.3186
   14.460    5.7083
   14.475    5.5924
   14.490    5.1817
   14.505    5.4239
   14.520    5.5714
   14.535    5.7399
   14.550    5.6661
   14.565    5.5292
   14.580    5.5608
   14.595    5.0764
   14.610    5.3923
   14.625    5.3818
   14.640    5.5714
   14.655    5.5503
   14.670    5.4450
   14.685    5.0237
   14.700    5.1711
   14.715    5.4555
   14.730    5.1711
   14.745    5.4028
   14.760    5.3818
   14.775    5.3081
   14.790    5.5398
   14.805    5.4555
   14.820    5.5082
   14.835    4.9500
   14.850    5.0869
   14.865    5.5292
   14.880    5.3186
   14.895    5.2449
   14.910    5.3923
   14.925    5.5714
   14.940    5.3712
   14.955    5.5924
   14.970    5.8557
   14.985    5.6451
   15.000    5.6029
   15.015    5.6767
   15.030    5.5292
   15.045    5.4450
   15.060    5.5292
   15.075    5.9294
   15.090    6.0874
   15.105    5.8136
   15.120    5.9400
   15.135    6.1822
   15.150    6.2454
   15.165    6.2138
   15.180    6.1190
   15.195    5.6556
   15.210    5.9821
   15.225    5.9505
   15.240    5.5608
   15.255    5.6661
   15.270    5.6872
   15.285    5.2238
   15.300    5.5924
   15.315    5.4239
   15.330    5.4028
   15.345    5.3397
   15.360    5.2027
   15.375    5.6240
   15.390    5.6451
   15.405    5.6977
   15.420    5.6345
   15.435    5.4871
   15.450    5.4239
   15.465    5.5187
   15.480    5.5819
   15.495    5.4660
   15.510    5.4555
   15.525    5.4871
   15.540    5.8031
   15.555    5.2027
   15.570    5.4134
   15.585    5.1922
   15.600    5.3712
   15.615    5.3291
   15.630    5.4766
   15.645    5.3186
   15.660    5.6767
   15.675    5.4134
   15.690    5.2975
   15.705    5.2870
   15.720    5.4555
   15.735    5.1922
   15.750    5.4976
   15.765    5.6661
   15.780    5.6451
   15.795    5.6661
   15.810    5.5503
   15.825    5.4766
   15.840    5.2659
   15.855    5.4871
   15.870    5.7820
   15.885    5.4766
   15.900    5.4344
   15.915    5.5398
   15.930    5.4344
   15.945    5.4555
   15.960    5.6556
   15.975    5.4134
   15.990    5.6135
   16.005    5.6767
   16.020    5.3397
   16.035    5.5924
   16.050    5.4976
   16.065    5.8241
   16.080    5.8557
   16.095    5.9610
   16.110    5.9084
   16.125    5.7188
   16.140    5.9400
   16.155    5.9189
   16.170    5.9084
   16.185    6.0769
   16.200    6.3718
   16.215    6.1295
   16.230    5.5503
   16.245    5.6661
   16.260    5.4766
   16.275    5.7504
   16.290    5.2343
   16.305    5.2765
   16.320    5.5292
   16.335    5.5714
   16.350    5.7925
   16.365    5.8452
   16.380    5.7399
   16.395    5.2449
   16.410    5.4344
   16.425    5.7925
   16.440    6.1506
   16.455    6.1295
   16.470    5.6872
   16.485    5.6451
   16.500    5.6135
   16.515    5.7925
   16.530    5.8452
   16.545    5.7609
   16.560    5.9189
   16.575    5.9821
   16.590    6.2349
   16.605    6.2981
   16.620    6.4560
   16.635    6.3402
   16.650    6.1822
   16.665    6.2770
   16.680    5.9821
   16.695    6.1190
   16.710    5.7820
   16.725    6.0558
   16.740    5.8662
   16.755    5.5714
   16.770    5.5292
   16.785    5.2975
   16.800    5.6977
   16.815    5.9610
   16.830    5.8241
   16.845    5.8662
   16.860    5.8768
   16.875    6.0137
   16.890    5.8347
   16.905    6.0242
   16.920    6.2138
   16.935    5.9400
   16.950    5.8978
   16.965    5.7820
   16.980    6.4350
   16.995    7.1301
   17.010    6.2243
   17.025    6.8246
   17.040    6.9194
   17.055    7.1090
   17.070    7.6145
   17.085    7.3723
   17.100    7.3828
   17.115    6.8141
   17.130    6.8036
   17.145    7.0669
   17.160    6.2665
   17.175    6.0664
   17.190    6.0979
   17.205    6.0032
   17.220    6.0348
   17.235    5.4028
   17.250    5.6240
   17.265    5.7820
   17.280    5.2133
   17.295    5.5398
   17.310    5.6977
   17.325    5.8873
   17.340    5.4344
   17.355    5.8031
   17.370    5.5924
   17.385    5.6135
   17.400    5.7293
   17.415    5.9505
   17.430    5.5292
   17.445    5.9084
   17.460    5.8241
   17.475    5.9505
   17.490    6.2243
   17.505    5.6661
   17.520    5.7188
   17.535    6.1190
   17.550    6.0032
   17.565    5.8241
   17.580    6.0453
   17.595    5.9084
   17.610    5.6135
   17.625    5.5187
   17.640    5.6029
   17.655    5.3081
   17.670    5.8136
   17.685    5.4344
   17.700    5.4555
   17.715    5.3186
   17.730    5.1185
   17.745    5.6135
   17.760    5.9294
   17.775    5.7083
   17.790    5.3712
   17.805    5.6240
   17.820    6.0348
   17.835    6.2770
   17.850    5.7188
   17.865    5.5714
   17.880    5.8873
   17.895    5.5292
   17.910    5.8662
   17.925    6.2033
   17.940    5.9821
   17.955    5.8662
   17.970    6.1927
   17.985    6.4560
   18.000    6.5192
   18.015    5.8978
   18.030    5.3607
   18.045    5.8452
   18.060    5.8662
   18.075    5.5503
   18.090    5.6767
   18.105    5.6556
   18.120    5.5187
   18.135    5.9716
   18.150    5.7083
   18.165    5.7715
   18.180    5.5714
   18.195    5.3397
   18.210    5.7083
   18.225    5.8662
   18.240    5.6029
   18.255    5.5503
   18.270    5.9821
   18.285    5.8031
   18.300    5.8452
   18.315    5.8241
   18.330    6.2665
   18.345    6.2138
   18.360    5.9926
   18.375    5.9505
   18.390    5.6345
   18.405    6.0979
   18.420    6.4350
   18.435    6.1927
   18.450    6.3507
   18.465    5.8031
   18.480    5.9716
   18.495    5.3818
   18.510    5.7083
   18.525    5.6661
   18.540    5.8557
   18.555    5.5082
   18.570    5.8978
   18.585    5.5924
   18.600    5.7715
   18.615    6.2349
   18.630    5.4344
   18.645    5.6556
   18.660    5.7083
   18.675    5.1290
   18.690    5.8136
   18.705    5.8241
   18.720    5.6767
   18.735    5.7188
   18.750    5.6451
   18.765    6.0242
   18.780    5.8978
   18.795    6.0032
   18.810    6.1506
   18.825    5.8873
   18.840    5.9716
   18.855    5.6029
   18.870    5.9189
   18.885    5.7188
   18.900    5.6240
   18.915    5.8978
   18.930    6.0769
   18.945    6.3086
   18.960    5.7715
   18.975    6.1401
   18.990    6.2138
   19.005    6.0242
   19.020    5.8136
   19.035    6.1717
   19.050    6.3191
   19.065    5.6661
   19.080    5.7504
   19.095    6.1295
   19.110    5.6661
   19.125    5.6345
   19.140    5.5187
   19.155    5.7715
   19.170    5.8557
   19.185    5.4660
   19.200    5.6451
   19.215    5.7188
   19.230    5.6240
   19.245    5.6556
   19.260    5.4871
   19.275    5.8557
   19.290    5.5398
   19.305    5.5292
   19.320    5.5608
   19.335    5.4766
   19.350    5.7399
   19.365    5.6029
   19.380    5.7925
   19.395    5.5819
   19.410    5.8662
   19.425    5.8031
   19.440    5.8557
   19.455    5.9821
   19.470    5.9400
   19.485    6.0137
   19.500    5.9821
   19.515    6.0137
   19.530    5.9821
   19.545    6.0664
   19.560    5.9294
   19.575    6.1506
   19.590    6.3086
   19.605    6.5403
   19.620    6.3823
   19.635    6.5613
   19.650    6.4244
   19.665    6.4560
   19.680    6.4982
   19.695    6.1295
   19.710    5.9400
   19.725    6.1611
   19.740    5.6451
   19.755    5.6872
   19.770    5.5924
   19.785    5.9716
   19.800    5.8978
   19.815    5.5503
   19.830    5.5819
   19.845    5.5292
   19.860    5.9400
   19.875    5.8031
   19.890    5.7504
   19.905    5.9505
   19.920    6.0032
   19.935    5.8031
   19.950    5.6240
   19.965    5.5082
   19.980    5.3291
   19.995    5.8452
   20.010    5.7188
   20.025    5.6977
   20.040    5.7293
   20.055    5.5714
   20.070    5.7083
   20.085    5.7293
   20.100    5.5292
   20.115    5.8768
   20.130    6.0769
   20.145    5.8136
   20.160    6.2770
   20.175    6.0032
   20.190    6.0769
   20.205    5.4766
   20.220    5.8136
   20.235    5.7399
   20.250    5.7504
   20.265    5.7293
   20.280    6.0769
   20.295    6.2770
   20.310    6.1822
   20.325    6.3402
   20.340    6.7825
   20.355    7.2143
   20.370    6.9405
   20.385    7.4882
   20.400    7.4566
   20.415    7.4144
   20.430    7.3723
   20.445    7.1406
   20.460    7.0037
   20.475    6.1927
   20.490    6.4034
   20.505    6.4666
   20.520    6.3402
   20.535    6.0874
   20.550    6.1927
   20.565    5.8978
   20.580    5.6977
   20.595    5.6767
   20.610    5.7925
   20.625    5.5714
   20.640    6.4666
   20.655    6.0874
   20.670    5.8031
   20.685    5.6556
   20.700    6.0032
   20.715    5.7925
   20.730    5.8557
   20.745    5.6767
   20.760    5.5819
   20.775    6.0032
   20.790    5.9400
   20.805    5.9400
   20.820    5.7925
   20.835    5.8452
   20.850    5.7188
   20.865    5.8662
   20.880    5.6029
   20.895    5.7293
   20.910    5.7715
   20.925    5.6029
   20.940    5.7715
   20.955    5.8452
   20.970    5.7820
   20.985    5.9610
   21.000    5.6240
   21.015    5.3818
   21.030    5.8136
   21.045    5.8136
   21.060    6.1506
   21.075    6.0032
   21.090    5.8662
   21.105    5.9400
   21.120    6.0979
   21.135    6.1611
   21.150    6.1611
   21.165    5.6451
   21.180    5.4976
   21.195    5.9294
   21.210    5.8452
   21.225    5.7609
   21.240    5.7609
   21.255    5.9610
   21.270    6.1927
   21.285    6.3823
   21.300    6.1401
   21.315    5.8241
   21.330    5.7399
   21.345    5.7715
   21.360    5.8241
   21.375    5.8873
   21.390    6.0979
   21.405    6.3086
   21.420    6.2243
   21.435    5.9189
   21.450    5.6556
   21.465    6.0348
   21.480    5.8978
   21.495    6.0874
   21.510    6.0137
   21.525    6.1190
   21.540    5.8978
   21.555    5.9505
   21.570    6.0769
   21.585    5.9505
   21.600    5.8557
   21.615    5.6977
   21.630    5.7820
   21.645    5.8241
   21.660    6.0348
   21.675    5.8452
   21.690    6.0137
   21.705    6.0558
   21.720    5.8768
   21.735    5.6767
   21.750    6.0137
   21.765    6.1190
   21.780    6.2243
   21.795    6.1295
   21.810    6.3612
   21.825    6.0453
   21.840    6.1190
   21.855    6.2349
   21.870    6.7088
   21.885    6.4982
   21.900    6.7193
   21.915    6.6245
   21.930    6.3507
   21.945    6.2454
   21.960    5.9926
   21.975    6.0453
   21.990    6.1295
   22.005    5.8031
   22.020    5.9821
   22.035    6.0874
   22.050    6.1401
   22.065    5.9189
   22.080    6.2138
   22.095    6.0348
   22.110    6.0032
   22.125    5.8031
   22.140    5.8557
   22.155    6.1611
   22.170    6.0137
   22.185    6.4455
   22.200    6.4666
   22.215    6.2033
   22.230    6.4771
   22.245    6.5719
   22.260    6.3612
   22.275    6.2875
   22.290    6.2875
   22.305    5.9821
   22.320    5.9821
   22.335    6.3823
   22.350    6.2349
   22.365    5.9926
   22.380    5.8662
   22.395    5.9821
   22.410    6.3612
   22.425    6.1611
   22.440    6.3086
   22.455    6.1822
   22.470    6.4982
   22.485    6.5192
   22.500    6.5824
   22.515    7.0669
   22.530    7.5197
   22.545    7.1827
   22.560    7.1406
   22.575    7.1090
   22.590    7.4250
   22.605    7.4144
   22.620    7.7199
   22.635    7.6883
   22.650    7.0458
   22.665    7.0037
   22.680    6.7404
   22.695    6.4876
   22.710    6.3191
   22.725    6.2665
   22.740    6.0979
   22.755    6.1085
   22.770    6.4034
   22.785    6.4455
   22.800    6.3296
   22.815    6.5087
   22.830    6.3191
   22.845    6.6245
   22.860    6.8036
   22.875    7.0879
   22.890    7.2986
   22.905    7.3091
   22.920    7.3302
   22.935    7.3407
   22.950    7.2459
   22.965    7.0879
   22.980    7.2670
   22.995    7.4671
   23.010    7.2986
   23.025    6.7299
   23.040    6.3823
   23.055    6.3507
   23.070    5.8978
   23.085    5.9505
   23.100    6.1506
   23.115    5.7925
   23.130    5.6556
   23.145    5.9926
   23.160    6.1717
   23.175    6.2875
   23.190    6.5298
   23.205    5.9926
   23.220    6.3402
   23.235    6.5403
   23.250    6.5403
   23.265    6.0242
   23.280    6.4771
   23.295    6.8668
   23.310    6.6035
   23.325    6.3928
   23.340    6.5613
   23.355    6.8878
   23.370    6.3823
   23.385    6.0348
   23.400    6.3191
   23.415    5.8347
   23.430    6.1190
   23.445    6.1190
   23.460    5.8347
   23.475    6.0874
   23.490    5.8978
   23.505    5.6872
   23.520    5.7820
   23.535    6.0874
   23.550    6.2770
   23.565    6.0348
   23.580    6.3296
   23.595    6.4876
   23.610    6.0664
   23.625    5.9189
   23.640    5.6135
   23.655    5.6556
   23.670    5.9084
   23.685    5.8662
   23.700    6.2349
   23.715    6.0137
   23.730    5.6767
   23.745    5.7083
   23.760    6.1717
   23.775    6.4034
   23.790    6.0137
   23.805    5.8452
   23.820    5.9189
   23.835    6.0558
   23.850    5.7293
   23.865    6.2349
   23.880    6.1295
   23.895    5.8978
   23.910    6.3086
   23.925    5.9926
   23.940    6.2770
   23.955    6.2981
   23.970    6.2665
   23.985    6.1401
   24.000    6.2349
   24.015    6.4876
   24.030    5.9084
   24.045    5.6451
   24.060    5.5608
   24.075    6.0032
   24.090    6.0242
   24.105    5.9821
   24.120    5.6661
   24.135    5.5608
   24.150    5.8978
   24.165    5.6872
   24.180    5.7820
   24.195    5.6661
   24.210    5.9610
   24.225    6.1085
   24.240    5.9084
   24.255    5.8873
   24.270    5.8452
   24.285    5.7083
   24.300    5.9294
   24.315    5.9821
   24.330    5.5292
   24.345    5.3502
   24.360    5.7609
   24.375    5.9505
   24.390    5.6767
   24.405    5.8347
   24.420    5.7399
   24.435    6.3718
   24.450    6.1190
   24.465    6.2138
   24.480    5.9716
   24.495    6.0137
   24.510    5.8136
   24.525    5.7925
   24.540    5.5292
   24.555    5.8768
   24.570    5.8978
   24.585    5.5082
   24.600    6.1401
   24.615    5.9505
   24.630    5.7504
   24.645    5.6451
   24.660    5.7399
   24.675    5.7609
   24.690    5.8136
   24.705    5.8347
   24.720    5.6345
   24.735    5.3712
   24.750    5.7504
   24.765    5.9294
   24.780    5.6977
   24.795    6.0137
   24.810    5.8136
   24.825    5.9926
   24.840    5.7504
   24.855    6.1822
   24.870    6.0453
   24.885    5.9400
   24.900    6.1085
   24.915    5.7925
   24.930    6.0664
   24.945    6.0769
   24.960    5.6661
   24.975    6.2138
   24.990    5.5503
   25.005    5.5714
   25.020    5.5187
   25.035    6.1717
   25.050    5.8136
   25.065    5.9189
   25.080    5.6029
   25.095    5.7504
   25.110    5.5292
   25.125    5.6556
   25.140    5.7820
   25.155    5.8873
   25.170    5.9716
   25.185    5.7925
   25.200    5.6872
   25.215    6.0558
   25.230    5.8873
   25.245    6.0558
   25.260    6.3296
   25.275    6.0242
   25.290    6.2981
   25.305    6.0032
   25.320    5.8768
   25.335    5.6240
   25.350    5.8452
   25.365    5.8347
   25.380    5.8241
   25.395    5.7188
   25.410    5.7715
   25.425    5.9610
   25.440    5.8136
   25.455    5.9400
   25.470    5.7293
   25.485    5.8136
   25.500    5.9821
   25.515    6.0032
   25.530    5.4344
   25.545    5.6556
   25.560    5.9716
   25.575    5.8768
   25.590    5.7504
   25.605    5.9821
   25.620    5.8978
   25.635    5.8347
   25.650    5.5503
   25.665    5.9716
   25.680    6.2349
   25.695    6.4139
   25.710    6.0558
   25.725    6.0453
   25.740    6.1190
   25.755    6.1822
   25.770    6.1401
   25.785    6.6561
   25.800    6.7720
   25.815    6.6351
   25.830    6.8878
   25.845    7.0458
   25.860    6.7193
   25.875    6.6667
   25.890    6.7720
   25.905    6.5613
   25.920    6.4771
   25.935    6.3507
   25.950    6.0874
   25.965    5.8136
   25.980    6.0032
   25.995    5.9821
   26.010    6.0453
   26.025    5.6767
   26.040    5.8031
   26.055    6.0348
   26.070    5.7399
   26.085    5.8978
   26.100    5.5503
   26.115    5.4028
   26.130    5.6029
   26.145    5.6240
   26.160    5.6977
   26.175    5.6240
   26.190    5.8031
   26.205    5.7715
   26.220    5.8557
   26.235    5.6977
   26.250    5.5503
   26.265    5.8347
   26.280    5.9505
   26.295    6.0453
   26.310    5.5714
   26.325    5.6451
   26.340    5.6345
   26.355    5.7820
   26.370    6.0348
   26.385    6.0032
   26.400    6.2349
   26.415    5.9926
   26.430    5.7293
   26.445    5.8031
   26.460    6.1717
   26.475    6.1085
   26.490    6.0664
   26.505    5.7399
   26.520    5.8452
   26.535    5.8557
   26.550    5.5187
   26.565    5.6451
   26.580    5.6661
   26.595    5.7188
   26.610    5.8136
   26.625    5.3923
   26.640    5.5819
   26.655    5.9505
   26.670    5.9716
   26.685    5.5608
   26.700    5.5924
   26.715    5.3186
   26.730    5.5608
   26.745    5.6767
   26.760    5.6977
   26.775    5.7715
   26.790    5.5187
   26.805    5.6451
   26.820    5.6661
   26.835    5.5398
   26.850    5.5819
   26.865    5.2554
   26.880    5.3607
   26.895    5.2975
   26.910    5.5398
   26.925    5.7399
   26.940    5.7399
   26.955    5.6556
   26.970    5.6029
   26.985    6.2981
   27.000    6.0032
   27.015    5.7820
   27.030    6.0032
   27.045    6.0453
   27.060    6.0032
   27.075    5.5924
   27.090    5.4555
   27.105    6.2243
   27.120    5.7083
   27.135    5.7715
   27.150    5.3712
   27.165    5.7293
   27.180    5.4766
   27.195    5.4028
   27.210    5.4660
   27.225    5.5082
   27.240    4.8763
   27.255    5.0553
   27.270    5.4766
   27.285    5.6556
   27.300    5.4344
   27.315    5.5819
   27.330    5.5398
   27.345    5.3291
   27.360    5.3607
   27.375    5.2343
   27.390    5.5398
   27.405    5.4344
   27.420    5.3712
   27.435    5.6767
   27.450    5.6135
   27.465    5.0764
   27.480    4.9184
   27.495    5.4766
   27.510    5.5924
   27.525    5.5082
   27.540    5.5714
   27.555    5.5503
   27.570    5.4976
   27.585    5.9505
   27.600    6.0242
   27.615    5.7609
   27.630    5.7504
   27.645    5.4344
   27.660    5.7399
   27.675    5.9821
   27.690    5.5819
   27.705    5.5292
   27.720    5.6556
   27.735    5.7293
   27.750    5.8031
   27.765    5.3818
   27.780    5.0342
   27.795    5.1501
   27.810    5.4660
   27.825    5.7399
   27.840    5.8768
   27.855    5.8873
   27.870    5.6029
   27.885    5.5608
   27.900    5.6872
   27.915    5.7504
   27.930    5.6029
   27.945    5.5714
   27.960    5.7715
   27.975    5.9189
   27.990    6.0979
   28.005    5.8241
   28.020    5.6556
   28.035    5.1501
   28.050    5.7715
   28.065    5.6451
   28.080    5.5082
   28.095    5.4871
   28.110    5.7820
   28.125    5.5187
   28.140    5.6977
   28.155    5.7609
   28.170    5.6767
   28.185    5.0658
   28.200    5.6977
   28.215    6.0664
   28.230    5.8136
   28.245    6.0137
   28.260    6.0979
   28.275    5.5292
   28.290    5.7609
   28.305    5.8662
   28.320    5.5292
   28.335    5.6767
   28.350    5.6240
   28.365    5.1922
   28.380    5.3291
   28.395    5.6767
   28.410    5.6135
   28.425    5.7188
   28.440    5.7715
   28.455    5.5924
   28.470    5.4134
   28.485    6.1506
   28.500    5.6135
   28.515    5.5292
   28.530    5.6872
   28.545    5.6029
   28.560    5.6661
   28.575    5.3607
   28.590    5.6240
   28.605    5.4450
   28.620    5.3081
   28.635    5.7293
   28.650    5.9926
   28.665    5.7188
   28.680    5.4239
   28.695    5.6451
   28.710    5.7715
   28.725    5.4134
   28.740    5.2975
   28.755    5.5082
   28.770    5.3397
   28.785    5.0764
   28.800    5.0974
   28.815    5.3923
   28.830    5.3607
   28.845    5.4450
   28.860    5.4976
   28.875    5.2659
   28.890    5.4450
   28.905    5.6977
   28.920    5.6135
   28.935    5.4239
   28.950    5.0237
   28.965    5.2554
   28.980    5.5503
   28.995    5.3502
   29.010    5.3923
   29.025    5.4344
   29.040    5.2449
   29.055    5.4134
   29.070    5.7925
   29.085    5.5503
   29.100    5.4134
   29.115    5.4766
   29.130    5.2870
   29.145    5.3607
   29.160    5.4344
   29.175    5.3081
   29.190    5.1711
   29.205    5.3186
   29.220    5.6661
   29.235    5.5187
   29.250    5.3712
   29.265    5.3712
   29.280    5.6135
   29.295    5.5608
   29.310    5.7820
   29.325    5.7715
   29.340    5.6135
   29.355    5.4134
   29.370    5.5082
   29.385    5.3923
   29.400    5.0448
   29.415    5.3818
   29.430    4.7393
   29.445    5.1711
   29.460    5.5714
   29.475    5.3818
   29.490    5.2238
   29.505    4.9289
   29.520    5.2765
   29.535    5.2870
   29.550    5.2027
   29.565    5.5187
   29.580    5.0448
   29.595    5.2975
   29.610    5.3923
   29.625    5.4134
   29.640    5.0448
   29.655    5.2343
   29.670    4.9921
   29.685    5.2765
   29.700    5.0553
   29.715    5.2343
   29.730    5.3081
   29.745    5.0764
   29.760    5.2765
   29.775    5.2870
   29.790    5.6661
   29.805    5.2765
   29.820    5.3607
   29.835    5.4028
   29.850    5.4028
   29.865    5.6451
   29.880    5.6345
   29.895    5.2765
   29.910    5.2238
   29.925    5.2449
   29.940    5.2449
   29.955    5.2238
   29.970    5.2238
   29.985    5.3607
   30.000    5.0658
   30.015    5.0764
   30.030    4.9816
   30.045    5.1290
   30.060    5.0869
   30.075    5.1606
   30.090    5.4239
   30.105    5.2027
   30.120    5.4028
   30.135    5.1711
   30.150    5.3818
   30.165    5.7399
   30.180    5.3291
   30.195    5.0342
   30.210    5.3397
   30.225    5.2659
   30.240    5.0448
   30.255    4.6972
   30.270    4.8973
   30.285    5.2133
   30.300    5.2554
   30.315    5.1080
   30.330    5.4239
   30.345    5.3081
   30.360    5.1711
   30.375    5.1922
   30.390    5.0869
   30.405    5.0658
   30.420    5.2659
   30.435    5.3712
   30.450    5.4134
   30.465    5.3397
   30.480    5.6345
   30.495    5.1817
   30.510    4.9078
   30.525    4.8131
   30.540    5.2554
   30.555    5.2975
   30.570    5.2870
   30.585    5.1185
   30.600    5.4028
   30.615    5.1606
   30.630    5.0658
   30.645    5.1501
   30.660    4.9500
   30.675    4.9921
   30.690    5.1501
   30.705    5.1080
   30.720    5.2659
   30.735    5.0658
   30.750    5.1922
   30.765    4.9394
   30.780    5.0237
   30.795    5.3397
   30.810    4.9710
   30.825    5.0869
   30.840    5.1080
   30.855    4.8868
   30.870    4.9921
   30.885    5.2870
   30.900    4.9816
   30.915    5.1817
   30.930    5.2027
   30.945    4.8763
   30.960    4.9394
   30.975    5.0869
   30.990    4.5498
   31.005    4.8868
   31.020    5.0448
   31.035    4.7393
   31.050    5.0132
   31.065    4.9500
   31.080    4.8552
   31.095    5.0132
   31.110    4.7920
   31.125    4.9921
   31.140    5.0132
   31.155    5.0026
   31.170    4.8657
   31.185    4.8131
   31.200    4.7920
   31.215    4.6972
   31.230    4.8341
   31.245    4.6867
   31.260    4.8973
   31.275    4.9710
   31.290    4.8657
   31.305    5.1080
   31.320    5.0342
   31.335    4.9710
   31.350    5.1501
   31.365    5.1395
   31.380    5.2027
   31.395    5.2133
   31.410    4.8657
   31.425    5.2975
   31.440    4.9816
   31.455    4.9289
   31.470    5.0448
   31.485    5.1185
   31.500    5.3291
   31.515    4.7077
   31.530    4.8763
   31.545    4.8025
   31.560    4.9500
   31.575    5.0764
   31.590    5.0869
   31.605    5.2027
   31.620    4.8025
   31.635    4.6340
   31.650    5.0974
   31.665    4.7815
   31.680    4.9605
   31.695    5.1817
   31.710    5.1606
   31.725    5.1606
   31.740    5.2975
   31.755    4.8236
   31.770    5.0658
   31.785    4.9921
   31.800    5.2343
   31.815    5.0869
   31.830    5.2238
   31.845    5.0448
   31.860    5.1395
   31.875    4.8868
   31.890    4.8447
   31.905    4.7288
   31.920    4.9710
   31.935    4.9605
   31.950    4.9078
   31.965    4.7709
   31.980    4.8868
   31.995    5.0448
   32.010    5.0974
   32.025    5.0448
   32.040    4.9921
   32.055    5.5819
   32.070    5.8873
   32.085    5.8347
   32.100    5.4871
   32.115    5.0658
   32.130    5.4766
   32.145    5.5503
   32.160    5.4450
   32.175    4.8025
   32.190    5.2343
   32.205    4.7499
   32.220    4.8236
   32.235    5.0342
   32.250    4.9394
   32.265    5.1395
   32.280    4.5603
   32.295    4.8131
   32.310    4.8447
   32.325    4.8025
   32.340    4.6130
   32.355    4.7709
   32.370    4.4655
   32.385    4.3391
   32.400    4.2970
   32.415    4.6235
   32.430    4.6656
   32.445    4.6972
   32.460    4.8973
   32.475    5.1290
   32.490    4.8236
   32.505    4.4339
   32.520    4.8131
   32.535    4.8657
   32.550    5.0553
   32.565    4.5287
   32.580    4.6024
   32.595    4.5919
   32.610    4.8552
   32.625    4.8657
   32.640    4.5814
   32.655    4.4234
   32.670    4.5708
   32.685    4.8447
   32.700    4.6445
   32.715    4.4339
   32.730    4.6656
   32.745    4.4760
   32.760    4.7499
   32.775    4.8868
   32.790    4.7815
   32.805    4.9921
   32.820    4.8131
   32.835    4.8973
   32.850    4.8657
   32.865    5.0237
   32.880    4.7604
   32.895    4.9184
   32.910    4.6340
   32.925    4.7499
   32.940    4.5392
   32.955    4.7709
   32.970    4.6024
   32.985    4.4444
   33.000    4.5919
   33.015    4.3602
   33.030    4.6340
   33.045    4.6024
   33.060    4.4128
   33.075    4.6235
   33.090    4.6024
   33.105    4.7920
   33.120    4.8552
   33.135    4.5814
   33.150    4.3286
   33.165    4.7183
   33.180    4.7499
   33.195    4.5287
   33.210    4.7288
   33.225    4.7815
   33.240    4.4655
   33.255    4.3497
   33.270    4.4550
   33.285    4.4655
   33.300    4.4023
   33.315    4.6340
   33.330    4.5919
   33.345    4.6024
   33.360    4.3813
   33.375    4.7077
   33.390    4.4866
   33.405    4.5498
   33.420    4.5814
   33.435    4.5287
   33.450    4.3075
   33.465    4.4023
   33.480    4.5708
   33.495    4.5392
   33.510    4.3602
   33.525    4.1285
   33.540    4.5708
   33.555    4.6130
   33.570    4.6656
   33.585    4.6867
   33.600    4.5498
   33.615    4.8552
   33.630    4.5814
   33.645    4.3707
   33.660    4.4444
   33.675    4.6551
   33.690    4.6761
   33.705    4.3075
   33.720    4.8025
   33.735    4.6340
   33.750    4.6551
   33.765    4.7077
   33.780    4.9500
   33.795    4.8447
   33.810    5.2975
   33.825    5.0869
   33.840    4.9078
   33.855    4.8131
   33.870    4.8025
   33.885    4.8973
   33.900    5.3818
   33.915    5.4028
   33.930    5.1501
   33.945    4.6235
   33.960    4.5498
   33.975    4.9605
   33.990    4.7604
   34.005    4.8552
   34.020    4.9605
   34.035    4.5603
   34.050    4.5392
   34.065    4.5603
   34.080    4.6972
   34.095    4.6867
   34.110    4.7288
   34.125    4.7183
   34.140    4.8236
   34.155    4.9078
   34.170    4.6340
   34.185    4.3075
   34.200    4.3918
   34.215    4.6340
   34.230    4.2970
   34.245    4.2549
   34.260    4.2549
   34.275    4.8763
   34.290    4.6551
   34.305    4.6867
   34.320    4.1811
   34.335    4.1917
   34.350    4.3497
   34.365    4.3497
   34.380    4.3391
   34.395    4.3286
   34.410    4.4234
   34.425    4.5076
   34.440    4.3918
   34.455    4.4128
   34.470    4.4234
   34.485    4.2233
   34.500    4.4339
   34.515    4.1390
   34.530    4.2022
   34.545    4.6972
   34.560    4.6972
   34.575    4.3918
   34.590    4.5182
   34.605    4.6551
   34.620    4.4550
   34.635    4.5392
   34.650    4.5603
   34.665    4.1917
   34.680    4.7288
   34.695    4.5287
   34.710    4.5392
   34.725    4.5603
   34.740    4.3497
   34.755    4.4550
   34.770    4.3707
   34.785    4.3181
   34.800    4.4023
   34.815    4.2443
   34.830    4.0021
   34.845    4.3813
   34.860    4.3918
   34.875    4.6761
   34.890    4.5076
   34.905    4.6972
   34.920    4.5498
   34.935    4.5076
   34.950    4.7709
   34.965    4.4023
   34.980    4.2970
   34.995    4.5708
   35.010    4.5498
   35.025    4.5708
   35.040    4.3286
   35.055    4.3391
   35.070    4.5708
   35.085    4.4655
   35.100    4.4760
   35.115    4.2127
   35.130    4.0232
   35.145    4.2654
   35.160    4.3707
   35.175    4.4339
   35.190    4.3391
   35.205    4.4655
   35.220    4.4760
   35.235    4.3813
   35.250    4.1074
   35.265    4.4023
   35.280    4.5287
   35.295    4.2443
   35.310    4.5498
   35.325    4.1390
   35.340    4.6656
   35.355    4.4339
   35.370    4.4550
   35.385    4.2654
   35.400    4.5919
   35.415    4.4760
   35.430    4.1917
   35.445    4.1496
   35.460    4.0021
   35.475    4.4655
   35.490    4.3286
   35.505    4.2759
   35.520    4.1285
   35.535    4.0126
   35.550    4.0021
   35.565    4.4339
   35.580    4.2654
   35.595    4.4971
   35.610    4.0548
   35.625    4.4339
   35.640    4.2865
   35.655    4.1496
   35.670    4.2970
   35.685    4.1496
   35.700    4.4023
   35.715    4.3813
   35.730    3.9705
   35.745    4.2233
   35.760    4.4023
   35.775    4.3813
   35.790    4.3075
   35.805    4.6445
   35.820    4.2022
   35.835    4.2022
   35.850    4.2443
   35.865    4.3286
   35.880    4.3813
   35.895    3.9284
   35.910    3.8757
   35.925    4.4866
   35.940    4.4023
   35.955    4.4760
   35.970    4.4550
   35.985    4.4339
   36.000    3.9600
   36.015    3.8968
   36.030    4.2970
   36.045    4.2338
   36.060    4.1917
   36.075    4.3813
   36.090    4.4866
   36.105    4.4339
   36.120    3.9705
   36.135    4.0653
   36.150    4.0337
   36.165    4.0548
   36.180    4.2443
   36.195    4.4550
   36.210    4.3181
   36.225    4.2549
   36.240    4.1390
   36.255    4.3813
   36.270    4.4760
   36.285    4.4023
   36.300    4.3602
   36.315    4.2865
   36.330    3.8968
   36.345    4.1180
   36.360    4.1496
   36.375    4.2338
   36.390    4.2022
   36.405    4.4760
   36.420    4.1706
   36.435    4.3707
   36.450    4.2022
   36.465    4.2443
   36.480    4.0232
   36.495    4.0864
   36.510    4.4339
   36.525    4.4444
   36.540    4.3707
   36.555    4.0337
   36.570    4.2233
   36.585    4.4234
   36.600    4.4866
   36.615    4.2549
   36.630    4.5498
   36.645    4.4339
   36.660    4.1917
   36.675    4.1811
   36.690    4.5076
   36.705    4.2759
   36.720    4.6972
   36.735    4.8025
   36.750    4.4550
   36.765    4.3075
   36.780    3.7388
   36.795    4.3075
   36.810    4.2338
   36.825    3.8968
   36.840    4.0442
   36.855    4.3075
   36.870    3.9810
   36.885    3.8020
   36.900    3.9494
   36.915    4.0442
   36.930    4.1917
   36.945    3.8652
   36.960    4.0442
   36.975    4.1601
   36.990    4.2759
   37.005    4.2443
   37.020    4.2127
   37.035    4.1811
   37.050    4.1496
   37.065    4.5708
   37.080    4.2970
   37.095    4.3707
   37.110    4.3602
   37.125    4.0864
   37.140    4.2127
   37.155    4.2233
   37.170    4.0758
   37.185    4.0126
   37.200    4.1706
   37.215    4.4444
   37.230    4.2233
   37.245    3.9705
   37.260    4.3075
   37.275    4.0548
   37.290    3.6335
   37.305    3.8968
   37.320    3.9705
   37.335    3.9916
   37.350    4.0232
   37.365    4.1811
   37.380    4.1180
   37.395    4.1811
   37.410    4.1601
   37.425    4.0864
   37.440    4.1390
   37.455    4.1917
   37.470    4.0232
   37.485    4.1180
   37.500    4.1601
   37.515    4.3286
   37.530    4.2654
   37.545    4.2443
   37.560    4.3286
   37.575    4.4444
   37.590    3.9810
   37.605    3.9810
   37.620    4.2654
   37.635    4.0548
   37.650    4.0126
   37.665    4.0337
   37.680    4.2338
   37.695    4.1285
   37.710    3.9389
   37.725    3.9705
   37.740    3.8231
   37.755    4.0653
   37.770    4.2549
   37.785    4.2022
   37.800    4.3602
   37.815    4.2654
   37.830    4.1496
   37.845    4.6130
   37.860    4.3286
   37.875    4.3075
   37.890    4.0232
   37.905    3.9389
   37.920    4.0864
   37.935    4.0442
   37.950    4.1811
   37.965    4.1180
   37.980    4.3181
   37.995    3.8652
   38.010    4.1917
   38.025    4.2549
   38.040    4.0758
   38.055    4.4444
   38.070    4.2127
   38.085    3.9389
   38.100    3.6862
   38.115    3.8652
   38.130    3.9179
   38.145    4.2443
   38.160    3.9916
   38.175    3.8441
   38.190    3.9389
   38.205    4.2233
   38.220    4.1601
   38.235    4.0021
   38.250    3.9494
   38.265    4.1074
   38.280    3.8441
   38.295    3.8968
   38.310    4.1390
   38.325    4.1180
   38.340    3.9916
   38.355    4.0653
   38.370    4.2233
   38.385    4.1601
   38.400    3.8652
   38.415    3.8547
   38.430    3.9073
   38.445    4.1811
   38.460    4.2549
   38.475    4.2759
   38.490    3.9810
   38.505    4.0442
   38.520    4.0758
   38.535    4.2338
   38.550    4.3602
   38.565    4.3286
   38.580    4.3391
   38.595    4.2127
   38.610    4.0969
   38.625    4.1390
   38.640    4.1811
   38.655    4.2127
   38.670    4.2022
   38.685    3.9705
   38.700    4.1180
   38.715    4.3497
   38.730    4.2654
   38.745    4.0653
   38.760    3.8125
   38.775    3.9389
   38.790    4.2233
   38.805    4.1706
   38.820    4.0442
   38.835    3.9073
   38.850    4.1601
   38.865    4.0758
   38.880    4.2022
   38.895    3.9705
   38.910    4.2338
   38.925    4.0126
   38.940    3.9073
   38.955    3.9810
   38.970    3.9073
   38.985    3.7915
   39.000    3.7915
   39.015    4.0126
   39.030    3.9600
   39.045    4.0232
   39.060    4.1811
   39.075    3.8757
   39.090    3.9179
   39.105    3.8968
   39.120    4.0232
   39.135    4.2233
   39.150    4.2127
   39.165    3.9916
   39.180    4.0442
   39.195    4.0969
   39.210    3.9916
   39.225    4.1917
   39.240    3.9600
   39.255    3.9073
   39.270    3.9284
   39.285    4.2654
   39.300    4.1601
   39.315    4.0653
   39.330    4.1074
   39.345    3.8968
   39.360    3.7599
   39.375    4.0021
   39.390    4.0969
   39.405    4.1496
   39.420    4.2654
   39.435    4.0548
   39.450    3.8968
   39.465    3.9600
   39.480    3.8652
   39.495    4.0864
   39.510    3.9389
   39.525    3.6546
   39.540    4.1285
   39.555    4.0758
   39.570    4.0864
   39.585    4.2654
   39.600    3.8863
   39.615    4.0232
   39.630    4.2443
   39.645    4.0548
   39.660    4.0232
   39.675    4.3707
   39.690    3.9179
   39.705    3.9916
   39.720    4.1496
   39.735    4.1074
   39.750    3.7177
   39.765    3.9494
   39.780    4.2127
   39.795    4.1074
   39.810    3.8441
   39.825    4.2233
   39.840    3.9916
   39.855    3.9284
   39.870    3.9810
   39.885    4.3181
   39.900    4.0232
   39.915    3.7704
   39.930    3.9389
   39.945    4.1285
   39.960    3.9600
   39.975    3.9494
   39.990    4.0442
