    1.500   14.9763
    1.515   15.0816
    1.530   14.8815
    1.545   14.1338
    1.560   14.0074
    1.575   13.8073
    1.590   13.7546
    1.605   13.2807
    1.620   13.2385
    1.635   12.9753
    1.650   13.3333
    1.665   12.9963
    1.680   12.5434
    1.695   12.3644
    1.710   12.2064
    1.725   11.7852
    1.740   11.5640
    1.755   12.2907
    1.770   11.9221
    1.785   11.6377
    1.800   11.3639
    1.815   11.1848
    1.830   11.5324
    1.845   11.4481
    1.860   11.1427
    1.875   11.3744
    1.890   10.7952
    1.905   10.6161
    1.920   10.4265
    1.935   10.5529
    1.950   10.2264
    1.965   10.4897
    1.980   10.2054
    1.995   10.0895
    2.010   10.0369
    2.025    9.7630
    2.040    9.7736
    2.055    9.6261
    2.070    9.7420
    2.085    9.3839
    2.100    9.7841
    2.115    9.4997
    2.130    9.4155
    2.145    9.4365
    2.160    9.1311
    2.175    8.9942
    2.190    9.2891
    2.205    8.9731
    2.220    9.0469
    2.235    8.6256
    2.250    8.5940
    2.265    8.9837
    2.280    8.2991
    2.295    8.1622
    2.310    8.8257
    2.325    8.3202
    2.340    8.1727
    2.355    8.2464
    2.370    8.0990
    2.385    8.1833
    2.400    8.5097
    2.415    7.9937
    2.430    7.6672
    2.445    7.5724
    2.460    7.6356
    2.475    8.0358
    2.490    7.6251
    2.505    7.4671
    2.520    7.7620
    2.535    7.4776
    2.550    7.7093
    2.565    7.6040
    2.580    7.1617
    2.595    6.8668
    2.610    7.4882
    2.625    7.4144
    2.640    7.1722
    2.655    7.0669
    2.670    7.3196
    2.685    7.3302
    2.700    7.1722
    2.715    7.1617
    2.730    7.3934
    2.745    6.8668
    2.760    6.9194
    2.775    7.0563
    2.790    6.9721
    2.805    7.2038
    2.820    6.7088
    2.835    6.9721
    2.850    6.9510
    2.865    6.9826
    2.880    7.3618
    2.895    7.1511
    2.910    6.9932
    2.925    7.3196
    2.940    7.3091
    2.955    6.7825
    2.970    7.2038
    2.985    7.2775
    3.000    6.8141
    3.015    6.8562
    3.030    7.0458
    3.045    7.0985
    3.060    7.0669
    3.075    6.5613
    3.090    7.2143
    3.105    6.9826
    3.120    6.8562
    3.135    6.8352
    3.150    6.8878
    3.165    7.0985
    3.180    7.5724
    3.195    7.0879
    3.210    7.1406
    3.225    7.4355
    3.240    7.4566
    3.255    7.5935
    3.270    7.9831
    3.285    7.9410
    3.300    7.8989
    3.315    7.8989
    3.330    7.9831
    3.345    8.1095
    3.360    8.6677
    3.375    8.7204
    3.390    8.7309
    3.405    8.6361
    3.420    9.6577
    3.435    9.5629
    3.450    9.8262
    3.465   10.0053
    3.480   10.4792
    3.495   10.5845
    3.510   10.9847
    3.525   11.2586
    3.540   11.6166
    3.555   12.2907
    3.570   12.5013
    3.585   13.5861
    3.600   14.0916
    3.615   14.6498
    3.630   14.8183
    3.645   16.1559
    3.660   17.3144
    3.675   18.4834
    3.690   19.5471
    3.705   20.7478
    3.720   22.7593
    3.735   23.9600
    3.750   26.0348
    3.765   27.6461
    3.780   30.6056
    3.795   34.5761
    3.810   38.8204
    3.825   45.2975
    3.840   54.5129
    3.855   62.7593
    3.870   68.1938
    3.885   65.3291
    3.900   59.6209
    3.915   44.2443
    3.930   24.6972
    3.945   11.7641
    3.960    7.9621
    3.975    7.0353
    3.990    6.4771
    4.005    6.5929
    4.020    6.4560
    4.035    6.4350
    4.050    6.4244
    4.065    6.6667
    4.080    6.1611
    4.095    6.3296
    4.110    6.5508
    4.125    6.5613
    4.140    5.9294
    4.155    6.2559
    4.170    6.6140
    4.185    6.1611
    4.200    6.2665
    4.215    6.1295
    4.230    6.1190
    4.245    5.9294
    4.260    6.0348
    4.275    6.4139
    4.290    6.0453
    4.305    6.1401
    4.320    6.0453
    4.335    5.9821
    4.350    5.8662
    4.365    5.9821
    4.380    6.2981
    4.395    5.8978
    4.410    6.0348
    4.425    5.8662
    4.440    6.3507
    4.455    6.0769
    4.470    6.1401
    4.485    5.9821
    4.500    6.0348
    4.515    6.1295
    4.530    6.0453
    4.545    5.6661
    4.560    6.2349
    4.575    6.0979
    4.590    5.9505
    4.605    6.0874
    4.620    6.2770
    4.635    6.3296
    4.650    5.9294
    4.665    6.0769
    4.680    6.1295
    4.695    5.7925
    4.710    6.2138
    4.725    6.1506
    4.740    5.7188
    4.755    6.3296
    4.770    6.2665
    4.785    6.3928
    4.800    6.2875
    4.815    6.4982
    4.830    6.2033
    4.845    6.3612
    4.860    6.5192
    4.875    6.2981
    4.890    6.2875
    4.905    5.9189
    4.920    6.3823
    4.935    6.2665
    4.950    6.2138
    4.965    6.7193
    4.980    6.4350
    4.995    6.6667
    5.010    6.8141
    5.025    6.7193
    5.040    6.8984
    5.055    6.8457
    5.070    6.7720
    5.085    7.3302
    5.100    7.3407
    5.115    7.5724
    5.130    7.6988
    5.145    7.6777
    5.160    7.8568
    5.175    7.7093
    5.190    8.3412
    5.205    8.3623
    5.220    8.9626
    5.235    8.8362
    5.250    9.3312
    5.265    9.6051
    5.280   10.0685
    5.295   10.3318
    5.310   10.4476
    5.325   11.0690
    5.340   11.9958
    5.355   12.6698
    5.370   13.5545
    5.385   14.2075
    5.400   15.0079
    5.415   16.9879
    5.430   19.0627
    5.445   21.4850
    5.460   24.4444
    5.475   27.6777
    5.490   29.1733
    5.505   28.6045
    5.520   26.8562
    5.535   21.9695
    5.550   14.6814
    5.565    9.4997
    5.580    8.2675
    5.595    8.2464
    5.610    7.9516
    5.625    7.6145
    5.640    7.3934
    5.655    7.5619
    5.670    7.5513
    5.685    7.5408
    5.700    7.2880
    5.715    7.2775
    5.730    7.2354
    5.745    7.4039
    5.760    6.9721
    5.775    7.0353
    5.790    6.9089
    5.805    6.9826
    5.820    7.1722
    5.835    7.1827
    5.850    6.6877
    5.865    6.9721
    5.880    6.1717
    5.895    6.1927
    5.910    6.4455
    5.925    6.4771
    5.940    6.3296
    5.955    6.4771
    5.970    6.2349
    5.985    5.9505
    6.000    5.8768
    6.015    6.2454
    6.030    6.2454
    6.045    6.1717
    6.060    6.0874
    6.075    5.8241
    6.090    5.9084
    6.105    6.0874
    6.120    6.1927
    6.135    5.8768
    6.150    5.7188
    6.165    5.6872
    6.180    5.8978
    6.195    6.0664
    6.210    6.0242
    6.225    5.5819
    6.240    5.4450
    6.255    5.5503
    6.270    5.9189
    6.285    5.6345
    6.300    5.4555
    6.315    5.8662
    6.330    5.9716
    6.345    5.9926
    6.360    5.2238
    6.375    5.4766
    6.390    5.6872
    6.405    5.7609
    6.420    5.5924
    6.435    5.7399
    6.450    6.0137
    6.465    5.8452
    6.480    5.8452
    6.495    6.3718
    6.510    6.1611
    6.525    5.8452
    6.540    6.0137
    6.555    6.6035
    6.570    7.0458
    6.585    6.8878
    6.600    6.9510
    6.615    7.2775
    6.630    7.4882
    6.645    8.4781
    6.660    8.5835
    6.675    9.6367
    6.690    9.7420
    6.705   11.6061
    6.720   13.1438
    6.735   14.0916
    6.750   13.3965
    6.765   12.6172
    6.780   10.3528
    6.795    7.6040
    6.810    6.0137
    6.825    5.2765
    6.840    5.1080
    6.855    5.3607
    6.870    5.2975
    6.885    5.1817
    6.900    4.8868
    6.915    5.1290
    6.930    5.1395
    6.945    4.9605
    6.960    5.2554
    6.975    5.1501
    6.990    4.8868
    7.005    4.7709
    7.020    5.1922
    7.035    5.0658
    7.050    4.8447
    7.065    4.9289
    7.080    4.8236
    7.095    4.8868
    7.110    4.7499
    7.125    4.7183
    7.140    4.8341
    7.155    5.0237
    7.170    4.9816
    7.185    4.7920
    7.200    5.1290
    7.215    4.7604
    7.230    4.7815
    7.245    4.9816
    7.260    5.1606
    7.275    4.7288
    7.290    4.3497
    7.305    4.5392
    7.320    4.6130
    7.335    4.8025
    7.350    4.5814
    7.365    4.4866
    7.380    4.3181
    7.395    4.4339
    7.410    4.3602
    7.425    4.3286
    7.440    4.7077
    7.455    4.6656
    7.470    4.5603
    7.485    4.6024
    7.500    4.5708
    7.515    4.6024
    7.530    4.7393
    7.545    4.7288
    7.560    4.6761
    7.575    4.7499
    7.590    4.5498
    7.605    4.8341
    7.620    5.3186
    7.635    5.1185
    7.650    5.2449
    7.665    5.3081
    7.680    5.1711
    7.695    5.4239
    7.710    6.0137
    7.725    6.3718
    7.740    6.6983
    7.755    8.1622
    7.770    8.0463
    7.785    8.4781
    7.800    9.0363
    7.815    8.1306
    7.830    6.8878
    7.845    5.3186
    7.860    4.4444
    7.875    4.3813
    7.890    4.3286
    7.905    4.3918
    7.920    4.3286
    7.935    4.1180
    7.950    4.0337
    7.965    4.0653
    7.980    4.1496
    7.995    4.2654
    8.010    4.2549
    8.025    4.3181
    8.040    4.0442
    8.055    4.0442
    8.070    4.2970
    8.085    3.9810
    8.100    3.8968
    8.115    3.9284
    8.130    4.0021
    8.145    4.1706
    8.160    4.0337
    8.175    4.0653
    8.190    3.8231
    8.205    4.1601
    8.220    4.2970
    8.235    4.0442
    8.250    4.0758
    8.265    4.1706
    8.280    4.0021
    8.295    4.0758
    8.310    4.1074
    8.325    3.9705
    8.340    4.0232
    8.355    4.0969
    8.370    3.9705
    8.385    4.1180
    8.400    3.9389
    8.415    3.6651
    8.430    4.0758
    8.445    4.1601
    8.460    4.0758
    8.475    3.8652
    8.490    3.7283
    8.505    3.9494
    8.520    4.1390
    8.535    4.1074
    8.550    4.1496
    8.565    4.1180
    8.580    4.0021
    8.595    3.8968
    8.610    4.2338
    8.625    4.2233
    8.640    4.3602
    8.655    4.2654
    8.670    4.2865
    8.685    4.3918
    8.700    4.6761
    8.715    4.3075
    8.730    4.4971
    8.745    4.4866
    8.760    4.0548
    8.775    3.6546
    8.790    3.6862
    8.805    3.7809
    8.820    3.4334
    8.835    3.7915
    8.850    3.9600
    8.865    4.0758
    8.880    4.2654
    8.895    3.8652
    8.910    3.8757
    8.925    3.8020
    8.940    3.9705
    8.955    3.7283
    8.970    3.6335
    8.985    3.7599
    9.000    3.6651
    9.015    3.8020
    9.030    3.8125
    9.045    3.6019
    9.060    3.9810
    9.075    4.0653
    9.090    3.7493
    9.105    3.5176
    9.120    4.0442
    9.135    3.8547
    9.150    3.7704
    9.165    3.5703
    9.180    3.6335
    9.195    3.7493
    9.210    3.7072
    9.225    3.7177
    9.240    3.7704
    9.255    4.1706
    9.270    4.1285
    9.285    4.0758
    9.300    4.0232
    9.315    4.2654
    9.330    4.0969
    9.345    4.0548
    9.360    4.2970
    9.375    4.5392
    9.390    4.5287
    9.405    4.9710
    9.420    5.2554
    9.435    5.5608
    9.450    6.3086
    9.465    6.8668
    9.480    7.5829
    9.495    8.6783
    9.510   10.5845
    9.525   12.6698
    9.540   14.4076
    9.555   14.7973
    9.570   13.5545
    9.585   11.5850
    9.600    8.9205
    9.615    5.4450
    9.630    3.9600
    9.645    3.9810
    9.660    3.6019
    9.675    3.5914
    9.690    3.8020
    9.705    3.4966
    9.720    3.7283
    9.735    3.4860
    9.750    3.5914
    9.765    3.7388
    9.780    3.8231
    9.795    3.9705
    9.810    3.6756
    9.825    3.6335
    9.840    3.5282
    9.855    3.5282
    9.870    3.7388
    9.885    3.7704
    9.900    3.7599
    9.915    4.1074
    9.930    3.5071
    9.945    3.8863
    9.960    4.0232
    9.975    3.6230
    9.990    3.5387
   10.005    3.7599
   10.020    3.6546
   10.035    3.9179
   10.050    4.0864
   10.065    3.7493
   10.080    3.8231
   10.095    3.6651
   10.110    3.7493
   10.125    3.8757
   10.140    4.2338
   10.155    4.3286
   10.170    4.2549
   10.185    4.2865
   10.200    4.3181
   10.215    4.6656
   10.230    4.6235
   10.245    5.0026
   10.260    5.4660
   10.275    6.0558
   10.290    6.5613
   10.305    7.1195
   10.320    7.3618
   10.335    7.6040
   10.350    6.8878
   10.365    5.8978
   10.380    4.6024
   10.395    4.1496
   10.410    3.8125
   10.425    3.5598
   10.440    3.6651
   10.455    3.6440
   10.470    3.6967
   10.485    3.9179
   10.500    3.4860
   10.515    3.6440
   10.530    3.9494
   10.545    4.1496
   10.560    4.0021
   10.575    3.6756
   10.590    3.7388
   10.605    3.5914
   10.620    3.8652
   10.635    4.0126
   10.650    3.9810
   10.665    3.9916
   10.680    3.7072
   10.695    3.7704
   10.710    3.7388
   10.725    3.8863
   10.740    3.9073
   10.755    3.9916
   10.770    4.0337
   10.785    3.9600
   10.800    3.8757
   10.815    3.8125
   10.830    4.0653
   10.845    4.0232
   10.860    4.2443
   10.875    4.2022
   10.890    4.0969
   10.905    4.2549
   10.920    4.6024
   10.935    4.7604
   10.950    4.6130
   10.965    5.0869
   10.980    5.4766
   10.995    6.3612
   11.010    7.0563
   11.025    7.7514
   11.040    7.6883
   11.055    7.2880
   11.070    6.8141
   11.085    5.6029
   11.100    4.8552
   11.115    4.4550
   11.130    3.9810
   11.145    3.7493
   11.160    4.2127
   11.175    4.1180
   11.190    3.9073
   11.205    4.0969
   11.220    4.0126
   11.235    4.0337
   11.250    3.7599
   11.265    3.7915
   11.280    4.0864
   11.295    3.6124
   11.310    4.0337
   11.325    4.2549
   11.340    4.0126
   11.355    3.7388
   11.370    4.0126
   11.385    4.2549
   11.400    4.1074
   11.415    4.1074
   11.430    4.0126
   11.445    3.7177
   11.460    3.9073
   11.475    3.9284
   11.490    4.2022
   11.505    4.0969
   11.520    4.2338
   11.535    4.1074
   11.550    4.1601
   11.565    4.2127
   11.580    4.3286
   11.595    4.2654
   11.610    4.7709
   11.625    4.7499
   11.640    4.9605
   11.655    5.5924
   11.670    6.4244
   11.685    7.1406
   11.700    7.8884
   11.715    7.8252
   11.730    7.4987
   11.745    6.4876
   11.760    5.7083
   11.775    4.7920
   11.790    4.0864
   11.805    3.8231
   11.820    3.8547
   11.835    4.0442
   11.850    4.4234
   11.865    3.9494
   11.880    3.9073
   11.895    3.9810
   11.910    3.7072
   11.925    3.7809
   11.940    3.7283
   11.955    3.5808
   11.970    3.6967
   11.985    3.8863
   12.000    3.9284
   12.015    3.8652
   12.030    3.5808
   12.045    3.6756
   12.060    3.7388
   12.075    3.7388
   12.090    3.7177
   12.105    3.7915
   12.120    3.5598
   12.135    3.6756
   12.150    3.9073
   12.165    4.0969
   12.180    3.6967
   12.195    3.6230
   12.210    3.5176
   12.225    3.5282
   12.240    3.6862
   12.255    3.5914
   12.270    3.8336
   12.285    3.7915
   12.300    4.1390
   12.315    4.2759
   12.330    4.4866
   12.345    4.7183
   12.360    4.4444
   12.375    4.0864
   12.390    3.6019
   12.405    3.8968
   12.420    3.7072
   12.435    3.8652
   12.450    3.7283
   12.465    3.6440
   12.480    3.6019
   12.495    3.7599
   12.510    3.6546
   12.525    3.6546
   12.540    3.6230
   12.555    3.8125
   12.570    3.6230
   12.585    3.2649
   12.600    4.0548
   12.615    3.7388
   12.630    3.6019
   12.645    3.5914
   12.660    3.6019
   12.675    3.7599
   12.690    3.5808
   12.705    3.6230
   12.720    3.8757
   12.735    3.5282
   12.750    3.5703
   12.765    3.5176
   12.780    3.5176
   12.795    3.8652
   12.810    4.0021
   12.825    3.9494
   12.840    3.8863
   12.855    4.2127
   12.870    4.4760
   12.885    4.4234
   12.900    4.8341
   12.915    5.0448
   12.930    5.8031
   12.945    6.0664
   12.960    6.5298
   12.975    6.5824
   12.990    5.5608
   13.005    4.7499
   13.020    4.2443
   13.035    3.8020
   13.050    3.5492
   13.065    3.4650
   13.080    3.4860
   13.095    3.5071
   13.110    3.7493
   13.125    3.5808
   13.140    3.7283
   13.155    3.8336
   13.170    3.7388
   13.185    3.8968
   13.200    3.6440
   13.215    3.2333
   13.230    3.6440
   13.245    3.5176
   13.260    3.4966
   13.275    3.4860
   13.290    3.5914
   13.305    3.7388
   13.320    3.6756
   13.335    3.6651
   13.350    3.6756
   13.365    3.8020
   13.380    3.6651
   13.395    3.9916
   13.410    4.3075
   13.425    4.0232
   13.440    3.9705
   13.455    3.6440
   13.470    3.7599
   13.485    4.1285
   13.500    4.3181
   13.515    4.3181
   13.530    4.7499
   13.545    4.8763
   13.560    4.7815
   13.575    4.2549
   13.590    3.5703
   13.605    3.7388
   13.620    3.4544
   13.635    3.6756
   13.650    3.6335
   13.665    3.5282
   13.680    3.5808
   13.695    3.8652
   13.710    3.8757
   13.725    3.5282
   13.740    3.6335
   13.755    3.4544
   13.770    3.6756
   13.785    3.6862
   13.800    3.7177
   13.815    3.6440
   13.830    3.5808
   13.845    3.8968
   13.860    3.4755
   13.875    3.6019
   13.890    3.7388
   13.905    3.6335
   13.920    3.9179
   13.935    3.8547
   13.950    3.8441
   13.965    4.1706
   13.980    4.0758
   13.995    3.9810
   14.010    4.1074
   14.025    4.2443
   14.040    4.6445
   14.055    5.0553
   14.070    5.3291
   14.085    5.9926
   14.100    5.8768
   14.115    5.9084
   14.130    5.5082
   14.145    4.8447
   14.160    4.2549
   14.175    3.9179
   14.190    4.0758
   14.205    3.9073
   14.220    3.6651
   14.235    3.6756
   14.250    3.8125
   14.265    3.8231
   14.280    3.7809
   14.295    3.7599
   14.310    3.8863
   14.325    4.1180
   14.340    4.1601
   14.355    3.7388
   14.370    3.6546
   14.385    4.1074
   14.400    3.8652
   14.415    3.6124
   14.430    3.9179
   14.445    3.8652
   14.460    3.9179
   14.475    3.8231
   14.490    3.8547
   14.505    3.9073
   14.520    3.9179
   14.535    4.0969
   14.550    3.7493
   14.565    3.9600
   14.580    3.7704
   14.595    3.8652
   14.610    4.0126
   14.625    4.1917
   14.640    4.0232
   14.655    3.8652
   14.670    3.9916
   14.685    3.8020
   14.700    3.7493
   14.715    3.9389
   14.730    4.1285
   14.745    3.9073
   14.760    3.8968
   14.775    3.9705
   14.790    3.9916
   14.805    3.7283
   14.820    3.8863
   14.835    3.5282
   14.850    3.7283
   14.865    3.7177
   14.880    3.5703
   14.895    3.8231
   14.910    3.6124
   14.925    3.6124
   14.940    3.8547
   14.955    3.7915
   14.970    3.8336
   14.985    3.7072
   15.000    3.7493
   15.015    3.7072
   15.030    3.5176
   15.045    3.7493
   15.060    4.1601
   15.075    4.0232
   15.090    4.0442
   15.105    3.7493
   15.120    4.2865
   15.135    4.1496
   15.150    4.0864
   15.165    3.9284
   15.180    4.2759
   15.195    4.0021
   15.210    4.1180
   15.225    3.7704
   15.240    3.5914
   15.255    3.5808
   15.270    3.8125
   15.285    3.7388
   15.300    3.6651
   15.315    3.7915
   15.330    3.4860
   15.345    3.6019
   15.360    3.4018
   15.375    3.5914
   15.390    3.7599
   15.405    3.5598
   15.420    3.8231
   15.435    3.7283
   15.450    3.8231
   15.465    3.4334
   15.480    3.5703
   15.495    3.4439
   15.510    3.3281
   15.525    3.3597
   15.540    3.7283
   15.555    3.6651
   15.570    3.5914
   15.585    3.6335
   15.600    3.6124
   15.615    3.7177
   15.630    3.7388
   15.645    3.7704
   15.660    3.6019
   15.675    3.7599
   15.690    3.4544
   15.705    3.4860
   15.720    3.6651
   15.735    3.6230
   15.750    3.7072
   15.765    3.5808
   15.780    3.3702
   15.795    3.7599
   15.810    3.7704
   15.825    3.5282
   15.840    3.5808
   15.855    3.6124
   15.870    3.5914
   15.885    3.6862
   15.900    3.6019
   15.915    3.6019
   15.930    3.5598
   15.945    3.7072
   15.960    3.4334
   15.975    3.6335
   15.990    3.5492
   16.005    3.6124
   16.020    3.8652
   16.035    3.8757
   16.050    3.7493
   16.065    3.8231
   16.080    3.9389
   16.095    3.6862
   16.110    3.8441
   16.125    4.2233
   16.140    3.8652
   16.155    3.7388
   16.170    4.0232
   16.185    3.9179
   16.200    3.4123
   16.215    3.6335
   16.230    3.7599
   16.245    3.5808
   16.260    3.4755
   16.275    3.6335
   16.290    3.9494
   16.305    3.6440
   16.320    3.7493
   16.335    3.6124
   16.350    3.5282
   16.365    3.5071
   16.380    3.5071
   16.395    3.7388
   16.410    3.7388
   16.425    3.7072
   16.440    3.6546
   16.455    3.6862
   16.470    3.6440
   16.485    3.5914
   16.500    3.6756
   16.515    3.6756
   16.530    3.8547
   16.545    3.9284
   16.560    3.9284
   16.575    4.0864
   16.590    4.0864
   16.605    4.0653
   16.620    3.9916
   16.635    4.2549
   16.650    3.5071
   16.665    3.8125
   16.680    3.8652
   16.695    3.6440
   16.710    3.7177
   16.725    3.9810
   16.740    3.4439
   16.755    3.6019
   16.770    3.5387
   16.785    3.4123
   16.800    3.4123
   16.815    3.4860
   16.830    3.4860
   16.845    3.4544
   16.860    3.5282
   16.875    3.5282
   16.890    3.6651
   16.905    3.7599
   16.920    3.7915
   16.935    3.7283
   16.950    3.6019
   16.965    4.0653
   16.980    4.0653
   16.995    4.0126
   17.010    4.4128
   17.025    4.7604
   17.040    4.7604
   17.055    5.3712
   17.070    5.4028
   17.085    5.4134
   17.100    4.9816
   17.115    4.3602
   17.130    4.3286
   17.145    3.6124
   17.160    3.6440
   17.175    3.8441
   17.190    3.7072
   17.205    3.6862
   17.220    3.3913
   17.235    3.4860
   17.250    3.8968
   17.265    3.5282
   17.280    3.5071
   17.295    3.6440
   17.310    3.5071
   17.325    3.7493
   17.340    3.8125
   17.355    3.7809
   17.370    3.5808
   17.385    3.6124
   17.400    3.6230
   17.415    3.3597
   17.430    3.8757
   17.445    3.5914
   17.460    3.8336
   17.475    3.9389
   17.490    4.0126
   17.505    3.7072
   17.520    3.9705
   17.535    4.0232
   17.550    4.1601
   17.565    3.8441
   17.580    3.8968
   17.595    3.6756
   17.610    3.6546
   17.625    3.5492
   17.640    3.7177
   17.655    3.5914
   17.670    3.4439
   17.685    3.1912
   17.700    3.5282
   17.715    3.5598
   17.730    3.4334
   17.745    3.6124
   17.760    3.7599
   17.775    3.4755
   17.790    3.2543
   17.805    3.4544
   17.820    3.5914
   17.835    3.2543
   17.850    3.5703
   17.865    3.5914
   17.880    3.5176
   17.895    3.6546
   17.910    3.6756
   17.925    3.6546
   17.940    3.6862
   17.955    4.1180
   17.970    4.2233
   17.985    3.9705
   18.000    3.6862
   18.015    3.6019
   18.030    3.2965
   18.045    3.3702
   18.060    3.6651
   18.075    3.6651
   18.090    3.8968
   18.105    3.8020
   18.120    3.4966
   18.135    3.3807
   18.150    3.8652
   18.165    3.7283
   18.180    3.8020
   18.195    3.7599
   18.210    3.5808
   18.225    3.4650
   18.240    3.5176
   18.255    3.8441
   18.270    3.6019
   18.285    3.7809
   18.300    3.8547
   18.315    3.6862
   18.330    3.9494
   18.345    4.3075
   18.360    4.3391
   18.375    4.1074
   18.390    3.9179
   18.405    3.7809
   18.420    3.6651
   18.435    3.7283
   18.450    3.6440
   18.465    3.5176
   18.480    3.6230
   18.495    3.7388
   18.510    3.2649
   18.525    3.3175
   18.540    3.1069
   18.555    3.4123
   18.570    3.5598
   18.585    3.5808
   18.600    3.8020
   18.615    3.1806
   18.630    3.6230
   18.645    3.7388
   18.660    3.3491
   18.675    3.7177
   18.690    3.9494
   18.705    3.6967
   18.720    3.6019
   18.735    3.4650
   18.750    3.6230
   18.765    3.8020
   18.780    3.8757
   18.795    3.5598
   18.810    3.3807
   18.825    3.6440
   18.840    3.8125
   18.855    3.8231
   18.870    3.6440
   18.885    3.4123
   18.900    3.3175
   18.915    3.6124
   18.930    3.4334
   18.945    3.3175
   18.960    3.5492
   18.975    3.4755
   18.990    3.6124
   19.005    3.6019
   19.020    3.3386
   19.035    3.7072
   19.050    3.4860
   19.065    3.4755
   19.080    3.3491
   19.095    3.3807
   19.110    3.3597
   19.125    3.1806
   19.140    3.4334
   19.155    3.2965
   19.170    3.5071
   19.185    3.6546
   19.200    3.7072
   19.215    3.4229
   19.230    3.3175
   19.245    3.3491
   19.260    3.6335
   19.275    3.1596
   19.290    3.2333
   19.305    3.5071
   19.320    3.3491
   19.335    3.1069
   19.350    3.5598
   19.365    3.4018
   19.380    3.2859
   19.395    3.4544
   19.410    3.4755
   19.425    3.5598
   19.440    3.2122
   19.455    3.4439
   19.470    3.3807
   19.485    3.3597
   19.500    3.4755
   19.515    3.4544
   19.530    3.3175
   19.545    3.5176
   19.560    3.8547
   19.575    3.7283
   19.590    3.5492
   19.605    4.0548
   19.620    4.1390
   19.635    4.1180
   19.650    3.5282
   19.665    3.5176
   19.680    3.4334
   19.695    3.5282
   19.710    3.3175
   19.725    3.3491
   19.740    3.3702
   19.755    3.4123
   19.770    3.6546
   19.785    3.3491
   19.800    3.1280
   19.815    3.2438
   19.830    3.3491
   19.845    3.2227
   19.860    3.5808
   19.875    3.5282
   19.890    3.3070
   19.905    3.0858
   19.920    3.3702
   19.935    3.4439
   19.950    3.5282
   19.965    3.2122
   19.980    3.3070
   19.995    3.5071
   20.010    3.4860
   20.025    3.5914
   20.040    3.2965
   20.055    3.2438
   20.070    3.4123
   20.085    3.2438
   20.100    2.8541
   20.115    3.0648
   20.130    3.5808
   20.145    3.4229
   20.160    3.3386
   20.175    3.5387
   20.190    3.3597
   20.205    3.4544
   20.220    3.4966
   20.235    3.6019
   20.250    3.5387
   20.265    3.3175
   20.280    3.7915
   20.295    3.6651
   20.310    3.4334
   20.325    3.6019
   20.340    3.9600
   20.355    4.3707
   20.370    4.4760
   20.385    4.2970
   20.400    4.3181
   20.415    4.3497
   20.430    3.8757
   20.445    3.3702
   20.460    3.5492
   20.475    3.6967
   20.490    3.2754
   20.505    3.3070
   20.520    3.1069
   20.535    3.0226
   20.550    3.2122
   20.565    3.1385
   20.580    3.3386
   20.595    3.1385
   20.610    3.1596
   20.625    3.2333
   20.640    3.2649
   20.655    3.2333
   20.670    3.4755
   20.685    3.5598
   20.700    3.4966
   20.715    3.3070
   20.730    3.1069
   20.745    3.0226
   20.760    3.4544
   20.775    3.4229
   20.790    2.9489
   20.805    3.2017
   20.820    3.3386
   20.835    3.4229
   20.850    3.0226
   20.865    3.4544
   20.880    3.3386
   20.895    3.1069
   20.910    3.5703
   20.925    3.4755
   20.940    3.1806
   20.955    3.2438
   20.970    3.1280
   20.985    3.2543
   21.000    3.2227
   21.015    3.3491
   21.030    3.3281
   21.045    3.6230
   21.060    3.5282
   21.075    3.3702
   21.090    3.0332
   21.105    3.1701
   21.120    3.1490
   21.135    3.1701
   21.150    3.2017
   21.165    3.2333
   21.180    3.3070
   21.195    3.5703
   21.210    3.4544
   21.225    3.1806
   21.240    3.1280
   21.255    3.1912
   21.270    3.2122
   21.285    3.0648
   21.300    3.2227
   21.315    3.1490
   21.330    3.4650
   21.345    3.3702
   21.360    3.2965
   21.375    3.1174
   21.390    3.2122
   21.405    3.3386
   21.420    3.5492
   21.435    3.3702
   21.450    3.2017
   21.465    3.4229
   21.480    2.9805
   21.495    3.1596
   21.510    3.3281
   21.525    3.3070
   21.540    3.2438
   21.555    3.2649
   21.570    3.3597
   21.585    3.4650
   21.600    3.3913
   21.615    3.5808
   21.630    3.5282
   21.645    3.2859
   21.660    3.2859
   21.675    3.2965
   21.690    3.1385
   21.705    3.2754
   21.720    3.5176
   21.735    3.5176
   21.750    3.1280
   21.765    3.2122
   21.780    3.2649
   21.795    3.2227
   21.810    3.3070
   21.825    3.5282
   21.840    3.7283
   21.855    3.5703
   21.870    3.6230
   21.885    3.6546
   21.900    3.7177
   21.915    3.4544
   21.930    3.2859
   21.945    3.1385
   21.960    3.2333
   21.975    3.4334
   21.990    3.1174
   22.005    3.0437
   22.020    3.2227
   22.035    3.1385
   22.050    3.1280
   22.065    3.2965
   22.080    3.1280
   22.095    3.3386
   22.110    3.3913
   22.125    3.1280
   22.140    3.2122
   22.155    3.2859
   22.170    3.6967
   22.185    3.4544
   22.200    3.8652
   22.215    3.6124
   22.230    3.6124
   22.245    3.4966
   22.260    3.0858
   22.275    3.3913
   22.290    3.2017
   22.305    3.0332
   22.320    3.1174
   22.335    3.3281
   22.350    3.1174
   22.365    3.0964
   22.380    3.0648
   22.395    3.0964
   22.410    3.2438
   22.425    3.1701
   22.440    3.2438
   22.455    3.4755
   22.470    3.0542
   22.485    3.3491
   22.500    3.5914
   22.515    3.6756
   22.530    4.2338
   22.545    4.2443
   22.560    4.3602
   22.575    4.5603
   22.590    4.5392
   22.605    4.1601
   22.620    3.7493
   22.635    3.6967
   22.650    3.3807
   22.665    3.2227
   22.680    3.1069
   22.695    3.3070
   22.710    3.4123
   22.725    3.0964
   22.740    3.3386
   22.755    3.2438
   22.770    3.2649
   22.785    3.1174
   22.800    3.3386
   22.815    3.2965
   22.830    3.2543
   22.845    3.3913
   22.860    3.7809
   22.875    4.1285
   22.890    4.0337
   22.905    4.5498
   22.920    4.3286
   22.935    4.3918
   22.950    3.9494
   22.965    4.0337
   22.980    3.5808
   22.995    3.2227
   23.010    3.2543
   23.025    2.9700
   23.040    3.1596
   23.055    3.4018
   23.070    2.7593
   23.085    2.9489
   23.100    3.0542
   23.115    3.0858
   23.130    3.3175
   23.145    3.1174
   23.160    3.2754
   23.175    3.2754
   23.190    3.1069
   23.205    3.3597
   23.220    3.4229
   23.235    3.5492
   23.250    3.6756
   23.265    3.5387
   23.280    3.5176
   23.295    3.3281
   23.310    3.0964
   23.325    3.0121
   23.340    2.9173
   23.355    3.0542
   23.370    3.1069
   23.385    3.0964
   23.400    3.3281
   23.415    3.5808
   23.430    3.1701
   23.445    3.0016
   23.460    3.1701
   23.475    3.0858
   23.490    3.0648
   23.505    3.2017
   23.520    3.1174
   23.535    3.0121
   23.550    3.0121
   23.565    3.3702
   23.580    3.1912
   23.595    2.8647
   23.610    3.1280
   23.625    2.9279
   23.640    2.9384
   23.655    2.9700
   23.670    2.9595
   23.685    2.8436
   23.700    3.0858
   23.715    3.0964
   23.730    2.9489
   23.745    2.8541
   23.760    2.6856
   23.775    2.9700
   23.790    3.1385
   23.805    3.1280
   23.820    3.1490
   23.835    3.0016
   23.850    2.9489
   23.865    2.9595
   23.880    3.1385
   23.895    3.3491
   23.910    3.4334
   23.925    3.4229
   23.940    3.0964
   23.955    3.1701
   23.970    3.1069
   23.985    3.0016
   24.000    2.9068
   24.015    3.0226
   24.030    3.1174
   24.045    2.9910
   24.060    2.9068
   24.075    2.8857
   24.090    3.0437
   24.105    3.0648
   24.120    3.2438
   24.135    2.8120
   24.150    2.8857
   24.165    2.8752
   24.180    3.0648
   24.195    3.1069
   24.210    3.0964
   24.225    3.0437
   24.240    3.0226
   24.255    2.9068
   24.270    2.8647
   24.285    2.9700
   24.300    2.8857
   24.315    3.2122
   24.330    2.9489
   24.345    2.7593
   24.360    2.7067
   24.375    3.0016
   24.390    2.9910
   24.405    2.7067
   24.420    2.9279
   24.435    2.6751
   24.450    2.8120
   24.465    2.9068
   24.480    3.1806
   24.495    3.0437
   24.510    2.7488
   24.525    3.2649
   24.540    2.8541
   24.555    3.1069
   24.570    3.0437
   24.585    2.9700
   24.600    2.7804
   24.615    2.6856
   24.630    2.8436
   24.645    2.6646
   24.660    2.7278
   24.675    2.9910
   24.690    2.8541
   24.705    2.7593
   24.720    2.7804
   24.735    2.8541
   24.750    3.0121
   24.765    2.5908
   24.780    2.8647
   24.795    2.7383
   24.810    2.8647
   24.825    2.8225
   24.840    2.9279
   24.855    3.1174
   24.870    2.9173
   24.885    2.9173
   24.900    3.2227
   24.915    2.8963
   24.930    2.7278
   24.945    2.7909
   24.960    2.8541
   24.975    2.9173
   24.990    2.5276
   25.005    2.8541
   25.020    3.0121
   25.035    2.9910
   25.050    2.7593
   25.065    2.7383
   25.080    3.1701
   25.095    2.7488
   25.110    2.6540
   25.125    2.7699
   25.140    2.8647
   25.155    3.0753
   25.170    3.0648
   25.185    3.0016
   25.200    2.8436
   25.215    3.0437
   25.230    2.8541
   25.245    2.7278
   25.260    2.8120
   25.275    2.8752
   25.290    3.3597
   25.305    2.9700
   25.320    2.9384
   25.335    2.6962
   25.350    2.7699
   25.365    2.6856
   25.380    2.8963
   25.395    2.3591
   25.410    2.6224
   25.425    2.8120
   25.440    2.9173
   25.455    3.1596
   25.470    3.1490
   25.485    3.2333
   25.500    3.1385
   25.515    3.0858
   25.530    2.9279
   25.545    2.9700
   25.560    2.8436
   25.575    2.8225
   25.590    2.9595
   25.605    2.8015
   25.620    2.6751
   25.635    2.9173
   25.650    3.0121
   25.665    2.9173
   25.680    2.7804
   25.695    2.8015
   25.710    2.9700
   25.725    2.8647
   25.740    2.9068
   25.755    3.0437
   25.770    3.2438
   25.785    3.2754
   25.800    3.8125
   25.815    3.7704
   25.830    4.1285
   25.845    3.9916
   25.860    3.4544
   25.875    3.0332
   25.890    2.9384
   25.905    3.1912
   25.920    3.0226
   25.935    3.1385
   25.950    2.7278
   25.965    2.7909
   25.980    2.9068
   25.995    2.8225
   26.010    2.8015
   26.025    2.8647
   26.040    2.9489
   26.055    3.0016
   26.070    3.0332
   26.085    2.9068
   26.100    3.0332
   26.115    2.7172
   26.130    2.7909
   26.145    2.9805
   26.160    2.9173
   26.175    2.8436
   26.190    2.6330
   26.205    2.8120
   26.220    2.6646
   26.235    2.8541
   26.250    2.8225
   26.265    2.5382
   26.280    2.6014
   26.295    2.9279
   26.310    2.6856
   26.325    2.9700
   26.340    2.8647
   26.355    2.6751
   26.370    3.1490
   26.385    2.8647
   26.400    2.9279
   26.415    3.1701
   26.430    3.3070
   26.445    3.1280
   26.460    2.7172
   26.475    2.9489
   26.490    3.2122
   26.505    2.6435
   26.520    2.7593
   26.535    2.8541
   26.550    2.8015
   26.565    2.6962
   26.580    2.8331
   26.595    2.7172
   26.610    2.6540
   26.625    2.4118
   26.640    2.7383
   26.655    2.8331
   26.670    2.7172
   26.685    2.7383
   26.700    2.6856
   26.715    2.7383
   26.730    2.6435
   26.745    2.7593
   26.760    2.6224
   26.775    2.6330
   26.790    2.5803
   26.805    2.6014
   26.820    2.5698
   26.835    2.7383
   26.850    2.8015
   26.865    2.6962
   26.880    2.5066
   26.895    2.7172
   26.910    2.7909
   26.925    2.7067
   26.940    2.7699
   26.955    2.6119
   26.970    2.8436
   26.985    3.0016
   27.000    3.1701
   27.015    3.0648
   27.030    2.9595
   27.045    3.0226
   27.060    2.9279
   27.075    2.6856
   27.090    2.7804
   27.105    2.6014
   27.120    2.4645
   27.135    2.8015
   27.150    2.6224
   27.165    2.8331
   27.180    2.4855
   27.195    2.6962
   27.210    2.6014
   27.225    2.5171
   27.240    2.4118
   27.255    2.4434
   27.270    2.6856
   27.285    2.5698
   27.300    2.5066
   27.315    2.4539
   27.330    2.5066
   27.345    2.6119
   27.360    2.5382
   27.375    2.6224
   27.390    2.6540
   27.405    2.5908
   27.420    2.6330
   27.435    2.6014
   27.450    2.7383
   27.465    2.4539
   27.480    2.5803
   27.495    2.7909
   27.510    2.6646
   27.525    2.7593
   27.540    2.7172
   27.555    2.7278
   27.570    2.9068
   27.585    2.9805
   27.600    3.0121
   27.615    2.8963
   27.630    3.0858
   27.645    3.2859
   27.660    2.7383
   27.675    2.4855
   27.690    2.5908
   27.705    2.6540
   27.720    2.5487
   27.735    2.5803
   27.750    2.7278
   27.765    2.7278
   27.780    2.5908
   27.795    2.4855
   27.810    2.6856
   27.825    2.5803
   27.840    2.6330
   27.855    2.8120
   27.870    2.8331
   27.885    2.8225
   27.900    2.8541
   27.915    2.6435
   27.930    2.6540
   27.945    2.5066
   27.960    2.6119
   27.975    2.6856
   27.990    2.6119
   28.005    2.4645
   28.020    2.4961
   28.035    2.5487
   28.050    2.3486
   28.065    2.5908
   28.080    2.5592
   28.095    2.5487
   28.110    2.6646
   28.125    2.7278
   28.140    2.7278
   28.155    2.8541
   28.170    2.7067
   28.185    2.7067
   28.200    2.8963
   28.215    2.9068
   28.230    2.7804
   28.245    2.8963
   28.260    2.5171
   28.275    2.6014
   28.290    2.5276
   28.305    2.3591
   28.320    2.5592
   28.335    2.7067
   28.350    2.8541
   28.365    2.5487
   28.380    2.7172
   28.395    2.8436
   28.410    2.7172
   28.425    2.5171
   28.440    2.6540
   28.455    2.7909
   28.470    2.7278
   28.485    2.7593
   28.500    2.4855
   28.515    2.5698
   28.530    2.5803
   28.545    2.4961
   28.560    2.4329
   28.575    2.4329
   28.590    2.4223
   28.605    3.0226
   28.620    2.7067
   28.635    2.6014
   28.650    2.5382
   28.665    2.3065
   28.680    2.4855
   28.695    2.6119
   28.710    2.4539
   28.725    2.5171
   28.740    2.7278
   28.755    2.6330
   28.770    2.6751
   28.785    2.8015
   28.800    2.4539
   28.815    2.4118
   28.830    2.4645
   28.845    2.5066
   28.860    2.4118
   28.875    2.4118
   28.890    2.6224
   28.905    2.7172
   28.920    2.7278
   28.935    2.4961
   28.950    2.5592
   28.965    2.5908
   28.980    2.9489
   28.995    2.8541
   29.010    2.8647
   29.025    2.5276
   29.040    2.5803
   29.055    2.8436
   29.070    2.5698
   29.085    2.6224
   29.100    2.5382
   29.115    2.4434
   29.130    2.4645
   29.145    2.6224
   29.160    2.6540
   29.175    2.6014
   29.190    2.4961
   29.205    2.4855
   29.220    2.5592
   29.235    2.6224
   29.250    2.7804
   29.265    2.5487
   29.280    2.9279
   29.295    2.8541
   29.310    2.6646
   29.325    2.7278
   29.340    2.2959
   29.355    2.5276
   29.370    2.4223
   29.385    2.6330
   29.400    2.4961
   29.415    2.2854
   29.430    2.5487
   29.445    2.4223
   29.460    2.2959
   29.475    2.3065
   29.490    2.2854
   29.505    2.3170
   29.520    2.3275
   29.535    2.1169
   29.550    2.1064
   29.565    2.1064
   29.580    2.0853
   29.595    2.4750
   29.610    2.5803
   29.625    2.4118
   29.640    2.4013
   29.655    2.1485
   29.670    2.4539
   29.685    2.6856
   29.700    2.3802
   29.715    2.3170
   29.730    2.3802
   29.745    2.1906
   29.760    2.2117
   29.775    2.1801
   29.790    2.4645
   29.805    2.3275
   29.820    2.3907
   29.835    2.3907
   29.850    2.4645
   29.865    2.5066
   29.880    2.4539
   29.895    2.1274
   29.910    2.1906
   29.925    2.1274
   29.940    2.1696
   29.955    2.3065
   29.970    2.3802
   29.985    2.1169
   30.000    2.1801
   30.015    2.4223
   30.030    2.2643
   30.045    2.2012
   30.060    2.4118
   30.075    2.3275
   30.090    2.4645
   30.105    2.6435
   30.120    2.3697
   30.135    2.2222
   30.150    2.1274
   30.165    2.3486
   30.180    2.4539
   30.195    2.2328
   30.210    2.3802
   30.225    2.4539
   30.240    2.2959
   30.255    2.0011
   30.270    2.1380
   30.285    2.3170
   30.300    2.1064
   30.315    2.3065
   30.330    2.2538
   30.345    2.2538
   30.360    2.0326
   30.375    1.9905
   30.390    2.0221
   30.405    2.0642
   30.420    2.1485
   30.435    2.2433
   30.450    2.0221
   30.465    1.9484
   30.480    2.3065
   30.495    2.2959
   30.510    2.3170
   30.525    2.2117
   30.540    2.2433
   30.555    2.3381
   30.570    2.3907
   30.585    2.3381
   30.600    2.3802
   30.615    2.2328
   30.630    2.2222
   30.645    2.2749
   30.660    2.1485
   30.675    2.4539
   30.690    2.2643
   30.705    2.4434
   30.720    2.2012
   30.735    2.1906
   30.750    2.3065
   30.765    2.3275
   30.780    2.1696
   30.795    2.1696
   30.810    2.2643
   30.825    2.1906
   30.840    2.3275
   30.855    2.2643
   30.870    2.0011
   30.885    2.1590
   30.900    2.1380
   30.915    2.0642
   30.930    2.1064
   30.945    1.9168
   30.960    2.2222
   30.975    2.2117
   30.990    2.3275
   31.005    2.1485
   31.020    2.0853
   31.035    1.8431
   31.050    2.0116
   31.065    2.0958
   31.080    2.1696
   31.095    2.1906
   31.110    2.2117
   31.125    2.0011
   31.140    2.2117
   31.155    2.0011
   31.170    2.1590
   31.185    2.2012
   31.200    1.9063
   31.215    2.0326
   31.230    2.0116
   31.245    2.0326
   31.260    2.0537
   31.275    2.0326
   31.290    2.1906
   31.305    2.2433
   31.320    2.3065
   31.335    2.2117
   31.350    2.2538
   31.365    2.2433
   31.380    2.3802
   31.395    2.4223
   31.410    2.1801
   31.425    2.0011
   31.440    2.0642
   31.455    2.0748
   31.470    2.0958
   31.485    2.0432
   31.500    2.2328
   31.515    2.0958
   31.530    1.9379
   31.545    2.0958
   31.560    2.0221
   31.575    2.1485
   31.590    2.1064
   31.605    2.0116
   31.620    2.0432
   31.635    2.0958
   31.650    2.3486
   31.665    2.2749
   31.680    2.1169
   31.695    2.0642
   31.710    2.2117
   31.725    2.5382
   31.740    2.4013
   31.755    2.1274
   31.770    2.2328
   31.785    2.1801
   31.800    2.0958
   31.815    2.1485
   31.830    2.2959
   31.845    2.2538
   31.860    2.2538
   31.875    2.2328
   31.890    2.1380
   31.905    2.2959
   31.920    2.2749
   31.935    1.9589
   31.950    1.9905
   31.965    2.3065
   31.980    2.2959
   31.995    2.2433
   32.010    2.0537
   32.025    2.0116
   32.040    1.9484
   32.055    2.4434
   32.070    2.4434
   32.085    2.4329
   32.100    2.5908
   32.115    2.6224
   32.130    2.4329
   32.145    2.1906
   32.160    2.1380
   32.175    2.0853
   32.190    2.1064
   32.205    2.2012
   32.220    1.7483
   32.235    2.0748
   32.250    2.1064
   32.265    1.9273
   32.280    2.0011
   32.295    1.8641
   32.310    1.8852
   32.325    1.9589
   32.340    2.0432
   32.355    2.1906
   32.370    2.0011
   32.385    1.9168
   32.400    2.0958
   32.415    2.0958
   32.430    1.9589
   32.445    2.1590
   32.460    2.1064
   32.475    1.9905
   32.490    1.9800
   32.505    2.0011
   32.520    1.9063
   32.535    1.8325
   32.550    1.9379
   32.565    1.7694
   32.580    1.8852
   32.595    1.6324
   32.610    1.9273
   32.625    1.9800
   32.640    1.9905
   32.655    1.9800
   32.670    2.0642
   32.685    2.0116
   32.700    2.0326
   32.715    2.0221
   32.730    2.2012
   32.745    1.9063
   32.760    2.2117
   32.775    2.0958
   32.790    1.8852
   32.805    1.9168
   32.820    2.1696
   32.835    2.2749
   32.850    2.2959
   32.865    2.1485
   32.880    2.0748
   32.895    1.9063
   32.910    2.1801
   32.925    2.1590
   32.940    2.1590
   32.955    1.8747
   32.970    1.9589
   32.985    2.1590
   33.000    1.9379
   33.015    2.0326
   33.030    2.1801
   33.045    2.0748
   33.060    1.9589
   33.075    1.8220
   33.090    1.9063
   33.105    1.9695
   33.120    2.0011
   33.135    2.0748
   33.150    1.8325
   33.165    1.8220
   33.180    1.9484
   33.195    1.9589
   33.210    1.9168
   33.225    1.9905
   33.240    1.9273
   33.255    1.8325
   33.270    1.8957
   33.285    2.0537
   33.300    2.1380
   33.315    1.8957
   33.330    1.9273
   33.345    1.9063
   33.360    2.0537
   33.375    1.9484
   33.390    2.0958
   33.405    1.9273
   33.420    1.8220
   33.435    2.0432
   33.450    1.9063
   33.465    1.9273
   33.480    2.0116
   33.495    2.1274
   33.510    2.0326
   33.525    1.9379
   33.540    1.9063
   33.555    1.8641
   33.570    1.9905
   33.585    2.0642
   33.600    2.0642
   33.615    2.0853
   33.630    2.1590
   33.645    2.1906
   33.660    2.0011
   33.675    1.8009
   33.690    1.6640
   33.705    1.6851
   33.720    1.9695
   33.735    1.8641
   33.750    1.8220
   33.765    2.0642
   33.780    1.9800
   33.795    2.0432
   33.810    2.1380
   33.825    2.2328
   33.840    2.2749
   33.855    2.4750
   33.870    2.1169
   33.885    2.2538
   33.900    2.3486
   33.915    2.1064
   33.930    2.1485
   33.945    2.1801
   33.960    2.1696
   33.975    1.9379
   33.990    2.0748
   34.005    1.8852
   34.020    2.0221
   34.035    2.0642
   34.050    1.9800
   34.065    2.0958
   34.080    1.8641
   34.095    1.9168
   34.110    2.0642
   34.125    1.9273
   34.140    2.1801
   34.155    1.9800
   34.170    1.9695
   34.185    1.9800
   34.200    2.0326
   34.215    2.0116
   34.230    1.9273
   34.245    1.9800
   34.260    2.2538
   34.275    1.9273
   34.290    1.7904
   34.305    1.9589
   34.320    2.0011
   34.335    1.8431
   34.350    1.7588
   34.365    1.8536
   34.380    1.9589
   34.395    1.9379
   34.410    2.0221
   34.425    1.9589
   34.440    1.7062
   34.455    1.7904
   34.470    1.8536
   34.485    2.0326
   34.500    1.8431
   34.515    1.9063
   34.530    1.6640
   34.545    1.8641
   34.560    1.9589
   34.575    2.0748
   34.590    1.8431
   34.605    1.8536
   34.620    1.8325
   34.635    1.8641
   34.650    1.7272
   34.665    1.9063
   34.680    1.8220
   34.695    1.8009
   34.710    1.9800
   34.725    1.9905
   34.740    2.1801
   34.755    2.0011
   34.770    2.1590
   34.785    2.1064
   34.800    1.8325
   34.815    1.9063
   34.830    2.0116
   34.845    1.9800
   34.860    1.9379
   34.875    1.8747
   34.890    2.0326
   34.905    1.8641
   34.920    1.7167
   34.935    1.7483
   34.950    1.7799
   34.965    1.8747
   34.980    2.0432
   34.995    2.0853
   35.010    1.9484
   35.025    1.8220
   35.040    1.7588
   35.055    1.8536
   35.070    1.7694
   35.085    1.5903
   35.100    1.8115
   35.115    1.8220
   35.130    1.8009
   35.145    1.7378
   35.160    1.7378
   35.175    2.1380
   35.190    1.8852
   35.205    1.8536
   35.220    1.9168
   35.235    1.7272
   35.250    1.7378
   35.265    1.9168
   35.280    1.8009
   35.295    1.8220
   35.310    1.7588
   35.325    2.1064
   35.340    1.8009
   35.355    1.9484
   35.370    1.8852
   35.385    2.0326
   35.400    1.9800
   35.415    1.9379
   35.430    1.6746
   35.445    1.6640
   35.460    1.9379
   35.475    1.8747
   35.490    1.8641
   35.505    1.9589
   35.520    1.8009
   35.535    1.8536
   35.550    1.7588
   35.565    1.8115
   35.580    1.9484
   35.595    1.8431
   35.610    1.7904
   35.625    1.7588
   35.640    1.6640
   35.655    1.8431
   35.670    1.9063
   35.685    2.0326
   35.700    2.0326
   35.715    1.9273
   35.730    2.0432
   35.745    2.0537
   35.760    1.8009
   35.775    1.8957
   35.790    1.9589
   35.805    2.0326
   35.820    1.9695
   35.835    1.8431
   35.850    1.8852
   35.865    1.8009
   35.880    1.8325
   35.895    1.9273
   35.910    1.8852
   35.925    2.0221
   35.940    1.8747
   35.955    1.8115
   35.970    1.9063
   35.985    1.9379
   36.000    1.8431
   36.015    2.1169
   36.030    2.0537
   36.045    1.9273
   36.060    2.0221
   36.075    1.8115
   36.090    1.7062
   36.105    1.8852
   36.120    2.0853
   36.135    1.9484
   36.150    1.8325
   36.165    1.9063
   36.180    1.9589
   36.195    1.6746
   36.210    1.9273
   36.225    1.8747
   36.240    1.9695
   36.255    1.8325
   36.270    1.8325
   36.285    1.8957
   36.300    1.7272
   36.315    1.8325
   36.330    1.9168
   36.345    2.0432
   36.360    1.9063
   36.375    1.9905
   36.390    1.7378
   36.405    1.9484
   36.420    1.7904
   36.435    1.7694
   36.450    2.0537
   36.465    1.7694
   36.480    1.9063
   36.495    2.0432
   36.510    2.0116
   36.525    1.8957
   36.540    2.1801
   36.555    2.0853
   36.570    2.0642
   36.585    1.9589
   36.600    1.9379
   36.615    2.0537
   36.630    1.9589
   36.645    1.9695
   36.660    1.9063
   36.675    1.7378
   36.690    1.8431
   36.705    1.9063
   36.720    1.8220
   36.735    1.8747
   36.750    1.8747
   36.765    2.0537
   36.780    2.0432
   36.795    1.7799
   36.810    1.6430
   36.825    1.7167
   36.840    2.0537
   36.855    1.8009
   36.870    1.8536
   36.885    1.7694
   36.900    1.6640
   36.915    1.8747
   36.930    1.7483
   36.945    1.7799
   36.960    2.0326
   36.975    1.7167
   36.990    1.8009
   37.005    1.9484
   37.020    1.7799
   37.035    1.8957
   37.050    1.9695
   37.065    2.0221
   37.080    2.0221
   37.095    1.8325
   37.110    1.8009
   37.125    1.8325
   37.140    1.9484
   37.155    2.0011
   37.170    1.9905
   37.185    2.0958
   37.200    1.8115
   37.215    1.6535
   37.230    1.8747
   37.245    1.7378
   37.260    1.7062
   37.275    1.7799
   37.290    1.9589
   37.305    2.0116
   37.320    1.8325
   37.335    1.9168
   37.350    1.9379
   37.365    1.7483
   37.380    1.6956
   37.395    1.5692
   37.410    1.9589
   37.425    1.8115
   37.440    1.7799
   37.455    1.6746
   37.470    1.8957
   37.485    1.9168
   37.500    1.7904
   37.515    1.8536
   37.530    1.9168
   37.545    1.7799
   37.560    1.7272
   37.575    1.8325
   37.590    1.7904
   37.605    1.8115
   37.620    1.7588
   37.635    1.6430
   37.650    1.8641
   37.665    1.9063
   37.680    1.8747
   37.695    1.8009
   37.710    1.9168
   37.725    1.9589
   37.740    1.8115
   37.755    1.7483
   37.770    1.7799
   37.785    1.7904
   37.800    1.8852
   37.815    1.9484
   37.830    2.0326
   37.845    1.9800
   37.860    1.6535
   37.875    1.7167
   37.890    1.9168
   37.905    1.9695
   37.920    1.9273
   37.935    1.8536
   37.950    1.9273
   37.965    1.8747
   37.980    1.8220
   37.995    1.9273
   38.010    2.1696
   38.025    1.7694
   38.040    1.7483
   38.055    1.8852
   38.070    1.9379
   38.085    1.6430
   38.100    1.8115
   38.115    1.9063
   38.130    1.8009
   38.145    1.8957
   38.160    1.9379
   38.175    1.7694
   38.190    1.7272
   38.205    1.6851
   38.220    1.6851
   38.235    1.6851
   38.250    1.5482
   38.265    1.6114
   38.280    1.9273
   38.295    1.6851
   38.310    1.6956
   38.325    1.8852
   38.340    1.9379
   38.355    1.9800
   38.370    1.6956
   38.385    1.8852
   38.400    1.8852
   38.415    1.7483
   38.430    1.9589
   38.445    1.8747
   38.460    1.7272
   38.475    1.6324
   38.490    1.8325
   38.505    1.9168
   38.520    1.9589
   38.535    2.0221
   38.550    1.8641
   38.565    1.8536
   38.580    1.5903
   38.595    1.6956
   38.610    1.7378
   38.625    1.6746
   38.640    1.7272
   38.655    1.8536
   38.670    1.9905
   38.685    2.0221
   38.700    1.6219
   38.715    1.8957
   38.730    1.7904
   38.745    1.8536
   38.760    1.9589
   38.775    2.0853
   38.790    1.8641
   38.805    1.8852
   38.820    1.7799
   38.835    1.7799
   38.850    1.7272
   38.865    1.8431
   38.880    1.7483
   38.895    1.7694
   38.910    1.7588
   38.925    1.8536
   38.940    1.8325
   38.955    1.8641
   38.970    1.8325
   38.985    1.8536
   39.000    1.7062
   39.015    1.6324
   39.030    1.7272
   39.045    1.7378
   39.060    1.5692
   39.075    1.6219
   39.090    1.7483
   39.105    1.8957
   39.120    1.8325
   39.135    1.5482
   39.150    1.6324
   39.165    1.7694
   39.180    1.8957
   39.195    1.6430
   39.210    1.7588
   39.225    1.8431
   39.240    1.8536
   39.255    1.8747
   39.270    1.6640
   39.285    1.7904
   39.300    1.5903
   39.315    1.8852
   39.330    1.8852
   39.345    1.8220
   39.360    1.8009
   39.375    1.8220
   39.390    1.8115
   39.405    1.7483
   39.420    1.5798
   39.435    1.7062
   39.450    1.7483
   39.465    1.8009
   39.480    1.6851
   39.495    1.8009
   39.510    1.8115
   39.525    1.7483
   39.540    1.7904
   39.555    1.7588
   39.570    1.6746
   39.585    1.7167
   39.600    1.7799
   39.615    1.8747
   39.630    1.8009
   39.645    1.8641
   39.660    1.8957
   39.675    1.8852
   39.690    1.8852
   39.705    1.8009
   39.720    1.8536
   39.735    1.6640
   39.750    1.7694
   39.765    1.9063
   39.780    1.7378
   39.795    1.8641
   39.810    1.8325
   39.825    1.7272
   39.840    1.6535
   39.855    2.0432
   39.870    1.7062
   39.885    1.8220
   39.900    1.7483
   39.915    2.0221
   39.930    1.8325
   39.945    1.6114
   39.960    1.7378
   39.975    1.7588
   39.990    1.6535
