    1.500   28.4887
    1.515   28.4185
    1.530   28.5764
    1.545   26.5929
    1.560   27.2249
    1.575   27.4706
    1.590   26.6280
    1.605   25.1711
    1.620   24.5568
    1.635   24.3461
    1.650   24.4690
    1.665   25.1185
    1.680   22.9068
    1.695   22.3275
    1.710   22.3275
    1.725   21.9238
    1.740   21.3446
    1.755   21.5552
    1.770   20.8706
    1.785   20.5020
    1.800   20.3616
    1.815   19.4839
    1.830   19.3962
    1.845   19.2031
    1.860   19.2382
    1.875   18.7994
    1.890   17.8691
    1.905   18.5010
    1.920   18.0446
    1.935   17.8339
    1.950   17.5882
    1.965   17.0616
    1.980   15.9558
    1.995   16.1137
    2.010   16.0260
    2.025   16.4297
    2.040   16.0786
    2.055   16.3244
    2.070   15.0430
    2.085   15.1483
    2.100   14.8850
    2.115   14.4462
    2.130   14.4813
    2.145   13.7792
    2.160   14.0951
    2.175   15.1132
    2.190   14.0249
    2.205   13.2175
    2.220   13.4632
    2.235   13.6388
    2.250   13.5159
    2.265   13.9021
    2.280   13.1473
    2.295   13.2175
    2.310   12.4803
    2.325   12.9542
    2.340   13.4106
    2.355   12.7084
    2.370   12.8664
    2.385   12.5154
    2.400   12.1116
    2.415   11.6904
    2.430   12.1819
    2.445   12.6909
    2.460   12.2872
    2.475   12.0590
    2.490   12.0941
    2.505   11.6904
    2.520   11.3393
    2.535   11.6728
    2.550   11.8483
    2.565   11.1111
    2.580   11.8834
    2.595   11.1287
    2.610   11.0585
    2.625   11.1111
    2.640   11.5148
    2.655   11.3569
    2.670   11.1989
    2.685   11.0585
    2.700   11.1989
    2.715   11.3744
    2.730   10.6021
    2.745   10.8303
    2.760   10.8829
    2.775   10.9707
    2.790   11.4797
    2.805   11.6377
    2.820   11.1813
    2.835   11.3744
    2.850   11.1813
    2.865   11.3042
    2.880   10.8478
    2.895   11.0058
    2.910   11.5324
    2.925   11.6202
    2.940   12.1994
    2.955   11.4797
    2.970   11.8834
    2.985   12.0590
    3.000   12.0063
    3.015   11.5675
    3.030   12.4100
    3.045   12.3749
    3.060   12.4803
    3.075   12.4451
    3.090   11.7255
    3.105   11.7606
    3.120   12.1994
    3.135   12.0063
    3.150   12.5856
    3.165   12.9893
    3.180   13.3228
    3.195   12.9542
    3.210   13.4281
    3.225   13.6212
    3.240   13.8143
    3.255   13.8845
    3.270   13.5159
    3.285   14.5691
    3.300   15.2185
    3.315   15.6047
    3.330   15.9733
    3.345   16.4648
    3.360   15.9909
    3.375   16.9738
    3.390   17.3776
    3.405   17.9919
    3.420   17.7637
    3.435   18.3254
    3.450   18.5185
    3.465   19.3084
    3.480   19.8526
    3.495   20.3967
    3.510   20.9760
    3.525   21.2041
    3.540   23.6440
    3.555   24.1882
    3.570   24.2584
    3.585   24.3110
    3.600   26.1015
    3.615   26.9791
    3.630   28.4887
    3.645   30.7004
    3.660   32.1924
    3.675   33.4211
    3.690   34.6498
    3.705   37.0721
    3.720   39.7753
    3.735   43.4264
    3.750   46.5333
    3.765   49.5524
    3.780   54.9412
    3.795   62.5592
    3.810   70.9321
    3.825   79.4278
    3.840   82.1661
    3.855   76.8650
    3.870   66.3683
    3.885   52.0625
    3.900   38.6695
    3.915   26.8913
    3.930   19.2909
    3.945   13.6037
    3.960   10.8654
    3.975   10.4792
    3.990    9.0398
    4.005    8.7941
    4.020    7.6883
    4.035    8.0218
    4.050    7.5303
    4.065    7.5654
    4.080    6.8808
    4.095    6.9686
    4.110    7.0915
    4.125    6.4771
    4.140    6.5473
    4.155    6.4595
    4.170    6.4946
    4.185    6.3191
    4.200    6.4420
    4.215    6.7930
    4.230    6.3893
    4.245    6.5473
    4.260    6.6702
    4.275    6.1085
    4.290    5.9856
    4.305    6.1611
    4.320    6.3191
    4.335    5.9681
    4.350    6.1436
    4.365    5.7048
    4.380    6.6702
    4.395    6.5122
    4.410    5.6697
    4.425    6.5122
    4.440    6.4420
    4.455    5.9154
    4.470    5.9329
    4.485    6.2840
    4.500    5.9856
    4.515    5.8978
    4.530    5.7925
    4.545    6.3893
    4.560    6.1611
    4.575    6.2665
    4.590    6.4244
    4.605    6.1085
    4.620    6.0383
    4.635    5.5468
    4.650    5.8803
    4.665    6.4069
    4.680    6.2313
    4.695    5.9505
    4.710    6.4244
    4.725    6.3893
    4.740    6.3542
    4.755    6.2138
    4.770    6.3367
    4.785    6.6877
    4.800    6.8282
    4.815    6.1611
    4.830    6.1962
    4.845    6.4595
    4.860    6.1611
    4.875    6.3718
    4.890    6.8984
    4.905    7.2143
    4.920    6.4244
    4.935    6.8984
    4.950    7.4601
    4.965    6.9686
    4.980    7.3723
    4.995    7.5127
    5.010    6.8282
    5.025    7.3372
    5.040    7.6005
    5.055    7.6707
    5.070    7.2845
    5.085    7.9691
    5.100    8.2324
    5.115    9.0398
    5.130    8.8468
    5.145    8.8468
    5.160    8.5835
    5.175    8.9696
    5.190    9.2154
    5.205    9.7069
    5.220   10.1983
    5.235   10.8127
    5.250   11.2164
    5.265   11.8132
    5.280   12.1994
    5.295   12.7611
    5.310   12.7260
    5.325   14.0074
    5.340   14.1302
    5.355   15.3590
    5.370   15.6749
    5.385   17.6233
    5.400   20.2914
    5.415   21.4148
    5.430   22.8366
    5.445   26.2945
    5.460   27.2424
    5.475   26.6632
    5.490   23.6089
    5.505   19.4839
    5.520   15.0781
    5.535   12.3398
    5.550    9.2680
    5.565    7.7409
    5.580    6.8282
    5.595    6.0558
    5.610    5.6345
    5.625    5.3361
    5.640    6.0734
    5.655    5.3888
    5.670    5.6872
    5.685    5.6521
    5.700    5.3888
    5.715    5.0202
    5.730    5.0377
    5.745    5.6345
    5.760    5.6170
    5.775    5.4590
    5.790    5.5468
    5.805    5.3537
    5.820    4.9149
    5.835    4.9500
    5.850    4.8095
    5.865    4.7744
    5.880    4.9675
    5.895    5.1606
    5.910    5.0904
    5.925    4.8095
    5.940    4.8798
    5.955    5.4415
    5.970    5.3186
    5.985    5.3537
    6.000    5.7399
    6.015    4.7744
    6.030    5.4064
    6.045    5.3888
    6.060    4.9851
    6.075    5.2835
    6.090    5.3361
    6.105    5.2835
    6.120    5.1782
    6.135    5.0202
    6.150    5.3010
    6.165    5.8452
    6.180    5.4590
    6.195    5.0904
    6.210    5.2484
    6.225    5.4064
    6.240    5.4064
    6.255    4.5111
    6.270    5.6170
    6.285    5.6170
    6.300    5.7574
    6.315    5.7399
    6.330    6.3016
    6.345    5.8978
    6.360    5.8276
    6.375    6.1260
    6.390    6.5122
    6.405    5.8276
    6.420    6.1787
    6.435    6.1962
    6.450    6.3016
    6.465    6.7404
    6.480    6.6175
    6.495    7.3899
    6.510    6.9861
    6.525    7.0563
    6.540    7.5478
    6.555    7.4776
    6.570    8.0569
    6.585    8.4079
    6.600    8.4255
    6.615    8.7063
    6.630    9.4962
    6.645   10.4792
    6.660   11.1638
    6.675   12.6031
    6.690   13.5510
    6.705   14.0951
    6.720   13.0595
    6.735   11.8659
    6.750   11.0936
    6.765    8.6361
    6.780    6.7755
    6.795    6.4244
    6.810    5.8276
    6.825    5.5819
    6.840    5.2835
    6.855    5.4064
    6.870    5.1255
    6.885    5.1255
    6.900    4.7920
    6.915    4.8622
    6.930    4.8973
    6.945    5.1080
    6.960    5.1782
    6.975    5.0377
    6.990    4.6165
    7.005    4.6516
    7.020    5.1080
    7.035    4.7744
    7.050    4.7042
    7.065    4.9851
    7.080    5.1431
    7.095    5.0202
    7.110    4.9851
    7.125    5.0202
    7.140    5.1255
    7.155    4.3356
    7.170    4.8798
    7.185    4.8447
    7.200    4.8447
    7.215    5.1782
    7.230    5.0904
    7.245    5.0904
    7.260    4.8447
    7.275    5.3537
    7.290    4.7744
    7.305    4.6691
    7.320    5.0553
    7.335    4.9675
    7.350    5.4415
    7.365    5.3712
    7.380    4.7920
    7.395    5.1606
    7.410    4.9851
    7.425    5.1957
    7.440    5.0202
    7.455    5.4941
    7.470    5.1255
    7.485    4.6516
    7.500    5.0553
    7.515    5.1431
    7.530    5.0728
    7.545    5.2308
    7.560    5.3186
    7.575    5.3010
    7.590    5.4590
    7.605    6.2138
    7.620    6.1962
    7.635    6.1962
    7.650    6.2665
    7.665    6.6351
    7.680    6.8633
    7.695    6.4244
    7.710    6.9686
    7.725    7.4425
    7.740    7.8813
    7.755    8.1095
    7.770    7.8287
    7.785    7.5478
    7.800    7.1617
    7.815    6.1962
    7.830    5.7925
    7.845    4.9675
    7.860    5.4064
    7.875    5.4941
    7.890    4.7042
    7.905    4.8798
    7.920    4.7920
    7.935    5.4766
    7.950    5.2484
    7.965    4.5463
    7.980    4.4760
    7.995    5.0377
    8.010    4.7744
    8.025    4.5638
    8.040    4.5463
    8.055    4.7042
    8.070    4.9149
    8.085    4.8798
    8.100    5.0377
    8.115    5.1255
    8.130    5.1606
    8.145    4.8095
    8.160    4.9324
    8.175    4.8447
    8.190    5.4239
    8.205    4.6691
    8.220    4.8271
    8.235    4.7569
    8.250    4.9149
    8.265    4.9149
    8.280    5.1431
    8.295    5.0026
    8.310    5.1431
    8.325    4.9149
    8.340    5.0553
    8.355    4.9500
    8.370    5.0728
    8.385    4.7218
    8.400    4.5638
    8.415    4.7218
    8.430    4.6165
    8.445    5.0026
    8.460    5.0904
    8.475    4.8973
    8.490    4.9851
    8.505    4.4760
    8.520    5.0728
    8.535    5.3010
    8.550    5.0553
    8.565    4.8973
    8.580    5.1080
    8.595    5.2484
    8.610    5.3010
    8.625    4.8622
    8.640    5.1957
    8.655    5.0377
    8.670    5.3186
    8.685    5.7048
    8.700    5.5819
    8.715    5.5468
    8.730    5.2484
    8.745    5.1431
    8.760    5.3537
    8.775    5.1606
    8.790    5.0026
    8.805    4.8271
    8.820    4.8271
    8.835    4.6691
    8.850    4.8271
    8.865    4.9851
    8.880    4.4409
    8.895    4.7569
    8.910    4.9324
    8.925    4.7569
    8.940    5.1080
    8.955    5.3537
    8.970    5.0728
    8.985    5.2484
    9.000    5.1606
    9.015    4.9851
    9.030    5.2835
    9.045    5.0026
    9.060    4.5989
    9.075    5.1606
    9.090    5.0728
    9.105    4.9149
    9.120    5.5117
    9.135    5.4415
    9.150    5.5117
    9.165    5.5643
    9.180    5.5292
    9.195    5.3361
    9.210    5.4590
    9.225    5.4766
    9.240    5.8803
    9.255    5.9505
    9.270    5.7048
    9.285    5.7925
    9.300    5.8276
    9.315    6.1962
    9.330    6.3367
    9.345    6.7053
    9.360    6.9510
    9.375    6.9159
    9.390    6.8808
    9.405    6.6877
    9.420    7.4425
    9.435    7.7760
    9.450    8.4255
    9.465    9.3382
    9.480   10.1281
    9.495   10.9180
    9.510   11.6904
    9.525   11.4797
    9.540   11.2691
    9.555   10.1457
    9.570    9.1803
    9.585    7.7760
    9.600    6.3542
    9.615    6.0909
    9.630    5.8978
    9.645    5.4064
    9.660    5.3888
    9.675    5.0026
    9.690    5.2835
    9.705    5.1255
    9.720    4.8622
    9.735    4.8271
    9.750    5.3537
    9.765    5.3186
    9.780    5.4941
    9.795    5.1606
    9.810    5.0026
    9.825    4.5463
    9.840    4.6165
    9.855    4.7744
    9.870    4.8798
    9.885    5.0553
    9.900    4.9851
    9.915    4.8447
    9.930    4.9149
    9.945    4.7920
    9.960    4.8622
    9.975    4.8973
    9.990    4.7744
   10.005    4.9500
   10.020    4.9149
   10.035    4.8447
   10.050    5.3537
   10.065    5.3361
   10.080    5.5292
   10.095    5.3186
   10.110    5.7750
   10.125    5.7750
   10.140    5.4415
   10.155    6.0909
   10.170    6.2313
   10.185    5.9856
   10.200    6.0909
   10.215    6.4244
   10.230    6.3718
   10.245    6.6526
   10.260    7.3547
   10.275    7.5478
   10.290    7.7234
   10.305    7.6356
   10.320    7.3547
   10.335    6.7755
   10.350    6.3542
   10.365    6.2665
   10.380    5.8978
   10.395    5.2133
   10.410    5.4415
   10.425    4.5638
   10.440    4.7920
   10.455    5.0377
   10.470    5.1255
   10.485    5.3712
   10.500    4.9675
   10.515    5.1431
   10.530    4.6340
   10.545    4.6516
   10.560    4.5989
   10.575    4.8622
   10.590    4.8095
   10.605    5.0026
   10.620    5.1080
   10.635    5.1782
   10.650    5.0728
   10.665    4.5814
   10.680    4.8447
   10.695    4.8973
   10.710    4.8095
   10.725    4.4409
   10.740    4.9149
   10.755    5.2484
   10.770    5.1255
   10.785    5.3537
   10.800    5.3186
   10.815    4.7218
   10.830    5.2659
   10.845    5.2133
   10.860    5.0728
   10.875    5.2659
   10.890    5.5117
   10.905    5.8452
   10.920    5.8627
   10.935    5.8101
   10.950    6.3016
   10.965    6.3718
   10.980    6.4420
   10.995    6.7755
   11.010    6.8633
   11.025    6.1611
   11.040    6.4595
   11.055    5.9154
   11.070    6.2489
   11.085    5.3010
   11.100    5.1255
   11.115    5.1606
   11.130    4.8271
   11.145    4.4585
   11.160    4.7393
   11.175    5.0026
   11.190    4.7393
   11.205    4.6165
   11.220    4.8973
   11.235    4.9851
   11.250    5.1080
   11.265    5.1255
   11.280    4.4760
   11.295    4.6340
   11.310    4.8973
   11.325    4.4058
   11.340    4.7042
   11.355    4.6516
   11.370    4.8973
   11.385    4.8271
   11.400    4.9851
   11.415    4.9149
   11.430    4.8622
   11.445    4.9675
   11.460    4.7744
   11.475    4.9851
   11.490    5.2133
   11.505    5.5643
   11.520    5.1782
   11.535    5.5643
   11.550    5.7048
   11.565    5.4415
   11.580    5.7399
   11.595    5.6521
   11.610    5.9856
   11.625    6.1787
   11.640    6.8808
   11.655    7.3899
   11.670    7.5303
   11.685    7.3547
   11.700    7.5303
   11.715    7.0915
   11.730    6.5824
   11.745    5.4239
   11.760    5.3537
   11.775    5.1255
   11.790    5.1080
   11.805    4.7393
   11.820    4.6867
   11.835    4.5989
   11.850    4.6165
   11.865    4.7218
   11.880    4.8447
   11.895    4.7218
   11.910    4.7042
   11.925    4.4760
   11.940    4.7042
   11.955    4.4936
   11.970    4.4234
   11.985    4.4234
   12.000    4.4760
   12.015    4.8798
   12.030    4.8095
   12.045    4.6516
   12.060    4.4234
   12.075    4.4409
   12.090    4.3707
   12.105    4.5638
   12.120    4.3181
   12.135    4.5638
   12.150    4.2478
   12.165    4.2127
   12.180    4.8095
   12.195    5.0904
   12.210    5.3186
   12.225    4.9500
   12.240    4.5111
   12.255    4.2654
   12.270    4.4058
   12.285    4.7042
   12.300    4.7393
   12.315    4.3707
   12.330    4.7569
   12.345    4.6340
   12.360    4.8271
   12.375    4.6691
   12.390    4.6516
   12.405    4.5463
   12.420    4.6340
   12.435    4.5638
   12.450    4.3356
   12.465    4.4409
   12.480    4.3707
   12.495    4.5989
   12.510    4.4234
   12.525    4.1776
   12.540    4.3532
   12.555    4.3356
   12.570    4.7218
   12.585    4.5989
   12.600    4.1776
   12.615    4.2303
   12.630    4.1952
   12.645    4.0899
   12.660    4.4585
   12.675    4.6516
   12.690    4.3883
   12.705    4.2830
   12.720    4.0197
   12.735    4.4760
   12.750    4.4936
   12.765    4.5638
   12.780    4.9675
   12.795    4.8095
   12.810    4.6867
   12.825    5.0553
   12.840    4.9851
   12.855    5.1957
   12.870    5.2484
   12.885    5.5643
   12.900    5.4590
   12.915    6.1962
   12.930    6.1436
   12.945    6.5473
   12.960    5.9154
   12.975    6.0207
   12.990    5.5468
   13.005    5.1606
   13.020    4.7569
   13.035    4.5111
   13.050    4.4058
   13.065    4.3883
   13.080    4.6691
   13.095    4.2478
   13.110    4.4409
   13.125    4.3356
   13.140    4.0899
   13.155    4.2654
   13.170    4.0548
   13.185    4.1952
   13.200    4.0548
   13.215    4.0197
   13.230    3.9143
   13.245    3.9670
   13.260    4.2830
   13.275    4.1601
   13.290    3.6862
   13.305    4.5989
   13.320    4.4058
   13.335    4.1952
   13.350    4.7218
   13.365    4.5989
   13.380    4.6691
   13.395    4.4234
   13.410    4.2830
   13.425    4.7744
   13.440    4.4760
   13.455    4.1074
   13.470    4.6165
   13.485    4.8622
   13.500    4.7569
   13.515    4.6691
   13.530    4.7042
   13.545    4.3005
   13.560    4.5638
   13.575    4.8447
   13.590    4.7042
   13.605    4.5814
   13.620    4.4936
   13.635    4.2654
   13.650    4.1952
   13.665    4.7569
   13.680    4.4058
   13.695    4.1776
   13.710    3.9319
   13.725    4.0372
   13.740    4.4760
   13.755    4.4585
   13.770    4.2830
   13.785    4.5287
   13.800    4.2127
   13.815    4.6165
   13.830    4.2654
   13.845    4.3883
   13.860    4.5111
   13.875    4.6165
   13.890    4.3883
   13.905    4.7920
   13.920    4.3356
   13.935    4.2830
   13.950    4.7393
   13.965    4.7920
   13.980    4.7744
   13.995    4.8622
   14.010    5.1080
   14.025    5.5117
   14.040    5.4766
   14.055    5.7925
   14.070    5.7574
   14.085    5.6872
   14.100    5.7048
   14.115    5.0904
   14.130    4.9500
   14.145    4.8973
   14.160    4.5111
   14.175    4.1601
   14.190    4.3181
   14.205    4.1425
   14.220    4.0197
   14.235    4.0899
   14.250    4.3356
   14.265    4.2478
   14.280    4.3532
   14.295    4.5287
   14.310    4.3883
   14.325    4.2127
   14.340    4.1250
   14.355    4.0197
   14.370    4.0548
   14.385    4.4760
   14.400    4.2654
   14.415    3.8792
   14.430    3.7915
   14.445    4.2303
   14.460    4.4058
   14.475    4.3005
   14.490    4.4585
   14.505    4.3181
   14.520    4.1425
   14.535    4.0548
   14.550    3.9494
   14.565    3.8090
   14.580    4.1250
   14.595    4.3883
   14.610    4.0021
   14.625    3.8441
   14.640    3.8617
   14.655    4.1601
   14.670    4.0723
   14.685    3.7388
   14.700    4.0372
   14.715    4.4585
   14.730    4.3707
   14.745    4.5463
   14.760    4.3005
   14.775    4.1425
   14.790    4.2478
   14.805    4.0899
   14.820    4.1601
   14.835    4.6691
   14.850    4.5111
   14.865    4.2127
   14.880    4.3005
   14.895    4.1250
   14.910    4.1776
   14.925    4.1425
   14.940    4.0548
   14.955    4.3005
   14.970    4.4409
   14.985    4.3005
   15.000    4.2830
   15.015    4.5638
   15.030    4.2303
   15.045    3.9319
   15.060    4.6516
   15.075    4.4760
   15.090    4.4058
   15.105    4.6165
   15.120    4.7042
   15.135    4.4585
   15.150    4.4234
   15.165    4.8447
   15.180    4.7744
   15.195    4.1425
   15.210    4.3707
   15.225    4.5463
   15.240    4.4234
   15.255    4.3005
   15.270    4.2127
   15.285    4.1776
   15.300    4.3181
   15.315    4.1601
   15.330    4.1776
   15.345    4.0899
   15.360    4.1601
   15.375    3.8441
   15.390    4.1425
   15.405    3.9670
   15.420    4.0372
   15.435    4.2830
   15.450    4.3532
   15.465    4.3707
   15.480    4.5989
   15.495    4.2830
   15.510    3.9494
   15.525    3.8968
   15.540    4.0021
   15.555    3.9846
   15.570    4.4585
   15.585    4.0197
   15.600    3.9670
   15.615    3.4404
   15.630    4.1425
   15.645    4.4409
   15.660    4.1776
   15.675    4.2830
   15.690    4.4585
   15.705    4.5463
   15.720    4.5111
   15.735    4.0021
   15.750    4.1425
   15.765    4.0899
   15.780    4.1601
   15.795    4.0372
   15.810    4.6165
   15.825    4.3532
   15.840    4.1776
   15.855    4.1425
   15.870    4.1776
   15.885    4.1601
   15.900    4.0197
   15.915    4.2830
   15.930    4.2478
   15.945    4.1250
   15.960    4.2830
   15.975    3.9846
   15.990    4.1952
   16.005    4.5111
   16.020    4.1425
   16.035    4.5989
   16.050    4.2830
   16.065    4.6691
   16.080    4.4936
   16.095    4.4585
   16.110    4.4234
   16.125    4.4936
   16.140    4.0899
   16.155    4.2303
   16.170    4.5638
   16.185    4.3532
   16.200    4.3005
   16.215    4.1776
   16.230    4.1250
   16.245    4.1601
   16.260    4.3181
   16.275    4.1952
   16.290    4.0548
   16.305    4.2654
   16.320    4.1250
   16.335    4.0723
   16.350    4.2303
   16.365    4.3181
   16.380    4.3356
   16.395    4.0197
   16.410    4.5989
   16.425    4.7920
   16.440    4.4760
   16.455    4.3707
   16.470    3.9143
   16.485    4.2654
   16.500    4.4936
   16.515    4.7393
   16.530    4.4936
   16.545    4.5463
   16.560    4.6691
   16.575    4.1425
   16.590    4.1074
   16.605    4.6516
   16.620    4.5111
   16.635    4.1250
   16.650    4.3707
   16.665    4.5111
   16.680    4.3181
   16.695    4.2303
   16.710    4.3181
   16.725    4.1601
   16.740    4.0021
   16.755    4.1250
   16.770    4.1776
   16.785    3.9846
   16.800    4.1425
   16.815    4.4585
   16.830    4.3181
   16.845    4.1776
   16.860    4.2654
   16.875    4.6516
   16.890    4.3707
   16.905    4.6691
   16.920    4.3707
   16.935    4.3005
   16.950    4.6691
   16.965    5.1957
   16.980    5.0026
   16.995    5.3888
   17.010    5.0553
   17.025    5.2133
   17.040    4.9324
   17.055    5.2133
   17.070    5.3010
   17.085    5.4239
   17.100    5.1080
   17.115    4.8271
   17.130    4.4585
   17.145    4.1601
   17.160    4.5287
   17.175    3.9846
   17.190    4.2127
   17.205    4.5287
   17.220    4.4760
   17.235    4.0723
   17.250    4.3181
   17.265    4.4234
   17.280    4.3181
   17.295    4.1250
   17.310    4.4409
   17.325    4.3181
   17.340    4.1250
   17.355    4.0723
   17.370    4.4760
   17.385    4.4058
   17.400    4.2303
   17.415    4.4936
   17.430    4.1952
   17.445    4.8447
   17.460    4.4760
   17.475    4.7042
   17.490    4.9324
   17.505    4.8622
   17.520    4.6340
   17.535    4.4936
   17.550    4.4234
   17.565    4.0548
   17.580    3.9143
   17.595    4.0899
   17.610    4.3005
   17.625    4.1601
   17.640    4.4058
   17.655    4.3356
   17.670    4.3532
   17.685    3.6686
   17.700    3.8792
   17.715    4.3005
   17.730    4.1952
   17.745    4.1776
   17.760    3.9670
   17.775    4.1952
   17.790    4.2127
   17.805    4.0899
   17.820    4.0723
   17.835    4.2830
   17.850    4.1952
   17.865    4.2478
   17.880    4.1074
   17.895    4.4936
   17.910    4.7042
   17.925    4.6867
   17.940    4.5463
   17.955    4.7393
   17.970    4.7393
   17.985    4.4409
   18.000    4.3532
   18.015    4.4058
   18.030    4.3356
   18.045    4.2303
   18.060    4.0372
   18.075    4.3883
   18.090    4.1250
   18.105    4.1425
   18.120    4.1601
   18.135    4.2478
   18.150    4.0197
   18.165    4.0723
   18.180    3.5984
   18.195    4.0197
   18.210    4.5463
   18.225    4.2127
   18.240    4.3707
   18.255    4.5989
   18.270    4.3181
   18.285    4.4585
   18.300    4.7393
   18.315    4.4936
   18.330    3.7564
   18.345    4.2127
   18.360    4.5111
   18.375    4.2127
   18.390    3.9319
   18.405    4.0548
   18.420    4.4760
   18.435    4.5989
   18.450    4.6165
   18.465    4.5463
   18.480    4.3005
   18.495    4.3181
   18.510    4.1952
   18.525    4.3356
   18.540    4.1250
   18.555    4.1074
   18.570    3.9494
   18.585    4.4585
   18.600    4.2830
   18.615    4.3532
   18.630    4.4234
   18.645    4.2654
   18.660    4.2478
   18.675    4.1952
   18.690    3.8617
   18.705    4.0899
   18.720    4.3005
   18.735    4.0021
   18.750    3.8792
   18.765    4.0899
   18.780    4.0197
   18.795    4.2127
   18.810    3.9846
   18.825    3.9846
   18.840    3.9319
   18.855    3.9494
   18.870    4.4058
   18.885    4.4585
   18.900    4.0548
   18.915    4.0372
   18.930    4.3005
   18.945    4.2654
   18.960    4.4058
   18.975    3.7915
   18.990    3.8968
   19.005    4.4936
   19.020    3.8968
   19.035    3.8090
   19.050    3.8441
   19.065    4.5111
   19.080    4.1250
   19.095    3.7564
   19.110    3.5808
   19.125    3.9846
   19.140    4.5111
   19.155    4.3005
   19.170    4.2478
   19.185    4.0548
   19.200    4.5111
   19.215    3.8441
   19.230    4.0548
   19.245    4.3181
   19.260    4.3181
   19.275    3.8441
   19.290    3.8792
   19.305    3.9494
   19.320    3.8090
   19.335    4.3005
   19.350    4.2654
   19.365    4.4760
   19.380    4.1601
   19.395    4.3181
   19.410    4.3356
   19.425    4.7393
   19.440    4.2654
   19.455    4.2478
   19.470    4.1601
   19.485    4.0899
   19.500    4.0021
   19.515    4.2478
   19.530    4.2303
   19.545    4.4585
   19.560    4.5463
   19.575    4.6516
   19.590    4.1074
   19.605    4.3883
   19.620    4.2127
   19.635    4.5287
   19.650    4.4234
   19.665    3.9143
   19.680    3.7739
   19.695    4.2127
   19.710    4.1601
   19.725    4.1601
   19.740    4.3707
   19.755    3.9670
   19.770    4.3005
   19.785    4.5111
   19.800    4.3356
   19.815    4.3883
   19.830    4.2303
   19.845    3.9494
   19.860    4.3005
   19.875    4.1776
   19.890    4.2127
   19.905    4.3181
   19.920    3.9846
   19.935    4.1074
   19.950    4.2478
   19.965    4.5814
   19.980    4.5463
   19.995    4.6867
   20.010    4.2830
   20.025    4.2478
   20.040    4.3356
   20.055    4.1074
   20.070    4.1425
   20.085    4.1952
   20.100    4.6340
   20.115    4.5287
   20.130    4.5111
   20.145    4.4409
   20.160    4.3181
   20.175    4.1952
   20.190    4.6516
   20.205    4.3005
   20.220    4.1601
   20.235    4.1952
   20.250    3.9494
   20.265    3.9319
   20.280    4.5111
   20.295    4.6165
   20.310    4.7744
   20.325    5.1080
   20.340    4.6867
   20.355    4.9675
   20.370    5.1782
   20.385    4.9324
   20.400    4.8095
   20.415    4.4936
   20.430    4.3532
   20.445    4.4234
   20.460    4.3532
   20.475    4.5287
   20.490    4.1074
   20.505    4.1601
   20.520    4.1776
   20.535    4.2830
   20.550    4.5989
   20.565    3.9319
   20.580    4.5989
   20.595    4.5111
   20.610    4.3883
   20.625    4.4760
   20.640    4.1074
   20.655    4.2303
   20.670    4.0197
   20.685    4.4234
   20.700    4.4936
   20.715    4.1952
   20.730    4.3532
   20.745    4.5989
   20.760    4.2127
   20.775    4.0899
   20.790    4.2478
   20.805    4.4760
   20.820    4.0899
   20.835    3.7739
   20.850    4.1601
   20.865    4.3181
   20.880    4.4234
   20.895    3.9846
   20.910    4.1601
   20.925    4.0021
   20.940    4.4058
   20.955    4.8271
   20.970    4.3532
   20.985    4.2303
   21.000    4.3532
   21.015    4.3532
   21.030    4.8798
   21.045    4.1074
   21.060    3.8617
   21.075    3.8617
   21.090    4.3707
   21.105    4.0197
   21.120    4.5814
   21.135    4.4760
   21.150    4.2654
   21.165    4.4409
   21.180    4.0021
   21.195    4.1776
   21.210    4.3181
   21.225    4.5463
   21.240    4.3707
   21.255    4.1776
   21.270    4.6340
   21.285    4.3707
   21.300    4.7393
   21.315    4.3356
   21.330    4.4058
   21.345    4.2654
   21.360    4.3532
   21.375    4.7393
   21.390    3.9143
   21.405    4.2127
   21.420    4.5111
   21.435    4.6691
   21.450    4.3532
   21.465    4.3883
   21.480    4.4058
   21.495    4.5287
   21.510    4.6340
   21.525    4.2830
   21.540    4.4585
   21.555    4.3181
   21.570    4.1250
   21.585    4.4234
   21.600    4.7218
   21.615    4.4409
   21.630    3.8968
   21.645    4.1952
   21.660    4.5814
   21.675    4.5463
   21.690    4.2303
   21.705    4.6867
   21.720    4.8798
   21.735    4.5111
   21.750    4.6340
   21.765    4.5111
   21.780    4.3532
   21.795    4.8622
   21.810    4.4058
   21.825    4.6165
   21.840    4.3356
   21.855    4.2127
   21.870    4.5989
   21.885    4.5814
   21.900    4.2478
   21.915    4.4760
   21.930    4.3707
   21.945    4.4409
   21.960    4.5111
   21.975    4.4234
   21.990    4.2127
   22.005    4.3883
   22.020    4.1425
   22.035    4.1601
   22.050    4.5287
   22.065    3.9846
   22.080    3.7037
   22.095    3.9494
   22.110    4.4058
   22.125    4.3356
   22.140    4.7744
   22.155    4.4234
   22.170    4.3005
   22.185    4.5638
   22.200    4.5638
   22.215    4.7920
   22.230    4.5989
   22.245    4.6165
   22.260    4.5638
   22.275    4.9324
   22.290    4.6165
   22.305    4.1601
   22.320    4.7920
   22.335    4.3883
   22.350    4.0372
   22.365    4.0899
   22.380    4.4234
   22.395    4.6165
   22.410    4.5111
   22.425    4.7393
   22.440    4.8095
   22.455    4.2654
   22.470    4.5287
   22.485    5.0026
   22.500    5.1957
   22.515    5.1957
   22.530    4.5989
   22.545    4.6867
   22.560    4.7920
   22.575    4.7744
   22.590    4.8798
   22.605    4.9324
   22.620    5.0904
   22.635    4.6516
   22.650    4.7569
   22.665    4.0899
   22.680    4.3005
   22.695    4.4585
   22.710    4.2478
   22.725    4.5814
   22.740    4.7393
   22.755    4.5814
   22.770    4.5814
   22.785    4.9675
   22.800    4.6165
   22.815    4.9149
   22.830    4.8798
   22.845    4.5814
   22.860    4.9675
   22.875    5.1080
   22.890    5.0904
   22.905    5.0202
   22.920    5.0202
   22.935    4.9675
   22.950    4.9149
   22.965    4.3883
   22.980    4.2478
   22.995    4.9149
   23.010    4.6340
   23.025    4.5638
   23.040    4.2654
   23.055    4.3532
   23.070    4.5463
   23.085    4.5989
   23.100    3.9670
   23.115    4.8271
   23.130    4.6691
   23.145    4.2478
   23.160    4.6516
   23.175    4.4936
   23.190    4.1776
   23.205    4.5814
   23.220    4.5111
   23.235    4.2830
   23.250    4.4234
   23.265    4.4760
   23.280    4.2654
   23.295    4.6165
   23.310    4.5814
   23.325    4.6516
   23.340    4.3532
   23.355    4.3532
   23.370    4.3005
   23.385    4.7393
   23.400    4.5638
   23.415    4.5814
   23.430    4.0197
   23.445    4.3532
   23.460    4.4936
   23.475    4.2303
   23.490    4.0548
   23.505    4.3532
   23.520    4.7042
   23.535    4.5989
   23.550    4.1776
   23.565    4.3356
   23.580    4.1250
   23.595    4.2654
   23.610    3.9319
   23.625    4.3707
   23.640    4.3883
   23.655    3.9494
   23.670    4.0723
   23.685    4.4760
   23.700    4.3707
   23.715    4.1250
   23.730    4.3356
   23.745    4.1601
   23.760    4.4058
   23.775    4.0548
   23.790    3.9319
   23.805    4.3005
   23.820    3.7037
   23.835    4.3181
   23.850    4.3707
   23.865    4.7920
   23.880    4.2654
   23.895    4.1601
   23.910    4.6340
   23.925    4.3532
   23.940    4.1601
   23.955    4.3532
   23.970    4.4409
   23.985    4.3181
   24.000    4.6340
   24.015    4.4234
   24.030    4.4760
   24.045    4.2830
   24.060    4.0372
   24.075    3.8792
   24.090    3.8266
   24.105    4.0899
   24.120    4.3883
   24.135    4.3883
   24.150    4.2654
   24.165    4.5111
   24.180    4.4058
   24.195    4.5463
   24.210    4.1776
   24.225    4.3356
   24.240    4.0372
   24.255    4.4936
   24.270    4.4234
   24.285    4.1250
   24.300    4.2654
   24.315    4.1425
   24.330    4.1425
   24.345    4.0372
   24.360    3.9494
   24.375    3.7915
   24.390    4.2654
   24.405    4.3883
   24.420    3.9319
   24.435    4.1952
   24.450    4.3532
   24.465    4.0197
   24.480    4.4058
   24.495    4.1601
   24.510    4.2303
   24.525    4.4585
   24.540    4.2654
   24.555    4.4760
   24.570    4.3356
   24.585    4.1425
   24.600    4.1601
   24.615    4.1425
   24.630    4.2478
   24.645    3.7739
   24.660    4.3707
   24.675    4.0548
   24.690    4.2303
   24.705    4.5111
   24.720    4.2478
   24.735    4.1074
   24.750    3.8090
   24.765    4.1601
   24.780    4.1601
   24.795    3.8968
   24.810    3.6686
   24.825    4.3356
   24.840    4.3707
   24.855    4.3707
   24.870    4.1952
   24.885    3.9670
   24.900    4.3005
   24.915    4.3005
   24.930    3.8792
   24.945    4.0899
   24.960    4.0723
   24.975    4.4936
   24.990    4.2478
   25.005    4.1952
   25.020    4.5463
   25.035    4.0021
   25.050    3.8090
   25.065    4.0197
   25.080    4.4585
   25.095    4.0899
   25.110    3.9670
   25.125    3.9143
   25.140    3.9670
   25.155    4.1250
   25.170    4.5814
   25.185    4.1250
   25.200    3.8792
   25.215    4.4234
   25.230    4.5638
   25.245    4.4409
   25.260    4.4585
   25.275    4.0723
   25.290    4.3005
   25.305    3.9670
   25.320    4.2654
   25.335    3.9670
   25.350    4.0372
   25.365    4.2478
   25.380    3.8792
   25.395    3.9494
   25.410    4.1074
   25.425    3.8968
   25.440    3.9846
   25.455    3.8266
   25.470    3.8441
   25.485    4.2127
   25.500    4.2830
   25.515    4.2127
   25.530    4.3883
   25.545    4.6340
   25.560    4.4760
   25.575    4.5989
   25.590    4.1250
   25.605    3.9494
   25.620    4.2654
   25.635    4.4936
   25.650    3.9670
   25.665    3.8090
   25.680    4.0021
   25.695    4.2654
   25.710    4.7218
   25.725    4.2830
   25.740    4.4585
   25.755    4.8271
   25.770    5.0553
   25.785    4.8095
   25.800    4.6691
   25.815    4.3883
   25.830    4.4409
   25.845    4.6340
   25.860    4.8798
   25.875    4.3356
   25.890    4.2127
   25.905    3.6510
   25.920    3.9143
   25.935    4.2303
   25.950    4.1776
   25.965    4.0899
   25.980    4.2830
   25.995    4.3005
   26.010    4.2654
   26.025    4.3181
   26.040    4.2127
   26.055    4.4409
   26.070    4.3356
   26.085    3.8792
   26.100    4.1601
   26.115    3.7564
   26.130    4.1250
   26.145    3.9319
   26.160    4.0021
   26.175    4.2478
   26.190    3.8792
   26.205    3.9319
   26.220    4.1952
   26.235    3.8617
   26.250    4.2654
   26.265    4.1952
   26.280    4.2830
   26.295    4.0021
   26.310    3.8792
   26.325    4.1601
   26.340    3.8266
   26.355    3.9494
   26.370    4.1250
   26.385    4.0372
   26.400    4.3181
   26.415    4.2303
   26.430    4.1601
   26.445    3.7564
   26.460    4.3181
   26.475    4.4760
   26.490    4.5638
   26.505    4.0021
   26.520    3.8090
   26.535    4.2654
   26.550    4.3005
   26.565    4.0021
   26.580    4.2830
   26.595    3.9846
   26.610    4.1601
   26.625    3.8090
   26.640    4.1425
   26.655    4.2478
   26.670    3.9846
   26.685    4.1074
   26.700    3.9143
   26.715    3.8792
   26.730    3.7564
   26.745    3.7915
   26.760    4.0899
   26.775    4.0021
   26.790    4.2478
   26.805    3.6335
   26.820    4.1601
   26.835    3.9494
   26.850    3.8792
   26.865    3.9143
   26.880    3.5633
   26.895    4.4585
   26.910    4.1250
   26.925    4.3707
   26.940    3.7564
   26.955    4.4760
   26.970    4.2830
   26.985    3.9670
   27.000    3.4931
   27.015    4.0723
   27.030    4.1776
   27.045    3.9319
   27.060    3.8617
   27.075    4.0723
   27.090    3.9846
   27.105    3.9143
   27.120    3.7388
   27.135    4.2478
   27.150    4.3707
   27.165    4.1250
   27.180    3.8090
   27.195    4.2478
   27.210    3.9670
   27.225    3.6686
   27.240    3.7915
   27.255    3.5106
   27.270    3.5282
   27.285    3.5106
   27.300    4.0372
   27.315    3.9319
   27.330    4.1776
   27.345    4.1074
   27.360    4.0548
   27.375    4.0197
   27.390    3.7915
   27.405    3.7037
   27.420    4.0899
   27.435    3.8441
   27.450    4.0548
   27.465    4.0899
   27.480    3.8090
   27.495    3.6862
   27.510    4.1952
   27.525    3.8441
   27.540    4.2127
   27.555    4.0723
   27.570    3.8441
   27.585    3.7739
   27.600    4.1952
   27.615    4.2303
   27.630    4.1601
   27.645    4.1250
   27.660    3.6686
   27.675    3.6159
   27.690    4.3356
   27.705    4.0899
   27.720    3.8617
   27.735    3.8266
   27.750    3.7915
   27.765    3.8090
   27.780    3.9143
   27.795    3.4931
   27.810    3.8617
   27.825    4.2478
   27.840    4.5638
   27.855    4.2830
   27.870    3.8090
   27.885    4.2478
   27.900    4.2654
   27.915    4.1250
   27.930    3.8968
   27.945    4.0197
   27.960    3.6159
   27.975    4.1425
   27.990    4.4058
   28.005    4.4585
   28.020    4.1425
   28.035    3.6686
   28.050    3.4229
   28.065    3.6686
   28.080    3.8266
   28.095    4.0723
   28.110    3.7915
   28.125    4.0372
   28.140    4.3181
   28.155    4.8271
   28.170    4.5463
   28.185    4.0021
   28.200    4.2127
   28.215    4.2830
   28.230    3.6686
   28.245    4.2127
   28.260    3.8968
   28.275    4.0723
   28.290    4.0899
   28.305    4.4760
   28.320    4.4409
   28.335    4.2127
   28.350    4.1601
   28.365    4.0197
   28.380    4.1250
   28.395    4.2478
   28.410    4.3532
   28.425    3.8968
   28.440    3.5106
   28.455    3.4755
   28.470    3.9494
   28.485    4.4760
   28.500    4.3356
   28.515    3.9319
   28.530    3.9143
   28.545    3.9494
   28.560    3.8441
   28.575    3.7739
   28.590    4.1776
   28.605    4.1776
   28.620    3.6862
   28.635    3.8266
   28.650    3.5808
   28.665    3.8090
   28.680    3.7037
   28.695    3.9494
   28.710    4.0548
   28.725    3.9846
   28.740    3.6335
   28.755    3.9670
   28.770    3.7564
   28.785    4.1250
   28.800    3.9319
   28.815    4.0899
   28.830    3.9846
   28.845    3.7213
   28.860    3.7037
   28.875    4.1425
   28.890    3.9319
   28.905    3.8266
   28.920    4.4058
   28.935    4.0197
   28.950    3.7388
   28.965    4.0021
   28.980    3.7564
   28.995    3.9846
   29.010    3.9670
   29.025    3.6335
   29.040    3.6686
   29.055    3.9846
   29.070    4.2478
   29.085    4.0548
   29.100    3.7037
   29.115    4.3356
   29.130    4.5111
   29.145    3.7739
   29.160    3.8266
   29.175    4.1952
   29.190    4.0548
   29.205    3.8090
   29.220    3.9670
   29.235    3.8968
   29.250    3.9494
   29.265    4.0723
   29.280    3.7037
   29.295    3.9494
   29.310    3.8441
   29.325    3.3526
   29.340    3.7564
   29.355    4.0197
   29.370    4.2478
   29.385    3.7213
   29.400    3.4229
   29.415    3.7915
   29.430    3.6335
   29.445    3.8266
   29.460    3.5282
   29.475    3.7213
   29.490    3.9846
   29.505    3.8441
   29.520    3.8090
   29.535    3.4580
   29.550    4.0021
   29.565    3.6510
   29.580    3.6862
   29.595    4.0197
   29.610    3.7739
   29.625    3.8617
   29.640    3.8792
   29.655    3.7739
   29.670    3.7037
   29.685    3.9846
   29.700    3.9846
   29.715    3.9143
   29.730    3.8441
   29.745    3.5984
   29.760    4.0197
   29.775    3.7213
   29.790    3.7388
   29.805    3.7037
   29.820    4.1074
   29.835    3.7739
   29.850    3.2473
   29.865    3.8792
   29.880    3.6686
   29.895    3.9494
   29.910    3.7388
   29.925    3.7037
   29.940    4.1074
   29.955    4.0021
   29.970    3.8090
   29.985    3.5106
   30.000    3.4580
   30.015    3.8968
   30.030    3.8792
   30.045    3.4931
   30.060    3.7564
   30.075    3.6159
   30.090    3.5633
   30.105    3.8090
   30.120    3.6862
   30.135    3.5984
   30.150    3.4755
   30.165    3.7213
   30.180    3.6862
   30.195    3.5984
   30.210    3.5984
   30.225    3.8617
   30.240    3.5984
   30.255    3.6862
   30.270    3.5808
   30.285    3.7564
   30.300    3.8792
   30.315    3.6862
   30.330    3.7388
   30.345    3.9494
   30.360    3.9319
   30.375    3.8792
   30.390    3.9319
   30.405    3.4755
   30.420    3.6510
   30.435    3.9494
   30.450    3.5984
   30.465    3.7213
   30.480    3.7037
   30.495    3.8968
   30.510    3.5457
   30.525    3.9319
   30.540    3.8441
   30.555    3.9846
   30.570    3.6686
   30.585    3.9143
   30.600    3.9143
   30.615    4.1074
   30.630    3.5984
   30.645    4.0372
   30.660    4.0723
   30.675    3.4053
   30.690    3.5457
   30.705    3.4755
   30.720    3.3351
   30.735    3.8968
   30.750    3.7388
   30.765    3.4229
   30.780    3.4931
   30.795    3.5808
   30.810    3.4404
   30.825    3.8266
   30.840    3.6335
   30.855    3.4229
   30.870    3.9143
   30.885    3.7915
   30.900    3.6686
   30.915    3.2473
   30.930    3.4229
   30.945    3.5457
   30.960    3.3000
   30.975    3.4229
   30.990    3.2122
   31.005    3.6335
   31.020    3.3526
   31.035    3.6159
   31.050    3.5984
   31.065    3.4755
   31.080    3.7739
   31.095    3.3526
   31.110    3.7213
   31.125    3.4053
   31.140    3.3526
   31.155    3.7213
   31.170    3.6159
   31.185    3.5633
   31.200    3.5282
   31.215    3.2473
   31.230    3.3351
   31.245    3.6510
   31.260    3.6159
   31.275    3.7388
   31.290    3.6510
   31.305    4.1250
   31.320    3.7388
   31.335    3.5984
   31.350    3.3702
   31.365    3.5984
   31.380    3.4229
   31.395    3.4229
   31.410    3.6159
   31.425    3.8090
   31.440    3.6335
   31.455    3.4229
   31.470    3.4053
   31.485    3.1596
   31.500    3.4931
   31.515    3.6159
   31.530    3.8090
   31.545    4.0021
   31.560    3.6335
   31.575    3.6335
   31.590    3.4755
   31.605    3.5457
   31.620    3.6686
   31.635    3.7037
   31.650    3.5808
   31.665    3.6335
   31.680    3.9494
   31.695    3.9143
   31.710    3.3702
   31.725    3.6862
   31.740    3.6862
   31.755    3.5282
   31.770    3.4404
   31.785    3.6510
   31.800    3.5984
   31.815    3.2298
   31.830    3.8266
   31.845    3.8792
   31.860    3.4229
   31.875    3.9846
   31.890    3.5633
   31.905    3.6862
   31.920    3.3351
   31.935    3.5984
   31.950    4.0197
   31.965    3.5106
   31.980    3.1596
   31.995    3.4755
   32.010    3.6510
   32.025    3.4580
   32.040    3.4229
   32.055    3.3877
   32.070    3.7388
   32.085    3.7213
   32.100    3.7213
   32.115    3.4053
   32.130    3.4755
   32.145    3.3175
   32.160    3.5808
   32.175    3.4755
   32.190    3.9494
   32.205    3.6862
   32.220    3.7037
   32.235    3.2122
   32.250    3.5633
   32.265    3.4053
   32.280    3.7564
   32.295    3.7388
   32.310    3.3702
   32.325    3.5633
   32.340    3.6686
   32.355    3.3526
   32.370    3.3702
   32.385    3.4931
   32.400    3.5106
   32.415    3.5984
   32.430    3.3526
   32.445    3.5808
   32.460    3.5106
   32.475    3.4404
   32.490    3.6159
   32.505    3.2649
   32.520    3.1245
   32.535    3.3351
   32.550    3.5282
   32.565    3.8090
   32.580    3.7037
   32.595    3.1245
   32.610    3.1596
   32.625    3.6159
   32.640    3.4053
   32.655    3.2298
   32.670    3.2649
   32.685    3.4755
   32.700    3.4404
   32.715    3.3000
   32.730    3.5106
   32.745    3.6159
   32.760    3.8441
   32.775    3.3702
   32.790    3.4404
   32.805    3.6686
   32.820    3.6686
   32.835    3.2824
   32.850    3.5808
   32.865    3.2122
   32.880    3.3351
   32.895    3.6510
   32.910    3.5633
   32.925    2.9840
   32.940    3.1245
   32.955    3.3702
   32.970    3.5106
   32.985    3.3877
   33.000    3.4404
   33.015    3.8617
   33.030    3.4580
   33.045    3.6862
   33.060    3.3702
   33.075    3.3000
   33.090    3.3526
   33.105    3.2298
   33.120    3.3702
   33.135    3.3000
   33.150    3.5457
   33.165    3.4580
   33.180    3.4404
   33.195    3.4404
   33.210    3.0191
   33.225    3.1596
   33.240    3.3175
   33.255    3.1771
   33.270    3.5633
   33.285    3.3526
   33.300    3.1420
   33.315    3.3877
   33.330    3.1420
   33.345    3.3000
   33.360    3.3702
   33.375    3.5106
   33.390    3.7037
   33.405    3.3526
   33.420    3.5808
   33.435    3.3877
   33.450    3.0893
   33.465    3.0718
   33.480    3.1596
   33.495    2.9138
   33.510    2.9665
   33.525    3.1420
   33.540    3.3351
   33.555    3.2649
   33.570    3.3351
   33.585    3.2122
   33.600    3.4755
   33.615    3.4931
   33.630    3.4404
   33.645    3.3526
   33.660    3.7037
   33.675    3.3526
   33.690    3.5106
   33.705    3.3526
   33.720    3.4404
   33.735    3.3702
   33.750    3.0893
   33.765    3.2122
   33.780    3.5633
   33.795    3.3877
   33.810    3.5808
   33.825    3.4931
   33.840    3.7037
   33.855    3.6862
   33.870    3.3175
   33.885    3.6159
   33.900    3.3702
   33.915    3.3000
   33.930    3.1771
   33.945    3.3526
   33.960    3.6159
   33.975    3.3526
   33.990    3.0893
   34.005    3.2824
   34.020    3.4931
   34.035    3.2122
   34.050    3.3526
   34.065    3.2473
   34.080    3.1947
   34.095    3.4580
   34.110    3.4229
   34.125    3.2122
   34.140    3.6686
   34.155    3.3877
   34.170    3.3000
   34.185    3.2649
   34.200    3.0016
   34.215    3.1069
   34.230    3.2298
   34.245    3.3175
   34.260    3.1420
   34.275    3.0016
   34.290    3.2824
   34.305    3.4229
   34.320    3.5106
   34.335    3.2298
   34.350    3.2824
   34.365    3.1771
   34.380    2.9665
   34.395    3.0016
   34.410    3.0367
   34.425    3.0016
   34.440    3.3000
   34.455    3.5457
   34.470    3.4755
   34.485    3.3351
   34.500    3.2649
   34.515    3.1596
   34.530    2.9489
   34.545    3.1771
   34.560    3.5106
   34.575    3.1596
   34.590    3.1947
   34.605    3.5633
   34.620    3.5106
   34.635    3.2824
   34.650    3.3526
   34.665    3.2473
   34.680    3.1771
   34.695    3.0191
   34.710    3.1069
   34.725    3.2298
   34.740    3.0542
   34.755    3.2298
   34.770    3.4404
   34.785    3.5106
   34.800    2.8787
   34.815    3.0718
   34.830    3.2649
   34.845    2.8963
   34.860    3.1596
   34.875    2.8260
   34.890    3.4404
   34.905    3.3175
   34.920    3.5457
   34.935    3.1596
   34.950    3.1596
   34.965    2.9665
   34.980    3.1596
   34.995    3.3526
   35.010    3.4755
   35.025    3.3351
   35.040    2.9840
   35.055    3.2473
   35.070    3.1245
   35.085    3.2473
   35.100    2.8085
   35.115    3.4404
   35.130    3.5457
   35.145    3.1771
   35.160    3.2298
   35.175    3.4931
   35.190    3.0191
   35.205    3.4755
   35.220    3.6335
   35.235    3.1596
   35.250    3.1947
   35.265    2.8787
   35.280    2.9489
   35.295    3.1947
   35.310    2.8260
   35.325    3.0718
   35.340    3.3000
   35.355    3.4580
   35.370    3.1771
   35.385    3.3000
   35.400    3.1771
   35.415    3.2298
   35.430    3.1771
   35.445    2.9665
   35.460    3.2649
   35.475    3.0893
   35.490    3.0542
   35.505    3.3351
   35.520    3.0191
   35.535    3.1596
   35.550    3.4931
   35.565    3.1420
   35.580    3.1596
   35.595    3.0191
   35.610    3.2473
   35.625    3.5633
   35.640    3.2298
   35.655    2.9138
   35.670    3.0367
   35.685    3.0718
   35.700    3.3877
   35.715    3.0367
   35.730    2.9314
   35.745    3.1069
   35.760    3.3702
   35.775    2.8612
   35.790    3.2122
   35.805    3.0542
   35.820    3.2473
   35.835    3.2824
   35.850    3.3000
   35.865    3.0718
   35.880    3.3000
   35.895    3.2298
   35.910    3.1596
   35.925    3.4229
   35.940    3.4580
   35.955    2.9665
   35.970    3.0718
   35.985    2.8963
   36.000    3.2649
   36.015    2.9314
   36.030    2.9314
   36.045    3.0542
   36.060    3.3175
   36.075    3.0542
   36.090    2.9840
   36.105    3.3351
   36.120    3.3351
   36.135    2.8436
   36.150    3.2649
   36.165    3.2473
   36.180    3.1596
   36.195    3.4755
   36.210    3.1771
   36.225    3.1771
   36.240    3.0718
   36.255    3.2473
   36.270    2.8612
   36.285    3.3702
   36.300    3.2649
   36.315    2.9138
   36.330    3.0191
   36.345    3.1069
   36.360    2.9314
   36.375    2.9138
   36.390    2.9665
   36.405    3.0718
   36.420    2.9665
   36.435    3.5282
   36.450    3.1420
   36.465    3.0016
   36.480    2.9138
   36.495    2.8085
   36.510    3.1420
   36.525    3.5106
   36.540    3.3351
   36.555    3.6862
   36.570    2.9665
   36.585    3.1947
   36.600    3.3351
   36.615    3.0542
   36.630    3.1947
   36.645    3.1069
   36.660    3.0718
   36.675    2.9314
   36.690    3.0718
   36.705    3.1596
   36.720    3.3000
   36.735    3.3702
   36.750    2.8787
   36.765    2.8260
   36.780    2.6681
   36.795    2.7383
   36.810    2.9489
   36.825    3.0016
   36.840    3.0542
   36.855    3.3877
   36.870    3.4053
   36.885    2.7909
   36.900    3.0191
   36.915    3.5808
   36.930    3.1420
   36.945    3.1947
   36.960    3.0718
   36.975    3.1069
   36.990    3.1420
   37.005    3.0542
   37.020    2.9314
   37.035    3.1069
   37.050    3.1245
   37.065    3.3351
   37.080    3.3702
   37.095    3.0016
   37.110    3.0191
   37.125    3.0367
   37.140    3.4931
   37.155    3.1245
   37.170    3.1245
   37.185    2.9665
   37.200    2.6856
   37.215    3.0542
   37.230    3.5282
   37.245    3.0191
   37.260    2.8787
   37.275    3.0191
   37.290    3.1947
   37.305    3.1245
   37.320    3.1245
   37.335    3.1245
   37.350    3.2649
   37.365    3.2824
   37.380    3.3000
   37.395    2.7207
   37.410    3.0718
   37.425    3.3175
   37.440    2.8963
   37.455    2.9840
   37.470    2.9314
   37.485    2.9314
   37.500    2.9138
   37.515    3.0367
   37.530    2.9665
   37.545    2.4925
   37.560    3.0718
   37.575    3.0542
   37.590    3.0893
   37.605    3.1771
   37.620    2.5101
   37.635    3.1245
   37.650    2.9840
   37.665    2.9138
   37.680    3.1420
   37.695    2.8787
   37.710    2.9840
   37.725    3.1596
   37.740    3.0718
   37.755    3.3351
   37.770    2.9314
   37.785    3.0367
   37.800    3.1420
   37.815    3.1245
   37.830    3.2298
   37.845    2.8612
   37.860    2.9314
   37.875    3.1420
   37.890    2.9840
   37.905    2.8085
   37.920    2.9314
   37.935    3.1245
   37.950    3.4580
   37.965    3.1420
   37.980    3.2122
   37.995    2.9138
   38.010    2.5803
   38.025    2.7558
   38.040    2.7032
   38.055    3.1947
   38.070    3.2824
   38.085    3.1420
   38.100    2.7909
   38.115    2.7032
   38.130    3.2298
   38.145    2.8963
   38.160    3.4053
   38.175    3.1771
   38.190    2.6505
   38.205    2.5101
   38.220    2.7734
   38.235    2.9314
   38.250    3.0718
   38.265    3.2298
   38.280    3.1420
   38.295    3.0367
   38.310    3.0893
   38.325    2.8963
   38.340    3.2824
   38.355    3.2122
   38.370    2.8963
   38.385    3.2824
   38.400    2.8085
   38.415    3.0367
   38.430    3.0542
   38.445    3.0542
   38.460    3.2298
   38.475    3.4580
   38.490    2.8085
   38.505    2.7383
   38.520    3.2473
   38.535    3.0718
   38.550    3.1420
   38.565    3.0016
   38.580    3.0016
   38.595    2.7909
   38.610    3.2122
   38.625    3.2122
   38.640    2.9489
   38.655    3.0542
   38.670    2.7383
   38.685    2.7734
   38.700    2.9840
   38.715    3.1245
   38.730    2.9314
   38.745    2.9138
   38.760    2.9314
   38.775    3.0191
   38.790    2.9138
   38.805    3.1245
   38.820    3.2473
   38.835    2.8963
   38.850    3.1596
   38.865    3.2649
   38.880    3.0191
   38.895    3.1420
   38.910    2.9314
   38.925    3.2298
   38.940    3.4404
   38.955    3.1596
   38.970    2.7383
   38.985    3.0367
   39.000    3.2122
   39.015    2.9489
   39.030    2.7734
   39.045    3.0542
   39.060    3.0893
   39.075    2.9138
   39.090    3.1596
   39.105    3.2298
   39.120    3.2649
   39.135    3.0191
   39.150    3.0367
   39.165    2.5628
   39.180    2.9665
   39.195    3.3175
   39.210    2.8260
   39.225    2.8612
   39.240    3.0367
   39.255    3.1069
   39.270    2.8085
   39.285    2.8612
   39.300    3.0542
   39.315    3.0718
   39.330    2.8787
   39.345    3.2122
   39.360    3.2122
   39.375    3.2298
   39.390    3.0542
   39.405    2.7734
   39.420    3.1069
   39.435    2.9314
   39.450    3.1420
   39.465    2.8260
   39.480    2.8963
   39.495    2.9138
   39.510    3.2649
   39.525    2.8612
   39.540    2.9840
   39.555    3.1069
   39.570    3.0191
   39.585    2.7909
   39.600    2.7909
   39.615    2.8436
   39.630    3.1771
   39.645    3.0191
   39.660    3.1596
   39.675    2.9314
   39.690    2.9489
   39.705    3.2473
   39.720    3.2824
   39.735    2.9314
   39.750    2.7909
   39.765    3.0191
   39.780    3.1420
   39.795    2.8787
   39.810    2.7032
   39.825    2.8963
   39.840    3.2122
   39.855    3.0718
   39.870    2.8787
   39.885    2.9489
   39.900    3.2298
   39.915    3.3000
   39.930    3.1596
   39.945    2.7734
   39.960    2.8963
   39.975    3.0718
   39.990    3.0718
   40.005    3.0016
   40.020    2.8085
   40.035    2.9840
   40.050    2.8963
   40.065    3.2824
   40.080    3.2122
   40.095    3.2473
   40.110    2.7383
   40.125    2.6505
   40.140    2.5979
   40.155    2.9138
   40.170    2.8787
   40.185    3.2649
   40.200    2.8963
   40.215    2.6856
   40.230    2.7032
   40.245    3.0367
   40.260    2.8085
   40.275    2.6856
   40.290    3.1245
   40.305    2.9138
   40.320    2.6856
   40.335    2.7909
   40.350    3.0016
   40.365    3.0367
   40.380    3.1420
   40.395    3.1596
   40.410    3.0367
   40.425    3.2473
   40.440    3.6159
   40.455    2.9489
   40.470    3.2122
   40.485    3.0718
   40.500    3.0367
   40.515    2.9314
   40.530    3.1420
   40.545    2.9314
   40.560    3.1420
   40.575    2.7734
   40.590    2.7909
   40.605    2.9840
   40.620    2.6505
   40.635    2.9489
   40.650    3.0718
   40.665    3.2473
   40.680    3.1947
   40.695    2.8436
   40.710    2.7909
   40.725    3.4229
   40.740    3.0718
   40.755    3.2473
   40.770    2.9138
   40.785    2.7558
   40.800    3.1771
   40.815    3.1596
   40.830    3.1947
   40.845    2.9489
   40.860    3.2298
   40.875    2.9840
   40.890    2.8085
   40.905    2.8787
   40.920    2.9314
   40.935    3.1069
   40.950    2.8085
   40.965    2.9665
   40.980    3.0016
   40.995    2.8787
   41.010    2.9138
   41.025    2.8787
   41.040    2.9138
   41.055    2.9665
   41.070    3.0542
   41.085    2.8612
   41.100    2.9138
   41.115    3.0718
   41.130    3.2298
   41.145    3.1069
   41.160    2.7558
   41.175    3.1596
   41.190    3.1420
   41.205    3.0367
   41.220    2.9665
   41.235    2.6856
   41.250    2.5101
   41.265    2.7909
   41.280    2.6681
   41.295    2.8085
   41.310    3.2122
   41.325    3.2824
   41.340    3.0367
   41.355    3.2122
   41.370    2.8963
   41.385    3.0191
   41.400    3.2122
   41.415    3.0191
   41.430    3.0718
   41.445    3.1771
   41.460    2.8612
   41.475    2.9840
   41.490    2.9665
   41.505    3.1420
   41.520    3.3877
   41.535    2.6681
   41.550    2.9665
   41.565    3.0718
   41.580    3.1420
   41.595    3.4580
   41.610    3.0893
   41.625    3.0542
   41.640    3.0542
   41.655    3.1947
   41.670    3.0718
   41.685    2.7207
   41.700    2.7909
   41.715    2.7383
   41.730    2.9489
   41.745    3.0191
   41.760    3.0367
   41.775    2.8787
   41.790    3.0542
   41.805    2.8787
   41.820    2.8787
   41.835    3.0542
   41.850    3.2473
   41.865    3.1245
   41.880    3.1596
   41.895    3.2298
   41.910    2.6856
   41.925    2.7383
   41.940    2.8612
   41.955    3.0893
   41.970    2.6856
   41.985    2.6681
   42.000    2.9314
   42.015    2.9840
   42.030    2.7558
   42.045    2.9138
   42.060    3.0718
   42.075    3.2649
   42.090    3.2298
   42.105    2.6330
   42.120    2.9314
   42.135    2.8963
   42.150    2.8436
   42.165    3.2473
   42.180    3.0893
   42.195    3.0016
   42.210    2.8260
   42.225    2.9665
   42.240    2.9489
   42.255    3.2473
   42.270    3.0191
   42.285    3.0191
   42.300    2.8612
   42.315    2.7383
   42.330    2.8436
   42.345    2.7558
   42.360    3.1069
   42.375    2.7909
   42.390    2.9138
   42.405    3.1596
   42.420    2.7734
   42.435    2.5979
   42.450    3.0367
   42.465    3.0542
   42.480    2.9489
   42.495    2.9840
   42.510    3.2473
   42.525    2.7558
   42.540    3.2473
   42.555    3.0718
   42.570    3.1245
   42.585    2.8436
   42.600    3.0191
   42.615    2.8963
   42.630    2.8612
   42.645    3.0191
   42.660    3.0191
   42.675    3.0893
   42.690    2.9840
   42.705    2.9840
   42.720    3.3351
   42.735    3.1420
   42.750    2.9840
   42.765    3.3175
   42.780    3.4755
   42.795    3.4053
   42.810    2.7207
   42.825    3.1420
   42.840    2.9138
   42.855    2.6856
   42.870    2.9489
   42.885    3.1245
   42.900    3.2298
   42.915    3.0893
   42.930    3.2649
   42.945    3.2649
   42.960    3.0893
   42.975    3.0542
   42.990    2.8612
   43.005    2.8436
   43.020    3.1245
   43.035    3.0893
   43.050    3.0542
   43.065    2.8436
   43.080    2.9138
   43.095    3.4404
   43.110    2.7383
   43.125    2.9314
   43.140    2.7909
   43.155    3.0542
   43.170    2.7909
   43.185    2.8612
   43.200    3.0542
   43.215    2.9489
   43.230    2.8612
   43.245    2.8612
   43.260    2.9665
   43.275    3.3526
   43.290    3.2649
   43.305    3.3526
   43.320    2.8085
   43.335    2.8612
   43.350    2.5101
   43.365    3.0893
   43.380    2.8963
   43.395    2.8612
   43.410    3.0191
   43.425    3.1947
   43.440    2.8787
   43.455    3.0718
   43.470    3.2473
   43.485    3.3877
   43.500    3.2122
   43.515    2.8436
   43.530    2.8612
   43.545    3.2122
   43.560    3.0718
   43.575    2.7383
   43.590    2.6856
   43.605    2.8612
   43.620    2.9489
   43.635    3.0367
   43.650    3.0718
   43.665    3.1771
   43.680    2.8612
   43.695    2.8260
   43.710    2.9314
   43.725    3.2122
   43.740    3.4580
   43.755    3.2649
   43.770    3.3702
   43.785    3.2824
   43.800    3.3877
   43.815    3.1245
   43.830    2.8436
   43.845    3.0367
   43.860    2.8436
   43.875    2.8260
   43.890    3.1069
   43.905    3.0191
   43.920    2.8612
   43.935    2.8085
   43.950    2.8612
   43.965    2.7207
   43.980    2.5979
   43.995    2.7734
   44.010    2.8612
   44.025    2.7032
   44.040    2.8787
   44.055    2.9840
   44.070    2.7734
   44.085    2.6154
   44.100    3.1069
   44.115    2.6856
   44.130    3.1947
   44.145    3.1771
   44.160    3.2824
   44.175    3.0191
   44.190    2.9840
   44.205    3.3702
   44.220    3.1596
   44.235    2.9138
   44.250    2.9665
   44.265    2.9665
   44.280    3.0016
   44.295    2.8260
   44.310    2.7207
   44.325    3.3000
   44.340    3.2649
   44.355    2.9138
   44.370    3.1420
   44.385    2.8436
   44.400    3.1596
   44.415    3.0367
   44.430    2.9314
   44.445    2.8612
   44.460    2.5101
   44.475    2.7032
   44.490    3.0016
   44.505    2.8612
   44.520    2.6154
   44.535    2.8085
   44.550    3.0016
   44.565    3.1771
   44.580    3.1245
   44.595    2.8612
   44.610    3.0367
   44.625    2.8612
   44.640    3.0893
   44.655    3.5106
   44.670    2.6856
   44.685    2.9314
   44.700    3.1771
   44.715    2.8787
   44.730    2.8612
   44.745    2.8436
   44.760    3.0016
   44.775    3.0191
   44.790    2.9840
   44.805    2.7909
   44.820    2.6154
   44.835    2.8436
   44.850    2.6330
   44.865    2.7207
   44.880    3.0718
   44.895    3.0542
   44.910    2.8260
   44.925    2.7207
   44.940    2.8436
   44.955    2.6330
   44.970    2.8436
   44.985    2.9489
   45.000    3.0542
   45.015    3.2298
   45.030    2.5803
   45.045    2.9489
   45.060    2.8436
   45.075    2.7734
   45.090    3.0367
   45.105    2.9314
   45.120    3.1069
   45.135    2.7383
   45.150    2.7032
   45.165    2.7909
   45.180    2.7909
   45.195    3.3702
   45.210    2.7558
   45.225    2.8963
   45.240    3.1069
   45.255    2.8260
   45.270    2.9489
   45.285    3.0542
   45.300    3.0893
   45.315    2.9138
   45.330    3.0367
   45.345    3.0893
   45.360    2.9665
   45.375    2.9665
   45.390    2.7734
   45.405    3.0542
   45.420    2.8260
   45.435    2.7383
   45.450    2.7734
   45.465    2.7734
   45.480    2.6681
   45.495    2.7383
   45.510    3.1420
   45.525    3.3702
   45.540    3.0718
   45.555    3.0016
   45.570    2.9314
   45.585    2.9314
   45.600    2.9314
   45.615    2.8963
   45.630    3.1245
   45.645    2.8787
   45.660    2.8260
   45.675    2.8787
   45.690    3.1596
   45.705    2.9665
   45.720    2.7207
   45.735    2.6856
   45.750    2.8612
   45.765    2.5452
   45.780    2.4750
   45.795    2.7734
   45.810    2.8787
   45.825    2.8612
   45.840    2.6154
   45.855    2.8436
   45.870    2.9138
   45.885    2.9314
   45.900    2.7207
   45.915    2.7383
   45.930    2.8787
   45.945    2.7383
   45.960    2.9314
   45.975    2.7558
   45.990    2.7909
   46.005    2.7383
   46.020    2.4750
   46.035    2.6505
   46.050    2.7383
   46.065    2.8963
   46.080    2.9314
   46.095    3.1947
   46.110    2.7032
   46.125    2.9489
   46.140    2.8787
   46.155    2.8612
   46.170    2.9138
   46.185    2.8963
   46.200    2.7558
   46.215    2.8085
   46.230    2.6856
   46.245    2.7558
   46.260    2.7032
   46.275    2.4925
   46.290    2.8085
   46.305    2.7558
   46.320    2.5803
   46.335    2.6154
   46.350    2.8787
   46.365    2.8787
   46.380    2.8612
   46.395    2.8436
   46.410    3.0718
   46.425    2.7909
   46.440    3.1596
   46.455    2.8612
   46.470    2.6330
   46.485    2.7207
   46.500    2.7383
   46.515    2.7383
   46.530    2.9314
   46.545    3.2824
   46.560    2.8436
   46.575    2.4223
   46.590    2.7383
   46.605    2.6681
   46.620    2.4925
   46.635    2.8260
   46.650    3.3526
   46.665    2.6505
   46.680    3.0542
   46.695    3.0016
   46.710    3.1245
   46.725    3.0718
   46.740    3.1947
   46.755    2.9840
   46.770    2.9138
   46.785    2.9665
   46.800    2.8436
   46.815    2.8787
   46.830    2.7734
   46.845    2.8436
   46.860    3.0542
   46.875    3.0016
   46.890    2.6154
   46.905    2.8963
   46.920    2.6505
   46.935    2.4223
   46.950    2.6505
   46.965    2.8612
   46.980    2.9489
   46.995    3.1069
   47.010    2.8260
   47.025    2.4750
   47.040    2.9138
   47.055    2.9314
   47.070    2.7909
   47.085    2.8436
   47.100    2.5803
   47.115    2.8260
   47.130    2.8260
   47.145    2.6681
   47.160    2.7207
   47.175    2.8260
   47.190    3.1245
   47.205    3.2649
   47.220    2.6154
   47.235    2.5101
   47.250    2.7909
   47.265    2.8787
   47.280    3.4229
   47.295    2.4223
   47.310    2.7734
   47.325    2.9138
   47.340    2.7207
   47.355    2.7558
   47.370    2.7734
   47.385    3.0016
   47.400    2.8787
   47.415    2.4399
   47.430    3.0016
   47.445    3.1069
   47.460    2.7909
   47.475    2.5452
   47.490    2.6505
   47.505    2.7032
   47.520    3.0367
   47.535    2.8612
   47.550    3.0191
   47.565    2.5452
   47.580    2.6154
   47.595    2.7207
   47.610    3.0893
   47.625    3.0718
   47.640    3.0367
   47.655    2.6681
   47.670    2.8085
   47.685    2.7734
   47.700    2.9665
   47.715    2.7558
   47.730    2.7734
   47.745    2.8963
   47.760    2.7032
   47.775    2.4223
   47.790    2.8963
   47.805    2.7734
   47.820    2.9665
   47.835    2.9840
   47.850    2.8085
   47.865    2.7032
   47.880    2.8260
   47.895    3.0191
   47.910    3.0718
   47.925    3.1420
   47.940    2.9138
   47.955    2.4925
   47.970    2.8787
   47.985    2.4223
   48.000    2.6856
   48.015    2.9138
   48.030    2.6154
   48.045    2.8963
   48.060    2.6154
   48.075    2.6330
   48.090    2.6856
   48.105    3.0367
   48.120    2.5101
   48.135    2.3872
   48.150    2.6154
   48.165    2.4223
   48.180    2.6330
   48.195    2.7734
   48.210    2.7734
   48.225    2.8436
   48.240    2.8085
   48.255    2.8436
   48.270    3.0718
   48.285    2.7558
   48.300    2.7032
   48.315    2.7558
   48.330    2.7734
   48.345    2.8260
   48.360    2.9489
   48.375    2.5628
   48.390    2.7383
   48.405    2.8436
   48.420    2.9314
   48.435    3.0016
   48.450    2.8436
   48.465    3.0191
   48.480    2.7558
   48.495    2.6505
   48.510    2.7383
   48.525    2.7734
   48.540    2.9314
   48.555    2.6856
   48.570    2.6856
   48.585    2.6154
   48.600    2.8787
   48.615    2.6505
   48.630    2.6856
   48.645    2.6330
   48.660    2.7909
   48.675    2.9138
   48.690    2.8260
   48.705    3.2473
   48.720    3.1771
   48.735    2.9665
   48.750    2.4399
   48.765    2.9138
   48.780    2.8085
   48.795    2.7734
   48.810    2.5276
   48.825    2.6330
   48.840    2.7032
   48.855    2.7734
   48.870    2.6330
   48.885    3.0893
   48.900    2.9489
   48.915    2.6154
   48.930    2.3170
   48.945    2.7909
   48.960    2.5628
   48.975    2.8260
   48.990    2.4750
   49.005    2.7207
   49.020    3.1069
   49.035    2.8963
   49.050    2.8436
   49.065    2.6856
   49.080    2.5452
   49.095    2.4399
   49.110    2.6154
   49.125    2.8085
   49.140    2.8260
   49.155    2.8260
   49.170    2.7558
   49.185    2.5628
   49.200    2.8085
   49.215    3.1069
   49.230    2.9138
   49.245    2.7909
   49.260    2.7207
   49.275    2.7734
   49.290    2.5628
   49.305    2.7909
   49.320    2.5803
   49.335    2.9840
   49.350    2.8787
   49.365    2.7734
   49.380    2.5452
   49.395    2.8612
   49.410    2.6856
   49.425    2.7032
   49.440    2.7558
   49.455    2.4574
   49.470    2.8436
   49.485    2.8085
   49.500    2.8612
   49.515    2.6681
   49.530    2.5803
   49.545    3.0718
   49.560    2.8787
   49.575    2.9489
   49.590    2.3872
   49.605    2.5101
   49.620    2.8085
   49.635    2.6856
   49.650    2.5979
   49.665    2.6856
   49.680    2.8085
   49.695    2.8085
   49.710    2.5803
   49.725    2.7032
   49.740    2.9489
   49.755    2.6681
   49.770    3.0542
   49.785    2.8612
   49.800    2.8260
   49.815    2.7383
   49.830    2.9665
   49.845    2.7207
   49.860    2.4750
   49.875    2.8612
   49.890    2.5276
   49.905    2.7383
   49.920    2.5452
   49.935    2.7383
   49.950    2.8612
   49.965    2.6330
   49.980    2.3521
