    1.500   29.1627
    1.515   29.0679
    1.530   29.2575
    1.545   28.7098
    1.560   29.0574
    1.575   29.0258
    1.590   28.1833
    1.605   27.9516
    1.620   27.8462
    1.635   27.9305
    1.650   27.2354
    1.665   27.0774
    1.680   26.9510
    1.695   26.6667
    1.710   26.8141
    1.725   27.2249
    1.740   26.3086
    1.755   25.9400
    1.770   26.4139
    1.785   25.0869
    1.800   25.7188
    1.815   25.7504
    1.830   25.4660
    1.845   25.2659
    1.860   26.0874
    1.875   25.5503
    1.890   25.5292
    1.905   25.0026
    1.920   25.2449
    1.935   24.7288
    1.950   23.6756
    1.965   23.8231
    1.980   23.7493
    1.995   24.0126
    2.010   24.2233
    2.025   23.7599
    2.040   23.8231
    2.055   24.1180
    2.070   23.4123
    2.085   23.6862
    2.100   23.5282
    2.115   23.1280
    2.130   23.5808
    2.145   23.9389
    2.160   24.8657
    2.175   23.3807
    2.190   23.3491
    2.205   22.9173
    2.220   22.9173
    2.235   23.4966
    2.250   23.0121
    2.265   23.0437
    2.280   23.4545
    2.295   23.3491
    2.310   22.8331
    2.325   23.0858
    2.340   23.5914
    2.355   22.6751
    2.370   23.2965
    2.385   23.2859
    2.400   23.0648
    2.415   22.8541
    2.430   23.6335
    2.445   23.4966
    2.460   23.4123
    2.475   22.9595
    2.490   22.8436
    2.505   23.1596
    2.520   24.0232
    2.535   23.5598
    2.550   24.5182
    2.565   23.2965
    2.580   23.4439
    2.595   24.0548
    2.610   24.7393
    2.625   24.2970
    2.640   24.3813
    2.655   24.7604
    2.670   25.7293
    2.685   25.6345
    2.700   25.3186
    2.715   25.3607
    2.730   25.5503
    2.745   25.4239
    2.760   26.0979
    2.775   25.8662
    2.790   26.3928
    2.805   26.6561
    2.820   25.8873
    2.835   26.8457
    2.850   27.1933
    2.865   28.0674
    2.880   28.9626
    2.895   28.9205
    2.910   29.0363
    2.925   29.6893
    2.940   29.2575
    2.955   30.1316
    2.970   30.4792
    2.985   31.0163
    3.000   30.5845
    3.015   31.4692
    3.030   31.1848
    3.045   32.3433
    3.060   33.1332
    3.075   32.9226
    3.090   33.8599
    3.105   34.9974
    3.120   35.3660
    3.135   36.1137
    3.150   37.0616
    3.165   38.0937
    3.180   39.5577
    3.195   39.2522
    3.210   39.5155
    3.225   40.2633
    3.240   41.5587
    3.255   43.3702
    3.270   44.7709
    3.285   45.2133
    3.300   46.5192
    3.315   48.2464
    3.330   47.9832
    3.345   49.2786
    3.360   50.3528
    3.375   52.6593
    3.390   55.0922
    3.405   55.7767
    3.420   56.9774
    3.435   59.1890
    3.450   62.6856
    3.465   64.3497
    3.480   66.4560
    3.495   68.1095
    3.510   68.8573
    3.525   71.3849
    3.540   74.3971
    3.555   76.5982
    3.570   78.8310
    3.585   80.6530
    3.600   84.9605
    3.615   89.3628
    3.630   91.9853
    3.645   95.9242
    3.660   99.0627
    3.675  106.4034
    3.690  111.0269
    3.705  115.4713
    3.720  123.8125
    3.735  130.9426
    3.750  138.0411
    3.765  146.0980
    3.780  155.5661
    3.795  165.8557
    3.810  182.9068
    3.825  198.6414
    3.840  220.4845
    3.855  250.9005
    3.870  289.6156
    3.885  332.6067
    3.900  361.3586
    3.915  363.1385
    3.930  335.5977
    3.945  272.8910
    3.960  179.8947
    3.975   92.2696
    3.990   44.2443
    4.005   26.8773
    4.020   21.5482
    4.035   18.8626
    4.050   16.7983
    4.065   15.8610
    4.080   14.8920
    4.095   14.0284
    4.110   13.6072
    4.125   13.1227
    4.140   13.1438
    4.155   12.4487
    4.170   12.2907
    4.185   12.2591
    4.200   12.2907
    4.215   11.9115
    4.230   11.8589
    4.245   11.5429
    4.260   11.3639
    4.275   11.5745
    4.290   11.1322
    4.305   11.3533
    4.320   11.0690
    4.335   10.7425
    4.350   10.8794
    4.365   10.5635
    4.380   10.7741
    4.395   11.3428
    4.410   10.9321
    4.425   10.4160
    4.440   10.9742
    4.455   11.1427
    4.470   10.9637
    4.485   11.6061
    4.500   10.9426
    4.515   10.7846
    4.530   10.7952
    4.545   11.3007
    4.560   10.5108
    4.575   10.4055
    4.590   10.9531
    4.605   11.1743
    4.620   10.7109
    4.635   10.6266
    4.650   11.0479
    4.665   10.6056
    4.680   10.7004
    4.695   11.3639
    4.710   11.3112
    4.725   11.3955
    4.740   11.4692
    4.755   11.5534
    4.770   12.1432
    4.785   12.0274
    4.800   11.8589
    4.815   12.7646
    4.830   12.3433
    4.845   11.8062
    4.860   12.3539
    4.875   12.3644
    4.890   12.8594
    4.905   12.5224
    4.920   13.2175
    4.935   13.7019
    4.950   13.1016
    4.965   13.3228
    4.980   13.6598
    4.995   13.8283
    5.010   14.5234
    5.025   14.7025
    5.040   15.3239
    5.055   15.2923
    5.070   15.9242
    5.085   15.4081
    5.100   16.4824
    5.115   15.9452
    5.130   16.6509
    5.145   17.0827
    5.160   18.0727
    5.175   19.0521
    5.190   19.2628
    5.205   19.6314
    5.220   19.8420
    5.235   21.1796
    5.250   21.6008
    5.265   23.0648
    5.280   23.6756
    5.295   24.5814
    5.310   26.0453
    5.325   27.2459
    5.340   28.3728
    5.355   29.1838
    5.370   31.4797
    5.385   34.1232
    5.400   35.5766
    5.415   38.2728
    5.430   41.3902
    5.445   45.5292
    5.460   50.0369
    5.475   56.8826
    5.490   62.6224
    5.505   71.7957
    5.520   77.6093
    5.535   79.2417
    5.550   73.2385
    5.565   61.4639
    5.580   43.8968
    5.595   27.0985
    5.610   16.5034
    5.625   11.9642
    5.640   11.0269
    5.655    9.9737
    5.670    9.6051
    5.685    9.0679
    5.700    8.9205
    5.715    8.5835
    5.730    9.1732
    5.745    8.9415
    5.760    8.9310
    5.775    8.8468
    5.790    8.5519
    5.805    8.1201
    5.820    7.9094
    5.835    7.9516
    5.850    8.3307
    5.865    8.3307
    5.880    8.7730
    5.895    8.2570
    5.910    8.5203
    5.925    8.4676
    5.940    8.3307
    5.955    8.5940
    5.970    8.7309
    5.985    8.4466
    6.000    8.5624
    6.015    8.3623
    6.030    8.3307
    6.045    8.4255
    6.060    8.4887
    6.075    8.0042
    6.090    8.2675
    6.105    8.0779
    6.120    8.3412
    6.135    8.6572
    6.150    8.4571
    6.165    8.3939
    6.180    8.2780
    6.195    8.5835
    6.210    8.1938
    6.225    8.7520
    6.240    8.5835
    6.255    8.4781
    6.270    8.2464
    6.285    8.4676
    6.300    8.8573
    6.315    8.3623
    6.330    8.8994
    6.345    8.7941
    6.360    9.0153
    6.375    9.2575
    6.390    9.3207
    6.405    9.3207
    6.420    9.5419
    6.435    9.4576
    6.450    9.4997
    6.465    9.5629
    6.480    9.9315
    6.495   10.4687
    6.510   10.5635
    6.525   10.8794
    6.540   10.6161
    6.555   11.5534
    6.570   11.2059
    6.585   11.5219
    6.600   12.0379
    6.615   12.8489
    6.630   12.8173
    6.645   13.0700
    6.660   13.9337
    6.675   14.6919
    6.690   15.6398
    6.705   16.9142
    6.720   18.4097
    6.735   19.6103
    6.750   21.3586
    6.765   23.9073
    6.780   23.5492
    6.795   22.5382
    6.810   20.9795
    6.825   16.4192
    6.840   11.8273
    6.855    9.8578
    6.870    8.6045
    6.885    8.2675
    6.900    7.8778
    6.915    8.0779
    6.930    8.1306
    6.945    7.8357
    6.960    7.6356
    6.975    7.6461
    6.990    7.7199
    7.005    8.2149
    7.020    8.0358
    7.035    7.3196
    7.050    7.6567
    7.065    7.3407
    7.080    7.8462
    7.095    7.8041
    7.110    7.4566
    7.125    7.5935
    7.140    7.8989
    7.155    7.7620
    7.170    7.5724
    7.185    7.2038
    7.200    7.4355
    7.215    7.8146
    7.230    7.9410
    7.245    7.5513
    7.260    7.9516
    7.275    7.5513
    7.290    7.5092
    7.305    7.9410
    7.320    8.2149
    7.335    7.6777
    7.350    8.1201
    7.365    8.5519
    7.380    7.8778
    7.395    7.9831
    7.410    8.1411
    7.425    8.3202
    7.440    8.0358
    7.455    8.2780
    7.470    8.6467
    7.485    8.9942
    7.500    9.3102
    7.515    9.2048
    7.530    9.0153
    7.545    9.2575
    7.560    9.9526
    7.575   10.1422
    7.590    9.9526
    7.605   10.0579
    7.620   10.0685
    7.635   10.4581
    7.650   11.0479
    7.665   11.7114
    7.680   12.2380
    7.695   12.8910
    7.710   13.9231
    7.725   14.3339
    7.740   14.8920
    7.755   16.1769
    7.770   17.8726
    7.785   19.3997
    7.800   22.2012
    7.815   24.1917
    7.830   23.7809
    7.845   22.6856
    7.860   19.9579
    7.875   16.5456
    7.890   12.1643
    7.905    9.7104
    7.920    8.0990
    7.935    7.7620
    7.950    7.9621
    7.965    7.3407
    7.980    8.2149
    7.995    7.8252
    8.010    7.4039
    8.025    7.6251
    8.040    7.0879
    8.055    7.0879
    8.070    7.5092
    8.085    7.5092
    8.100    7.3091
    8.115    6.5087
    8.130    7.2565
    8.145    7.9305
    8.160    7.1195
    8.175    7.0248
    8.190    7.3196
    8.205    6.8457
    8.220    6.8984
    8.235    6.7509
    8.250    6.9300
    8.265    6.9616
    8.280    6.9194
    8.295    6.9089
    8.310    6.8352
    8.325    7.0879
    8.340    7.4250
    8.355    7.1827
    8.370    7.2880
    8.385    6.8984
    8.400    7.3828
    8.415    7.1722
    8.430    6.9510
    8.445    6.9300
    8.460    7.2143
    8.475    7.1090
    8.490    7.3512
    8.505    7.4776
    8.520    7.3091
    8.535    7.0563
    8.550    6.7193
    8.565    7.1511
    8.580    6.8246
    8.595    7.3618
    8.610    7.4355
    8.625    7.2249
    8.640    7.8357
    8.655    7.4776
    8.670    7.2249
    8.685    7.7830
    8.700    8.0463
    8.715    8.1622
    8.730    8.6151
    8.745    8.4150
    8.760    9.0890
    8.775    8.8046
    8.790    8.2043
    8.805    7.3512
    8.820    7.1195
    8.835    7.1406
    8.850    7.0985
    8.865    6.7299
    8.880    6.8352
    8.895    7.0563
    8.910    6.9510
    8.925    6.8668
    8.940    7.1301
    8.955    7.3723
    8.970    6.9826
    8.985    7.2038
    9.000    7.3618
    9.015    7.0248
    9.030    7.3934
    9.045    7.7936
    9.060    7.7830
    9.075    7.5619
    9.090    7.9200
    9.105    7.9726
    9.120    7.3407
    9.135    7.8252
    9.150    7.8673
    9.165    8.1411
    9.180    8.3939
    9.195    8.7730
    9.210    9.1417
    9.225    8.5413
    9.240    9.4892
    9.255    9.4681
    9.270    9.5419
    9.285    9.6156
    9.300    9.9421
    9.315   10.0053
    9.330   10.9953
    9.345   11.4165
    9.360   12.1011
    9.375   12.5434
    9.390   12.9647
    9.405   13.7335
    9.420   14.1969
    9.435   15.8399
    9.450   16.6930
    9.465   17.3986
    9.480   19.5471
    9.495   20.9057
    9.510   23.6230
    9.525   26.4455
    9.540   30.9321
    9.555   34.6498
    9.570   39.4102
    9.585   41.9063
    9.600   42.3275
    9.615   39.1259
    9.630   32.0484
    9.645   23.6230
    9.660   15.7767
    9.675   10.1422
    9.690    8.5624
    9.705    7.4566
    9.720    7.2565
    9.735    7.3828
    9.750    7.4039
    9.765    7.0985
    9.780    6.8878
    9.795    6.8457
    9.810    6.6772
    9.825    6.8562
    9.840    6.7088
    9.855    6.5824
    9.870    7.2459
    9.885    6.6561
    9.900    7.0669
    9.915    7.1617
    9.930    6.6983
    9.945    6.8984
    9.960    6.8562
    9.975    7.1827
    9.990    6.8773
   10.005    7.2565
   10.020    7.2038
   10.035    7.0669
   10.050    6.8773
   10.065    7.5513
   10.080    7.7830
   10.095    7.5303
   10.110    7.7725
   10.125    8.2043
   10.140    8.4044
   10.155    8.7625
   10.170    8.8362
   10.185    9.2996
   10.200    9.4997
   10.215    9.6367
   10.230   10.1948
   10.245   10.4792
   10.260   10.7741
   10.275   11.7641
   10.290   12.7014
   10.305   14.2180
   10.320   15.1448
   10.335   16.8194
   10.350   17.7883
   10.365   17.7357
   10.380   17.0827
   10.395   15.5240
   10.410   12.7751
   10.425   10.1843
   10.440    8.8678
   10.455    7.4776
   10.470    7.0037
   10.485    6.6456
   10.500    6.8352
   10.515    6.7615
   10.530    6.5929
   10.545    6.4455
   10.560    6.6245
   10.575    6.9194
   10.590    6.8141
   10.605    6.3296
   10.620    6.1927
   10.635    6.6772
   10.650    6.8984
   10.665    7.0563
   10.680    6.6983
   10.695    7.0563
   10.710    6.5087
   10.725    7.0248
   10.740    7.2354
   10.755    6.8878
   10.770    7.0353
   10.785    7.4039
   10.800    7.4987
   10.815    7.7514
   10.830    7.7620
   10.845    7.7620
   10.860    8.1517
   10.875    8.0779
   10.890    8.4044
   10.905    8.5413
   10.920    8.8468
   10.935    8.9626
   10.950    9.4681
   10.965   10.1211
   10.980   10.2580
   10.995   11.0479
   11.010   11.8167
   11.025   13.4281
   11.040   14.7551
   11.055   16.1769
   11.070   16.6930
   11.085   17.2828
   11.100   16.1243
   11.115   14.0916
   11.130   12.1116
   11.145   10.0579
   11.160    8.1727
   11.175    6.9089
   11.190    6.6456
   11.205    6.8457
   11.220    6.8457
   11.235    6.9721
   11.250    6.7299
   11.265    6.6772
   11.280    6.6140
   11.295    6.7193
   11.310    6.9616
   11.325    6.6772
   11.340    6.4560
   11.355    6.3507
   11.370    6.6245
   11.385    6.8668
   11.400    6.6456
   11.415    7.0985
   11.430    7.1406
   11.445    7.0774
   11.460    7.1406
   11.475    7.0563
   11.490    7.7093
   11.505    7.3723
   11.520    7.8989
   11.535    7.7620
   11.550    7.8884
   11.565    8.2675
   11.580    7.9831
   11.595    8.3412
   11.610    9.5208
   11.625   10.0263
   11.640   10.4371
   11.655   11.1111
   11.670   11.9747
   11.685   12.5434
   11.700   13.6704
   11.715   14.9447
   11.730   16.3560
   11.745   17.8936
   11.760   18.0411
   11.775   17.0195
   11.790   15.2607
   11.805   12.9858
   11.820   10.1948
   11.835    7.8462
   11.850    7.3091
   11.865    7.0353
   11.880    6.8562
   11.895    6.8562
   11.910    6.6351
   11.925    6.3402
   11.940    6.0137
   11.955    6.2875
   11.970    6.4982
   11.985    6.2243
   12.000    6.1401
   12.015    5.9716
   12.030    6.3086
   12.045    6.2981
   12.060    6.6245
   12.075    6.8036
   12.090    6.6351
   12.105    6.5508
   12.120    6.5192
   12.135    6.5087
   12.150    6.7404
   12.165    6.6772
   12.180    6.6035
   12.195    6.4455
   12.210    6.3507
   12.225    6.4982
   12.240    6.7825
   12.255    7.0669
   12.270    6.9089
   12.285    7.0142
   12.300    7.0248
   12.315    6.6035
   12.330    7.4882
   12.345    7.7199
   12.360    8.1411
   12.375    7.4776
   12.390    7.9726
   12.405    8.0569
   12.420    7.6145
   12.435    7.6567
   12.450    6.6561
   12.465    6.6035
   12.480    6.3296
   12.495    6.6456
   12.510    6.4982
   12.525    6.6983
   12.540    6.7720
   12.555    6.2243
   12.570    6.4034
   12.585    6.2138
   12.600    6.3612
   12.615    6.3718
   12.630    6.5613
   12.645    6.7193
   12.660    6.5613
   12.675    6.3086
   12.690    6.6245
   12.705    6.4244
   12.720    6.4560
   12.735    6.4560
   12.750    6.8984
   12.765    6.9510
   12.780    6.9300
   12.795    6.9826
   12.810    7.4671
   12.825    8.2780
   12.840    7.7620
   12.855    8.1306
   12.870    8.4571
   12.885    8.3202
   12.900    9.3839
   12.915    9.7736
   12.930   10.6266
   12.945   11.6904
   12.960   12.2907
   12.975   13.2280
   12.990   14.2496
   13.005   13.9337
   13.020   13.5334
   13.035   12.3960
   13.050   11.0690
   13.065    9.1311
   13.080    7.7620
   13.095    7.0774
   13.110    6.8878
   13.125    6.4350
   13.140    6.0979
   13.155    6.4666
   13.170    6.4560
   13.185    6.4771
   13.200    6.3086
   13.215    6.6877
   13.230    6.3507
   13.245    6.4350
   13.260    6.2559
   13.275    6.1822
   13.290    6.4560
   13.305    6.7509
   13.320    6.3402
   13.335    6.6140
   13.350    6.7404
   13.365    6.3507
   13.380    6.5929
   13.395    7.0985
   13.410    6.7193
   13.425    7.0563
   13.440    7.1406
   13.455    7.3828
   13.470    7.1722
   13.485    7.7199
   13.500    8.2886
   13.515    8.6361
   13.530    8.9415
   13.545    9.8578
   13.560    9.9210
   13.575   10.6161
   13.590   10.3633
   13.605    9.9526
   13.620    9.0574
   13.635    8.1411
   13.650    7.2670
   13.665    7.0037
   13.680    6.4560
   13.695    6.6561
   13.710    6.4244
   13.725    6.3612
   13.740    6.1822
   13.755    6.2770
   13.770    6.0242
   13.785    6.3086
   13.800    6.3823
   13.815    6.4350
   13.830    6.1506
   13.845    6.7404
   13.860    6.9194
   13.875    6.9932
   13.890    7.0353
   13.905    6.9300
   13.920    7.3828
   13.935    6.7404
   13.950    6.9826
   13.965    7.1722
   13.980    7.1511
   13.995    7.6040
   14.010    7.3934
   14.025    7.9516
   14.040    8.4992
   14.055    9.1206
   14.070    9.3734
   14.085   10.1738
   14.100   11.3639
   14.115   11.5534
   14.130   12.6488
   14.145   12.2380
   14.160   11.9115
   14.175   11.0269
   14.190   10.0579
   14.205    8.5940
   14.220    7.2775
   14.235    6.5719
   14.250    6.7720
   14.265    5.8347
   14.280    6.0769
   14.295    6.3823
   14.310    6.6561
   14.325    6.2033
   14.340    6.1927
   14.355    6.1927
   14.370    6.1717
   14.385    6.2349
   14.400    6.0558
   14.415    6.6035
   14.430    6.4244
   14.445    6.0348
   14.460    6.0874
   14.475    6.2875
   14.490    6.0032
   14.505    5.8452
   14.520    5.6556
   14.535    5.9926
   14.550    5.9926
   14.565    6.0242
   14.580    6.3402
   14.595    6.1401
   14.610    6.0558
   14.625    6.3718
   14.640    6.5298
   14.655    6.3718
   14.670    6.4876
   14.685    6.5824
   14.700    6.1190
   14.715    6.1822
   14.730    6.3928
   14.745    6.2349
   14.760    6.2875
   14.775    6.4350
   14.790    6.3191
   14.805    6.4982
   14.820    6.7299
   14.835    6.2875
   14.850    6.4350
   14.865    6.0558
   14.880    5.9610
   14.895    6.1611
   14.910    6.1295
   14.925    5.8241
   14.940    6.0032
   14.955    6.2138
   14.970    6.4244
   14.985    6.5298
   15.000    6.3612
   15.015    6.5087
   15.030    6.4244
   15.045    6.4771
   15.060    6.3718
   15.075    6.5192
   15.090    6.9089
   15.105    7.2143
   15.120    7.0353
   15.135    7.2459
   15.150    7.0563
   15.165    7.4144
   15.180    7.1827
   15.195    7.1195
   15.210    7.6356
   15.225    7.6145
   15.240    7.6145
   15.255    6.8457
   15.270    6.0979
   15.285    6.4666
   15.300    6.4771
   15.315    6.2349
   15.330    6.3191
   15.345    6.2559
   15.360    5.6556
   15.375    5.6240
   15.390    6.1401
   15.405    6.5929
   15.420    6.3612
   15.435    5.8768
   15.450    6.1927
   15.465    6.5192
   15.480    6.3823
   15.495    6.5298
   15.510    5.9505
   15.525    5.8768
   15.540    5.9610
   15.555    5.9926
   15.570    6.2349
   15.585    6.3612
   15.600    6.0032
   15.615    6.2349
   15.630    6.0242
   15.645    5.7504
   15.660    6.5192
   15.675    6.6035
   15.690    6.2665
   15.705    6.0242
   15.720    5.7715
   15.735    6.3191
   15.750    6.3823
   15.765    5.7188
   15.780    6.0453
   15.795    5.9610
   15.810    6.3086
   15.825    6.0242
   15.840    5.9400
   15.855    6.3718
   15.870    6.2033
   15.885    5.8241
   15.900    5.9821
   15.915    6.2981
   15.930    6.4350
   15.945    6.4139
   15.960    6.0032
   15.975    6.4560
   15.990    6.1927
   16.005    5.9505
   16.020    6.1085
   16.035    6.8141
   16.050    6.8141
   16.065    6.4350
   16.080    6.5929
   16.095    6.7299
   16.110    6.9300
   16.125    6.8984
   16.140    7.5829
   16.155    7.5724
   16.170    7.5829
   16.185    8.1833
   16.200    7.7093
   16.215    7.4144
   16.230    7.4671
   16.245    7.1933
   16.260    6.7193
   16.275    6.4982
   16.290    6.2770
   16.305    6.2243
   16.320    6.1927
   16.335    6.1085
   16.350    5.8978
   16.365    6.0453
   16.380    6.2033
   16.395    6.0664
   16.410    5.9926
   16.425    6.4034
   16.440    6.4771
   16.455    6.1295
   16.470    6.5508
   16.485    6.4876
   16.500    6.1401
   16.515    6.5403
   16.530    6.7299
   16.545    7.0248
   16.560    7.0353
   16.575    7.1195
   16.590    7.1617
   16.605    7.5829
   16.620    7.4882
   16.635    8.5203
   16.650    7.8568
   16.665    7.5935
   16.680    8.0042
   16.695    7.8778
   16.710    7.0142
   16.725    6.6983
   16.740    6.6140
   16.755    6.4560
   16.770    6.0664
   16.785    6.6561
   16.800    6.6561
   16.815    6.6667
   16.830    6.7509
   16.845    6.3823
   16.860    6.5298
   16.875    6.5298
   16.890    6.6877
   16.905    6.8036
   16.920    6.7615
   16.935    6.7088
   16.950    7.3618
   16.965    7.4671
   16.980    7.3512
   16.995    7.5092
   17.010    7.8989
   17.025    8.6888
   17.040    9.3523
   17.055   10.1527
   17.070   10.9426
   17.085   11.6166
   17.100   12.2696
   17.115   12.0379
   17.130   11.5745
   17.145   10.5424
   17.160   10.0685
   17.175    9.0469
   17.190    8.1095
   17.205    7.3618
   17.220    6.4455
   17.235    6.1717
   17.250    6.6456
   17.265    6.2981
   17.280    6.3086
   17.295    6.0664
   17.310    6.2770
   17.325    6.1085
   17.340    6.3296
   17.355    6.4982
   17.370    6.3928
   17.385    6.4139
   17.400    5.9610
   17.415    6.5403
   17.430    6.8141
   17.445    6.2665
   17.460    6.5719
   17.475    6.7088
   17.490    6.5613
   17.505    7.0248
   17.520    6.8246
   17.535    7.1511
   17.550    7.6356
   17.565    7.2565
   17.580    7.2880
   17.595    7.3091
   17.610    6.8352
   17.625    6.4982
   17.640    6.3086
   17.655    6.1717
   17.670    6.3296
   17.685    6.1190
   17.700    6.3086
   17.715    6.0242
   17.730    6.1822
   17.745    6.5403
   17.760    6.1401
   17.775    5.9716
   17.790    6.0348
   17.805    6.6351
   17.820    6.5824
   17.835    6.3612
   17.850    6.7404
   17.865    6.3823
   17.880    6.4244
   17.895    6.6667
   17.910    6.3612
   17.925    6.4034
   17.940    7.1722
   17.955    7.1090
   17.970    7.0985
   17.985    7.4250
   18.000    7.3196
   18.015    7.7725
   18.030    7.6777
   18.045    7.2249
   18.060    6.7193
   18.075    6.8984
   18.090    6.6667
   18.105    6.0348
   18.120    5.8557
   18.135    6.2033
   18.150    5.9189
   18.165    6.2559
   18.180    6.5087
   18.195    6.3823
   18.210    6.5192
   18.225    6.3296
   18.240    6.4244
   18.255    6.9405
   18.270    6.6772
   18.285    6.5403
   18.300    6.5929
   18.315    6.5824
   18.330    6.7299
   18.345    6.9510
   18.360    7.0985
   18.375    7.2880
   18.390    7.2775
   18.405    7.8252
   18.420    7.8041
   18.435    7.3828
   18.450    7.6356
   18.465    7.3407
   18.480    7.6145
   18.495    7.2459
   18.510    6.3191
   18.525    6.2770
   18.540    6.4244
   18.555    5.9294
   18.570    5.9294
   18.585    6.0242
   18.600    6.0874
   18.615    6.3612
   18.630    6.2243
   18.645    6.1927
   18.660    6.1611
   18.675    6.3718
   18.690    6.2981
   18.705    6.2138
   18.720    6.0979
   18.735    6.3507
   18.750    6.5613
   18.765    6.6351
   18.780    6.6561
   18.795    6.7720
   18.810    7.1301
   18.825    6.7825
   18.840    6.6772
   18.855    6.8984
   18.870    6.9194
   18.885    6.6983
   18.900    6.4876
   18.915    6.3928
   18.930    5.8978
   18.945    6.1190
   18.960    6.2033
   18.975    6.4560
   18.990    6.4244
   19.005    6.3507
   19.020    6.2033
   19.035    6.0769
   19.050    6.4876
   19.065    6.1085
   19.080    6.4350
   19.095    6.3296
   19.110    6.1611
   19.125    6.3086
   19.140    6.0242
   19.155    6.3402
   19.170    6.5719
   19.185    6.0453
   19.200    6.3928
   19.215    6.4666
   19.230    6.1822
   19.245    6.5719
   19.260    6.7299
   19.275    6.4666
   19.290    6.6456
   19.305    6.6245
   19.320    6.0979
   19.335    5.9294
   19.350    6.1401
   19.365    6.4034
   19.380    6.0137
   19.395    6.0242
   19.410    6.1927
   19.425    6.0453
   19.440    6.1822
   19.455    6.5929
   19.470    6.5192
   19.485    6.2559
   19.500    6.4034
   19.515    6.6035
   19.530    6.9932
   19.545    6.7930
   19.560    6.9405
   19.575    7.5092
   19.590    7.5092
   19.605    7.3196
   19.620    7.9305
   19.635    7.7725
   19.650    7.8252
   19.665    7.8146
   19.680    8.0253
   19.695    7.5619
   19.710    7.3302
   19.725    6.7720
   19.740    6.9721
   19.755    6.2559
   19.770    6.2454
   19.785    6.3086
   19.800    6.4771
   19.815    6.1927
   19.830    6.1295
   19.845    5.9505
   19.860    6.5508
   19.875    6.4771
   19.890    6.4139
   19.905    6.4666
   19.920    6.2981
   19.935    6.1190
   19.950    6.6772
   19.965    6.5403
   19.980    6.6035
   19.995    6.4771
   20.010    6.4034
   20.025    6.2138
   20.040    6.7299
   20.055    6.0769
   20.070    6.2559
   20.085    5.9294
   20.100    6.0348
   20.115    5.7399
   20.130    6.3612
   20.145    6.5508
   20.160    6.0348
   20.175    6.4982
   20.190    6.7088
   20.205    6.5087
   20.220    6.6561
   20.235    6.8246
   20.250    7.0563
   20.265    6.8878
   20.280    6.8141
   20.295    7.0142
   20.310    7.3934
   20.325    7.9410
   20.340    8.5308
   20.355    8.7520
   20.370    8.4255
   20.385    9.2154
   20.400   10.0474
   20.415   10.5845
   20.430   10.4160
   20.445   10.7320
   20.460   10.0579
   20.475    9.8157
   20.490    8.8468
   20.505    8.3728
   20.520    7.7093
   20.535    7.0669
   20.550    6.7825
   20.565    6.2559
   20.580    6.2559
   20.595    6.2770
   20.610    6.1085
   20.625    6.6140
   20.640    6.3086
   20.655    6.2349
   20.670    6.4455
   20.685    6.0979
   20.700    6.2665
   20.715    5.9189
   20.730    6.4560
   20.745    6.3402
   20.760    6.0769
   20.775    6.6140
   20.790    6.7825
   20.805    6.4455
   20.820    6.6351
   20.835    6.7509
   20.850    6.4876
   20.865    6.4666
   20.880    5.8557
   20.895    6.1717
   20.910    6.4139
   20.925    6.2033
   20.940    6.1611
   20.955    6.3402
   20.970    6.3823
   20.985    6.2770
   21.000    5.8978
   21.015    5.9294
   21.030    6.0242
   21.045    6.4455
   21.060    6.1506
   21.075    6.0032
   21.090    6.2138
   21.105    6.4244
   21.120    6.2981
   21.135    5.9926
   21.150    6.0558
   21.165    6.4034
   21.180    6.3507
   21.195    6.4034
   21.210    6.5087
   21.225    6.1295
   21.240    5.8452
   21.255    6.4876
   21.270    6.4455
   21.285    6.4771
   21.300    5.9716
   21.315    6.2349
   21.330    6.3823
   21.345    6.1401
   21.360    6.6561
   21.375    6.2243
   21.390    6.3507
   21.405    6.2665
   21.420    6.4982
   21.435    6.5192
   21.450    6.5929
   21.465    6.8141
   21.480    6.2770
   21.495    6.4244
   21.510    6.3296
   21.525    6.4034
   21.540    6.3296
   21.555    6.1717
   21.570    6.2981
   21.585    6.1295
   21.600    6.5613
   21.615    6.4982
   21.630    6.5403
   21.645    6.7720
   21.660    6.3296
   21.675    6.2875
   21.690    6.5613
   21.705    6.1822
   21.720    6.2875
   21.735    6.3402
   21.750    6.3823
   21.765    6.4771
   21.780    6.4034
   21.795    6.6667
   21.810    7.0985
   21.825    7.1511
   21.840    7.3407
   21.855    7.4460
   21.870    8.0779
   21.885    7.9094
   21.900    7.7620
   21.915    7.9094
   21.930    8.1622
   21.945    8.3307
   21.960    7.8884
   21.975    7.4039
   21.990    6.8562
   22.005    6.7404
   22.020    6.5192
   22.035    6.2559
   22.050    6.4982
   22.065    6.5929
   22.080    6.4560
   22.095    6.4666
   22.110    6.9089
   22.125    6.3612
   22.140    6.4139
   22.155    6.5403
   22.170    7.1195
   22.185    7.0142
   22.200    7.3196
   22.215    7.4987
   22.230    7.4144
   22.245    7.6461
   22.260    7.6672
   22.275    7.7830
   22.290    7.3934
   22.305    7.3196
   22.320    7.2565
   22.335    6.9932
   22.350    7.4566
   22.365    6.9194
   22.380    6.5824
   22.395    7.0353
   22.410    6.7930
   22.425    6.8878
   22.440    7.2565
   22.455    7.3618
   22.470    7.1722
   22.485    7.5935
   22.500    7.7304
   22.515    8.2780
   22.530    8.2464
   22.545    8.9731
   22.560   10.0053
   22.575   10.2475
   22.590   10.5003
   22.605   11.0058
   22.620   11.7009
   22.635   11.2164
   22.650   10.5319
   22.665   10.0895
   22.680    9.5419
   22.695    8.6151
   22.710    8.2570
   22.725    7.5513
   22.740    6.8668
   22.755    6.9721
   22.770    6.9616
   22.785    7.0985
   22.800    7.3512
   22.815    7.1933
   22.830    7.0669
   22.845    7.4250
   22.860    8.1938
   22.875    8.4887
   22.890    8.8994
   22.905    9.6367
   22.920   10.1738
   22.935   10.7425
   22.950   11.4376
   22.965   11.2902
   22.980   10.8794
   22.995   11.0690
   23.010   10.1316
   23.025    9.7209
   23.040    8.7098
   23.055    7.9726
   23.070    7.3934
   23.085    7.0142
   23.100    6.7720
   23.115    6.4876
   23.130    6.2665
   23.145    6.8036
   23.160    6.8773
   23.175    6.7720
   23.190    7.0458
   23.205    7.1301
   23.220    7.2670
   23.235    7.4355
   23.250    7.7725
   23.265    7.8568
   23.280    7.9094
   23.295    8.0147
   23.310    7.9200
   23.325    8.1517
   23.340    7.7830
   23.355    7.7514
   23.370    7.1827
   23.385    6.7299
   23.400    6.9721
   23.415    6.8773
   23.430    6.3086
   23.445    6.6140
   23.460    6.4771
   23.475    6.4350
   23.490    6.7720
   23.505    6.5298
   23.520    6.3612
   23.535    6.1927
   23.550    6.5087
   23.565    6.6561
   23.580    6.5192
   23.595    6.5824
   23.610    6.5087
   23.625    6.5508
   23.640    6.4455
   23.655    6.5824
   23.670    6.6983
   23.685    6.4982
   23.700    6.5824
   23.715    6.5403
   23.730    6.2559
   23.745    6.2981
   23.760    6.0979
   23.775    6.3086
   23.790    6.0664
   23.805    6.0453
   23.820    6.4455
   23.835    6.1927
   23.850    6.2875
   23.865    6.8562
   23.880    6.8562
   23.895    7.0248
   23.910    7.1511
   23.925    7.8462
   23.940    7.9726
   23.955    7.6251
   23.970    7.5197
   23.985    7.6777
   24.000    7.3196
   24.015    7.1827
   24.030    7.0669
   24.045    7.1301
   24.060    6.9300
   24.075    6.8668
   24.090    6.5508
   24.105    6.4034
   24.120    6.4560
   24.135    6.2243
   24.150    6.0769
   24.165    5.8873
   24.180    6.0032
   24.195    6.3928
   24.210    6.1295
   24.225    6.0979
   24.240    6.4771
   24.255    6.6983
   24.270    6.5403
   24.285    6.5719
   24.300    6.4666
   24.315    6.4034
   24.330    6.7930
   24.345    6.6140
   24.360    6.3296
   24.375    6.2770
   24.390    6.2559
   24.405    6.1717
   24.420    6.2138
   24.435    6.0874
   24.450    6.1401
   24.465    5.9294
   24.480    6.4876
   24.495    6.3612
   24.510    6.6456
   24.525    6.7509
   24.540    6.6877
   24.555    6.5929
   24.570    6.4034
   24.585    6.4455
   24.600    6.6877
   24.615    6.6035
   24.630    6.4982
   24.645    6.5298
   24.660    6.2665
   24.675    6.6456
   24.690    6.4455
   24.705    6.3507
   24.720    6.5192
   24.735    6.4771
   24.750    6.4350
   24.765    6.0453
   24.780    6.1822
   24.795    6.4560
   24.810    6.0137
   24.825    6.4034
   24.840    6.5298
   24.855    6.5613
   24.870    6.1506
   24.885    6.2349
   24.900    6.4350
   24.915    6.4350
   24.930    7.0774
   24.945    6.5087
   24.960    6.5508
   24.975    6.6983
   24.990    6.5613
   25.005    6.4666
   25.020    6.5192
   25.035    6.6351
   25.050    6.2665
   25.065    6.1611
   25.080    6.4139
   25.095    5.9505
   25.110    6.3928
   25.125    6.2770
   25.140    6.3086
   25.155    6.6245
   25.170    6.5613
   25.185    6.8246
   25.200    6.5508
   25.215    6.6983
   25.230    6.7615
   25.245    7.0248
   25.260    7.1617
   25.275    6.9089
   25.290    6.6456
   25.305    6.9826
   25.320    6.4876
   25.335    6.4560
   25.350    6.1717
   25.365    6.2454
   25.380    6.3823
   25.395    6.4034
   25.410    6.5508
   25.425    6.0453
   25.440    6.6456
   25.455    6.6877
   25.470    6.0348
   25.485    6.2454
   25.500    6.2770
   25.515    6.4350
   25.530    6.1717
   25.545    6.8352
   25.560    6.4666
   25.575    6.5192
   25.590    6.5298
   25.605    6.7615
   25.620    6.8984
   25.635    7.0458
   25.650    6.5087
   25.665    6.4244
   25.680    6.3191
   25.695    6.3191
   25.710    6.6140
   25.725    6.7825
   25.740    6.5929
   25.755    6.7193
   25.770    7.5303
   25.785    8.0358
   25.800    8.3518
   25.815    9.0679
   25.830    9.7209
   25.845    9.3523
   25.860    9.4997
   25.875    9.5629
   25.890    9.5103
   25.905    9.3523
   25.920    9.3628
   25.935    8.5308
   25.950    7.8989
   25.965    7.4776
   25.980    6.9300
   25.995    6.7509
   26.010    6.9194
   26.025    6.4244
   26.040    5.9610
   26.055    6.2138
   26.070    6.1401
   26.085    6.0137
   26.100    6.0032
   26.115    6.2454
   26.130    6.4350
   26.145    6.3402
   26.160    6.0769
   26.175    6.1927
   26.190    6.4455
   26.205    6.6983
   26.220    6.5087
   26.235    6.6667
   26.250    6.3718
   26.265    6.1927
   26.280    5.9294
   26.295    6.4139
   26.310    6.3718
   26.325    6.4666
   26.340    5.9294
   26.355    6.3191
   26.370    6.3402
   26.385    6.4034
   26.400    6.6140
   26.415    7.0248
   26.430    7.0879
   26.445    7.2775
   26.460    7.5935
   26.475    7.4566
   26.490    7.2038
   26.505    7.0037
   26.520    7.2143
   26.535    6.8036
   26.550    6.5824
   26.565    6.4982
   26.580    6.7720
   26.595    6.6245
   26.610    6.1927
   26.625    5.8452
   26.640    6.2454
   26.655    5.7820
   26.670    6.1401
   26.685    5.8978
   26.700    5.6977
   26.715    6.5087
   26.730    6.1295
   26.745    6.1190
   26.760    6.3191
   26.775    5.7925
   26.790    6.0453
   26.805    5.6872
   26.820    6.0242
   26.835    5.9716
   26.850    6.1611
   26.865    5.9400
   26.880    6.1085
   26.895    6.4034
   26.910    6.1717
   26.925    6.0664
   26.940    6.2875
   26.955    6.2033
   26.970    6.5508
   26.985    6.6456
   27.000    6.8562
   27.015    7.0037
   27.030    7.1195
   27.045    7.4566
   27.060    7.5408
   27.075    7.4460
   27.090    7.6883
   27.105    7.5408
   27.120    7.0353
   27.135    7.2143
   27.150    7.0353
   27.165    6.4244
   27.180    6.6561
   27.195    6.0979
   27.210    6.0453
   27.225    6.2559
   27.240    6.1506
   27.255    6.2033
   27.270    6.0769
   27.285    5.7820
   27.300    6.0242
   27.315    6.1506
   27.330    5.9821
   27.345    6.1085
   27.360    6.2349
   27.375    5.9821
   27.390    5.8768
   27.405    6.1190
   27.420    5.6767
   27.435    5.8347
   27.450    5.8452
   27.465    6.0664
   27.480    6.2138
   27.495    5.7399
   27.510    6.6772
   27.525    6.5929
   27.540    6.2875
   27.555    6.0558
   27.570    6.7930
   27.585    7.1827
   27.600    7.0353
   27.615    7.0353
   27.630    6.5929
   27.645    6.9405
   27.660    7.0774
   27.675    7.1617
   27.690    6.8246
   27.705    6.4876
   27.720    6.8878
   27.735    7.2038
   27.750    6.3402
   27.765    5.9926
   27.780    6.2138
   27.795    6.1717
   27.810    6.2243
   27.825    6.3823
   27.840    5.8031
   27.855    6.2770
   27.870    6.3507
   27.885    6.4771
   27.900    6.3612
   27.915    6.4560
   27.930    6.7509
   27.945    6.4139
   27.960    6.5298
   27.975    6.6351
   27.990    6.6667
   28.005    6.7509
   28.020    6.2349
   28.035    6.0348
   28.050    6.1506
   28.065    6.3612
   28.080    6.7615
   28.095    6.5403
   28.110    6.3718
   28.125    6.4560
   28.140    6.4560
   28.155    6.9616
   28.170    7.0353
   28.185    7.5935
   28.200    7.7514
   28.215    7.8146
   28.230    7.6672
   28.245    7.6672
   28.260    7.2775
   28.275    7.3934
   28.290    7.2565
   28.305    7.2249
   28.320    6.9932
   28.335    6.6035
   28.350    6.5824
   28.365    6.2243
   28.380    6.4876
   28.395    6.4455
   28.410    6.5508
   28.425    6.6140
   28.440    6.8773
   28.455    7.6251
   28.470    7.2670
   28.485    6.8562
   28.500    6.8036
   28.515    7.2143
   28.530    7.5197
   28.545    7.2565
   28.560    7.3934
   28.575    6.9721
   28.590    6.5298
   28.605    6.4350
   28.620    6.3402
   28.635    6.2559
   28.650    6.0348
   28.665    5.8347
   28.680    5.9084
   28.695    5.9716
   28.710    6.0137
   28.725    6.1822
   28.740    6.3402
   28.755    6.1822
   28.770    5.9084
   28.785    6.1295
   28.800    5.9505
   28.815    5.7083
   28.830    6.0979
   28.845    6.3718
   28.860    5.9294
   28.875    6.2875
   28.890    5.9610
   28.905    5.9610
   28.920    5.9505
   28.935    6.0137
   28.950    5.8978
   28.965    6.2243
   28.980    6.3612
   28.995    6.1295
   29.010    5.8662
   29.025    6.3296
   29.040    6.3507
   29.055    6.0558
   29.070    6.6772
   29.085    6.4560
   29.100    6.4244
   29.115    6.3823
   29.130    6.4139
   29.145    6.0979
   29.160    5.6135
   29.175    5.8136
   29.190    5.9084
   29.205    6.3507
   29.220    6.2770
   29.235    6.2349
   29.250    6.6561
   29.265    6.3296
   29.280    6.6351
   29.295    6.9932
   29.310    6.9616
   29.325    6.7404
   29.340    7.1827
   29.355    6.9826
   29.370    6.7088
   29.385    6.5929
   29.400    6.7615
   29.415    6.8562
   29.430    6.5824
   29.445    6.0032
   29.460    5.9926
   29.475    5.8873
   29.490    6.0664
   29.505    5.8768
   29.520    5.7925
   29.535    5.8978
   29.550    6.0348
   29.565    6.2559
   29.580    5.9821
   29.595    5.8136
   29.610    5.9189
   29.625    5.9294
   29.640    6.0769
   29.655    5.8347
   29.670    5.8768
   29.685    6.0348
   29.700    5.9716
   29.715    5.7293
   29.730    5.8662
   29.745    6.1506
   29.760    5.8662
   29.775    5.5714
   29.790    6.0032
   29.805    6.2349
   29.820    5.8452
   29.835    5.9084
   29.850    6.1085
   29.865    6.3191
   29.880    6.6351
   29.895    6.3507
   29.910    6.2033
   29.925    6.3718
   29.940    6.4139
   29.955    6.1506
   29.970    6.6456
   29.985    5.8241
   30.000    5.8557
   30.015    5.3923
   30.030    5.6661
   30.045    5.5819
   30.060    5.5608
   30.075    5.8873
   30.090    5.7925
   30.105    5.9189
   30.120    6.1295
   30.135    6.1401
   30.150    6.3612
   30.165    6.5508
   30.180    6.1295
   30.195    6.1927
   30.210    6.1506
   30.225    5.7609
   30.240    6.0979
   30.255    5.7820
   30.270    5.9821
   30.285    6.0137
   30.300    5.6029
   30.315    5.7083
   30.330    5.7609
   30.345    5.6767
   30.360    5.6767
   30.375    5.9400
   30.390    6.1295
   30.405    5.8557
   30.420    5.8662
   30.435    5.9189
   30.450    5.8978
   30.465    5.8136
   30.480    6.0242
   30.495    5.9084
   30.510    5.8557
   30.525    5.6451
   30.540    5.6977
   30.555    5.7504
   30.570    5.6872
   30.585    5.9610
   30.600    6.1822
   30.615    6.3507
   30.630    6.2665
   30.645    6.5192
   30.660    6.7193
   30.675    6.2033
   30.690    6.2454
   30.705    6.6772
   30.720    6.4876
   30.735    6.1611
   30.750    5.9189
   30.765    6.1401
   30.780    5.7504
   30.795    6.0348
   30.810    5.9189
   30.825    6.0664
   30.840    5.6556
   30.855    5.4976
   30.870    5.5608
   30.885    6.1190
   30.900    6.0874
   30.915    5.7925
   30.930    6.0348
   30.945    5.9505
   30.960    5.6556
   30.975    5.8873
   30.990    5.7399
   31.005    5.7293
   31.020    5.4976
   31.035    5.7715
   31.050    5.6556
   31.065    5.3081
   31.080    5.5608
   31.095    5.5819
   31.110    5.7715
   31.125    5.5082
   31.140    5.5187
   31.155    5.4660
   31.170    5.3818
   31.185    5.3712
   31.200    5.9084
   31.215    5.5819
   31.230    5.5187
   31.245    5.6977
   31.260    5.4976
   31.275    5.6767
   31.290    5.6661
   31.305    5.9084
   31.320    6.1822
   31.335    5.9716
   31.350    5.9821
   31.365    5.9400
   31.380    5.9505
   31.395    6.0874
   31.410    6.2981
   31.425    6.2875
   31.440    6.0032
   31.455    6.0664
   31.470    6.3086
   31.485    5.8452
   31.500    5.7715
   31.515    5.9084
   31.530    5.9610
   31.545    5.8031
   31.560    5.7504
   31.575    5.6661
   31.590    5.8978
   31.605    5.9400
   31.620    5.4871
   31.635    5.9400
   31.650    5.7293
   31.665    5.9716
   31.680    5.6767
   31.695    5.7925
   31.710    5.8452
   31.725    5.4766
   31.740    5.8241
   31.755    5.6451
   31.770    5.7820
   31.785    5.6556
   31.800    5.2133
   31.815    5.8241
   31.830    5.8557
   31.845    5.7504
   31.860    5.6977
   31.875    6.0769
   31.890    6.0137
   31.905    5.7820
   31.920    5.7715
   31.935    5.9821
   31.950    6.1190
   31.965    6.1717
   31.980    5.7820
   31.995    5.6556
   32.010    5.5082
   32.025    5.8347
   32.040    5.5292
   32.055    5.2975
   32.070    5.6240
   32.085    6.0453
   32.100    6.2875
   32.115    6.0137
   32.130    5.8347
   32.145    5.8136
   32.160    5.7715
   32.175    5.6029
   32.190    5.4450
   32.205    5.6451
   32.220    5.6556
   32.235    5.6029
   32.250    5.7293
   32.265    5.5187
   32.280    5.4976
   32.295    5.4450
   32.310    5.6451
   32.325    5.6872
   32.340    5.7925
   32.355    5.2554
   32.370    5.2238
   32.385    5.6135
   32.400    5.7925
   32.415    5.6135
   32.430    5.5292
   32.445    5.1922
   32.460    5.3397
   32.475    5.5819
   32.490    5.7715
   32.505    5.2765
   32.520    4.9816
   32.535    5.4344
   32.550    5.4134
   32.565    5.3291
   32.580    5.4976
   32.595    5.4028
   32.610    5.3923
   32.625    5.4976
   32.640    5.7504
   32.655    5.4450
   32.670    5.4976
   32.685    5.7715
   32.700    5.7083
   32.715    5.4871
   32.730    5.5819
   32.745    5.5819
   32.760    5.2975
   32.775    5.3712
   32.790    5.3712
   32.805    5.3818
   32.820    5.2554
   32.835    5.5398
   32.850    5.8768
   32.865    5.7609
   32.880    5.8031
   32.895    5.8978
   32.910    5.7188
   32.925    5.5608
   32.940    5.5082
   32.955    5.7609
   32.970    5.8768
   32.985    5.5819
   33.000    5.8768
   33.015    5.5503
   33.030    5.5924
   33.045    5.4871
   33.060    5.4450
   33.075    5.3607
   33.090    5.5503
   33.105    5.5292
   33.120    5.4450
   33.135    5.4134
   33.150    5.4766
   33.165    5.7925
   33.180    5.3502
   33.195    5.0869
   33.210    5.3712
   33.225    5.4344
   33.240    5.2765
   33.255    4.9184
   33.270    5.0974
   33.285    5.0869
   33.300    4.9500
   33.315    5.2975
   33.330    5.2765
   33.345    5.2449
   33.360    5.1606
   33.375    5.2449
   33.390    5.3397
   33.405    5.5082
   33.420    5.3186
   33.435    5.2238
   33.450    5.0026
   33.465    5.3923
   33.480    5.4871
   33.495    5.0342
   33.510    5.1185
   33.525    5.4555
   33.540    5.4871
   33.555    5.2449
   33.570    5.3818
   33.585    5.3397
   33.600    5.1290
   33.615    5.1290
   33.630    5.4239
   33.645    5.4028
   33.660    5.1711
   33.675    5.5082
   33.690    5.5503
   33.705    5.3291
   33.720    5.5398
   33.735    5.6556
   33.750    5.3607
   33.765    5.1501
   33.780    5.6451
   33.795    5.4134
   33.810    5.5714
   33.825    5.7820
   33.840    5.8347
   33.855    5.8241
   33.870    5.6977
   33.885    5.7504
   33.900    5.8557
   33.915    6.2454
   33.930    5.9084
   33.945    5.7820
   33.960    5.6767
   33.975    5.4028
   33.990    5.2659
   34.005    5.4660
   34.020    5.2027
   34.035    5.4555
   34.050    5.6345
   34.065    5.4555
   34.080    5.4344
   34.095    5.2554
   34.110    5.4134
   34.125    5.4344
   34.140    5.5924
   34.155    5.9084
   34.170    5.7715
   34.185    5.7399
   34.200    5.2449
   34.215    5.1395
   34.230    5.7083
   34.245    5.7083
   34.260    5.2554
   34.275    5.2238
   34.290    5.4028
   34.305    5.4555
   34.320    5.3607
   34.335    5.1922
   34.350    5.2238
   34.365    5.1501
   34.380    5.5398
   34.395    5.3397
   34.410    5.1711
   34.425    5.1711
   34.440    5.2659
   34.455    5.1711
   34.470    5.1922
   34.485    5.0448
   34.500    5.0869
   34.515    5.4028
   34.530    5.3712
   34.545    5.0658
   34.560    5.0974
   34.575    5.0869
   34.590    5.1290
   34.605    4.8236
   34.620    5.0658
   34.635    5.1501
   34.650    5.0132
   34.665    5.3607
   34.680    5.2554
   34.695    4.8131
   34.710    5.0974
   34.725    5.1501
   34.740    5.3081
   34.755    4.9816
   34.770    5.2975
   34.785    5.2238
   34.800    5.3923
   34.815    5.2449
   34.830    5.2765
   34.845    5.5503
   34.860    5.3607
   34.875    5.7083
   34.890    5.4344
   34.905    5.2554
   34.920    5.3502
   34.935    5.2659
   34.950    5.3502
   34.965    5.2765
   34.980    5.0132
   34.995    4.8973
   35.010    5.0237
   35.025    5.1606
   35.040    5.2870
   35.055    5.2238
   35.070    4.9078
   35.085    5.0764
   35.100    4.9921
   35.115    4.9078
   35.130    4.9816
   35.145    5.0974
   35.160    4.9078
   35.175    5.1185
   35.190    5.0553
   35.205    5.2449
   35.220    5.0342
   35.235    4.9710
   35.250    4.9394
   35.265    5.0658
   35.280    5.0026
   35.295    4.9394
   35.310    5.0764
   35.325    4.7393
   35.340    5.0342
   35.355    5.0132
   35.370    5.0132
   35.385    5.1501
   35.400    5.0869
   35.415    4.9921
   35.430    5.2027
   35.445    5.3502
   35.460    5.1711
   35.475    4.8868
   35.490    5.0342
   35.505    5.0974
   35.520    4.8447
   35.535    4.9710
   35.550    4.6235
   35.565    5.0448
   35.580    5.1922
   35.595    5.1501
   35.610    4.9289
   35.625    4.9921
   35.640    4.8973
   35.655    5.0448
   35.670    5.3818
   35.685    5.1501
   35.700    5.3712
   35.715    5.0237
   35.730    5.0869
   35.745    5.3712
   35.760    5.2133
   35.775    5.1817
   35.790    5.6345
   35.805    5.0026
   35.820    5.0974
   35.835    5.2554
   35.850    5.1080
   35.865    5.2133
   35.880    5.2870
   35.895    5.1922
   35.910    4.9605
   35.925    5.2765
   35.940    5.0342
   35.955    5.1922
   35.970    4.9184
   35.985    5.4976
   36.000    5.5292
   36.015    5.3607
   36.030    5.1606
   36.045    4.7183
   36.060    5.3712
   36.075    5.0553
   36.090    5.2027
   36.105    5.1395
   36.120    5.4976
   36.135    4.7288
   36.150    5.3186
   36.165    5.2027
   36.180    5.5924
   36.195    5.3397
   36.210    5.3607
   36.225    5.3081
   36.240    5.2133
   36.255    5.1711
   36.270    4.8763
   36.285    5.2027
   36.300    5.0026
   36.315    5.0342
   36.330    5.0974
   36.345    4.7604
   36.360    5.0869
   36.375    4.9184
   36.390    5.0342
   36.405    4.8973
   36.420    4.8657
   36.435    5.0658
   36.450    5.0342
   36.465    5.1290
   36.480    4.9710
   36.495    5.0553
   36.510    4.9605
   36.525    5.3186
   36.540    5.1080
   36.555    5.0448
   36.570    4.9500
   36.585    5.0026
   36.600    4.8657
   36.615    5.2449
   36.630    5.2343
   36.645    4.9921
   36.660    5.1395
   36.675    5.0764
   36.690    4.9605
   36.705    4.9078
   36.720    5.3081
   36.735    4.9921
   36.750    5.0658
   36.765    4.9394
   36.780    4.9078
   36.795    4.7604
   36.810    5.1395
   36.825    4.9921
   36.840    4.5814
   36.855    4.6130
   36.870    4.7709
   36.885    4.9710
   36.900    4.9921
   36.915    5.0869
   36.930    5.3397
   36.945    5.2027
   36.960    4.8657
   36.975    5.0764
   36.990    5.2659
   37.005    4.8131
   37.020    5.2343
   37.035    5.2027
   37.050    5.0553
   37.065    5.3186
   37.080    5.1922
   37.095    5.3818
   37.110    5.3291
   37.125    5.4871
   37.140    5.4871
   37.155    5.4028
   37.170    5.3397
   37.185    5.2449
   37.200    5.1711
   37.215    5.2554
   37.230    4.9921
   37.245    5.0553
   37.260    4.7920
   37.275    5.0448
   37.290    5.2027
   37.305    5.1290
   37.320    4.6024
   37.335    4.7920
   37.350    4.8447
   37.365    4.6761
   37.380    4.8657
   37.395    4.7709
   37.410    5.3186
   37.425    5.0132
   37.440    4.5182
   37.455    4.7709
   37.470    4.7077
   37.485    5.2238
   37.500    4.7288
   37.515    5.2975
   37.530    5.0658
   37.545    5.0553
   37.560    5.1606
   37.575    5.1606
   37.590    5.2659
   37.605    5.3081
   37.620    4.8973
   37.635    4.9710
   37.650    5.3081
   37.665    5.1395
   37.680    5.0132
   37.695    4.7709
   37.710    5.1185
   37.725    5.0448
   37.740    5.0974
   37.755    5.0342
   37.770    5.1395
   37.785    5.0237
   37.800    4.9500
   37.815    5.0237
   37.830    5.0658
   37.845    5.2343
   37.860    5.0658
   37.875    5.0026
   37.890    5.1290
   37.905    4.7288
   37.920    4.6972
   37.935    4.8025
   37.950    4.7604
   37.965    4.6972
   37.980    5.1711
   37.995    5.0237
   38.010    4.8025
   38.025    4.8236
   38.040    4.8763
   38.055    5.2238
   38.070    5.2975
   38.085    5.0658
   38.100    5.0974
   38.115    4.9184
   38.130    5.1922
   38.145    4.8763
   38.160    4.8868
   38.175    4.7815
   38.190    5.0237
   38.205    5.0237
   38.220    4.8447
   38.235    4.9078
   38.250    4.9816
   38.265    4.7288
   38.280    4.7499
   38.295    4.7604
   38.310    4.9500
   38.325    4.7709
   38.340    4.6972
   38.355    4.5498
   38.370    5.1290
   38.385    5.2343
   38.400    4.6024
   38.415    4.6867
   38.430    5.0448
   38.445    4.9184
   38.460    5.1185
   38.475    5.2027
   38.490    4.9394
   38.505    5.0132
   38.520    4.4971
   38.535    4.8025
   38.550    4.7288
   38.565    5.1080
   38.580    4.6867
   38.595    4.5708
   38.610    4.8131
   38.625    4.8341
   38.640    4.2865
   38.655    4.7393
   38.670    4.6867
   38.685    4.7077
   38.700    4.5182
   38.715    4.6656
   38.730    4.7815
   38.745    4.8341
   38.760    4.8552
   38.775    4.7499
   38.790    4.7815
   38.805    5.0342
   38.820    5.1080
   38.835    4.7709
   38.850    4.7499
   38.865    4.8131
   38.880    4.9394
   38.895    4.9289
   38.910    4.7499
   38.925    4.5814
   38.940    4.4655
   38.955    4.8236
   38.970    4.8657
   38.985    4.7077
   39.000    4.6656
   39.015    4.6656
   39.030    4.7815
   39.045    4.6867
   39.060    4.6972
   39.075    4.7815
   39.090    4.8025
   39.105    4.5392
   39.120    4.8131
   39.135    4.6972
   39.150    4.7709
   39.165    4.8552
   39.180    4.7604
   39.195    4.9289
   39.210    4.8973
   39.225    4.7077
   39.240    5.0237
   39.255    5.1501
   39.270    4.9816
   39.285    4.8447
   39.300    4.6761
   39.315    4.8236
   39.330    4.9289
   39.345    4.7920
   39.360    4.7815
   39.375    4.7393
   39.390    5.0553
   39.405    4.5919
   39.420    4.6551
   39.435    4.8236
   39.450    5.1185
   39.465    4.7815
   39.480    4.6656
   39.495    4.7288
   39.510    4.6024
   39.525    4.4971
   39.540    4.4866
   39.555    4.9078
   39.570    4.8657
   39.585    4.6235
   39.600    4.5603
   39.615    5.2449
   39.630    4.9605
   39.645    4.9500
   39.660    4.9184
   39.675    4.9710
   39.690    4.6235
   39.705    4.9184
   39.720    4.8763
   39.735    5.2027
   39.750    4.9605
   39.765    5.1501
   39.780    5.0553
   39.795    4.9394
   39.810    5.0237
   39.825    4.9394
   39.840    4.8447
   39.855    4.2970
   39.870    4.7815
   39.885    4.5919
   39.900    4.7709
   39.915    4.7499
   39.930    4.8552
   39.945    4.7920
   39.960    4.5919
   39.975    4.8763
   39.990    4.8447
