    1.500   29.2575
    1.515   29.5629
    1.530   28.9626
    1.545   29.4365
    1.560   29.2154
    1.575   28.1727
    1.590   29.0679
    1.605   27.6461
    1.620   27.4671
    1.635   27.5303
    1.650   26.9721
    1.665   26.5719
    1.680   26.4139
    1.695   26.0242
    1.710   26.1190
    1.725   25.4134
    1.740   25.1080
    1.755   25.8978
    1.770   25.0553
    1.785   25.0869
    1.800   24.8973
    1.815   24.8763
    1.830   24.5498
    1.845   24.6972
    1.860   24.5182
    1.875   24.0864
    1.890   23.8231
    1.905   23.8652
    1.920   23.8757
    1.935   23.4018
    1.950   23.2859
    1.965   23.2965
    1.980   23.5071
    1.995   23.7493
    2.010   22.7909
    2.025   22.8963
    2.040   23.2438
    2.055   23.0753
    2.070   23.1701
    2.085   22.8436
    2.100   22.4223
    2.115   22.6119
    2.130   21.9379
    2.145   22.7067
    2.160   22.8857
    2.175   23.1596
    2.190   23.9284
    2.205   23.1596
    2.220   23.0121
    2.235   23.1701
    2.250   24.0864
    2.265   23.4966
    2.280   23.0121
    2.295   23.2333
    2.310   23.8231
    2.325   24.0232
    2.340   23.7177
    2.355   24.7709
    2.370   24.1706
    2.385   24.6340
    2.400   25.1290
    2.415   24.2233
    2.430   24.6551
    2.445   25.1817
    2.460   26.0032
    2.475   26.3823
    2.490   26.4244
    2.505   25.5924
    2.520   26.5403
    2.535   27.4250
    2.550   26.8562
    2.565   27.4144
    2.580   28.7520
    2.595   29.0047
    2.610   28.6783
    2.625   29.5945
    2.640   30.5003
    2.655   30.2370
    2.670   29.9842
    2.685   30.8478
    2.700   31.1216
    2.715   31.4376
    2.730   32.6909
    2.745   33.5966
    2.760   33.7651
    2.775   35.3449
    2.790   35.5450
    2.805   36.6614
    2.820   36.8404
    2.835   37.3354
    2.850   38.0200
    2.865   39.4945
    2.880   40.2317
    2.895   41.6324
    2.910   41.9484
    2.925   43.5914
    2.940   44.2759
    2.955   45.0237
    2.970   47.0985
    2.985   46.6035
    3.000   48.8468
    3.015   50.5951
    3.030   51.2270
    3.045   54.1443
    3.060   56.0506
    3.075   57.4408
    3.090   57.7883
    3.105   60.5898
    3.120   63.6756
    3.135   65.5187
    3.150   68.2465
    3.165   71.1322
    3.180   74.2812
    3.195   75.9979
    3.210   78.5887
    3.225   81.5061
    3.240   87.0774
    3.255   91.4481
    3.270   95.7873
    3.285   98.0200
    3.300  105.1290
    3.315  112.3749
    3.330  120.4213
    3.345  125.7083
    3.360  133.9337
    3.375  146.1927
    3.390  157.1880
    3.405  169.5945
    3.420  181.3797
    3.435  186.3718
    3.450  187.3828
    3.465  179.7999
    3.480  165.4239
    3.495  144.1390
    3.510  120.9057
    3.525   97.9147
    3.540   80.1580
    3.555   66.9932
    3.570   57.7988
    3.585   52.2170
    3.600   48.7730
    3.615   45.9189
    3.630   44.7288
    3.645   44.7920
    3.660   45.7504
    3.675   44.6130
    3.690   46.8562
    3.705   46.5824
    3.720   46.0348
    3.735   47.5829
    3.750   49.6577
    3.765   51.4376
    3.780   53.9021
    3.795   55.5450
    3.810   56.6930
    3.825   58.9468
    3.840   62.2538
    3.855   66.4771
    3.870   68.1411
    3.885   70.7109
    3.900   73.9968
    3.915   76.4508
    3.930   76.5771
    3.945   76.9879
    3.960   77.3144
    3.975   78.3886
    3.990   80.9163
    4.005   83.2543
    4.020   85.2343
    4.035   86.6877
    4.050   88.5624
    4.065   86.0242
    4.080   84.8341
    4.095   84.2443
    4.110   81.2638
    4.125   76.8510
    4.140   74.9658
    4.155   71.4060
    4.170   65.6135
    4.185   61.5061
    4.200   56.4824
    4.215   53.8389
    4.230   48.9100
    4.245   43.9705
    4.260   41.2217
    4.275   37.5145
    4.290   35.3765
    4.305   31.3428
    4.320   28.7730
    4.335   25.9189
    4.350   24.1706
    4.365   21.8957
    4.380   20.4213
    4.395   18.7783
    4.410   17.0721
    4.425   16.1453
    4.440   15.7767
    4.455   14.6182
    4.470   14.6498
    4.485   14.4497
    4.500   12.8383
    4.515   12.5224
    4.530   12.1748
    4.545   11.5219
    4.560   11.4060
    4.575   11.3533
    4.590   11.0900
    4.605   10.9426
    4.620   10.4581
    4.635   10.1527
    4.650    9.8999
    4.665    9.8262
    4.680    9.9315
    4.695   10.0685
    4.710    9.8473
    4.725    9.4155
    4.740    9.1311
    4.755    9.4260
    4.770    9.3312
    4.785    9.4576
    4.800    9.0258
    4.815    8.8994
    4.830    8.6993
    4.845    8.5308
    4.860    8.6783
    4.875    8.8678
    4.890    8.6467
    4.905    9.0679
    4.920    8.8257
    4.935    8.7941
    4.950    8.6993
    4.965    9.1627
    4.980    8.9837
    4.995    8.6361
    5.010    8.5097
    5.025    8.6993
    5.040    8.3939
    5.055    8.8889
    5.070    8.5519
    5.085    8.5413
    5.100    8.3518
    5.115    8.5203
    5.130    8.5413
    5.145    8.9521
    5.160    8.6677
    5.175    8.5519
    5.190    8.4887
    5.205    8.8152
    5.220    8.3623
    5.235    8.3307
    5.250    8.4571
    5.265    8.8257
    5.280    8.6993
    5.295    8.8046
    5.310    8.3728
    5.325    8.9521
    5.340    8.8468
    5.355    8.1201
    5.370    8.5203
    5.385    8.5203
    5.400    8.4360
    5.415    8.3834
    5.430    8.4571
    5.445    8.7941
    5.460    8.6783
    5.475    8.8362
    5.490    8.8468
    5.505    9.0995
    5.520    9.3734
    5.535    8.8678
    5.550    8.7730
    5.565    8.4044
    5.580    8.0990
    5.595    7.7093
    5.610    7.7409
    5.625    7.3828
    5.640    7.3407
    5.655    7.2459
    5.670    7.6040
    5.685    7.4671
    5.700    7.1090
    5.715    6.8773
    5.730    7.2565
    5.745    7.6040
    5.760    7.9937
    5.775    7.8884
    5.790    7.8357
    5.805    7.6251
    5.820    7.6040
    5.835    7.4671
    5.850    7.2775
    5.865    7.2880
    5.880    7.0669
    5.895    7.3512
    5.910    7.7830
    5.925    7.4776
    5.940    7.0458
    5.955    7.6988
    5.970    8.1306
    5.985    7.5619
    6.000    7.6672
    6.015    7.3618
    6.030    7.7830
    6.045    7.5619
    6.060    7.2143
    6.075    7.2986
    6.090    7.8989
    6.105    7.6461
    6.120    7.4776
    6.135    7.8462
    6.150    7.7304
    6.165    7.8462
    6.180    7.8568
    6.195    7.7514
    6.210    8.0990
    6.225    7.7620
    6.240    7.6672
    6.255    7.6672
    6.270    7.9726
    6.285    7.7830
    6.300    7.6356
    6.315    8.1833
    6.330    8.6361
    6.345    8.2991
    6.360    8.2991
    6.375    8.7625
    6.390    8.3202
    6.405    8.1201
    6.420    8.2149
    6.435    8.7098
    6.450    8.7098
    6.465    8.9205
    6.480    8.6677
    6.495    9.0258
    6.510    8.9521
    6.525    9.1522
    6.540    9.9105
    6.555    9.8368
    6.570    9.8157
    6.585    9.8052
    6.600   10.2791
    6.615   10.5951
    6.630   10.8268
    6.645   10.8899
    6.660   11.3955
    6.675   11.3112
    6.690   11.9431
    6.705   12.3223
    6.720   12.7962
    6.735   13.6177
    6.750   14.0600
    6.765   14.4602
    6.780   15.2501
    6.795   15.6082
    6.810   16.3033
    6.825   17.5882
    6.840   18.1043
    6.855   19.5682
    6.870   20.6740
    6.885   22.9384
    6.900   24.1074
    6.915   25.8873
    6.930   26.3402
    6.945   26.0558
    6.960   25.2554
    6.975   23.7283
    6.990   22.0958
    7.005   19.0205
    7.020   16.4718
    7.035   13.7335
    7.050   12.3749
    7.065   11.5850
    7.080   10.4371
    7.095   10.4160
    7.110    9.2048
    7.125    8.6572
    7.140    8.6783
    7.155    8.7625
    7.170    8.4676
    7.185    8.0990
    7.200    7.8989
    7.215    8.2570
    7.230    7.7725
    7.245    8.2359
    7.260    8.1622
    7.275    7.8884
    7.290    7.6883
    7.305    7.2775
    7.320    7.8778
    7.335    8.3412
    7.350    8.0779
    7.365    7.8041
    7.380    7.8778
    7.395    7.7725
    7.410    7.5197
    7.425    7.9094
    7.440    8.1833
    7.455    7.9305
    7.470    7.8041
    7.485    8.1938
    7.500    8.0674
    7.515    8.3096
    7.530    8.6783
    7.545    8.6467
    7.560    8.2464
    7.575    8.3834
    7.590    8.5940
    7.605    8.6993
    7.620    8.4992
    7.635    8.8362
    7.650    8.8889
    7.665    9.1838
    7.680    8.6993
    7.695    9.0153
    7.710    9.2364
    7.725    9.7525
    7.740    9.8894
    7.755   10.1843
    7.770    9.7209
    7.785    9.4681
    7.800    9.6788
    7.815   10.6372
    7.830   10.7741
    7.845   10.5108
    7.860   10.4265
    7.875   10.8268
    7.890   11.2059
    7.905   11.4060
    7.920   11.2796
    7.935   11.0795
    7.950   11.6377
    7.965   11.6482
    7.980   11.8273
    7.995   12.0800
    8.010   12.9437
    8.025   12.9753
    8.040   12.5856
    8.055   13.1754
    8.070   13.6282
    8.085   13.9337
    8.100   14.1232
    8.115   14.1548
    8.130   13.5018
    8.145   14.0916
    8.160   14.1654
    8.175   14.3444
    8.190   14.5550
    8.205   14.5550
    8.220   14.9763
    8.235   14.9552
    8.250   15.0711
    8.265   15.0079
    8.280   14.7446
    8.295   14.7867
    8.310   14.3549
    8.325   13.9231
    8.340   13.7441
    8.355   14.3865
    8.370   13.5756
    8.385   13.1122
    8.400   13.3017
    8.415   12.9015
    8.430   12.5118
    8.445   12.3433
    8.460   12.1643
    8.475   12.1116
    8.490   12.4592
    8.505   12.1538
    8.520   11.9431
    8.535   11.6904
    8.550   11.6166
    8.565   10.9847
    8.580   11.1532
    8.595   10.7636
    8.610   10.3739
    8.625   10.3318
    8.640   10.2264
    8.655    9.8789
    8.670    9.8473
    8.685    9.4050
    8.700    9.2259
    8.715    9.0047
    8.730    9.1417
    8.745    9.0574
    8.760    9.0363
    8.775    8.8468
    8.790    8.7520
    8.805    8.7520
    8.820    8.5097
    8.835    7.7409
    8.850    7.9410
    8.865    8.5835
    8.880    8.2780
    8.895    8.4255
    8.910    7.8778
    8.925    8.0674
    8.940    8.6361
    8.955    8.5413
    8.970    8.2254
    8.985    8.2043
    9.000    8.4466
    9.015    8.3728
    9.030    8.4992
    9.045    8.7941
    9.060    8.4255
    9.075    8.5519
    9.090    8.7730
    9.105    9.0785
    9.120    9.1311
    9.135    8.8046
    9.150    9.2259
    9.165    9.2259
    9.180    9.0785
    9.195    9.1838
    9.210    9.7946
    9.225    9.5945
    9.240    9.9526
    9.255   10.2896
    9.270    9.8473
    9.285   10.1106
    9.300    9.8684
    9.315    9.1311
    9.330    9.2680
    9.345    9.6893
    9.360    9.3102
    9.375    8.8362
    9.390    8.8257
    9.405    8.8152
    9.420    8.3728
    9.435    8.4887
    9.450    8.4466
    9.465    8.1201
    9.480    8.1095
    9.495    8.3939
    9.510    7.8884
    9.525    7.7409
    9.540    7.7936
    9.555    7.7304
    9.570    8.3728
    9.585    8.4992
    9.600    8.4676
    9.615    8.1622
    9.630    7.8462
    9.645    7.6145
    9.660    7.9305
    9.675    7.4776
    9.690    7.4776
    9.705    7.2670
    9.720    7.4039
    9.735    7.3828
    9.750    6.8562
    9.765    7.2670
    9.780    7.2986
    9.795    8.0674
    9.810    7.9726
    9.825    7.3934
    9.840    7.6883
    9.855    7.5935
    9.870    7.4776
    9.885    8.1306
    9.900    7.7514
    9.915    7.4355
    9.930    7.8357
    9.945    7.9410
    9.960    7.9726
    9.975    7.6567
    9.990    7.2143
   10.005    7.0458
   10.020    7.7093
   10.035    7.7830
   10.050    7.6883
   10.065    7.8778
   10.080    8.4360
   10.095    8.1622
   10.110    8.0253
   10.125    7.9937
   10.140    7.9305
   10.155    8.5519
   10.170    8.4466
   10.185    8.1095
   10.200    8.5940
   10.215    8.0674
   10.230    8.1833
   10.245    8.2780
   10.260    7.7199
   10.275    7.8673
   10.290    8.1727
   10.305    8.6045
   10.320    8.0779
   10.335    8.2780
   10.350    8.7941
   10.365    8.7625
   10.380    8.8889
   10.395    9.0679
   10.410    9.4576
   10.425    9.5103
   10.440    9.3102
   10.455    8.8468
   10.470    8.7520
   10.485    9.1101
   10.500    9.1943
   10.515    8.2043
   10.530    7.5092
   10.545    7.9937
   10.560    7.4671
   10.575    7.6461
   10.590    7.6567
   10.605    7.5724
   10.620    7.5408
   10.635    7.6988
   10.650    7.7199
   10.665    7.9200
   10.680    7.8462
   10.695    8.0042
   10.710    7.4460
   10.725    7.5197
   10.740    7.5092
   10.755    7.5197
   10.770    7.2249
   10.785    7.5935
   10.800    7.8778
   10.815    7.3618
   10.830    8.1938
   10.845    7.6672
   10.860    7.2249
   10.875    7.5513
   10.890    7.6356
   10.905    7.4776
   10.920    7.5619
   10.935    7.2565
   10.950    7.1511
   10.965    7.0142
   10.980    7.3934
   10.995    7.1722
   11.010    7.1090
   11.025    6.8984
   11.040    7.0879
   11.055    7.5408
   11.070    7.6461
   11.085    7.7830
   11.100    7.4882
   11.115    7.3091
   11.130    7.2670
   11.145    7.2354
   11.160    7.0774
   11.175    7.2880
   11.190    7.0985
   11.205    7.0879
   11.220    7.3512
   11.235    7.1090
   11.250    6.9300
   11.265    6.8668
   11.280    7.2459
   11.295    7.1301
   11.310    7.1195
   11.325    7.1195
   11.340    7.7514
   11.355    7.4566
   11.370    7.2354
   11.385    7.5619
   11.400    7.4144
   11.415    7.3091
   11.430    7.1933
   11.445    7.1933
   11.460    7.6356
   11.475    7.5724
   11.490    6.9510
   11.505    7.5408
   11.520    7.4882
   11.535    7.0985
   11.550    7.3618
   11.565    7.8568
   11.580    7.3196
   11.595    7.2775
   11.610    7.3828
   11.625    7.3828
   11.640    7.6040
   11.655    7.2565
   11.670    7.8146
   11.685    8.1306
   11.700    7.3091
   11.715    7.2249
   11.730    7.6461
   11.745    7.5724
   11.760    7.8778
   11.775    7.8989
   11.790    7.6251
   11.805    7.7409
   11.820    8.0147
   11.835    7.5619
   11.850    7.6145
   11.865    7.5303
   11.880    7.1511
   11.895    7.8989
   11.910    8.0463
   11.925    8.3518
   11.940    7.9516
   11.955    7.8884
   11.970    7.8884
   11.985    7.8146
   12.000    7.8146
   12.015    8.3412
   12.030    8.0779
   12.045    8.0674
   12.060    8.1938
   12.075    8.6361
   12.090    8.8889
   12.105    8.3623
   12.120    8.6572
   12.135    8.7941
   12.150    8.5835
   12.165    8.7625
   12.180    8.5519
   12.195    8.6361
   12.210    8.9731
   12.225    8.9626
   12.240    8.9205
   12.255    8.9942
   12.270    8.7098
   12.285    8.2359
   12.300    8.4571
   12.315    8.7098
   12.330    9.0785
   12.345    8.8257
   12.360    8.8889
   12.375    8.4150
   12.390    8.5097
   12.405    8.5308
   12.420    8.5308
   12.435    8.5624
   12.450    8.2043
   12.465    8.4360
   12.480    8.2254
   12.495    8.0569
   12.510    8.0463
   12.525    8.4781
   12.540    8.4992
   12.555    8.2464
   12.570    8.1938
   12.585    8.0569
   12.600    8.4255
   12.615    8.1201
   12.630    8.3518
   12.645    8.3307
   12.660    8.3939
   12.675    8.5413
   12.690    8.5203
   12.705    8.4255
   12.720    8.2359
   12.735    8.2464
   12.750    8.4360
   12.765    8.1306
   12.780    8.1727
   12.795    8.4360
   12.810    8.8784
   12.825    7.9305
   12.840    8.0358
   12.855    7.7725
   12.870    7.7725
   12.885    7.6777
   12.900    7.6145
   12.915    7.7199
   12.930    8.0885
   12.945    7.8884
   12.960    7.8041
   12.975    8.1201
   12.990    8.0042
   13.005    8.3728
   13.020    8.0990
   13.035    8.3518
   13.050    8.3834
   13.065    7.7199
   13.080    7.6567
   13.095    7.7725
   13.110    7.6356
   13.125    7.2670
   13.140    8.1095
   13.155    8.0147
   13.170    7.7936
   13.185    7.9937
   13.200    7.8568
   13.215    7.8673
   13.230    7.6777
   13.245    7.7199
   13.260    7.6040
   13.275    7.8462
   13.290    8.0253
   13.305    8.1411
   13.320    8.0569
   13.335    8.1622
   13.350    8.2991
   13.365    8.0990
   13.380    7.9621
   13.395    7.9305
   13.410    7.9305
   13.425    8.0253
   13.440    8.1095
   13.455    8.1833
   13.470    7.7514
   13.485    8.0147
   13.500    7.8462
   13.515    7.4882
   13.530    7.6040
   13.545    7.6356
   13.560    8.0253
   13.575    8.1095
   13.590    8.0042
   13.605    7.7725
   13.620    7.6672
   13.635    8.1201
   13.650    7.9305
   13.665    7.8252
   13.680    7.5724
   13.695    7.6777
   13.710    7.9200
   13.725    7.4355
   13.740    7.2565
   13.755    7.3618
   13.770    7.5303
   13.785    7.5092
   13.800    7.7199
   13.815    7.5724
   13.830    7.7830
   13.845    7.4460
   13.860    7.6988
   13.875    7.7514
   13.890    7.8884
   13.905    7.6777
   13.920    7.2565
   13.935    7.6567
   13.950    7.5303
   13.965    7.1827
   13.980    7.3618
   13.995    7.6672
   14.010    7.5197
   14.025    7.1511
   14.040    7.0353
   14.055    7.2249
   14.070    7.4776
   14.085    7.6040
   14.100    7.1827
   14.115    7.3934
   14.130    7.8041
   14.145    7.6040
   14.160    7.6461
   14.175    6.7825
   14.190    7.2038
   14.205    6.8352
   14.220    7.2459
   14.235    6.9510
   14.250    6.6351
   14.265    6.4666
   14.280    6.9405
   14.295    6.9194
   14.310    7.2670
   14.325    6.7615
   14.340    7.1195
   14.355    7.0353
   14.370    7.1933
   14.385    6.9721
   14.400    6.9089
   14.415    6.7404
   14.430    6.8457
   14.445    6.9616
   14.460    6.8668
   14.475    7.0563
   14.490    6.8246
   14.505    6.6772
   14.520    6.8562
   14.535    6.9405
   14.550    6.7193
   14.565    6.9510
   14.580    7.0563
   14.595    6.8036
   14.610    6.7615
   14.625    6.8562
   14.640    6.7509
   14.655    7.3407
   14.670    7.0985
   14.685    7.2880
   14.700    6.9510
   14.715    6.9405
   14.730    7.0353
   14.745    6.8984
   14.760    7.1933
   14.775    7.0248
   14.790    7.0879
   14.805    6.5508
   14.820    6.9826
   14.835    7.0774
   14.850    7.2670
   14.865    7.3512
   14.880    7.0669
   14.895    7.0037
   14.910    6.9405
   14.925    7.0353
   14.940    7.2249
   14.955    6.9932
   14.970    6.5613
   14.985    7.0037
   15.000    7.0248
   15.015    7.0248
   15.030    7.1617
   15.045    7.1090
   15.060    7.4039
   15.075    7.0669
   15.090    7.3196
   15.105    7.1617
   15.120    7.1827
   15.135    7.0669
   15.150    7.3302
   15.165    7.1090
   15.180    7.2143
   15.195    7.3407
   15.210    7.2986
   15.225    7.0458
   15.240    7.2038
   15.255    7.4355
   15.270    7.3407
   15.285    7.5408
   15.300    7.3618
   15.315    7.5303
   15.330    7.4882
   15.345    7.3407
   15.360    6.8352
   15.375    7.3618
   15.390    7.0985
   15.405    7.6145
   15.420    7.5303
   15.435    7.5092
   15.450    7.0669
   15.465    7.5197
   15.480    7.7514
   15.495    7.3512
   15.510    7.3091
   15.525    6.8036
   15.540    7.2459
   15.555    7.5092
   15.570    7.4882
   15.585    7.6356
   15.600    7.4355
   15.615    7.4566
   15.630    7.5408
   15.645    7.1827
   15.660    7.4882
   15.675    7.3828
   15.690    7.1406
   15.705    7.3196
   15.720    7.4460
   15.735    7.5724
   15.750    7.4671
   15.765    7.5408
   15.780    7.2459
   15.795    6.8141
   15.810    6.9194
   15.825    7.0353
   15.840    7.2459
   15.855    7.3302
   15.870    7.0669
   15.885    6.9405
   15.900    7.0879
   15.915    7.0353
   15.930    7.0669
   15.945    7.2038
   15.960    7.1722
   15.975    7.6988
   15.990    7.2354
   16.005    7.2249
   16.020    7.3196
   16.035    7.4566
   16.050    7.6672
   16.065    7.3196
   16.080    6.9721
   16.095    7.1090
   16.110    7.2354
   16.125    7.6567
   16.140    7.4566
   16.155    7.0248
   16.170    7.3302
   16.185    7.2670
   16.200    7.2143
   16.215    7.2670
   16.230    7.3091
   16.245    7.4671
   16.260    7.5197
   16.275    7.5724
   16.290    7.1722
   16.305    7.0669
   16.320    7.0142
   16.335    7.4566
   16.350    7.0458
   16.365    6.8878
   16.380    6.8773
   16.395    7.2038
   16.410    7.0248
   16.425    7.0458
   16.440    6.8352
   16.455    7.0037
   16.470    6.9616
   16.485    6.9616
   16.500    7.0037
   16.515    7.4250
   16.530    6.6667
   16.545    6.9721
   16.560    6.7930
   16.575    6.9616
   16.590    7.5724
   16.605    7.1090
   16.620    7.0458
   16.635    7.2459
   16.650    7.4566
   16.665    7.2565
   16.680    7.0037
   16.695    7.0985
   16.710    6.9616
   16.725    7.1511
   16.740    7.1827
   16.755    7.2038
   16.770    7.2880
   16.785    6.7930
   16.800    7.0458
   16.815    7.1511
   16.830    7.1617
   16.845    7.2143
   16.860    7.2143
   16.875    6.6772
   16.890    6.5613
   16.905    7.1195
   16.920    7.0458
   16.935    7.0142
   16.950    6.9826
   16.965    7.1722
   16.980    7.4987
   16.995    7.2565
   17.010    7.0879
   17.025    6.9089
   17.040    6.9300
   17.055    6.9194
   17.070    6.9932
   17.085    7.5092
   17.100    7.1511
   17.115    7.0458
   17.130    7.4671
   17.145    7.2354
   17.160    7.1195
   17.175    7.1090
   17.190    6.8878
   17.205    7.4882
   17.220    7.2354
   17.235    7.4144
   17.250    7.0669
   17.265    7.0458
   17.280    7.3618
   17.295    6.9510
   17.310    7.1617
   17.325    7.5197
   17.340    7.1722
   17.355    7.1827
   17.370    7.1722
   17.385    7.4776
   17.400    7.5303
   17.415    7.8041
   17.430    7.3407
   17.445    7.1301
   17.460    7.2986
   17.475    7.4566
   17.490    7.5935
   17.505    7.7304
   17.520    7.3723
   17.535    7.2775
   17.550    7.0458
   17.565    7.0142
   17.580    7.1090
   17.595    7.2249
   17.610    7.3302
   17.625    7.3934
   17.640    7.0248
   17.655    7.3091
   17.670    7.4144
   17.685    6.9932
   17.700    7.0669
   17.715    6.9932
   17.730    6.9194
   17.745    7.1301
   17.760    6.9300
   17.775    7.0248
   17.790    7.3091
   17.805    7.1195
   17.820    7.1933
   17.835    7.3618
   17.850    7.4671
   17.865    7.4776
   17.880    7.4882
   17.895    7.6988
   17.910    7.2459
   17.925    7.3723
   17.940    7.2354
   17.955    7.4566
   17.970    7.4355
   17.985    7.4776
   18.000    7.2986
   18.015    7.4671
   18.030    7.5513
   18.045    7.1406
   18.060    7.7830
   18.075    7.6883
   18.090    7.4355
   18.105    7.1722
   18.120    7.2670
   18.135    7.2459
   18.150    7.4566
   18.165    7.1406
   18.180    7.0985
   18.195    7.3196
   18.210    7.6461
   18.225    7.4355
   18.240    7.1195
   18.255    7.0458
   18.270    7.4776
   18.285    7.2143
   18.300    7.1511
   18.315    7.2986
   18.330    6.8562
   18.345    7.0985
   18.360    7.2354
   18.375    7.0248
   18.390    7.2986
   18.405    7.2880
   18.420    7.1406
   18.435    7.1617
   18.450    7.2670
   18.465    7.3934
   18.480    7.4671
   18.495    7.2986
   18.510    7.1406
   18.525    7.0985
   18.540    7.0458
   18.555    7.4460
   18.570    7.5724
   18.585    7.6461
   18.600    7.2038
   18.615    7.3302
   18.630    7.3407
   18.645    6.9721
   18.660    7.0563
   18.675    7.4671
   18.690    7.4039
   18.705    7.3828
   18.720    6.8141
   18.735    6.8984
   18.750    7.1301
   18.765    7.0985
   18.780    7.1511
   18.795    7.0669
   18.810    7.0142
   18.825    6.9826
   18.840    7.3196
   18.855    7.3407
   18.870    7.1195
   18.885    7.0142
   18.900    7.2038
   18.915    6.9932
   18.930    7.0879
   18.945    6.9721
   18.960    7.1511
   18.975    7.0142
   18.990    6.8141
   19.005    6.9089
   19.020    7.1090
   19.035    7.1301
   19.050    7.2565
   19.065    6.9510
   19.080    6.8773
   19.095    6.7299
   19.110    7.4039
   19.125    7.0669
   19.140    7.4355
   19.155    7.2775
   19.170    7.3196
   19.185    7.2143
   19.200    7.0879
   19.215    7.5935
   19.230    7.3723
   19.245    7.8778
   19.260    7.7620
   19.275    7.5619
   19.290    7.4144
   19.305    7.0669
   19.320    7.4987
   19.335    7.6777
   19.350    7.3934
   19.365    7.5303
   19.380    7.3091
   19.395    7.9094
   19.410    7.4250
   19.425    7.3196
   19.440    7.3828
   19.455    7.6461
   19.470    7.7304
   19.485    7.6777
   19.500    7.8462
   19.515    7.6461
   19.530    7.5935
   19.545    7.8041
   19.560    7.9516
   19.575    8.0779
   19.590    8.1938
   19.605    7.9516
   19.620    7.8778
   19.635    8.2886
   19.650    8.0674
   19.665    8.1938
   19.680    8.6993
   19.695    8.3518
   19.710    8.2043
   19.725    8.3939
   19.740    8.2464
   19.755    8.1833
   19.770    7.9410
   19.785    8.4992
   19.800    8.4676
   19.815    8.3096
   19.830    8.5519
   19.845    8.3307
   19.860    8.5413
   19.875    8.4676
   19.890    8.1727
   19.905    8.1306
   19.920    8.1517
   19.935    8.4360
   19.950    8.6677
   19.965    8.2149
   19.980    8.1306
   19.995    7.9094
   20.010    8.3939
   20.025    8.1938
   20.040    8.5308
   20.055    8.5413
   20.070    8.7098
   20.085    8.1411
   20.100    7.9305
   20.115    8.5097
   20.130    8.3623
   20.145    8.2570
   20.160    7.9305
   20.175    8.5835
   20.190    8.1833
   20.205    8.3412
   20.220    8.3728
   20.235    7.8146
   20.250    7.7199
   20.265    8.1201
   20.280    8.0674
   20.295    7.7725
   20.310    7.8778
   20.325    7.9410
   20.340    8.1517
   20.355    8.4676
   20.370    8.4044
   20.385    7.8146
   20.400    7.8568
   20.415    7.9937
   20.430    7.6883
   20.445    8.2886
   20.460    8.2780
   20.475    7.8673
   20.490    7.9831
   20.505    7.9726
   20.520    8.4992
   20.535    8.4044
   20.550    7.9621
   20.565    7.7409
   20.580    7.3618
   20.595    8.2254
   20.610    7.9831
   20.625    8.2254
   20.640    7.8778
   20.655    7.4987
   20.670    7.5829
   20.685    7.4566
   20.700    7.9200
   20.715    7.7514
   20.730    7.6145
   20.745    7.9200
   20.760    7.8252
   20.775    7.9726
   20.790    8.1517
   20.805    8.0990
   20.820    7.8462
   20.835    8.0779
   20.850    8.0674
   20.865    8.2780
   20.880    8.3096
   20.895    8.2675
   20.910    8.2149
   20.925    8.4150
   20.940    8.2464
   20.955    8.4150
   20.970    8.2675
   20.985    8.2254
   21.000    8.2991
   21.015    8.3202
   21.030    8.5940
   21.045    8.2780
   21.060    8.3202
   21.075    8.2886
   21.090    8.1306
   21.105    8.5097
   21.120    8.1833
   21.135    7.8989
   21.150    8.0253
   21.165    8.0674
   21.180    8.3834
   21.195    7.7936
   21.210    8.3728
   21.225    8.3518
   21.240    8.2570
   21.255    8.3307
   21.270    8.2570
   21.285    8.6467
   21.300    8.2675
   21.315    8.2149
   21.330    8.5413
   21.345    8.0147
   21.360    7.8146
   21.375    7.9094
   21.390    8.2359
   21.405    8.4571
   21.420    7.8462
   21.435    7.9200
   21.450    7.7514
   21.465    8.1938
   21.480    7.9200
   21.495    7.9831
   21.510    8.8362
   21.525    8.8152
   21.540    8.1517
   21.555    7.8357
   21.570    8.4992
   21.585    8.3623
   21.600    8.3307
   21.615    8.1411
   21.630    8.0042
   21.645    8.2149
   21.660    8.2043
   21.675    7.9200
   21.690    8.1622
   21.705    8.0358
   21.720    7.9305
   21.735    8.1306
   21.750    7.9305
   21.765    8.0885
   21.780    7.9726
   21.795    8.3202
   21.810    7.7409
   21.825    7.5829
   21.840    7.5619
   21.855    7.8357
   21.870    8.0674
   21.885    8.0253
   21.900    7.8252
   21.915    7.8357
   21.930    8.0358
   21.945    7.9726
   21.960    8.6151
   21.975    8.3834
   21.990    7.9621
   22.005    7.5408
   22.020    7.5619
   22.035    7.9410
   22.050    7.7725
   22.065    7.6672
   22.080    8.0463
   22.095    7.7409
   22.110    7.7725
   22.125    8.0147
   22.140    8.3518
   22.155    7.8146
   22.170    7.8252
   22.185    7.8462
   22.200    7.7830
   22.215    8.4571
   22.230    7.9200
   22.245    7.8252
   22.260    7.6567
   22.275    7.7514
   22.290    7.8146
   22.305    8.2991
   22.320    7.7725
   22.335    7.8357
   22.350    7.8146
   22.365    7.9516
   22.380    7.7409
   22.395    8.0147
   22.410    7.8041
   22.425    8.0147
   22.440    7.6777
   22.455    7.7409
   22.470    7.5619
   22.485    8.0674
   22.500    8.0674
   22.515    7.8568
   22.530    7.6461
   22.545    7.6461
   22.560    8.0253
   22.575    7.4671
   22.590    7.8252
   22.605    8.0779
   22.620    7.8357
   22.635    7.8568
   22.650    7.9410
   22.665    7.7936
   22.680    7.8252
   22.695    7.9305
   22.710    7.6988
   22.725    8.1833
   22.740    7.8041
   22.755    7.8568
   22.770    8.0779
   22.785    7.7409
   22.800    7.5408
   22.815    7.5197
   22.830    8.1306
   22.845    8.1517
   22.860    7.5724
   22.875    7.3828
   22.890    7.8041
   22.905    7.6356
   22.920    7.7409
   22.935    7.7514
   22.950    8.0779
   22.965    7.9937
   22.980    8.2570
   22.995    7.8041
   23.010    8.0253
   23.025    8.1622
   23.040    7.7409
   23.055    7.7725
   23.070    7.6567
   23.085    7.8252
   23.100    7.5935
   23.115    7.5513
   23.130    7.7514
   23.145    7.9410
   23.160    8.0253
   23.175    8.1095
   23.190    7.8884
   23.205    7.5724
   23.220    7.7830
   23.235    7.9410
   23.250    7.8041
   23.265    7.4355
   23.280    7.0458
   23.295    7.6461
   23.310    7.7620
   23.325    7.8357
   23.340    7.7725
   23.355    7.4987
   23.370    7.8462
   23.385    7.8252
   23.400    7.9621
   23.415    7.7514
   23.430    7.6040
   23.445    7.9094
   23.460    7.7830
   23.475    7.5303
   23.490    7.7830
   23.505    7.7620
   23.520    7.7620
   23.535    7.8778
   23.550    7.6145
   23.565    8.0253
   23.580    8.0253
   23.595    7.5197
   23.610    7.0774
   23.625    7.7199
   23.640    7.4987
   23.655    7.7409
   23.670    7.7514
   23.685    7.7093
   23.700    7.6461
   23.715    7.7620
   23.730    7.5303
   23.745    7.7409
   23.760    7.7093
   23.775    7.8568
   23.790    7.6988
   23.805    7.8252
   23.820    7.5935
   23.835    7.4566
   23.850    7.4566
   23.865    7.8357
   23.880    7.9621
   23.895    7.8252
   23.910    7.1827
   23.925    7.5619
   23.940    7.7409
   23.955    7.6461
   23.970    7.8146
   23.985    7.4460
   24.000    7.5513
   24.015    7.6777
   24.030    7.7725
   24.045    7.5829
   24.060    7.5619
   24.075    7.6356
   24.090    7.6356
   24.105    7.4460
   24.120    7.4250
   24.135    7.4987
   24.150    7.1090
   24.165    7.7199
   24.180    7.3934
   24.195    7.2038
   24.210    7.2775
   24.225    7.5092
   24.240    8.0253
   24.255    7.8884
   24.270    7.8462
   24.285    7.2354
   24.300    7.1617
   24.315    7.8778
   24.330    7.4882
   24.345    7.2459
   24.360    7.3091
   24.375    7.6777
   24.390    8.0674
   24.405    7.5619
   24.420    7.3302
   24.435    7.4144
   24.450    7.7199
   24.465    7.7093
   24.480    7.5619
   24.495    7.7620
   24.510    7.8041
   24.525    7.6672
   24.540    8.0253
   24.555    7.5197
   24.570    7.6567
   24.585    8.0779
   24.600    7.9621
   24.615    7.4671
   24.630    7.3512
   24.645    7.8041
   24.660    7.6040
   24.675    7.4566
   24.690    7.6251
   24.705    7.5935
   24.720    7.6883
   24.735    7.4355
   24.750    7.5408
   24.765    7.1511
   24.780    7.2986
   24.795    7.3302
   24.810    7.2880
   24.825    7.3407
   24.840    7.5935
   24.855    7.1722
   24.870    6.8036
   24.885    7.0142
   24.900    7.7199
   24.915    7.6040
   24.930    7.5197
   24.945    7.4250
   24.960    7.2986
   24.975    6.9300
   24.990    7.1933
   25.005    7.1827
   25.020    7.2880
   25.035    7.3302
   25.050    7.5829
   25.065    7.1406
   25.080    7.4566
   25.095    7.2354
   25.110    7.1195
   25.125    7.4776
   25.140    7.3618
   25.155    7.1511
   25.170    7.3723
   25.185    7.2038
   25.200    7.4566
   25.215    7.5829
   25.230    7.3302
   25.245    7.3723
   25.260    7.1827
   25.275    7.3407
   25.290    7.1301
   25.305    7.3618
   25.320    7.3512
   25.335    7.2143
   25.350    7.2354
   25.365    7.9094
   25.380    7.6567
   25.395    7.7725
   25.410    7.4250
   25.425    7.4776
   25.440    7.1511
   25.455    7.4039
   25.470    7.5619
   25.485    7.3196
   25.500    7.2775
   25.515    7.4776
   25.530    7.0985
   25.545    7.4566
   25.560    6.8457
   25.575    7.2143
   25.590    7.5724
   25.605    7.3512
   25.620    7.0985
   25.635    7.0037
   25.650    7.3407
   25.665    7.4882
   25.680    7.1406
   25.695    7.0353
   25.710    7.1722
   25.725    6.8878
   25.740    7.1722
   25.755    6.7193
   25.770    7.0985
   25.785    7.1827
   25.800    7.1933
   25.815    7.0248
   25.830    6.9194
   25.845    7.0563
   25.860    6.7615
   25.875    6.7930
   25.890    7.5829
   25.905    7.4039
   25.920    7.1195
   25.935    7.1722
   25.950    7.2880
   25.965    7.3302
   25.980    7.0669
   25.995    7.0037
   26.010    7.2143
   26.025    6.7404
   26.040    7.0037
   26.055    7.2143
   26.070    6.9405
   26.085    7.0248
   26.100    6.6561
   26.115    6.9089
   26.130    6.9194
   26.145    7.0985
   26.160    7.0142
   26.175    6.8562
   26.190    7.0037
   26.205    6.8773
   26.220    7.0774
   26.235    7.2565
   26.250    6.7615
   26.265    6.5403
   26.280    6.6456
   26.295    6.8352
   26.310    6.9616
   26.325    7.0142
   26.340    6.9932
   26.355    6.8352
   26.370    6.4876
   26.385    7.0142
   26.400    6.9300
   26.415    6.6667
   26.430    6.9300
   26.445    7.2565
   26.460    7.1511
   26.475    6.8246
   26.490    6.8141
   26.505    6.9616
   26.520    7.1617
   26.535    6.7299
   26.550    6.9932
   26.565    6.6140
   26.580    6.7825
   26.595    7.3091
   26.610    7.0037
   26.625    7.2880
   26.640    6.9932
   26.655    6.6561
   26.670    6.6772
   26.685    6.9510
   26.700    7.0142
   26.715    6.7193
   26.730    6.9932
   26.745    6.8878
   26.760    6.8246
   26.775    7.0353
   26.790    7.0879
   26.805    7.2880
   26.820    7.4144
   26.835    6.6245
   26.850    6.6245
   26.865    6.8562
   26.880    7.0353
   26.895    6.5824
   26.910    6.6561
   26.925    7.3302
   26.940    7.3196
   26.955    6.7193
   26.970    6.8246
   26.985    7.0458
   27.000    6.9721
   27.015    7.1301
   27.030    6.6877
   27.045    6.5613
   27.060    6.4876
   27.075    6.8352
   27.090    6.7299
   27.105    6.9616
   27.120    7.0879
   27.135    6.9194
   27.150    7.1195
   27.165    7.0563
