    1.500   30.3949
    1.515   30.7530
    1.530   30.0369
    1.545   29.2996
    1.560   29.4050
    1.575   30.5529
    1.590   29.9737
    1.605   28.4044
    1.620   28.6151
    1.635   28.3096
    1.650   28.1622
    1.665   28.5729
    1.680   28.5729
    1.695   28.0147
    1.710   27.2143
    1.725   26.9405
    1.740   27.0879
    1.755   27.0985
    1.770   26.8246
    1.785   25.7820
    1.800   26.4139
    1.815   26.3191
    1.830   25.7820
    1.845   25.1922
    1.860   25.2554
    1.875   25.5819
    1.890   25.8557
    1.905   25.5398
    1.920   24.4128
    1.935   24.1811
    1.950   24.7920
    1.965   25.4871
    1.980   25.6345
    1.995   25.2765
    2.010   24.9078
    2.025   24.5182
    2.040   24.8657
    2.055   24.5287
    2.070   24.7077
    2.085   24.4971
    2.100   23.9916
    2.115   24.3602
    2.130   24.4655
    2.145   24.3707
    2.160   24.4023
    2.175   24.7920
    2.190   24.4866
    2.205   24.2549
    2.220   23.5598
    2.235   23.9179
    2.250   24.4128
    2.265   24.8657
    2.280   25.0132
    2.295   25.0974
    2.310   25.4450
    2.325   24.6656
    2.340   24.6551
    2.355   24.9184
    2.370   24.9921
    2.385   24.7709
    2.400   24.8131
    2.415   24.7815
    2.430   25.3818
    2.445   26.2875
    2.460   26.5298
    2.475   25.2975
    2.490   26.0453
    2.505   25.8452
    2.520   26.1717
    2.535   26.4455
    2.550   27.0879
    2.565   28.3202
    2.580   27.8041
    2.595   27.8778
    2.610   28.1833
    2.625   28.7941
    2.640   29.2048
    2.655   29.6156
    2.670   28.7204
    2.685   29.6893
    2.700   30.0369
    2.715   30.8478
    2.730   30.7952
    2.745   31.3955
    2.760   32.1011
    2.775   32.8594
    2.790   32.4908
    2.805   33.3333
    2.820   33.6598
    2.835   34.5340
    2.850   35.2817
    2.865   35.0816
    2.880   35.3028
    2.895   37.2091
    2.910   37.6514
    2.925   38.9995
    2.940   38.9784
    2.955   39.8736
    2.970   41.0005
    2.985   41.7588
    3.000   42.8120
    3.015   43.1806
    3.030   44.8341
    3.045   45.5503
    3.060   48.1201
    3.075   48.2991
    3.090   49.7736
    3.105   50.6056
    3.120   52.3960
    3.135   53.2807
    3.150   54.6814
    3.165   56.4929
    3.180   59.0837
    3.195   59.9579
    3.210   61.0005
    3.225   65.0237
    3.240   66.0242
    3.255   68.5413
    3.270   71.3428
    3.285   74.7867
    3.300   78.5361
    3.315   81.5271
    3.330   83.6967
    3.345   89.6998
    3.360   94.7341
    3.375   97.7673
    3.390  104.2970
    3.405  110.2264
    3.420  116.0506
    3.435  120.1475
    3.450  123.5282
    3.465  123.5387
    3.480  120.2422
    3.495  113.5018
    3.510  103.5492
    3.525   94.5866
    3.540   88.8362
    3.555   84.9816
    3.570   81.4007
    3.585   80.5055
    3.600   78.8731
    3.615   80.8110
    3.630   84.0442
    3.645   86.8562
    3.660   89.4471
    3.675   92.0590
    3.690   95.4502
    3.705  100.4950
    3.720  103.9495
    3.735  109.2996
    3.750  119.6314
    3.765  126.4560
    3.780  134.3233
    3.795  146.4982
    3.810  160.0421
    3.825  178.1780
    3.840  202.8963
    3.855  226.8562
    3.870  238.4729
    3.885  239.6735
    3.900  218.6519
    3.915  180.8847
    3.930  125.0237
    3.945   81.2533
    3.960   58.3254
    3.975   50.0158
    3.990   46.2033
    4.005   44.7709
    4.020   44.9394
    4.035   45.3502
    4.050   44.6130
    4.065   42.7488
    4.080   43.3913
    4.095   43.2543
    4.110   42.1590
    4.125   41.1901
    4.140   40.0737
    4.155   38.7888
    4.170   38.2201
    4.185   36.6719
    4.200   35.1869
    4.215   33.4808
    4.230   32.3855
    4.245   30.5635
    4.260   29.6156
    4.275   27.5829
    4.290   25.4976
    4.305   24.6551
    4.320   22.9279
    4.335   21.6746
    4.350   19.8526
    4.365   19.0521
    4.380   18.4413
    4.395   17.6725
    4.410   17.1459
    4.425   16.2191
    4.440   15.6293
    4.455   15.1975
    4.470   14.7130
    4.485   14.3023
    4.500   13.9126
    4.515   13.6704
    4.530   13.5334
    4.545   13.2596
    4.560   13.5334
    4.575   13.4913
    4.590   12.6804
    4.605   12.8489
    4.620   12.6698
    4.635   12.7330
    4.650   12.8805
    4.665   12.7225
    4.680   12.9858
    4.695   13.1332
    4.710   13.1648
    4.725   12.7962
    4.740   12.2907
    4.755   12.5013
    4.770   12.7436
    4.785   12.9647
    4.800   12.7120
    4.815   12.7962
    4.830   12.8278
    4.845   12.9542
    4.860   13.1122
    4.875   13.4387
    4.890   13.5650
    4.905   12.9858
    4.920   13.3333
    4.935   13.4702
    4.950   13.2701
    4.965   13.7441
    4.980   13.6598
    4.995   13.7862
    5.010   14.0706
    5.025   14.1022
    5.040   15.4397
    5.055   14.9763
    5.070   14.7446
    5.085   14.9974
    5.100   15.1553
    5.115   15.7873
    5.130   16.0506
    5.145   16.7035
    5.160   16.6614
    5.175   16.9668
    5.190   17.2407
    5.205   17.0300
    5.220   17.5461
    5.235   18.7046
    5.250   18.7256
    5.265   19.2628
    5.280   20.3265
    5.295   21.1374
    5.310   21.6219
    5.325   22.6962
    5.340   23.7283
    5.355   25.0974
    5.370   25.8452
    5.385   27.6461
    5.400   30.0158
    5.415   31.5535
    5.430   33.8705
    5.445   37.5987
    5.460   42.7172
    5.475   47.5935
    5.490   49.5208
    5.505   48.7099
    5.520   46.2875
    5.535   39.3049
    5.550   29.3312
    5.565   20.1369
    5.580   13.7546
    5.595   11.5745
    5.610   10.2686
    5.625   10.5003
    5.640   10.3212
    5.655    9.8578
    5.670    9.7104
    5.685    9.4997
    5.700    9.8157
    5.715    9.5208
    5.730    9.7314
    5.745    9.3944
    5.760    9.4365
    5.775    9.5103
    5.790    9.6577
    5.805    9.5313
    5.820    9.7209
    5.835    9.8052
    5.850    9.6998
    5.865    9.3418
    5.880    9.8578
    5.895    9.1417
    5.910    9.1838
    5.925    9.2048
    5.940    8.9521
    5.955    9.2575
    5.970    9.4892
    5.985    9.3523
    6.000    9.7104
    6.015    9.6472
    6.030    9.1838
    6.045    9.6261
    6.060    9.4260
    6.075    9.5419
    6.090    9.7209
    6.105    9.8473
    6.120    9.6156
    6.135    9.4260
    6.150    9.9315
    6.165    9.3523
    6.180    9.3418
    6.195    9.6998
    6.210    9.7946
    6.225    9.6998
    6.240    9.4260
    6.255    8.7520
    6.270    9.4787
    6.285   10.1211
    6.300   10.3633
    6.315   10.2580
    6.330   10.2264
    6.345   10.4581
    6.360   10.6372
    6.375   10.3528
    6.390   10.2791
    6.405    9.9842
    6.420   10.6477
    6.435   10.7109
    6.450   11.0269
    6.465   10.9637
    6.480   10.9531
    6.495   11.0690
    6.510   11.3849
    6.525   11.4797
    6.540   11.7009
    6.555   11.6588
    6.570   12.3539
    6.585   12.7436
    6.600   11.7536
    6.615   12.0274
    6.630   13.2280
    6.645   13.4071
    6.660   13.7546
    6.675   15.1869
    6.690   15.7978
    6.705   15.9347
    6.720   17.0932
    6.735   16.9563
    6.750   17.9989
    6.765   17.5671
    6.780   16.6193
    6.795   15.8189
    6.810   14.8815
    6.825   13.7967
    6.840   13.9021
    6.855   14.8920
    6.870   14.3128
    6.885   14.9447
    6.900   15.5977
    6.915   15.7873
    6.930   16.9352
    6.945   17.1775
    6.960   17.4302
    6.975   16.6193
    6.990   15.7662
    7.005   14.5972
    7.020   13.5124
    7.035   12.8594
    7.050   11.7430
    7.065   11.5008
    7.080   10.8373
    7.095   10.9742
    7.110   10.3107
    7.125   10.2791
    7.140    9.6682
    7.155   10.1316
    7.170   10.1211
    7.185   10.0158
    7.200    9.5313
    7.215    9.7630
    7.230    9.9105
    7.245   10.2264
    7.260   10.2159
    7.275   10.3212
    7.290   10.1106
    7.305    9.9315
    7.320    9.8052
    7.335    9.8894
    7.350   10.1211
    7.365    9.9315
    7.380   10.7741
    7.395   10.6161
    7.410   10.2264
    7.425   10.0790
    7.440   10.7320
    7.455   10.4581
    7.470   10.3844
    7.485   10.5529
    7.500   11.3639
    7.515   11.3217
    7.530   11.4271
    7.545   11.6904
    7.560   11.3428
    7.575   11.3428
    7.590   11.7957
    7.605   12.3012
    7.620   12.8594
    7.635   12.8067
    7.650   12.8805
    7.665   13.5440
    7.680   14.2285
    7.695   14.8183
    7.710   15.0395
    7.725   15.8820
    7.740   17.0195
    7.755   17.8936
    7.770   19.6525
    7.785   20.9373
    7.800   21.1901
    7.815   21.0005
    7.830   18.4202
    7.845   16.2612
    7.860   13.5334
    7.875   12.0379
    7.890   11.3112
    7.905   10.8794
    7.920   10.3528
    7.935   10.5740
    7.950   10.5108
    7.965   10.6793
    7.980   10.9953
    7.995   10.8689
    8.010   11.1427
    8.025   11.0795
    8.040   10.8268
    8.055   10.9531
    8.070   11.2586
    8.085   10.8057
    8.100   10.9847
    8.115   11.2691
    8.130   11.2902
    8.145   11.1532
    8.160   11.3533
    8.175   11.0900
    8.190   11.7114
    8.205   11.7430
    8.220   11.6061
    8.235   11.5956
    8.250   11.8062
    8.265   11.8378
    8.280   11.7746
    8.295   11.7325
    8.310   11.2270
    8.325   11.5640
    8.340   12.0484
    8.355   11.9747
    8.370   11.7852
    8.385   11.6798
    8.400   11.4587
    8.415   11.7009
    8.430   11.6904
    8.445   11.0479
    8.460   10.9215
    8.475   11.2691
    8.490   11.5324
    8.505   11.4271
    8.520   11.3323
    8.535   11.5429
    8.550   11.2270
    8.565   11.0795
    8.580   11.0269
    8.595   11.2480
    8.610   11.3744
    8.625   10.4581
    8.640   11.1006
    8.655   11.1427
    8.670   10.8373
    8.685   11.5113
    8.700   12.3012
    8.715   11.8062
    8.730   11.1532
    8.745   11.3955
    8.760   11.1111
    8.775   10.4371
    8.790    9.7525
    8.805    9.7420
    8.820    9.9631
    8.835    9.5945
    8.850    9.4787
    8.865    9.5313
    8.880    9.8578
    8.895    9.4681
    8.910    9.6367
    8.925    9.4787
    8.940    9.3207
    8.955    9.7209
    8.970    9.5208
    8.985    9.4155
    9.000    9.4892
    9.015    9.5208
    9.030    9.1732
    9.045    9.5524
    9.060    9.7630
    9.075    9.7314
    9.090    9.6788
    9.105    9.4787
    9.120    9.5524
    9.135    9.9105
    9.150   10.1422
    9.165   10.3633
    9.180   10.0263
    9.195    9.6893
    9.210   10.0790
    9.225   10.3318
    9.240   11.1638
    9.255   11.0374
    9.270   10.9426
    9.285   11.9747
    9.300   11.4481
    9.315   11.7957
    9.330   12.0484
    9.345   12.3749
    9.360   12.7436
    9.375   12.9542
    9.390   13.6493
    9.405   13.8705
    9.420   14.8394
    9.435   16.2296
    9.450   17.1248
    9.465   17.8304
    9.480   18.1991
    9.495   19.6525
    9.510   22.1485
    9.525   23.9810
    9.540   25.4344
    9.555   26.9932
    9.570   26.7299
    9.585   24.1706
    9.600   21.4850
    9.615   17.6198
    9.630   13.8810
    9.645   11.5745
    9.660   10.7530
    9.675    9.7314
    9.690    9.1838
    9.705    9.5945
    9.720    8.9626
    9.735    9.0153
    9.750    9.0679
    9.765    9.1311
    9.780    9.1627
    9.795    8.8889
    9.810    9.4050
    9.825    9.0469
    9.840    8.7414
    9.855    9.0890
    9.870    9.2259
    9.885    9.2891
    9.900    8.7414
    9.915    9.3312
    9.930    9.4892
    9.945    9.1417
    9.960    9.1838
    9.975    9.5313
    9.990    9.5629
   10.005    9.2470
   10.020    9.0047
   10.035    9.2048
   10.050    8.8994
   10.065    9.5735
   10.080    9.6367
   10.095    9.8999
   10.110    9.9842
   10.125    9.6682
   10.140   10.2159
   10.155    9.9210
   10.170   10.1527
   10.185   10.3739
   10.200   11.1638
   10.215   11.6904
   10.230   12.1327
   10.245   12.5961
   10.260   12.1116
   10.275   12.7436
   10.290   13.6072
   10.305   13.9547
   10.320   14.8289
   10.335   16.1032
   10.350   14.6709
   10.365   14.2075
   10.380   12.7751
   10.395   11.6166
   10.410   10.9215
   10.425    9.8052
   10.440    9.4050
   10.455    9.3207
   10.470    9.3312
   10.485    9.6156
   10.500    9.4576
   10.515    9.4892
   10.530    9.6472
   10.545    9.2364
   10.560    9.5524
   10.575    9.1627
   10.590    8.9415
   10.605    9.1522
   10.620    8.9731
   10.635    8.8889
   10.650    9.0047
   10.665    9.1838
   10.680    9.1732
   10.695    8.8046
   10.710    8.8046
   10.725    9.4471
   10.740    9.0469
   10.755    9.3418
   10.770    9.8157
   10.785    9.6893
   10.800    9.8894
   10.815    9.9947
   10.830    9.7841
   10.845   10.1316
   10.860   10.2159
   10.875   10.1948
   10.890   10.0158
   10.905   10.4055
   10.920   10.5424
   10.935   10.7425
   10.950   11.3533
   10.965   12.3855
   10.980   12.4487
   10.995   12.6066
   11.010   13.7757
   11.025   14.7973
   11.040   15.1659
   11.055   15.0079
   11.070   14.6182
   11.085   14.0600
   11.100   12.0063
   11.115   10.8899
   11.130   10.2159
   11.145    9.5313
   11.160    9.3523
   11.175    8.8152
   11.190    8.6045
   11.205    8.5729
   11.220    9.0047
   11.235    8.6256
   11.250    8.4887
   11.265    9.0363
   11.280    9.1101
   11.295    8.8994
   11.310    8.7414
   11.325    8.6993
   11.340    8.8468
   11.355    8.6888
   11.370    9.1101
   11.385    9.5103
   11.400    9.1732
   11.415    9.3839
   11.430    9.0785
   11.445    9.4155
   11.460    9.0363
   11.475    9.2575
   11.490    9.5840
   11.505    9.5313
   11.520    9.5419
   11.535    9.6261
   11.550   10.2159
   11.565   10.2370
   11.580   10.3528
   11.595   10.3212
   11.610   10.9321
   11.625   11.8483
   11.640   11.3849
   11.655   12.2170
   11.670   13.2912
   11.685   13.8073
   11.700   14.5234
   11.715   15.0184
   11.730   15.8294
   11.745   14.5761
   11.760   13.9337
   11.775   12.5224
   11.790   11.1006
   11.805    9.8684
   11.820    9.1417
   11.835    8.4360
   11.850    8.4887
   11.865    9.0785
   11.880    9.1522
   11.895    8.8784
   11.910    8.5940
   11.925    8.7730
   11.940    8.6256
   11.955    8.2991
   11.970    8.2359
   11.985    8.5203
   12.000    8.4466
   12.015    8.7414
   12.030    8.9521
   12.045    8.7309
   12.060    8.3518
   12.075    9.1522
   12.090    9.4365
   12.105    9.0363
   12.120    8.8678
   12.135    8.9731
   12.150    9.0995
   12.165    8.6151
   12.180    8.9310
   12.195    8.9942
   12.210    9.2680
   12.225    9.4576
   12.240    9.4892
   12.255    9.2575
   12.270    9.2786
   12.285    9.5103
   12.300    9.5735
   12.315    9.8052
   12.330    9.2786
   12.345    9.7314
   12.360    9.9526
   12.375    9.9526
   12.390    9.2786
   12.405    8.9310
   12.420    8.4676
   12.435    8.5203
   12.450    8.6677
   12.465    9.0363
   12.480    8.7836
   12.495    8.7204
   12.510    8.6888
   12.525    8.7414
   12.540    8.8573
   12.555    9.0469
   12.570    8.5835
   12.585    8.4992
   12.600    8.4360
   12.615    8.5308
   12.630    8.4466
   12.645    9.2364
   12.660    8.4150
   12.675    8.6045
   12.690    9.3839
   12.705    9.3207
   12.720    9.2575
   12.735    9.4155
   12.750    9.5524
   12.765    9.2680
   12.780    9.5945
   12.795    9.5208
   12.810    9.6682
   12.825    9.5208
   12.840    9.2680
   12.855    9.7946
   12.870   10.4055
   12.885   10.7530
   12.900   11.0374
   12.915   11.5850
   12.930   12.1854
   12.945   12.2486
   12.960   12.9858
   12.975   12.6066
   12.990   12.4592
   13.005   11.8589
   13.020   10.6898
   13.035   10.3423
   13.050    9.1101
   13.065    8.7520
   13.080    8.7309
   13.095    8.7941
   13.110    8.5097
   13.125    8.5729
   13.140    8.6572
   13.155    8.5203
   13.170    8.3623
   13.185    8.4360
   13.200    8.4676
   13.215    8.4992
   13.230    8.3307
   13.245    8.0990
   13.260    8.8573
   13.275    8.4360
   13.290    8.3202
   13.305    8.6151
   13.320    8.6888
   13.335    8.5940
   13.350    8.2780
   13.365    8.3412
   13.380    8.3834
   13.395    8.3202
   13.410    8.8362
   13.425    9.1311
   13.440    8.8152
   13.455    9.0469
   13.470    9.6156
   13.485    9.9105
   13.500    9.9631
   13.515   10.0158
   13.530   10.0263
   13.545   10.3212
   13.560   10.5108
   13.575   10.5951
   13.590   10.1843
   13.605    9.7841
   13.620    9.1522
   13.635    9.2154
   13.650    8.4255
   13.665    8.6783
   13.680    8.9521
   13.695    8.4676
   13.710    7.8568
   13.725    8.0569
   13.740    8.3518
   13.755    8.1095
   13.770    8.8468
   13.785    8.6888
   13.800    8.7836
   13.815    8.7098
   13.830    8.5729
   13.845    8.3623
   13.860    8.6256
   13.875    8.9942
   13.890    8.7520
   13.905    8.4571
   13.920    8.8573
   13.935    8.9205
   13.950    9.0258
   13.965    9.1732
   13.980    9.1417
   13.995    9.3944
   14.010    9.4997
   14.025   10.0790
   14.040   10.5213
   14.055   10.7846
   14.070   11.2480
   14.085   11.8799
   14.100   11.9747
   14.115   12.0169
   14.130   11.7641
   14.145   11.3744
   14.160   10.5740
   14.175    9.8999
   14.190    9.2470
   14.205    8.6677
   14.220    8.0569
   14.235    8.0463
   14.250    8.0990
   14.265    7.8778
   14.280    8.1306
   14.295    8.2675
   14.310    8.0674
   14.325    7.9937
   14.340    7.9094
   14.355    7.6251
   14.370    7.9726
   14.385    8.1201
   14.400    8.1201
   14.415    8.1411
   14.430    8.6993
   14.445    8.4044
   14.460    8.0042
   14.475    8.0358
   14.490    7.5829
   14.505    7.7830
   14.520    7.7199
   14.535    7.5829
   14.550    7.6883
   14.565    7.8989
   14.580    7.8252
   14.595    7.9726
   14.610    7.9726
   14.625    8.1727
   14.640    7.8884
   14.655    7.6672
   14.670    8.0674
   14.685    7.5619
   14.700    8.1095
   14.715    8.3096
   14.730    7.6988
   14.745    8.2464
   14.760    7.8568
   14.775    8.0147
   14.790    8.0779
   14.805    8.2149
   14.820    8.1517
   14.835    7.9410
   14.850    7.7830
   14.865    7.5619
   14.880    7.8778
   14.895    7.6251
   14.910    7.7304
   14.925    7.7199
   14.940    7.8252
   14.955    7.9937
   14.970    8.1517
   14.985    8.2780
   15.000    8.1095
   15.015    8.5519
   15.030    7.8673
   15.045    8.6783
   15.060    8.3096
   15.075    8.4044
   15.090    8.4887
   15.105    8.5835
   15.120    8.8889
   15.135    9.0995
   15.150    9.1522
   15.165    9.2048
   15.180    9.7209
   15.195    8.8152
   15.210    8.7204
   15.225    8.6993
   15.240    8.4992
   15.255    8.6783
   15.270    8.1622
   15.285    7.8462
   15.300    7.7620
   15.315    8.3834
   15.330    8.2886
   15.345    7.9937
   15.360    8.4676
   15.375    7.8041
   15.390    8.0042
   15.405    8.0253
   15.420    7.7514
   15.435    7.8146
   15.450    8.3518
   15.465    8.4466
   15.480    8.1622
   15.495    8.2991
   15.510    8.1517
   15.525    8.2464
   15.540    7.7199
   15.555    7.6777
   15.570    7.8357
   15.585    7.7409
   15.600    8.2780
   15.615    8.1201
   15.630    8.4887
   15.645    8.1201
   15.660    8.3623
   15.675    8.6993
   15.690    8.4360
   15.705    8.0674
   15.720    8.1938
   15.735    8.0779
   15.750    8.3939
   15.765    8.1411
   15.780    7.7830
   15.795    8.4044
   15.810    8.1517
   15.825    7.9410
   15.840    8.2043
   15.855    8.2886
   15.870    7.9937
   15.885    7.9621
   15.900    7.8568
   15.915    8.2886
   15.930    8.0147
   15.945    8.1201
   15.960    7.9410
   15.975    8.3518
   15.990    8.7204
   16.005    8.3728
   16.020    8.1833
   16.035    8.2464
   16.050    9.0469
   16.065    8.9626
   16.080    8.8573
   16.095    9.1206
   16.110    9.1732
   16.125    8.8152
   16.140    9.4576
   16.155    9.3734
   16.170    9.5629
   16.185    9.1732
   16.200    9.1943
   16.215    8.9415
   16.230    8.8257
   16.245    8.7204
   16.260    8.3939
   16.275    8.0990
   16.290    8.1833
   16.305    8.1306
   16.320    7.8884
   16.335    7.9094
   16.350    7.5513
   16.365    7.7936
   16.380    8.3728
   16.395    8.0779
   16.410    8.1306
   16.425    7.8778
   16.440    8.4676
   16.455    8.8362
   16.470    8.3412
   16.485    8.1517
   16.500    8.3202
   16.515    9.0574
   16.530    8.4887
   16.545    8.3202
   16.560    8.3518
   16.575    8.6467
   16.590    9.0047
   16.605    9.4787
   16.620    9.7946
   16.635    9.6788
   16.650    9.5208
   16.665    9.0574
   16.680    8.7836
   16.695    8.5519
   16.710    8.4466
   16.725    8.2675
   16.740    8.6256
   16.755    8.4466
   16.770    8.3412
   16.785    8.1306
   16.800    8.3834
   16.815    8.1938
   16.830    8.3412
   16.845    8.1517
   16.860    8.2570
   16.875    8.3728
   16.890    8.0674
   16.905    8.7414
   16.920    8.5519
   16.935    8.2043
   16.950    8.7098
   16.965    8.8994
   16.980    9.1838
   16.995    9.7314
   17.010    9.6051
   17.025   10.1106
   17.040    9.7946
   17.055   11.0058
   17.070   11.3323
   17.085   11.1848
   17.100   10.9005
   17.115   11.0900
   17.130   10.1211
   17.145    9.4365
   17.160    9.0047
   17.175    8.3623
   17.190    8.6783
   17.205    8.2149
   17.220    8.5413
   17.235    8.2359
   17.250    7.9200
   17.265    8.0569
   17.280    7.7936
   17.295    8.3412
   17.310    8.5835
   17.325    7.7409
   17.340    7.9621
   17.355    8.0147
   17.370    8.1833
   17.385    8.3307
   17.400    8.1517
   17.415    8.1833
   17.430    7.7936
   17.445    7.9726
   17.460    8.6888
   17.475    8.8257
   17.490    8.7625
   17.505    8.7309
   17.520    9.0363
   17.535    8.8468
   17.550    8.6783
   17.565    8.2780
   17.580    8.5413
   17.595    8.5203
   17.610    8.1095
   17.625    8.0779
   17.640    8.2043
   17.655    8.4360
   17.670    8.1517
   17.685    8.0885
   17.700    7.5829
   17.715    8.0463
   17.730    8.1095
   17.745    8.5097
   17.760    8.5097
   17.775    8.2359
   17.790    8.5729
   17.805    8.1411
   17.820    7.9094
   17.835    7.5303
   17.850    7.8357
   17.865    8.1201
   17.880    8.1833
   17.895    8.5203
   17.910    8.2464
   17.925    8.0569
   17.940    8.3623
   17.955    8.7309
   17.970    8.6677
   17.985    9.1627
   18.000    8.9310
   18.015    8.8362
   18.030    8.4781
   18.045    8.0358
   18.060    7.8884
   18.075    8.3623
   18.090    8.5203
   18.105    8.2254
   18.120    8.1095
   18.135    8.0147
   18.150    7.9094
   18.165    8.2991
   18.180    8.3939
   18.195    8.3623
   18.210    7.9516
   18.225    7.9410
   18.240    8.0885
   18.255    8.0358
   18.270    8.4571
   18.285    8.6256
   18.300    8.9837
   18.315    8.6572
   18.330    8.4466
   18.345    8.6888
   18.360    8.6888
   18.375    8.6256
   18.390    9.0258
   18.405    8.6467
   18.420    8.8468
   18.435    8.8152
   18.450    8.7520
   18.465    8.4255
   18.480    8.1517
   18.495    8.5940
   18.510    8.1833
   18.525    8.2043
   18.540    8.1306
   18.555    8.1833
   18.570    8.4255
   18.585    7.7093
   18.600    7.6777
   18.615    7.9516
   18.630    8.3518
   18.645    7.8252
   18.660    8.0569
   18.675    8.1727
   18.690    7.7620
   18.705    7.9516
   18.720    8.2359
   18.735    8.5729
   18.750    8.4150
   18.765    8.0463
   18.780    8.2359
   18.795    8.2464
   18.810    8.4676
   18.825    8.8889
   18.840    8.7730
   18.855    8.7625
   18.870    8.2254
   18.885    8.0779
   18.900    8.0779
   18.915    8.1095
   18.930    8.5940
   18.945    8.1727
   18.960    8.0779
   18.975    8.0253
   18.990    8.3202
   19.005    8.5308
   19.020    8.4992
   19.035    8.0147
   19.050    8.0569
   19.065    8.0042
   19.080    8.0990
   19.095    8.1306
   19.110    8.0885
   19.125    7.9516
   19.140    8.4255
   19.155    8.2043
   19.170    8.4466
   19.185    8.1306
   19.200    8.6151
   19.215    8.3412
   19.230    8.1833
   19.245    8.0990
   19.260    8.1201
   19.275    8.2780
   19.290    8.3307
   19.305    8.1622
   19.320    7.9831
   19.335    8.2675
   19.350    8.2464
   19.365    8.1833
   19.380    8.1622
   19.395    8.1727
   19.410    8.1727
   19.425    8.1622
   19.440    8.1201
   19.455    8.2359
   19.470    8.4255
   19.485    8.8994
   19.500    8.3939
   19.515    8.7309
   19.530    9.1627
   19.545    9.5208
   19.560    8.9731
   19.575    8.9415
   19.590    9.1838
   19.605    9.8473
   19.620    9.6682
   19.635    9.7525
   19.650   10.2264
   19.665    9.2364
   19.680    9.1522
   19.695    8.6677
   19.710    8.8678
   19.725    8.9521
   19.740    8.5940
   19.755    8.5519
   19.770    9.1838
   19.785    8.6677
   19.800    8.5413
   19.815    8.4887
   19.830    8.5624
   19.845    8.5097
   19.860    8.3518
   19.875    8.7520
   19.890    8.2991
   19.905    8.6151
   19.920    8.5413
   19.935    8.2675
   19.950    8.4466
   19.965    8.5624
   19.980    8.7836
   19.995    8.4992
   20.010    8.4887
   20.025    8.9310
   20.040    8.7204
   20.055    8.9310
   20.070    8.5729
   20.085    8.4676
   20.100    8.9521
   20.115    8.3096
   20.130    8.5940
   20.145    8.8468
   20.160    8.5835
   20.175    9.0995
   20.190    8.8046
   20.205    8.5097
   20.220    8.9310
   20.235    8.8468
   20.250    9.0679
   20.265    9.0047
   20.280    9.0890
   20.295    9.3944
   20.310    9.5840
   20.325    9.3944
   20.340   10.0053
   20.355   10.4371
   20.370   10.3844
   20.385   10.8583
   20.400   10.9953
   20.415   10.8057
   20.430   11.0795
   20.445   10.6372
   20.460    9.8578
   20.475    9.6367
   20.490    9.5629
   20.505    9.5524
   20.520    8.8468
   20.535    8.3307
   20.550    8.4992
   20.565    8.4992
   20.580    8.5729
   20.595    8.2043
   20.610    8.0569
   20.625    8.4255
   20.640    8.4466
   20.655    8.7414
   20.670    8.8257
   20.685    8.8152
   20.700    8.4466
   20.715    8.7836
   20.730    8.5940
   20.745    8.8362
   20.760    8.2359
   20.775    8.1411
   20.790    8.4992
   20.805    8.4044
   20.820    8.3728
   20.835    8.3623
   20.850    8.5308
   20.865    8.5729
   20.880    8.6361
   20.895    8.3307
   20.910    8.2464
   20.925    8.4150
   20.940    8.2149
   20.955    8.4781
   20.970    8.8152
   20.985    8.8046
   21.000    8.8362
   21.015    8.8046
   21.030    8.4781
   21.045    8.6361
   21.060    8.5097
   21.075    8.2886
   21.090    8.6888
   21.105    8.6783
   21.120    9.0995
   21.135    8.9310
   21.150    8.2149
   21.165    8.2570
   21.180    8.9521
   21.195    8.6151
   21.210    8.4676
   21.225    8.1306
   21.240    8.9626
   21.255    8.7309
   21.270    8.8046
   21.285    8.3307
   21.300    8.6888
   21.315    8.6783
   21.330    8.5624
   21.345    8.7309
   21.360    8.3728
   21.375    8.4255
   21.390    8.5519
   21.405    8.2886
   21.420    8.3939
   21.435    8.3412
   21.450    8.7098
   21.465    8.7836
   21.480    8.2464
   21.495    8.1622
   21.510    8.8468
   21.525    8.7730
   21.540    8.6888
   21.555    8.7098
   21.570    8.4781
   21.585    8.3623
   21.600    8.8784
   21.615    8.3202
   21.630    8.0779
   21.645    8.2464
   21.660    8.2043
   21.675    8.2254
   21.690    8.3518
   21.705    8.5835
   21.720    8.7836
   21.735    8.5097
   21.750    8.6677
   21.765    8.8784
   21.780    9.0153
   21.795    8.9415
   21.810    9.0363
   21.825    8.9521
   21.840    9.2575
   21.855    9.5735
   21.870    9.4260
   21.885    9.6367
   21.900    9.7525
   21.915    9.1417
   21.930    9.0153
   21.945    9.1943
   21.960    9.6367
   21.975    9.1101
   21.990    9.1417
   22.005    8.4992
   22.020    8.6256
   22.035    8.6677
   22.050    8.8573
   22.065    8.5519
   22.080    8.2780
   22.095    8.3939
   22.110    8.5097
   22.125    8.6783
   22.140    8.4466
   22.155    8.7625
   22.170    9.3102
   22.185    9.1417
   22.200    8.8573
   22.215    8.7520
   22.230    8.9415
   22.245    9.1522
   22.260    9.1206
   22.275    8.8152
   22.290    9.4892
   22.305    9.4892
   22.320    9.4155
   22.335    8.8362
   22.350    9.0785
   22.365    8.8678
   22.380    8.6256
   22.395    8.6045
   22.410    9.2259
   22.425    8.9521
   22.440    8.9942
   22.455    9.4787
   22.470    9.9105
   22.485    9.2996
   22.500    9.6998
   22.515   10.2580
   22.530   10.9110
   22.545   10.9953
   22.560   11.2059
   22.575   11.0269
   22.590   11.6482
   22.605   11.4903
   22.620   11.5745
   22.635   10.6372
   22.650   10.4265
   22.665   10.3844
   22.680    9.7420
   22.695    9.6472
   22.710    9.5313
   22.725    9.1627
   22.740    9.1206
   22.755    9.0785
   22.770    9.0363
   22.785    9.6577
   22.800    9.2680
   22.815    9.5629
   22.830    9.8157
   22.845   10.2054
   22.860   10.5213
   22.875   10.2264
   22.890   11.0269
   22.905   11.1322
   22.920   11.1427
   22.935   11.7957
   22.950   11.3744
   22.965   11.2375
   22.980   10.8794
   22.995   11.0058
   23.010   10.5108
   23.025   10.1001
   23.040    9.7420
   23.055    8.6467
   23.070    8.7836
   23.085    8.5729
   23.100    8.6572
   23.115    8.9942
   23.130    8.7204
   23.145    8.8362
   23.160    8.8152
   23.175    9.0785
   23.190    8.9942
   23.205    9.1943
   23.220    9.2154
   23.235    8.7836
   23.250    9.5735
   23.265    9.5313
   23.280    9.5103
   23.295    9.0785
   23.310    9.6051
   23.325    9.4997
   23.340    8.9415
   23.355    8.6045
   23.370    8.7625
   23.385    9.1206
   23.400    8.9942
   23.415    8.7730
   23.430    8.5413
   23.445    9.1311
   23.460    8.7836
   23.475    9.5524
   23.490    8.8468
   23.505    8.1306
   23.520    8.5835
   23.535    8.8257
   23.550    8.5413
   23.565    8.8152
   23.580    8.7204
   23.595    8.8152
   23.610    8.4887
   23.625    8.3623
   23.640    8.5203
   23.655    8.2886
   23.670    8.5835
   23.685    8.1095
   23.700    8.4887
   23.715    8.5308
   23.730    8.4781
   23.745    8.5097
   23.760    8.1727
   23.775    8.6361
   23.790    8.2886
   23.805    8.2359
   23.820    8.5835
   23.835    8.4781
   23.850    8.6572
   23.865    8.5729
   23.880    9.0785
   23.895    9.0679
   23.910    9.3839
   23.925    9.2680
   23.940    9.0995
   23.955    9.3734
   23.970    9.3839
   23.985    9.4365
   24.000    8.9521
   24.015    8.8784
   24.030    8.5308
   24.045    8.2886
   24.060    8.4992
   24.075    8.5835
   24.090    8.3307
   24.105    8.0885
   24.120    8.3096
   24.135    7.9937
   24.150    8.4571
   24.165    8.1622
   24.180    8.1938
   24.195    8.0358
   24.210    8.1306
   24.225    8.3096
   24.240    8.3728
   24.255    7.9831
   24.270    8.2991
   24.285    8.3518
   24.300    8.0463
   24.315    8.3728
   24.330    8.4887
   24.345    8.4676
   24.360    8.0885
   24.375    8.4360
   24.390    8.3202
   24.405    8.0358
   24.420    8.1938
   24.435    8.1938
   24.450    8.3307
   24.465    8.1833
   24.480    8.3834
   24.495    8.4676
   24.510    8.8257
   24.525    8.7204
   24.540    8.5308
   24.555    8.7941
   24.570    8.6572
   24.585    8.5940
   24.600    8.8257
   24.615    8.6993
   24.630    8.8362
   24.645    8.4044
   24.660    8.4992
   24.675    8.5624
   24.690    8.4676
   24.705    8.3939
   24.720    8.0147
   24.735    7.9410
   24.750    8.1201
   24.765    7.8146
   24.780    8.2254
   24.795    8.1201
   24.810    7.8884
   24.825    8.0885
   24.840    8.1095
   24.855    8.1095
   24.870    8.5835
   24.885    8.3202
   24.900    8.2254
   24.915    8.6151
   24.930    8.7941
   24.945    8.2675
   24.960    8.4360
   24.975    8.2359
   24.990    8.0885
   25.005    7.9621
   25.020    7.8462
   25.035    8.5308
   25.050    7.9726
   25.065    8.1517
   25.080    8.1727
   25.095    7.8462
   25.110    8.0779
   25.125    7.8673
   25.140    7.9726
   25.155    8.0885
   25.170    8.0885
   25.185    8.3728
   25.200    8.5519
   25.215    8.5097
   25.230    8.5940
   25.245    8.4150
   25.260    8.1833
   25.275    8.3834
   25.290    8.3518
   25.305    8.1938
   25.320    7.9831
   25.335    8.3834
   25.350    8.7309
   25.365    8.2359
   25.380    8.2254
   25.395    8.2464
   25.410    8.1622
   25.425    8.5624
   25.440    8.7520
   25.455    8.5203
   25.470    8.6572
   25.485    8.6677
   25.500    8.5940
   25.515    8.4044
   25.530    8.5203
   25.545    8.6361
   25.560    8.6151
   25.575    8.7836
   25.590    8.3307
   25.605    8.3518
   25.620    8.2254
   25.635    8.0990
   25.650    7.9726
   25.665    8.1622
   25.680    8.6151
   25.695    8.0042
   25.710    8.3307
   25.725    8.4676
   25.740    8.7098
   25.755    8.6467
   25.770    9.4471
   25.785    9.3839
   25.800    9.2259
   25.815    9.9737
   25.830   10.1948
   25.845    9.8262
   25.860   10.1738
   25.875    9.5945
   25.890    9.8578
   25.905    9.5313
   25.920    9.0890
   25.935    8.6783
   25.950    8.2675
   25.965    8.5413
   25.980    8.5519
   25.995    8.4044
   26.010    8.5413
   26.025    8.0358
   26.040    8.4255
   26.055    8.1411
   26.070    8.1517
   26.085    8.0990
   26.100    8.3623
   26.115    8.3096
   26.130    8.0463
   26.145    8.2254
   26.160    7.9937
   26.175    7.6672
   26.190    7.9410
   26.205    7.9305
   26.220    7.5092
   26.235    7.8989
   26.250    8.2675
   26.265    7.6988
   26.280    7.8778
   26.295    8.0463
   26.310    7.9410
   26.325    8.1201
   26.340    8.2570
   26.355    8.3834
   26.370    8.3728
   26.385    8.0463
   26.400    8.5624
   26.415    8.1938
   26.430    8.4255
   26.445    8.4887
   26.460    8.3834
   26.475    8.3307
   26.490    8.2043
   26.505    8.6467
   26.520    8.3307
   26.535    7.9831
   26.550    7.7725
   26.565    7.3091
   26.580    7.6461
   26.595    7.6251
   26.610    8.0253
   26.625    7.9305
   26.640    7.8357
   26.655    7.7830
   26.670    7.3828
   26.685    7.6040
   26.700    7.8462
   26.715    7.5197
   26.730    7.6567
   26.745    7.7409
   26.760    7.6251
   26.775    7.6672
   26.790    7.9410
   26.805    8.0990
   26.820    7.9937
   26.835    7.4039
   26.850    7.5092
   26.865    7.6461
   26.880    7.6251
   26.895    7.7830
   26.910    7.9726
   26.925    7.9094
   26.940    8.1622
   26.955    8.3307
   26.970    8.0990
   26.985    8.2570
   27.000    8.4466
   27.015    8.3834
   27.030    8.7520
   27.045    8.8994
   27.060    8.5729
   27.075    8.7309
   27.090    9.0574
   27.105    8.5940
   27.120    7.9831
   27.135    8.0779
   27.150    8.3728
   27.165    7.9621
   27.180    7.9726
   27.195    8.1833
   27.210    7.8673
   27.225    7.4566
   27.240    7.1617
   27.255    7.4987
   27.270    7.2354
   27.285    7.6988
   27.300    8.0990
   27.315    7.4987
   27.330    7.4671
   27.345    7.5935
   27.360    7.4776
   27.375    7.9831
   27.390    7.6883
   27.405    7.7830
   27.420    7.8884
   27.435    7.9937
   27.450    7.5724
   27.465    7.8989
   27.480    7.7830
   27.495    7.6988
   27.510    7.8778
   27.525    7.5829
   27.540    7.8252
   27.555    7.9516
   27.570    8.2780
   27.585    8.2359
   27.600    8.0147
   27.615    8.3202
   27.630    7.7304
   27.645    7.8357
   27.660    8.0569
   27.675    8.4044
   27.690    7.5619
   27.705    8.0990
   27.720    7.8778
   27.735    7.6251
   27.750    7.9094
   27.765    7.6883
   27.780    7.7620
   27.795    8.0990
   27.810    7.9621
   27.825    8.1622
   27.840    7.5408
   27.855    7.8357
   27.870    8.2149
   27.885    8.0042
   27.900    7.7093
   27.915    8.0253
   27.930    7.8041
   27.945    8.1201
   27.960    7.6777
   27.975    7.8357
   27.990    7.8778
   28.005    7.6461
   28.020    8.1411
   28.035    7.8884
   28.050    7.8462
   28.065    8.4044
   28.080    8.2886
   28.095    8.2570
   28.110    8.0042
   28.125    7.9094
   28.140    7.9516
   28.155    8.3939
   28.170    8.6572
   28.185    8.4571
   28.200    8.3623
   28.215    8.6993
   28.230    8.4255
   28.245    8.6677
   28.260    8.3412
   28.275    8.5729
   28.290    8.5203
   28.305    8.0358
   28.320    8.1833
   28.335    8.2149
   28.350    8.3412
   28.365    8.0779
   28.380    7.9305
   28.395    7.7304
   28.410    7.9726
   28.425    8.6467
   28.440    8.3096
   28.455    8.1201
   28.470    8.6045
   28.485    8.6993
   28.500    8.4255
   28.515    8.4571
   28.530    8.3202
   28.545    8.1201
   28.560    8.3202
   28.575    7.8462
   28.590    7.8673
   28.605    7.8884
   28.620    7.9094
   28.635    7.4776
   28.650    7.3196
   28.665    7.7093
   28.680    7.6988
   28.695    7.3934
   28.710    7.1617
   28.725    7.6461
   28.740    7.5408
   28.755    7.5197
   28.770    7.8989
   28.785    7.9937
   28.800    7.5829
   28.815    7.3091
   28.830    6.9300
   28.845    7.3618
   28.860    7.4039
   28.875    7.7093
   28.890    7.6461
   28.905    7.5619
   28.920    7.6145
   28.935    7.1617
   28.950    7.4355
   28.965    7.7725
   28.980    7.7409
   28.995    7.7093
   29.010    7.9094
   29.025    7.3618
   29.040    7.4671
   29.055    7.5197
   29.070    7.4671
   29.085    7.5724
   29.100    7.7620
   29.115    7.7936
   29.130    7.5197
   29.145    7.7514
   29.160    7.2775
   29.175    7.4987
   29.190    7.4039
   29.205    7.8252
   29.220    7.6145
   29.235    7.6883
   29.250    7.8568
   29.265    8.0463
   29.280    7.9831
   29.295    8.0147
   29.310    8.6572
   29.325    8.1938
   29.340    8.3202
   29.355    7.8884
   29.370    7.8989
   29.385    7.9410
   29.400    8.2991
   29.415    7.3618
   29.430    7.2143
   29.445    7.2249
   29.460    7.5408
   29.475    7.5724
   29.490    7.5197
   29.505    7.5513
   29.520    7.2670
   29.535    7.4144
   29.550    7.4144
   29.565    6.8984
   29.580    7.5935
   29.595    7.4144
   29.610    7.5619
   29.625    7.5197
   29.640    7.5303
   29.655    7.1933
   29.670    7.5303
   29.685    7.7830
   29.700    7.5619
   29.715    7.8041
   29.730    7.1722
   29.745    7.4250
   29.760    7.6567
   29.775    7.8778
   29.790    7.6883
   29.805    7.3512
   29.820    7.0774
   29.835    7.6988
   29.850    8.2675
   29.865    7.8673
   29.880    7.5408
   29.895    8.1938
   29.910    7.6356
   29.925    7.3196
   29.940    7.3196
   29.955    7.3512
   29.970    7.8252
   29.985    7.2880
   30.000    7.5197
   30.015    7.6777
   30.030    7.3407
   30.045    7.3302
   30.060    7.6356
   30.075    7.6672
   30.090    7.3302
   30.105    7.4460
   30.120    7.6461
   30.135    7.3196
   30.150    7.5408
   30.165    7.6251
   30.180    7.3512
   30.195    7.2354
   30.210    7.6251
   30.225    7.8146
   30.240    7.4250
   30.255    7.1722
   30.270    7.0563
   30.285    7.2249
   30.300    7.0879
   30.315    7.0248
   30.330    6.9510
   30.345    7.6251
   30.360    7.4460
   30.375    7.6461
   30.390    7.4355
   30.405    7.2354
   30.420    7.5513
   30.435    7.2986
   30.450    6.9721
   30.465    7.1511
   30.480    7.0248
   30.495    6.9405
   30.510    7.0458
   30.525    7.3618
   30.540    7.4250
   30.555    7.5197
   30.570    7.0142
   30.585    6.7720
   30.600    7.1933
   30.615    7.7199
   30.630    7.3934
   30.645    7.2038
   30.660    7.4566
   30.675    7.7725
   30.690    7.6461
   30.705    8.2359
   30.720    8.0990
   30.735    7.5619
   30.750    7.0669
   30.765    7.2459
   30.780    7.3723
   30.795    7.1722
   30.810    7.3934
   30.825    7.0774
   30.840    7.5935
   30.855    7.2986
   30.870    7.4987
   30.885    7.2143
   30.900    6.8352
   30.915    7.0037
   30.930    7.1511
   30.945    6.9932
   30.960    7.0563
   30.975    7.1933
   30.990    7.1617
   31.005    7.1090
   31.020    7.5935
   31.035    7.1090
   31.050    6.9405
   31.065    7.4355
   31.080    7.0353
   31.095    7.1090
   31.110    7.3618
   31.125    7.2459
   31.140    7.3196
   31.155    7.7936
   31.170    7.3407
   31.185    6.9405
   31.200    7.2775
   31.215    6.7404
   31.230    7.2459
   31.245    7.0563
   31.260    7.5829
   31.275    7.3828
   31.290    7.1722
   31.305    6.8457
   31.320    7.5513
   31.335    8.0674
   31.350    7.5829
   31.365    7.4987
   31.380    7.2775
   31.395    7.0563
   31.410    7.7199
   31.425    7.6145
   31.440    7.7199
   31.455    7.3828
   31.470    7.7725
   31.485    7.1827
   31.500    7.3512
   31.515    7.3091
   31.530    6.8668
   31.545    6.9721
   31.560    7.5092
   31.575    7.4039
   31.590    7.0879
   31.605    7.9410
   31.620    7.8462
   31.635    7.2143
   31.650    7.8041
   31.665    7.4776
   31.680    7.5408
   31.695    7.4250
   31.710    7.6883
   31.725    7.6672
   31.740    7.7304
   31.755    7.9094
   31.770    7.8146
   31.785    8.1833
   31.800    8.0042
   31.815    8.2780
   31.830    8.0569
   31.845    8.0253
   31.860    8.2043
   31.875    8.1517
   31.890    8.1727
   31.905    7.6988
   31.920    7.6672
   31.935    7.6356
   31.950    7.8884
   31.965    8.1411
   31.980    7.2565
   31.995    7.4987
   32.010    7.6251
   32.025    7.2249
   32.040    7.3302
   32.055    7.3302
   32.070    7.4671
   32.085    7.2670
   32.100    7.1195
   32.115    7.1406
   32.130    7.1933
   32.145    6.8773
   32.160    7.1722
   32.175    7.4882
   32.190    7.6040
   32.205    7.2565
   32.220    7.3407
   32.235    7.0037
   32.250    7.3723
   32.265    7.2565
   32.280    7.2354
   32.295    7.0669
   32.310    6.7930
   32.325    6.9300
   32.340    7.4355
   32.355    7.4144
   32.370    7.0985
   32.385    7.3091
   32.400    6.8773
   32.415    7.2459
   32.430    7.1827
   32.445    7.0142
   32.460    6.9932
   32.475    7.0985
   32.490    7.4250
   32.505    7.1511
   32.520    6.8141
   32.535    6.5403
   32.550    6.8457
   32.565    6.9721
   32.580    7.5197
   32.595    7.0774
   32.610    7.0774
   32.625    7.1617
   32.640    7.1090
   32.655    7.0774
   32.670    7.0458
   32.685    7.1617
   32.700    7.1406
   32.715    7.1617
   32.730    7.0248
   32.745    7.0353
   32.760    7.0669
   32.775    6.8878
   32.790    6.6456
   32.805    7.3512
   32.820    7.2249
   32.835    7.1827
   32.850    7.2354
   32.865    7.3828
   32.880    7.1617
   32.895    7.5724
   32.910    7.1827
   32.925    7.5619
   32.940    7.0669
   32.955    7.1933
   32.970    7.2354
   32.985    6.9826
   33.000    6.8562
   33.015    7.2143
   33.030    7.1933
   33.045    7.3302
   33.060    6.8457
   33.075    7.1090
   33.090    6.9194
   33.105    6.7193
   33.120    7.4355
   33.135    6.9721
   33.150    6.8668
   33.165    7.0248
   33.180    7.1406
   33.195    7.1722
   33.210    7.1195
   33.225    6.9826
   33.240    6.7299
   33.255    6.8562
   33.270    6.8668
   33.285    6.5508
   33.300    7.0037
   33.315    7.2459
   33.330    7.1195
   33.345    7.0458
   33.360    6.7825
   33.375    6.9300
   33.390    6.8141
   33.405    6.6561
   33.420    6.6983
   33.435    6.8246
   33.450    7.1301
   33.465    7.0458
   33.480    7.0458
   33.495    6.8773
   33.510    6.8352
   33.525    6.5298
   33.540    6.6983
   33.555    6.9089
   33.570    7.0142
   33.585    7.3723
   33.600    6.9194
   33.615    6.8878
   33.630    7.1301
   33.645    7.0563
   33.660    7.3091
   33.675    6.8562
   33.690    7.4566
   33.705    6.9194
   33.720    6.6877
   33.735    6.9932
   33.750    7.3091
   33.765    6.9300
   33.780    6.9826
   33.795    6.7088
   33.810    7.4460
   33.825    7.1722
   33.840    7.0248
   33.855    7.3723
   33.870    7.5303
   33.885    7.7199
   33.900    7.6777
   33.915    7.7199
   33.930    7.4566
   33.945    7.2670
   33.960    7.2565
   33.975    7.3091
   33.990    7.4987
   34.005    7.0774
   34.020    7.2143
   34.035    7.4566
   34.050    7.2143
   34.065    7.1617
   34.080    7.3407
   34.095    7.1090
   34.110    6.6877
   34.125    6.9616
   34.140    7.3091
   34.155    7.1827
   34.170    6.8352
   34.185    6.7299
   34.200    6.7509
   34.215    6.7193
   34.230    6.5298
   34.245    6.8036
   34.260    6.6140
   34.275    6.5719
   34.290    6.7299
   34.305    6.8773
   34.320    7.0669
   34.335    6.8668
   34.350    6.9510
   34.365    6.6351
   34.380    6.9721
   34.395    6.8141
   34.410    7.2459
   34.425    6.7930
   34.440    6.6983
   34.455    6.7509
   34.470    6.6983
   34.485    6.4666
   34.500    6.6351
   34.515    7.0879
   34.530    6.4139
   34.545    6.8562
   34.560    6.9405
   34.575    6.8246
   34.590    6.9405
   34.605    6.5087
   34.620    6.4666
   34.635    6.7720
   34.650    6.7088
   34.665    7.2459
   34.680    6.9405
   34.695    6.9089
   34.710    7.0248
   34.725    6.9300
   34.740    6.6245
   34.755    6.9826
   34.770    6.7509
   34.785    6.9194
   34.800    6.6035
   34.815    6.6245
   34.830    6.6877
   34.845    6.7404
   34.860    6.7825
   34.875    6.7193
   34.890    6.9721
   34.905    6.5613
   34.920    6.5719
   34.935    7.0458
   34.950    7.1827
   34.965    6.9194
   34.980    6.7930
   34.995    7.0248
   35.010    7.1933
   35.025    6.9616
   35.040    6.6877
   35.055    6.7404
   35.070    6.6667
   35.085    6.9089
   35.100    6.9300
   35.115    6.3191
   35.130    6.4244
   35.145    6.8141
   35.160    6.6877
   35.175    6.4455
   35.190    6.8984
   35.205    6.8036
   35.220    6.6667
   35.235    6.4139
   35.250    7.0142
   35.265    7.0985
   35.280    6.7404
   35.295    6.8036
   35.310    6.8352
   35.325    6.7720
   35.340    6.6351
   35.355    6.7930
   35.370    6.7825
   35.385    6.6035
   35.400    6.7825
   35.415    6.6667
   35.430    6.7615
   35.445    6.4455
   35.460    6.8141
   35.475    6.6245
   35.490    6.6035
   35.505    6.7615
   35.520    6.2138
   35.535    6.7193
   35.550    6.7615
   35.565    6.7299
   35.580    6.5192
   35.595    6.5298
   35.610    6.6772
   35.625    6.7720
   35.640    6.4034
   35.655    6.8773
   35.670    6.8984
   35.685    6.8668
   35.700    6.6877
   35.715    6.5508
   35.730    6.8773
   35.745    6.5192
   35.760    6.5087
   35.775    6.4560
   35.790    6.6877
   35.805    6.9300
   35.820    6.6983
   35.835    6.8457
   35.850    6.8036
   35.865    6.7404
   35.880    6.7088
   35.895    6.0769
   35.910    6.4666
   35.925    6.5824
   35.940    6.5087
   35.955    6.6667
   35.970    6.3612
   35.985    6.6667
   36.000    6.8141
   36.015    6.5824
   36.030    6.4455
   36.045    6.6877
   36.060    7.1827
   36.075    6.9510
   36.090    6.7615
   36.105    6.6561
   36.120    6.9616
   36.135    6.9932
   36.150    7.2249
   36.165    6.9194
   36.180    6.8036
   36.195    6.3191
   36.210    6.8984
   36.225    6.9089
   36.240    6.6877
   36.255    7.0458
   36.270    6.7615
   36.285    6.4350
   36.300    6.8984
   36.315    6.8352
   36.330    6.7088
   36.345    6.6561
   36.360    6.7930
   36.375    6.3823
   36.390    6.2243
   36.405    6.4139
   36.420    6.5929
   36.435    6.5192
   36.450    6.5824
   36.465    6.5192
   36.480    6.6667
   36.495    6.7720
   36.510    6.8984
   36.525    6.4350
   36.540    6.2981
   36.555    6.3296
   36.570    6.6456
   36.585    6.6667
   36.600    6.4455
   36.615    6.6351
   36.630    6.7930
   36.645    6.9721
   36.660    6.9932
   36.675    6.7193
   36.690    6.3928
   36.705    6.5403
   36.720    6.1717
   36.735    6.6456
   36.750    6.9826
   36.765    6.6456
   36.780    6.6140
   36.795    6.7825
   36.810    6.5719
   36.825    6.5719
   36.840    6.4771
   36.855    6.1822
   36.870    6.5192
   36.885    6.3718
   36.900    6.3086
   36.915    6.2770
   36.930    6.2770
   36.945    6.7193
   36.960    6.6667
   36.975    6.3507
   36.990    6.3296
   37.005    6.9510
   37.020    6.7720
   37.035    6.8984
   37.050    7.1195
   37.065    7.3934
   37.080    7.0248
   37.095    7.1933
   37.110    7.0774
   37.125    7.1090
   37.140    6.8878
   37.155    7.1195
   37.170    6.7404
   37.185    7.1406
   37.200    7.0458
   37.215    6.4034
   37.230    6.4244
   37.245    6.3086
   37.260    6.3086
   37.275    6.7299
   37.290    6.4455
   37.305    6.2559
   37.320    6.2138
   37.335    6.4034
   37.350    6.4350
   37.365    6.3718
   37.380    6.7509
   37.395    6.3086
   37.410    6.2981
   37.425    6.6140
   37.440    6.6877
   37.455    6.4666
   37.470    6.6140
   37.485    6.6245
   37.500    6.7193
   37.515    6.6983
   37.530    6.7615
   37.545    6.7825
   37.560    6.2454
   37.575    6.6667
   37.590    6.5403
   37.605    6.4876
   37.620    6.6561
   37.635    6.9194
   37.650    6.4560
   37.665    6.6140
   37.680    6.7825
   37.695    6.6245
   37.710    6.6667
   37.725    6.6877
   37.740    6.6561
   37.755    6.8352
   37.770    6.9932
   37.785    6.7088
   37.800    6.7404
   37.815    6.7404
   37.830    6.8246
   37.845    6.7088
   37.860    6.7930
   37.875    6.4244
   37.890    6.5719
   37.905    6.7615
   37.920    6.3402
   37.935    6.7720
   37.950    6.6561
   37.965    6.9616
   37.980    6.4876
   37.995    6.7088
   38.010    6.3402
   38.025    6.6140
   38.040    6.6877
   38.055    6.7509
   38.070    7.0563
   38.085    6.4876
   38.100    6.4876
   38.115    6.1085
   38.130    6.2981
   38.145    6.2981
   38.160    6.3507
   38.175    6.4455
   38.190    6.4034
   38.205    6.4982
   38.220    6.7193
   38.235    7.0142
   38.250    6.6983
   38.265    6.2875
   38.280    6.3928
   38.295    6.6351
   38.310    6.3296
   38.325    6.5087
   38.340    6.6772
   38.355    6.3928
   38.370    6.5824
   38.385    6.7930
   38.400    6.4455
   38.415    6.4139
   38.430    6.2665
   38.445    6.3612
   38.460    6.6877
   38.475    6.3086
   38.490    6.3718
   38.505    6.3823
   38.520    6.3086
   38.535    6.9089
   38.550    6.6035
   38.565    6.1190
   38.580    6.4876
   38.595    6.6245
   38.610    6.3928
   38.625    6.5192
   38.640    6.6140
   38.655    6.7930
   38.670    6.7509
   38.685    6.5508
   38.700    6.6245
   38.715    6.4350
   38.730    6.2349
   38.745    6.3718
   38.760    6.5719
   38.775    6.2665
   38.790    6.2138
   38.805    6.1927
   38.820    6.2559
   38.835    6.2138
   38.850    6.7193
   38.865    6.6667
   38.880    6.5298
   38.895    6.4771
   38.910    6.3507
   38.925    6.4982
   38.940    6.3507
   38.955    6.2033
   38.970    6.7299
   38.985    7.1511
   39.000    6.6456
   39.015    6.3612
   39.030    6.2981
   39.045    5.9821
   39.060    6.1611
   39.075    6.3928
   39.090    6.4139
   39.105    6.6667
   39.120    6.6035
   39.135    6.7299
   39.150    6.1611
   39.165    6.1822
   39.180    6.6877
   39.195    6.5087
   39.210    6.4876
   39.225    6.4560
   39.240    6.5403
   39.255    6.2981
   39.270    6.6667
   39.285    7.0037
   39.300    6.5087
   39.315    6.6035
   39.330    6.5192
   39.345    6.9932
   39.360    6.9510
   39.375    6.8352
   39.390    6.7720
   39.405    6.4455
   39.420    6.6035
   39.435    6.5403
   39.450    6.8352
   39.465    6.5192
   39.480    6.2770
   39.495    6.6245
   39.510    6.5298
   39.525    6.7720
   39.540    6.3507
   39.555    7.0774
   39.570    6.7825
   39.585    6.5824
   39.600    6.4139
   39.615    6.4876
   39.630    6.1401
   39.645    6.5613
   39.660    6.2665
   39.675    6.4139
   39.690    6.3928
   39.705    6.2875
   39.720    6.4350
   39.735    6.3928
   39.750    6.2349
   39.765    6.8246
   39.780    6.3402
   39.795    6.5298
   39.810    6.1717
   39.825    6.3928
   39.840    6.6456
   39.855    6.4982
   39.870    6.3086
   39.885    6.1717
   39.900    6.5403
   39.915    6.5508
   39.930    6.1611
   39.945    6.3296
   39.960    6.2033
   39.975    6.6140
   39.990    6.6456
