    1.500    3.2122
    1.515    3.2473
    1.530    3.1596
    1.545    3.0718
    1.560    3.4053
    1.575    3.3351
    1.590    3.0542
    1.605    2.9665
    1.620    3.0367
    1.635    2.6681
    1.650    2.6505
    1.665    2.7734
    1.680    2.6856
    1.695    2.6681
    1.710    2.3170
    1.725    2.6154
    1.740    2.5452
    1.755    2.5276
    1.770    2.7909
    1.785    2.5101
    1.800    2.2819
    1.815    2.2819
    1.830    2.2468
    1.845    2.4223
    1.860    2.1766
    1.875    2.4925
    1.890    2.2819
    1.905    2.2995
    1.920    2.4574
    1.935    2.1941
    1.950    2.1941
    1.965    1.9835
    1.980    2.2995
    1.995    2.1239
    2.010    1.8255
    2.025    2.2468
    2.040    2.3346
    2.055    2.1415
    2.070    1.9133
    2.085    2.0011
    2.100    1.9133
    2.115    1.9308
    2.130    1.9484
    2.145    1.9659
    2.160    2.0888
    2.175    2.1239
    2.190    2.0011
    2.205    1.9308
    2.220    2.0186
    2.235    2.1766
    2.250    2.1590
    2.265    1.8255
    2.280    2.1239
    2.295    2.1064
    2.310    1.8431
    2.325    1.9835
    2.340    1.8255
    2.355    2.1766
    2.370    1.8606
    2.385    2.0186
    2.400    2.1590
    2.415    2.0186
    2.430    2.1766
    2.445    2.0011
    2.460    1.8606
    2.475    2.0362
    2.490    2.2995
    2.505    2.0888
    2.520    2.0537
    2.535    1.8255
    2.550    1.9835
    2.565    2.2643
    2.580    2.1941
    2.595    2.1239
    2.610    2.4925
    2.625    2.5101
    2.640    2.3170
    2.655    2.2292
    2.670    2.2995
    2.685    2.4223
    2.700    2.1766
    2.715    2.3872
    2.730    2.3521
    2.745    2.5276
    2.760    2.7032
    2.775    2.5628
    2.790    2.7207
    2.805    2.2995
    2.820    2.3170
    2.835    2.5803
    2.850    2.8612
    2.865    2.5803
    2.880    2.4574
    2.895    2.7032
    2.910    2.6856
    2.925    2.7558
    2.940    2.8260
    2.955    3.2473
    2.970    3.1069
    2.985    3.0016
    3.000    3.2473
    3.015    3.0893
    3.030    3.2122
    3.045    2.9665
    3.060    3.2649
    3.075    3.2122
    3.090    3.2649
    3.105    3.3351
    3.120    3.1245
    3.135    3.2122
    3.150    3.7915
    3.165    3.7213
    3.180    3.9846
    3.195    3.6686
    3.210    4.1250
    3.225    4.4585
    3.240    4.3181
    3.255    4.2303
    3.270    4.1601
    3.285    4.6691
    3.300    4.8095
    3.315    4.5287
    3.330    4.9675
    3.345    5.2835
    3.360    4.8973
    3.375    4.9851
    3.390    5.2835
    3.405    5.9329
    3.420    5.6345
    3.435    5.9856
    3.450    5.8803
    3.465    6.2840
    3.480    6.0207
    3.495    6.3718
    3.510    6.8633
    3.525    6.9510
    3.540    7.3372
    3.555    7.9164
    3.570    7.7234
    3.585    8.0569
    3.600    8.0218
    3.615    9.0223
    3.630    9.4436
    3.645    9.5840
    3.660   10.1983
    3.675   11.7430
    3.690   11.8834
    3.705   12.7084
    3.720   13.0595
    3.735   14.7973
    3.750   15.4292
    3.765   17.4829
    3.780   19.7648
    3.795   21.5201
    3.810   23.9424
    3.825   26.8562
    3.840   27.0493
    3.855   24.6972
    3.870   20.5371
    3.885   15.1308
    3.900   10.9531
    3.915    7.4425
    3.930    4.6516
    3.945    3.4755
    3.960    2.3346
    3.975    2.0011
    3.990    1.8957
    4.005    1.7027
    4.020    1.6149
    4.035    1.5271
    4.050    1.4920
    4.065    1.2814
    4.080    1.2814
    4.095    1.2814
    4.110    1.3516
    4.125    1.2814
    4.140    1.2112
    4.155    1.3165
    4.170    0.9303
    4.185    1.0181
    4.200    1.1058
    4.215    1.1410
    4.230    1.1585
    4.245    1.0356
    4.260    1.0181
    4.275    1.0181
    4.290    1.0883
    4.305    1.0181
    4.320    1.1410
    4.335    0.9830
    4.350    1.0532
    4.365    0.9303
    4.380    0.9830
    4.395    0.9654
    4.410    1.0356
    4.425    0.8952
    4.440    1.0356
    4.455    0.9303
    4.470    1.0005
    4.485    1.1585
    4.500    1.1234
    4.515    0.8250
    4.530    0.9479
    4.545    0.8601
    4.560    0.9654
    4.575    1.1585
    4.590    1.0532
    4.605    1.0707
    4.620    1.1058
    4.635    1.0181
    4.650    1.1761
    4.665    1.0707
    4.680    1.0883
    4.695    0.9830
    4.710    0.9830
    4.725    0.9128
    4.740    1.0707
    4.755    1.0181
    4.770    1.1410
    4.785    1.1761
    4.800    1.1234
    4.815    1.1058
    4.830    0.9479
    4.845    0.9128
    4.860    1.2287
    4.875    1.2287
    4.890    1.1058
    4.905    1.2287
    4.920    1.2989
    4.935    1.3340
    4.950    1.0883
    4.965    1.1761
    4.980    1.0181
    4.995    0.8952
    5.010    1.1410
    5.025    1.1761
    5.040    1.0356
    5.055    1.2463
    5.070    1.0883
    5.085    1.2112
    5.100    1.3165
    5.115    1.3516
    5.130    1.2112
    5.145    1.5622
    5.160    1.6675
    5.175    1.7904
    5.190    1.5271
    5.205    1.3165
    5.220    1.4569
    5.235    1.5271
    5.250    1.4394
    5.265    1.5447
    5.280    1.5447
    5.295    1.8255
    5.310    1.7027
    5.325    1.4745
    5.340    1.9133
    5.355    2.1415
    5.370    2.3697
    5.385    2.3697
    5.400    2.5276
    5.415    2.8260
    5.430    2.8436
    5.445    3.1245
    5.460    3.0718
    5.475    2.7909
    5.490    2.4574
    5.505    2.3170
    5.520    2.0362
    5.535    1.7729
    5.550    1.3165
    5.565    1.2638
    5.580    1.2287
    5.595    1.0532
    5.610    0.9654
    5.625    0.9479
    5.640    0.9479
    5.655    1.0707
    5.670    1.0005
    5.685    0.8425
    5.700    0.9303
    5.715    0.9654
    5.730    1.0181
    5.745    0.9128
    5.760    1.0356
    5.775    0.8425
    5.790    0.9128
    5.805    0.8952
    5.820    1.0532
    5.835    0.9479
    5.850    0.8952
    5.865    0.8425
    5.880    0.8777
    5.895    0.8601
    5.910    1.0181
    5.925    1.0883
    5.940    1.0356
    5.955    0.8777
    5.970    0.7899
    5.985    0.8952
    6.000    0.8601
    6.015    0.9479
    6.030    0.8777
    6.045    0.8952
    6.060    0.8777
    6.075    0.8425
    6.090    0.9479
    6.105    0.9830
    6.120    1.0005
    6.135    1.0883
    6.150    0.7723
    6.165    0.7899
    6.180    0.8425
    6.195    0.8250
    6.210    0.9128
    6.225    0.7899
    6.240    0.8250
    6.255    1.0883
    6.270    0.9128
    6.285    0.9479
    6.300    0.8250
    6.315    0.8601
    6.330    0.8601
    6.345    0.9479
    6.360    1.0707
    6.375    1.0005
    6.390    0.8952
    6.405    0.9479
    6.420    1.2112
    6.435    1.1234
    6.450    0.8777
    6.465    0.9303
    6.480    0.9303
    6.495    0.7548
    6.510    1.0005
    6.525    0.8952
    6.540    0.8425
    6.555    0.9479
    6.570    1.0356
    6.585    1.1234
    6.600    1.0883
    6.615    0.9830
    6.630    0.9654
    6.645    1.0181
    6.660    0.8777
    6.675    1.1410
    6.690    1.1936
    6.705    1.0707
    6.720    0.9303
    6.735    1.3691
    6.750    1.1234
    6.765    1.1234
    6.780    0.8952
    6.795    0.8425
    6.810    1.1585
    6.825    1.2287
    6.840    1.0356
    6.855    0.8250
    6.870    0.9479
    6.885    0.9830
    6.900    0.8952
    6.915    0.9479
    6.930    0.9479
    6.945    0.7021
    6.960    0.9479
    6.975    1.0707
    6.990    0.9830
    7.005    1.0005
    7.020    1.0532
    7.035    0.9654
    7.050    0.8952
    7.065    0.9128
    7.080    0.8250
    7.095    1.0707
    7.110    0.7548
    7.125    0.8250
    7.140    0.8425
    7.155    0.9479
    7.170    1.1058
    7.185    1.0883
    7.200    0.8777
    7.215    1.0181
    7.230    1.0883
    7.245    1.0707
    7.260    1.1234
    7.275    0.9303
    7.290    0.9654
    7.305    0.9303
    7.320    1.1234
    7.335    1.0181
    7.350    1.0883
    7.365    0.9128
    7.380    0.9479
    7.395    1.1410
    7.410    1.0532
    7.425    1.0356
    7.440    0.9479
    7.455    1.2112
    7.470    1.1234
    7.485    1.0707
    7.500    1.0356
    7.515    1.0532
    7.530    0.8601
    7.545    1.2112
    7.560    1.0883
    7.575    1.2287
    7.590    1.1410
    7.605    1.4042
    7.620    1.1585
    7.635    1.1936
    7.650    1.1936
    7.665    1.2463
    7.680    1.4569
    7.695    1.4569
    7.710    1.3691
    7.725    1.5798
    7.740    1.5096
    7.755    1.4218
    7.770    1.7378
    7.785    1.4569
    7.800    1.4042
    7.815    1.2638
    7.830    1.1234
    7.845    1.0707
    7.860    1.1058
    7.875    1.1410
    7.890    0.9479
    7.905    0.9303
    7.920    1.0181
    7.935    0.8601
    7.950    1.0532
    7.965    0.9479
    7.980    1.1585
    7.995    1.0356
    8.010    0.9128
    8.025    0.9479
    8.040    0.8074
    8.055    0.8425
    8.070    0.9128
    8.085    1.0707
    8.100    0.9654
    8.115    0.8952
    8.130    0.7548
    8.145    0.7197
    8.160    0.6144
    8.175    1.0181
    8.190    1.1058
    8.205    1.2112
    8.220    1.0532
    8.235    0.9654
    8.250    0.9303
    8.265    0.9303
    8.280    1.0532
    8.295    0.8952
    8.310    0.9654
    8.325    0.9303
    8.340    1.1234
    8.355    0.8777
    8.370    0.8952
    8.385    1.0181
    8.400    0.9128
    8.415    0.8777
    8.430    0.8250
    8.445    0.8952
    8.460    0.9654
    8.475    0.9479
    8.490    1.0181
    8.505    1.0181
    8.520    0.9479
    8.535    0.9303
    8.550    1.0707
    8.565    1.1585
    8.580    0.9303
    8.595    0.7021
    8.610    0.9654
    8.625    0.9303
    8.640    1.3165
    8.655    1.1761
    8.670    1.0005
    8.685    1.0707
    8.700    1.1936
    8.715    0.8425
    8.730    1.0356
    8.745    1.3516
    8.760    1.1410
    8.775    1.1058
    8.790    0.9303
    8.805    0.8425
    8.820    0.8425
    8.835    0.9128
    8.850    0.7899
    8.865    1.0532
    8.880    1.1410
    8.895    0.9128
    8.910    1.0005
    8.925    0.9479
    8.940    0.8777
    8.955    0.9830
    8.970    0.9303
    8.985    0.9128
    9.000    1.0356
    9.015    0.9830
    9.030    1.1410
    9.045    1.2112
    9.060    1.0883
    9.075    1.0532
    9.090    0.9479
    9.105    1.1058
    9.120    1.0005
    9.135    0.9654
    9.150    1.1234
    9.165    1.0005
    9.180    1.1761
    9.195    1.0883
    9.210    1.2463
    9.225    1.0181
    9.240    1.0883
    9.255    1.1585
    9.270    0.9479
    9.285    1.1936
    9.300    1.2463
    9.315    1.3165
    9.330    1.0707
    9.345    1.5096
    9.360    1.2638
    9.375    1.2989
    9.390    1.4745
    9.405    1.4745
    9.420    1.5447
    9.435    1.5622
    9.450    1.8080
    9.465    1.8957
    9.480    2.0537
    9.495    2.0011
    9.510    2.0186
    9.525    2.0537
    9.540    1.9659
    9.555    1.8080
    9.570    1.8957
    9.585    1.6149
    9.600    1.4394
    9.615    1.1761
    9.630    1.0356
    9.645    1.2989
    9.660    1.1585
    9.675    0.9479
    9.690    0.9479
    9.705    1.1410
    9.720    1.0532
    9.735    1.1234
    9.750    1.0356
    9.765    1.1234
    9.780    1.0005
    9.795    1.0707
    9.810    1.2287
    9.825    0.8952
    9.840    1.1058
    9.855    1.0707
    9.870    0.9479
    9.885    0.9128
    9.900    1.1761
    9.915    1.0356
    9.930    1.1410
    9.945    1.0181
    9.960    1.0181
    9.975    1.2287
    9.990    1.1585
   10.005    1.0883
   10.020    1.1761
   10.035    1.1585
   10.050    1.1410
   10.065    1.0707
   10.080    1.0707
   10.095    1.1234
   10.110    1.2287
   10.125    1.1585
   10.140    1.3516
   10.155    1.4920
   10.170    1.6675
   10.185    1.3867
   10.200    1.6149
   10.215    1.6149
   10.230    1.7202
   10.245    1.8080
   10.260    1.7729
   10.275    1.6324
   10.290    2.0713
   10.305    1.9484
   10.320    1.6675
   10.335    1.7378
   10.350    1.6500
   10.365    1.2814
   10.380    1.2814
   10.395    1.2463
   10.410    1.1058
   10.425    1.1410
   10.440    0.9303
   10.455    1.0181
   10.470    0.9303
   10.485    0.8074
   10.500    0.7197
   10.515    0.8425
   10.530    1.0005
   10.545    1.1761
   10.560    0.9654
   10.575    1.0532
   10.590    1.1058
   10.605    1.1936
   10.620    1.2287
   10.635    1.1410
   10.650    1.0532
   10.665    0.9128
   10.680    1.0532
   10.695    1.0356
   10.710    1.0356
   10.725    1.0356
   10.740    1.0707
   10.755    1.0005
   10.770    1.0707
   10.785    0.9303
   10.800    0.8952
   10.815    1.0532
   10.830    1.0883
   10.845    1.0532
   10.860    1.0883
   10.875    1.1585
   10.890    0.9479
   10.905    0.9303
   10.920    1.1585
   10.935    1.2814
   10.950    1.0883
   10.965    1.2112
   10.980    1.0883
   10.995    1.1761
   11.010    1.1058
   11.025    1.0532
   11.040    1.0181
   11.055    1.2814
   11.070    1.0532
   11.085    1.1585
   11.100    1.1058
   11.115    0.8074
   11.130    0.8952
   11.145    1.0532
   11.160    1.0532
   11.175    0.9830
   11.190    1.0532
   11.205    0.9128
   11.220    0.8601
   11.235    1.0532
   11.250    1.1761
   11.265    1.0356
   11.280    0.9128
   11.295    0.7197
   11.310    0.8601
   11.325    1.1585
   11.340    0.9654
   11.355    0.9303
   11.370    1.1234
   11.385    0.9830
   11.400    0.9830
   11.415    0.8601
   11.430    1.0005
   11.445    1.0883
   11.460    1.2463
   11.475    1.0532
   11.490    1.0181
   11.505    1.0707
   11.520    0.9479
   11.535    0.9830
   11.550    0.9128
   11.565    0.9654
   11.580    0.9479
   11.595    1.0181
   11.610    1.1234
   11.625    1.2638
   11.640    1.5096
   11.655    1.3516
   11.670    1.2287
   11.685    1.2989
   11.700    1.3691
   11.715    1.0883
   11.730    1.0883
   11.745    1.0181
   11.760    1.1761
   11.775    1.1234
   11.790    1.0707
   11.805    0.9654
   11.820    0.8250
   11.835    1.0005
   11.850    0.9479
   11.865    0.8250
   11.880    0.8425
   11.895    0.9654
   11.910    0.8601
   11.925    0.9654
   11.940    0.8601
   11.955    1.0356
   11.970    0.9479
   11.985    0.8074
   12.000    0.9128
   12.015    0.9479
   12.030    1.0883
   12.045    0.8074
   12.060    0.8425
   12.075    0.7899
   12.090    1.0532
   12.105    1.1058
   12.120    0.9479
   12.135    0.8952
   12.150    1.0005
   12.165    0.9830
   12.180    1.0356
   12.195    0.8777
   12.210    1.0707
   12.225    1.1234
   12.240    0.9128
   12.255    1.1410
   12.270    1.0532
   12.285    1.1410
   12.300    1.0532
   12.315    0.9128
   12.330    1.0005
   12.345    1.2112
   12.360    0.9479
   12.375    0.7548
   12.390    1.0356
   12.405    0.9479
   12.420    0.9479
   12.435    0.9654
   12.450    0.8952
   12.465    0.9303
   12.480    0.9128
   12.495    1.0532
   12.510    1.0707
   12.525    0.9654
   12.540    1.0005
   12.555    1.1761
   12.570    0.7372
   12.585    0.8074
   12.600    0.9303
   12.615    1.2112
   12.630    0.9303
   12.645    0.9303
   12.660    0.8777
   12.675    1.0005
   12.690    1.0181
   12.705    0.9303
   12.720    0.9479
   12.735    0.9654
   12.750    1.0005
   12.765    0.9654
   12.780    0.8425
   12.795    1.0883
   12.810    0.9654
   12.825    1.1234
   12.840    1.1058
   12.855    1.2287
   12.870    1.1761
   12.885    1.0532
   12.900    1.2463
   12.915    1.1936
   12.930    1.1761
   12.945    1.1585
   12.960    1.1761
   12.975    1.2638
   12.990    1.2814
   13.005    1.1585
   13.020    1.1234
   13.035    1.0356
   13.050    1.0181
   13.065    0.9830
   13.080    0.9128
   13.095    0.8777
   13.110    0.8777
   13.125    1.0181
   13.140    0.8250
   13.155    0.7899
   13.170    1.0181
   13.185    0.9830
   13.200    0.8250
   13.215    0.9830
   13.230    1.1234
   13.245    0.9128
   13.260    0.8601
   13.275    0.8952
   13.290    0.8952
   13.305    1.0356
   13.320    0.9128
   13.335    0.8601
   13.350    0.8952
   13.365    0.9128
   13.380    0.9303
   13.395    0.9303
   13.410    0.8777
   13.425    1.0532
   13.440    1.1234
   13.455    1.2112
   13.470    1.0532
   13.485    0.8952
   13.500    1.1410
   13.515    1.0356
   13.530    1.1585
   13.545    1.1058
   13.560    0.8952
   13.575    0.9479
   13.590    0.8425
   13.605    1.0181
   13.620    0.9830
   13.635    1.0883
   13.650    0.9830
   13.665    0.9830
   13.680    1.0181
   13.695    0.9479
   13.710    0.8952
   13.725    0.8601
   13.740    0.8250
   13.755    0.9128
   13.770    0.8250
   13.785    0.9303
   13.800    1.0356
   13.815    0.8425
   13.830    0.9830
   13.845    0.9303
   13.860    0.8074
   13.875    0.8952
   13.890    0.8250
   13.905    0.8777
   13.920    0.9303
   13.935    0.9830
   13.950    1.0356
   13.965    0.8777
   13.980    0.8777
   13.995    0.9654
   14.010    0.9830
   14.025    1.2287
   14.040    1.0707
   14.055    0.9479
   14.070    1.1410
   14.085    1.1410
   14.100    1.0883
   14.115    1.0707
   14.130    1.0883
   14.145    1.0005
   14.160    0.7372
   14.175    0.8601
   14.190    0.9830
   14.205    1.0707
   14.220    1.0356
   14.235    0.8250
   14.250    0.8250
   14.265    0.7548
   14.280    0.8074
   14.295    0.8425
   14.310    0.9128
   14.325    0.7548
   14.340    0.8074
   14.355    0.6846
   14.370    0.8250
   14.385    0.8074
   14.400    0.8777
   14.415    0.6670
   14.430    0.8425
   14.445    0.8425
   14.460    0.9479
   14.475    1.0532
   14.490    0.8250
   14.505    0.8777
   14.520    0.8952
   14.535    1.0356
   14.550    0.8074
   14.565    1.0181
   14.580    0.8074
   14.595    1.0181
   14.610    0.7021
   14.625    0.8425
   14.640    0.8425
   14.655    0.8250
   14.670    0.8074
   14.685    0.8074
   14.700    0.7372
   14.715    0.8074
   14.730    0.8250
   14.745    0.8952
   14.760    0.8425
   14.775    0.9128
   14.790    0.8074
   14.805    0.8074
   14.820    0.7899
   14.835    0.8425
   14.850    0.7723
   14.865    0.9479
   14.880    0.7723
   14.895    0.8250
   14.910    0.8777
   14.925    0.9479
   14.940    0.9479
   14.955    0.7723
   14.970    0.7723
   14.985    0.6144
   15.000    0.8425
   15.015    0.9128
   15.030    1.0005
   15.045    1.1936
   15.060    1.1234
   15.075    0.9654
   15.090    1.0005
   15.105    1.2112
   15.120    1.0181
   15.135    1.0883
   15.150    1.1058
   15.165    1.2463
   15.180    1.1234
   15.195    1.1585
   15.210    0.7899
   15.225    0.8952
   15.240    1.1234
   15.255    1.0181
   15.270    0.9830
   15.285    0.9479
   15.300    0.8425
   15.315    0.7372
   15.330    0.6670
   15.345    0.8952
   15.360    0.8250
   15.375    0.8425
   15.390    0.8425
   15.405    1.0532
   15.420    0.7723
   15.435    0.7372
   15.450    1.0356
   15.465    1.0005
   15.480    0.8250
   15.495    1.0181
   15.510    0.7548
   15.525    0.7899
   15.540    0.8074
   15.555    0.7899
   15.570    0.8425
   15.585    0.8425
   15.600    0.9479
   15.615    0.7899
   15.630    0.7723
   15.645    0.9830
   15.660    1.0707
   15.675    0.9128
   15.690    1.0707
   15.705    1.0181
   15.720    0.8952
   15.735    0.8777
   15.750    0.8250
   15.765    1.0005
   15.780    0.8952
   15.795    1.0532
   15.810    1.0707
   15.825    1.0181
   15.840    0.9303
   15.855    0.8074
   15.870    0.9479
   15.885    0.7723
   15.900    0.7899
   15.915    0.8777
   15.930    0.8250
   15.945    0.8250
   15.960    0.8250
   15.975    1.0707
   15.990    1.0181
   16.005    1.0707
   16.020    0.9128
   16.035    1.0707
   16.050    1.1058
   16.065    0.9830
   16.080    1.0532
   16.095    1.1761
   16.110    1.1058
   16.125    0.9479
   16.140    1.1761
   16.155    1.2638
   16.170    0.9303
   16.185    0.9830
   16.200    1.0356
   16.215    1.0532
   16.230    0.9128
   16.245    1.0181
   16.260    1.0707
   16.275    1.0181
   16.290    0.7723
   16.305    1.0356
   16.320    1.0181
   16.335    0.8777
   16.350    0.9830
   16.365    0.8952
   16.380    0.9479
   16.395    0.9303
   16.410    0.8777
   16.425    0.9128
   16.440    0.9479
   16.455    0.8777
   16.470    0.7548
   16.485    0.8250
   16.500    0.9303
   16.515    0.9479
   16.530    1.0005
   16.545    1.0356
   16.560    1.2287
   16.575    0.8777
   16.590    1.0005
   16.605    1.1234
   16.620    1.0356
   16.635    1.0532
   16.650    1.1058
   16.665    0.9303
   16.680    1.1410
   16.695    0.9303
   16.710    0.9654
   16.725    0.9479
   16.740    0.7723
   16.755    1.0532
   16.770    0.8425
   16.785    0.7372
   16.800    0.9128
   16.815    0.9479
   16.830    1.1058
   16.845    1.0181
   16.860    1.0356
   16.875    0.9128
   16.890    0.8074
   16.905    1.0707
   16.920    1.2814
   16.935    1.1410
   16.950    0.9479
   16.965    1.2287
   16.980    1.2112
   16.995    1.2463
   17.010    1.3516
   17.025    1.2989
   17.040    1.1936
   17.055    1.1410
   17.070    1.1058
   17.085    1.0707
   17.100    1.1410
   17.115    1.2638
   17.130    1.1585
   17.145    1.1234
   17.160    1.0356
   17.175    1.0005
   17.190    0.8777
   17.205    1.0005
   17.220    0.8952
   17.235    0.9654
   17.250    1.1410
   17.265    0.9479
   17.280    0.7723
   17.295    0.7723
   17.310    0.8601
   17.325    0.7899
   17.340    0.9128
   17.355    0.9654
   17.370    1.0005
   17.385    1.0181
   17.400    1.1410
   17.415    1.0005
   17.430    0.9479
   17.445    1.1234
   17.460    0.9479
   17.475    0.7372
   17.490    0.8777
   17.505    0.9303
   17.520    1.1585
   17.535    0.9830
   17.550    1.0707
   17.565    0.9654
   17.580    0.8425
   17.595    0.8952
   17.610    1.0532
   17.625    0.8074
   17.640    0.7372
   17.655    0.8601
   17.670    1.0356
   17.685    0.7372
   17.700    0.6495
   17.715    0.7723
   17.730    0.9128
   17.745    0.8601
   17.760    0.8952
   17.775    0.9479
   17.790    0.9654
   17.805    0.8952
   17.820    1.0532
   17.835    1.0532
   17.850    0.8601
   17.865    1.0181
   17.880    1.1410
   17.895    1.0532
   17.910    0.9128
   17.925    1.1585
   17.940    0.9479
   17.955    0.8952
   17.970    0.9654
   17.985    0.9830
   18.000    1.0005
   18.015    1.0356
   18.030    1.0005
   18.045    0.9128
   18.060    0.8601
   18.075    0.9303
   18.090    0.9830
   18.105    0.8952
   18.120    1.0181
   18.135    1.1585
   18.150    1.0005
   18.165    0.8952
   18.180    0.9128
   18.195    0.8425
   18.210    0.8074
   18.225    1.0707
   18.240    1.1936
   18.255    1.0883
   18.270    1.0005
   18.285    0.9479
   18.300    1.0005
   18.315    1.0181
   18.330    0.8425
   18.345    1.0005
   18.360    1.1761
   18.375    1.0356
   18.390    1.2112
   18.405    1.1058
   18.420    1.0883
   18.435    1.2287
   18.450    0.9128
   18.465    0.9128
   18.480    0.8250
   18.495    0.9654
   18.510    0.9128
   18.525    0.9479
   18.540    1.0005
   18.555    1.0005
   18.570    1.0532
   18.585    1.0005
   18.600    0.8250
   18.615    0.9830
   18.630    1.4920
   18.645    1.2287
   18.660    1.1761
   18.675    0.9830
   18.690    0.9303
   18.705    1.1761
   18.720    1.2638
   18.735    1.1585
   18.750    0.9830
   18.765    0.8074
   18.780    1.0707
   18.795    1.0532
   18.810    1.0707
   18.825    0.9479
   18.840    0.8952
   18.855    0.9479
   18.870    1.1761
   18.885    0.9830
   18.900    0.8952
   18.915    1.0005
   18.930    0.9128
   18.945    0.8601
   18.960    1.0532
   18.975    0.8952
   18.990    1.0532
   19.005    0.9654
   19.020    0.8777
   19.035    0.9303
   19.050    0.8601
   19.065    0.9303
   19.080    1.0707
   19.095    1.2989
   19.110    1.0005
   19.125    1.0181
   19.140    0.8952
   19.155    0.6846
   19.170    0.9479
   19.185    1.1585
   19.200    1.0883
   19.215    1.0005
   19.230    0.9830
   19.245    1.0181
   19.260    0.8952
   19.275    0.9303
   19.290    1.1058
   19.305    1.1761
   19.320    1.0356
   19.335    0.9479
   19.350    1.1058
   19.365    1.1761
   19.380    0.9830
   19.395    0.9830
   19.410    0.9479
   19.425    1.0181
   19.440    1.0707
   19.455    1.1410
   19.470    1.1410
   19.485    1.0883
   19.500    1.0883
   19.515    1.1761
   19.530    0.8777
   19.545    1.2463
   19.560    1.2989
   19.575    1.4042
   19.590    1.1936
   19.605    1.2989
   19.620    1.2287
   19.635    1.1410
   19.650    1.1761
   19.665    1.1585
   19.680    1.0707
   19.695    0.9654
   19.710    0.8777
   19.725    0.9479
   19.740    0.9479
   19.755    0.9479
   19.770    1.0883
   19.785    1.0005
   19.800    1.0356
   19.815    1.1234
   19.830    0.9479
   19.845    1.0532
   19.860    0.9479
   19.875    0.8952
   19.890    0.9830
   19.905    1.1585
   19.920    0.8952
   19.935    0.9479
   19.950    1.0707
   19.965    1.0532
   19.980    1.0883
   19.995    0.8952
   20.010    0.9303
   20.025    1.0005
   20.040    1.0883
   20.055    0.9654
   20.070    0.9303
   20.085    0.8952
   20.100    1.0532
   20.115    1.0883
   20.130    1.1058
   20.145    0.8952
   20.160    0.8425
   20.175    0.9654
   20.190    0.9479
   20.205    0.7548
   20.220    0.8250
   20.235    1.1058
   20.250    1.0532
   20.265    1.0005
   20.280    1.2814
   20.295    1.3516
   20.310    1.2814
   20.325    1.2814
   20.340    1.3516
   20.355    1.2814
   20.370    1.2112
   20.385    1.2287
   20.400    1.1410
   20.415    1.1410
   20.430    1.2112
   20.445    1.1410
   20.460    1.2463
   20.475    0.9830
   20.490    1.0707
   20.505    0.9830
   20.520    0.8777
   20.535    0.9303
   20.550    0.8250
   20.565    1.1058
   20.580    1.0005
   20.595    0.9128
   20.610    0.9654
   20.625    0.9830
   20.640    0.9479
   20.655    0.8777
   20.670    0.8952
   20.685    1.0181
   20.700    0.8601
   20.715    1.0356
   20.730    0.9654
   20.745    0.8952
   20.760    1.0181
   20.775    1.1410
   20.790    1.0005
   20.805    1.0707
   20.820    0.9830
   20.835    1.0181
   20.850    0.9830
   20.865    1.2112
   20.880    0.9479
   20.895    0.9830
   20.910    0.8952
   20.925    1.0005
   20.940    0.9830
   20.955    0.8952
   20.970    1.0356
   20.985    0.8952
   21.000    1.0005
   21.015    1.1058
   21.030    0.8952
   21.045    0.9303
   21.060    0.8601
   21.075    0.8952
   21.090    1.0356
   21.105    1.0532
   21.120    1.1234
   21.135    1.0883
   21.150    1.1761
   21.165    0.9303
   21.180    1.0707
   21.195    1.0005
   21.210    0.9830
   21.225    0.9654
   21.240    1.0356
   21.255    1.0707
   21.270    1.1058
   21.285    1.1410
   21.300    1.0005
   21.315    0.8074
   21.330    1.0005
   21.345    1.0532
   21.360    0.8952
   21.375    1.0356
   21.390    0.9303
   21.405    0.8777
   21.420    0.9479
   21.435    0.8425
   21.450    0.9654
   21.465    0.8952
   21.480    0.8777
   21.495    1.0005
   21.510    1.0005
   21.525    0.9479
   21.540    0.9830
   21.555    0.8777
   21.570    0.8777
   21.585    0.9303
   21.600    1.1410
   21.615    1.0356
   21.630    0.9128
   21.645    0.8777
   21.660    1.0883
   21.675    0.9479
   21.690    0.9128
   21.705    1.1410
   21.720    1.0707
   21.735    0.9654
   21.750    0.9479
   21.765    1.0181
   21.780    1.0883
   21.795    1.0356
   21.810    1.0883
   21.825    1.2638
   21.840    1.2989
   21.855    1.2112
   21.870    1.1936
   21.885    1.2287
   21.900    1.2463
   21.915    1.1585
   21.930    1.1761
   21.945    1.0005
   21.960    1.0532
   21.975    0.9479
   21.990    0.9479
   22.005    0.9654
   22.020    1.0181
   22.035    1.0532
   22.050    0.9654
   22.065    0.9830
   22.080    0.8777
   22.095    1.1410
   22.110    1.0532
   22.125    1.0356
   22.140    1.0356
   22.155    1.0707
   22.170    1.0005
   22.185    0.8601
   22.200    0.9128
   22.215    1.0181
   22.230    0.9654
   22.245    1.0883
   22.260    1.0532
   22.275    0.8601
   22.290    0.9654
   22.305    1.0181
   22.320    0.8601
   22.335    0.9654
   22.350    0.9303
   22.365    1.0005
   22.380    0.9830
   22.395    0.8074
   22.410    0.7723
   22.425    1.1058
   22.440    1.0356
   22.455    1.1410
   22.470    1.5622
   22.485    1.2638
   22.500    1.1761
   22.515    1.3340
   22.530    1.3691
   22.545    1.1410
   22.560    1.1761
   22.575    1.4218
   22.590    1.4042
   22.605    1.2638
   22.620    1.1761
   22.635    1.3340
   22.650    1.2287
   22.665    1.1761
   22.680    1.0707
   22.695    1.0707
   22.710    1.1585
   22.725    0.9654
   22.740    1.0005
   22.755    1.3340
   22.770    1.1761
   22.785    1.1058
   22.800    1.2814
   22.815    1.1936
   22.830    1.0005
   22.845    1.3165
   22.860    1.6149
   22.875    1.5622
   22.890    1.3165
   22.905    1.2814
   22.920    1.2112
   22.935    1.2989
   22.950    1.1936
   22.965    1.0356
   22.980    1.1936
   22.995    1.2112
   23.010    1.1585
   23.025    1.0707
   23.040    1.1761
   23.055    1.1410
   23.070    1.0532
   23.085    1.0181
   23.100    0.9654
   23.115    0.8601
   23.130    0.9479
   23.145    1.0181
   23.160    0.9303
   23.175    0.9830
   23.190    1.0883
   23.205    1.2814
   23.220    1.0005
   23.235    1.1058
   23.250    1.0356
   23.265    1.1410
   23.280    0.9654
   23.295    1.1234
   23.310    1.0356
   23.325    1.1058
   23.340    1.0356
   23.355    0.9479
   23.370    1.0005
   23.385    1.0883
   23.400    1.0707
   23.415    1.0707
   23.430    1.1058
   23.445    1.0181
   23.460    0.9654
   23.475    0.9830
   23.490    0.8601
   23.505    1.2814
   23.520    1.1761
   23.535    0.8250
   23.550    1.0181
   23.565    0.9830
   23.580    0.9479
   23.595    0.9303
   23.610    0.8777
   23.625    0.9303
   23.640    1.0532
   23.655    1.0181
   23.670    1.1234
   23.685    1.0707
   23.700    1.1585
   23.715    1.0356
   23.730    0.8952
   23.745    0.8952
   23.760    0.9479
   23.775    1.1234
   23.790    1.1410
   23.805    0.9303
   23.820    0.8601
   23.835    1.0707
   23.850    1.0356
   23.865    1.1761
   23.880    1.1761
   23.895    1.2112
   23.910    1.1936
   23.925    1.1761
   23.940    1.0707
   23.955    1.0883
   23.970    1.0707
   23.985    1.1234
   24.000    0.8952
   24.015    1.0181
   24.030    1.0707
   24.045    1.1234
   24.060    1.0707
   24.075    0.8601
   24.090    0.8952
   24.105    1.0181
   24.120    1.0707
   24.135    0.9128
   24.150    0.9654
   24.165    1.1936
   24.180    0.9303
   24.195    0.9128
   24.210    0.9654
   24.225    0.9830
   24.240    0.8601
   24.255    0.9128
   24.270    0.9303
   24.285    1.1410
   24.300    1.0181
   24.315    0.6670
   24.330    0.9303
   24.345    0.9479
   24.360    0.9830
   24.375    0.8601
   24.390    1.0532
   24.405    0.9128
   24.420    0.7197
   24.435    1.0356
   24.450    0.9830
   24.465    1.0883
   24.480    1.0005
   24.495    0.7723
   24.510    0.6495
   24.525    0.9830
   24.540    1.0707
   24.555    1.2112
   24.570    1.2989
   24.585    0.9830
   24.600    1.0181
   24.615    0.9303
   24.630    0.9830
   24.645    0.9654
   24.660    0.8601
   24.675    0.9479
   24.690    1.0356
   24.705    1.1234
   24.720    0.8952
   24.735    0.8601
   24.750    0.8425
   24.765    0.9128
   24.780    0.9830
   24.795    0.8952
   24.810    1.0005
   24.825    0.9830
   24.840    1.0356
   24.855    1.3165
   24.870    1.1585
   24.885    0.9479
   24.900    0.8074
   24.915    0.8777
   24.930    1.0707
   24.945    1.1058
   24.960    0.9479
   24.975    0.8777
   24.990    0.9479
   25.005    0.8425
   25.020    0.8601
   25.035    1.0356
   25.050    0.8952
   25.065    1.0883
   25.080    0.8777
   25.095    0.8952
   25.110    0.9830
   25.125    1.0356
   25.140    1.0707
   25.155    1.0532
   25.170    0.7899
   25.185    0.9479
   25.200    0.9479
   25.215    1.0707
   25.230    0.9479
   25.245    1.0181
   25.260    1.0707
   25.275    1.0181
   25.290    0.9128
   25.305    0.9479
   25.320    0.9654
   25.335    0.7197
   25.350    0.9303
   25.365    0.8601
   25.380    1.0707
   25.395    1.0356
   25.410    0.8777
   25.425    1.0181
   25.440    0.9830
   25.455    0.8952
   25.470    1.0356
   25.485    0.9303
   25.500    1.0181
   25.515    0.9654
   25.530    0.8777
   25.545    0.9654
   25.560    1.1058
   25.575    1.0356
   25.590    1.1234
   25.605    1.1585
   25.620    0.9654
   25.635    0.9128
   25.650    0.8952
   25.665    0.8601
   25.680    1.0005
   25.695    1.1234
   25.710    1.1234
   25.725    0.9479
   25.740    0.9128
   25.755    1.0181
   25.770    1.0356
   25.785    1.2287
   25.800    1.0532
   25.815    1.2287
   25.830    1.0883
   25.845    1.1410
   25.860    1.1234
   25.875    1.0883
   25.890    0.7197
   25.905    0.9479
   25.920    1.0181
   25.935    0.9128
   25.950    0.9128
   25.965    0.9479
   25.980    1.0707
   25.995    0.9303
   26.010    0.9128
   26.025    0.9654
   26.040    0.9830
   26.055    1.1058
   26.070    1.0181
   26.085    0.8952
   26.100    0.9830
   26.115    0.9654
   26.130    1.0181
   26.145    0.9654
   26.160    0.6670
   26.175    0.8777
   26.190    0.9303
   26.205    1.0707
   26.220    0.9303
   26.235    0.8777
   26.250    0.9303
   26.265    0.9479
   26.280    1.0356
   26.295    1.0181
   26.310    0.8425
   26.325    0.9128
   26.340    0.9303
   26.355    0.8777
   26.370    1.0005
   26.385    1.0181
   26.400    0.8952
   26.415    0.8074
   26.430    1.0707
   26.445    0.9830
   26.460    1.0005
   26.475    0.9303
   26.490    0.9128
   26.505    1.0707
   26.520    1.0883
   26.535    1.0883
   26.550    1.0005
   26.565    0.8601
   26.580    0.9654
   26.595    0.9303
   26.610    1.0005
   26.625    0.9303
   26.640    0.8952
   26.655    1.0181
   26.670    0.9830
   26.685    0.9830
   26.700    0.9303
   26.715    1.0356
   26.730    1.0707
   26.745    1.0883
   26.760    0.9479
   26.775    0.8952
   26.790    0.9128
   26.805    0.9128
   26.820    0.9654
   26.835    0.8952
   26.850    0.9128
   26.865    0.9830
   26.880    0.8952
   26.895    1.0707
   26.910    1.0532
   26.925    1.0005
   26.940    1.2463
   26.955    1.0707
   26.970    0.9303
   26.985    0.9479
   27.000    0.9830
   27.015    1.0707
   27.030    0.9830
   27.045    1.0356
   27.060    1.0532
   27.075    0.8777
   27.090    1.0005
   27.105    0.8250
   27.120    1.1761
   27.135    0.9479
   27.150    1.0181
   27.165    1.0707
   27.180    0.8777
   27.195    0.8777
   27.210    0.8952
   27.225    1.1936
   27.240    0.9303
   27.255    0.8425
   27.270    1.0532
   27.285    1.0005
   27.300    1.1585
   27.315    0.8074
   27.330    0.7548
   27.345    0.8250
   27.360    0.8601
   27.375    0.7899
   27.390    1.0356
   27.405    0.9830
   27.420    0.9830
   27.435    0.8601
   27.450    0.9830
   27.465    0.8250
   27.480    0.9654
   27.495    0.8250
   27.510    0.8952
   27.525    1.1058
   27.540    1.0005
   27.555    1.0707
   27.570    0.8425
   27.585    0.9654
   27.600    0.9830
   27.615    1.0883
   27.630    1.2989
   27.645    1.2112
   27.660    1.1410
   27.675    1.0883
   27.690    1.0181
   27.705    0.8601
   27.720    1.0883
   27.735    0.9830
   27.750    0.8074
   27.765    0.9128
   27.780    0.9128
   27.795    0.9303
   27.810    1.1058
   27.825    1.1058
   27.840    0.9303
   27.855    1.0707
   27.870    0.9479
   27.885    0.8601
   27.900    0.8074
   27.915    0.9479
   27.930    0.9479
   27.945    1.0356
   27.960    0.8952
   27.975    0.9128
   27.990    0.9128
   28.005    0.8777
   28.020    1.1234
   28.035    0.9303
   28.050    1.0532
   28.065    1.1058
   28.080    0.9128
   28.095    0.8074
   28.110    1.0005
   28.125    1.0181
   28.140    0.9830
   28.155    0.8777
   28.170    1.0181
   28.185    0.9654
   28.200    0.9654
   28.215    1.0181
   28.230    1.0181
   28.245    0.8952
   28.260    1.1234
   28.275    1.1234
   28.290    1.0181
   28.305    1.0005
   28.320    1.1234
   28.335    0.8425
   28.350    0.7899
   28.365    0.8952
   28.380    0.8425
   28.395    0.8425
   28.410    0.8250
   28.425    1.0356
   28.440    1.1410
   28.455    1.1936
   28.470    0.8425
   28.485    0.8250
   28.500    0.9830
   28.515    1.0883
   28.530    1.1234
   28.545    1.0005
   28.560    0.9654
   28.575    1.0356
   28.590    1.0532
   28.605    1.0181
   28.620    1.0707
   28.635    0.8952
   28.650    0.8952
   28.665    1.0532
   28.680    0.9303
   28.695    0.7548
   28.710    0.7723
   28.725    0.8425
   28.740    0.8250
   28.755    0.8074
   28.770    0.9479
   28.785    0.8601
   28.800    0.8250
   28.815    1.0356
   28.830    0.7899
   28.845    0.7899
   28.860    0.7548
   28.875    1.0005
   28.890    1.0005
   28.905    0.9303
   28.920    0.9830
   28.935    0.8074
   28.950    0.9479
   28.965    1.0181
   28.980    0.9479
   28.995    0.7723
   29.010    1.0005
   29.025    1.0707
   29.040    0.8601
   29.055    0.9303
   29.070    0.8250
   29.085    0.6846
   29.100    1.0181
   29.115    1.0532
   29.130    0.8777
   29.145    0.9303
   29.160    0.8601
   29.175    0.8952
   29.190    0.8777
   29.205    1.1585
   29.220    0.9303
   29.235    0.9830
   29.250    1.0181
   29.265    0.8777
   29.280    1.0181
   29.295    0.9654
   29.310    1.0181
   29.325    0.9303
   29.340    1.0532
   29.355    1.0532
   29.370    1.0707
   29.385    1.0883
   29.400    0.6670
   29.415    1.1585
   29.430    0.9654
   29.445    0.9479
   29.460    0.9303
   29.475    1.1234
   29.490    0.9303
   29.505    1.0005
   29.520    1.0181
   29.535    0.8250
   29.550    0.9128
   29.565    0.8250
   29.580    0.9479
   29.595    0.8601
   29.610    0.8952
   29.625    0.9128
   29.640    0.8601
   29.655    0.8074
   29.670    0.9303
   29.685    1.0356
   29.700    0.8425
   29.715    0.9830
   29.730    0.7548
   29.745    0.9830
   29.760    0.9303
   29.775    1.2989
   29.790    1.3165
   29.805    0.9479
   29.820    0.8425
   29.835    0.9830
   29.850    0.8777
   29.865    0.9128
   29.880    0.7723
   29.895    0.7372
   29.910    0.6319
   29.925    0.8601
   29.940    1.0005
   29.955    1.0181
   29.970    0.8250
   29.985    0.8777
   30.000    0.9128
   30.015    0.9830
   30.030    0.9303
   30.045    0.8074
   30.060    0.8250
   30.075    0.8250
   30.090    0.8601
   30.105    1.0707
   30.120    0.8601
   30.135    0.9830
   30.150    1.1761
   30.165    0.9479
   30.180    1.0532
   30.195    0.9830
   30.210    1.0005
   30.225    0.8777
   30.240    0.8601
   30.255    0.6846
   30.270    0.8074
   30.285    0.9128
   30.300    0.9830
   30.315    1.0707
   30.330    0.9654
   30.345    0.9830
   30.360    0.8952
   30.375    0.9479
   30.390    0.9654
   30.405    0.9128
   30.420    0.8425
   30.435    0.8425
   30.450    0.8952
   30.465    0.9128
   30.480    0.9128
   30.495    0.9303
   30.510    0.9830
   30.525    0.8074
   30.540    0.7723
   30.555    0.8074
   30.570    0.7723
   30.585    0.7548
   30.600    1.0181
   30.615    0.9830
   30.630    0.7899
   30.645    0.7372
   30.660    0.8777
   30.675    0.9303
   30.690    0.8425
   30.705    0.8952
   30.720    0.9654
   30.735    0.8074
   30.750    1.0005
   30.765    1.0356
   30.780    0.8425
   30.795    0.9830
   30.810    0.8952
   30.825    0.8952
   30.840    0.8074
   30.855    0.9479
   30.870    0.9654
   30.885    0.7548
   30.900    0.7197
   30.915    0.7723
   30.930    0.7723
   30.945    1.0532
   30.960    0.8425
   30.975    0.8952
   30.990    0.7197
   31.005    0.8601
   31.020    0.8250
   31.035    0.9128
   31.050    0.9654
   31.065    1.0707
   31.080    0.9479
   31.095    0.7548
   31.110    0.6670
   31.125    0.6144
   31.140    0.7723
   31.155    0.8074
   31.170    0.8074
   31.185    0.8952
   31.200    0.9479
   31.215    0.6846
   31.230    0.8425
   31.245    0.8952
   31.260    0.8952
   31.275    1.0532
   31.290    0.9654
   31.305    1.0181
   31.320    0.9654
   31.335    1.0005
   31.350    0.9128
   31.365    0.7021
   31.380    0.9303
   31.395    0.9128
   31.410    0.9479
   31.425    0.8074
   31.440    0.8074
   31.455    0.8074
   31.470    0.8074
   31.485    0.7372
   31.500    0.8601
   31.515    0.9479
   31.530    0.8425
   31.545    0.8777
   31.560    0.8425
   31.575    0.8952
   31.590    1.0707
   31.605    0.8601
   31.620    0.8777
   31.635    0.9128
   31.650    0.6670
   31.665    0.8250
   31.680    0.7899
   31.695    1.1058
   31.710    0.8777
   31.725    1.0005
   31.740    0.9479
   31.755    0.9654
   31.770    0.9479
   31.785    0.9128
   31.800    0.8952
   31.815    0.9128
   31.830    0.9479
   31.845    1.0356
   31.860    1.0181
   31.875    0.8250
   31.890    0.8250
   31.905    0.8425
   31.920    0.8250
   31.935    0.8952
   31.950    0.7548
   31.965    0.8601
   31.980    0.7899
   31.995    0.8952
   32.010    0.8777
   32.025    0.8601
   32.040    0.8777
   32.055    1.0181
   32.070    1.0707
   32.085    1.1585
   32.100    0.9128
   32.115    0.8601
   32.130    0.9303
   32.145    1.0181
   32.160    1.1234
   32.175    1.0883
   32.190    0.8952
   32.205    0.9128
   32.220    0.7372
   32.235    0.8074
   32.250    0.7021
   32.265    0.8074
   32.280    0.9303
   32.295    0.9479
   32.310    0.7197
   32.325    1.0181
   32.340    0.9303
   32.355    0.7899
   32.370    0.8425
   32.385    0.8952
   32.400    0.8074
   32.415    0.6846
   32.430    0.7899
   32.445    1.0181
   32.460    0.9128
   32.475    0.9128
   32.490    0.7372
   32.505    0.8074
   32.520    0.9303
   32.535    0.7548
   32.550    0.9128
   32.565    1.0005
   32.580    0.7197
   32.595    0.8074
   32.610    0.7548
   32.625    0.7899
   32.640    1.0532
   32.655    0.9830
   32.670    0.9128
   32.685    0.7548
   32.700    0.9303
   32.715    0.7723
   32.730    0.8074
   32.745    0.6670
   32.760    0.6319
   32.775    0.6495
   32.790    0.8425
   32.805    0.9830
   32.820    1.0532
   32.835    1.0181
   32.850    0.8601
   32.865    0.7899
   32.880    0.8952
   32.895    0.7197
   32.910    0.9479
   32.925    0.6846
   32.940    0.9830
   32.955    0.8952
   32.970    0.8952
   32.985    0.8425
   33.000    0.7723
   33.015    0.9654
   33.030    0.8074
   33.045    0.6495
   33.060    0.5968
   33.075    0.7723
   33.090    0.8601
   33.105    0.8601
   33.120    0.9128
   33.135    0.9654
   33.150    0.8952
   33.165    0.7899
   33.180    0.7197
   33.195    0.6670
   33.210    0.8777
   33.225    0.8074
   33.240    0.8074
   33.255    0.8250
   33.270    0.8777
   33.285    0.7723
   33.300    0.8601
   33.315    0.7899
   33.330    0.9654
   33.345    0.7899
   33.360    0.8601
   33.375    0.8777
   33.390    0.9128
   33.405    0.7723
   33.420    0.8601
   33.435    0.8425
   33.450    0.9654
   33.465    1.0005
   33.480    0.7372
   33.495    0.8777
   33.510    1.0005
   33.525    0.8952
   33.540    0.9654
   33.555    1.0181
   33.570    0.9128
   33.585    0.7372
   33.600    0.8250
   33.615    0.9303
   33.630    0.7548
   33.645    1.0005
   33.660    0.9479
   33.675    0.8777
   33.690    0.9128
   33.705    0.8425
   33.720    0.7021
   33.735    0.9654
   33.750    1.0181
   33.765    0.8425
   33.780    0.7899
   33.795    0.7197
   33.810    0.7021
   33.825    0.9654
   33.840    0.8074
   33.855    1.0005
   33.870    0.7899
   33.885    0.9654
   33.900    0.9654
   33.915    0.8952
   33.930    0.7197
   33.945    0.8250
   33.960    0.9654
   33.975    0.9479
   33.990    1.0181
   34.005    0.9479
   34.020    0.7548
   34.035    0.7899
   34.050    0.8777
   34.065    0.8425
   34.080    1.0005
   34.095    0.7899
   34.110    0.9128
   34.125    0.9654
   34.140    1.0532
   34.155    0.8952
   34.170    0.7021
   34.185    0.6670
   34.200    0.8952
   34.215    0.9479
   34.230    0.8777
   34.245    0.8250
   34.260    0.8425
   34.275    0.8425
   34.290    0.8952
   34.305    0.8777
   34.320    0.8777
   34.335    0.9830
   34.350    0.8952
   34.365    0.9830
   34.380    0.6495
   34.395    0.7021
   34.410    0.8777
   34.425    0.7372
   34.440    0.8601
   34.455    0.7197
   34.470    0.8601
   34.485    0.7197
   34.500    0.8777
   34.515    0.7723
   34.530    0.6670
   34.545    0.8425
   34.560    1.0005
   34.575    0.7723
   34.590    0.6670
   34.605    0.8250
   34.620    0.8601
   34.635    0.9479
   34.650    0.8777
   34.665    0.8425
   34.680    0.7197
   34.695    1.0181
   34.710    0.8250
   34.725    0.8777
   34.740    1.0532
   34.755    0.9303
   34.770    0.8952
   34.785    0.8425
   34.800    0.7899
   34.815    0.8601
   34.830    0.8601
   34.845    0.7723
   34.860    0.8952
   34.875    0.9479
   34.890    0.9479
   34.905    1.0532
   34.920    1.0883
   34.935    1.0005
   34.950    0.8074
   34.965    0.7372
   34.980    0.8425
   34.995    0.9830
   35.010    0.7372
   35.025    0.7723
   35.040    0.8425
   35.055    0.9654
   35.070    0.7723
   35.085    0.8777
   35.100    0.8601
   35.115    0.7548
   35.130    0.7548
   35.145    0.7723
   35.160    0.7197
   35.175    0.9654
   35.190    0.8074
   35.205    0.6319
   35.220    0.7021
   35.235    0.9479
   35.250    1.1234
   35.265    0.8601
   35.280    0.9303
   35.295    0.7548
   35.310    0.7021
   35.325    0.8952
   35.340    0.7899
   35.355    0.8250
   35.370    0.8250
   35.385    0.7723
   35.400    0.7021
   35.415    0.7723
   35.430    0.9830
   35.445    0.8777
   35.460    0.8425
   35.475    0.8425
   35.490    0.8601
   35.505    0.6670
   35.520    0.7021
   35.535    0.7723
   35.550    0.8074
   35.565    0.9128
   35.580    1.0005
   35.595    1.0707
   35.610    0.9479
   35.625    0.7899
   35.640    0.7899
   35.655    0.7548
   35.670    0.6846
   35.685    0.7899
   35.700    0.8777
   35.715    0.9654
   35.730    0.7899
   35.745    0.7548
   35.760    0.8074
   35.775    0.7548
   35.790    0.9830
   35.805    0.9654
   35.820    0.9303
   35.835    0.8250
   35.850    0.8777
   35.865    0.7372
   35.880    0.8425
   35.895    0.7723
   35.910    0.6319
   35.925    0.9654
   35.940    0.9830
   35.955    0.9128
   35.970    0.8074
   35.985    0.8425
   36.000    0.7548
   36.015    0.6495
   36.030    0.7372
   36.045    0.8601
   36.060    0.7372
   36.075    0.8425
   36.090    0.7899
   36.105    0.7372
   36.120    0.8074
   36.135    0.7197
   36.150    0.8074
   36.165    0.8952
   36.180    0.7372
   36.195    0.7723
   36.210    0.7548
   36.225    0.7723
   36.240    0.8074
   36.255    0.7372
   36.270    0.6495
   36.285    0.6846
   36.300    0.7723
   36.315    0.7372
   36.330    0.8601
   36.345    0.6846
   36.360    0.7197
   36.375    0.7723
   36.390    0.8074
   36.405    0.8250
   36.420    0.8074
   36.435    0.7372
   36.450    0.9479
   36.465    0.7723
   36.480    0.7899
   36.495    0.8425
   36.510    0.8425
   36.525    0.8777
   36.540    0.7197
   36.555    0.6670
   36.570    0.7548
   36.585    0.8250
   36.600    0.9303
   36.615    0.9479
   36.630    0.7197
   36.645    0.6846
   36.660    0.7372
   36.675    0.8952
   36.690    0.8952
   36.705    0.7723
   36.720    0.7372
   36.735    0.8074
   36.750    0.8425
   36.765    0.8425
   36.780    0.7899
   36.795    0.8250
   36.810    0.7197
   36.825    0.6670
   36.840    0.6319
   36.855    0.7723
   36.870    0.9830
   36.885    0.9128
   36.900    0.8425
   36.915    0.8952
   36.930    0.9128
   36.945    0.7021
   36.960    0.9654
   36.975    0.8250
   36.990    0.5266
   37.005    0.8952
   37.020    0.8777
   37.035    0.7197
   37.050    0.7021
   37.065    0.8952
   37.080    1.0181
   37.095    0.7723
   37.110    0.8425
   37.125    0.6670
   37.140    0.7372
   37.155    0.9128
   37.170    0.9654
   37.185    0.9303
   37.200    0.6670
   37.215    0.7372
   37.230    0.8250
   37.245    0.8601
   37.260    0.8952
   37.275    0.8425
   37.290    0.7197
   37.305    0.8601
   37.320    0.9128
   37.335    0.7021
   37.350    0.8425
   37.365    0.7899
   37.380    0.6495
   37.395    0.7197
   37.410    0.8074
   37.425    0.9128
   37.440    0.8777
   37.455    0.8074
   37.470    0.7197
   37.485    0.6144
   37.500    0.6495
   37.515    0.7548
   37.530    0.9479
   37.545    0.8952
   37.560    0.8425
   37.575    0.7197
   37.590    0.6846
   37.605    0.7899
   37.620    0.7723
   37.635    0.9128
   37.650    0.9303
   37.665    0.9303
   37.680    0.9479
   37.695    0.7548
   37.710    0.7197
   37.725    0.8601
   37.740    0.7723
   37.755    0.9303
   37.770    0.9654
   37.785    0.7197
   37.800    0.6495
   37.815    0.8074
   37.830    0.8777
   37.845    1.0356
   37.860    0.6670
   37.875    0.7372
   37.890    0.6846
   37.905    0.8425
   37.920    1.0532
   37.935    0.9830
   37.950    0.7548
   37.965    0.7197
   37.980    0.8777
   37.995    0.8250
   38.010    0.8250
   38.025    0.9479
   38.040    0.8952
   38.055    1.0356
   38.070    0.9128
   38.085    0.7899
   38.100    0.8601
   38.115    0.9128
   38.130    0.7723
   38.145    0.7723
   38.160    0.7197
   38.175    0.7197
   38.190    0.6495
   38.205    0.8425
   38.220    0.9654
   38.235    0.7899
   38.250    0.7197
   38.265    0.7723
   38.280    0.7197
   38.295    0.8074
   38.310    0.9128
   38.325    0.9128
   38.340    0.8601
   38.355    0.7548
   38.370    0.8074
   38.385    0.6846
   38.400    0.7548
   38.415    0.6670
   38.430    0.7899
   38.445    0.6846
   38.460    0.7899
   38.475    0.7197
   38.490    0.6319
   38.505    0.6495
   38.520    0.7021
   38.535    0.8250
   38.550    0.8074
   38.565    0.8777
   38.580    0.7899
   38.595    0.7723
   38.610    0.7899
   38.625    0.8074
   38.640    0.7548
   38.655    0.8601
   38.670    0.7723
   38.685    0.6846
   38.700    0.8250
   38.715    0.8601
   38.730    0.7197
   38.745    0.6495
   38.760    0.9128
   38.775    0.8250
   38.790    0.7723
   38.805    1.0005
   38.820    0.7899
   38.835    0.7021
   38.850    0.7372
   38.865    0.8601
   38.880    0.7723
   38.895    0.8425
   38.910    0.7197
   38.925    0.7372
   38.940    0.7548
   38.955    0.7372
   38.970    0.7899
   38.985    0.7021
   39.000    0.8601
   39.015    0.7548
   39.030    0.7723
   39.045    0.8601
   39.060    0.9479
   39.075    0.8952
   39.090    0.8601
   39.105    0.7197
   39.120    0.7372
   39.135    0.7021
   39.150    0.7021
   39.165    0.7372
   39.180    0.7372
   39.195    0.6846
   39.210    0.6495
   39.225    0.9303
   39.240    0.8601
   39.255    0.8425
   39.270    0.6319
   39.285    0.7548
   39.300    0.7548
   39.315    1.0005
   39.330    0.8952
   39.345    0.8777
   39.360    0.8074
   39.375    0.7372
   39.390    0.8074
   39.405    0.7723
   39.420    0.8777
   39.435    0.6846
   39.450    0.6846
   39.465    0.8425
   39.480    0.8074
   39.495    0.7899
   39.510    0.8250
   39.525    0.8425
   39.540    0.6846
   39.555    0.8074
   39.570    0.7548
   39.585    0.7021
   39.600    0.7372
   39.615    0.6495
   39.630    0.7548
   39.645    0.8952
   39.660    0.7723
   39.675    0.6495
   39.690    0.6319
   39.705    0.7548
   39.720    0.7899
   39.735    0.8074
   39.750    0.8777
   39.765    0.7021
   39.780    0.6670
   39.795    0.7899
   39.810    0.8952
   39.825    0.7197
   39.840    0.9303
   39.855    0.8601
   39.870    0.7021
   39.885    0.7021
   39.900    0.7723
   39.915    0.8074
   39.930    1.0356
   39.945    0.8601
   39.960    0.7372
   39.975    0.8777
   39.990    0.9479
   40.005    0.8250
   40.020    0.9303
   40.035    0.7723
   40.050    0.7723
   40.065    0.7723
   40.080    0.7723
   40.095    0.7021
   40.110    0.8074
   40.125    0.7197
   40.140    0.7548
   40.155    0.6319
   40.170    0.7548
   40.185    0.6846
   40.200    0.8425
   40.215    0.7197
   40.230    0.6670
   40.245    0.6319
   40.260    0.7723
   40.275    0.7548
   40.290    0.7197
   40.305    0.7021
   40.320    0.8952
   40.335    0.8425
   40.350    0.8601
   40.365    1.0005
   40.380    0.8601
   40.395    0.8074
   40.410    0.7548
   40.425    0.8601
   40.440    0.7723
   40.455    0.6670
   40.470    0.6846
   40.485    0.7899
   40.500    0.8250
   40.515    0.7899
   40.530    0.7899
   40.545    0.7372
   40.560    0.6846
   40.575    0.8952
   40.590    0.6144
   40.605    0.7372
   40.620    0.9479
   40.635    0.7548
   40.650    0.9128
   40.665    0.8601
   40.680    0.7197
   40.695    0.7021
   40.710    0.7723
   40.725    0.9128
   40.740    0.7723
   40.755    0.7372
   40.770    0.7723
   40.785    0.6319
   40.800    0.8250
   40.815    0.8250
   40.830    0.7021
   40.845    0.6670
   40.860    0.7548
   40.875    0.7197
   40.890    0.8074
   40.905    0.6670
   40.920    0.8074
   40.935    0.8250
   40.950    0.8777
   40.965    0.6495
   40.980    0.8601
   40.995    0.7372
   41.010    0.6846
   41.025    0.8601
   41.040    0.8074
   41.055    0.7548
   41.070    1.0005
   41.085    0.8250
   41.100    0.7021
   41.115    0.7548
   41.130    0.7372
   41.145    0.8425
   41.160    0.7197
   41.175    0.6495
   41.190    0.9479
   41.205    0.8425
   41.220    0.7899
   41.235    0.7021
   41.250    0.5968
   41.265    0.7372
   41.280    0.7197
   41.295    0.8425
   41.310    0.8425
   41.325    0.7372
   41.340    0.8952
   41.355    0.8250
   41.370    0.8250
   41.385    0.9830
   41.400    0.9479
   41.415    0.7548
   41.430    0.7197
   41.445    0.7723
   41.460    0.7899
   41.475    0.8777
   41.490    0.6670
   41.505    0.8074
   41.520    0.7723
   41.535    0.7723
   41.550    0.6495
   41.565    0.7021
   41.580    0.7723
   41.595    0.8601
   41.610    0.9830
   41.625    0.8250
   41.640    0.5793
   41.655    0.8074
   41.670    0.8425
   41.685    0.7548
   41.700    0.9654
   41.715    0.7723
   41.730    0.6846
   41.745    0.7021
   41.760    0.8074
   41.775    0.8250
   41.790    0.6670
   41.805    0.6144
   41.820    0.8074
   41.835    0.6319
   41.850    0.7723
   41.865    0.7723
   41.880    0.7548
   41.895    0.6670
   41.910    0.8250
   41.925    0.8777
   41.940    0.9128
   41.955    0.8074
   41.970    0.6846
   41.985    0.7372
   42.000    0.7197
   42.015    0.8425
   42.030    0.6670
   42.045    0.8425
   42.060    0.7899
   42.075    0.6670
   42.090    0.8952
   42.105    0.8777
   42.120    0.7197
   42.135    0.9128
   42.150    1.0005
   42.165    0.8952
   42.180    0.7197
   42.195    0.8425
   42.210    0.7899
   42.225    0.7548
   42.240    0.7723
   42.255    0.7899
   42.270    0.7197
   42.285    0.8074
   42.300    0.5968
   42.315    0.6319
   42.330    0.7021
   42.345    0.6670
   42.360    0.8250
   42.375    0.6495
   42.390    0.6670
   42.405    0.8601
   42.420    0.7548
   42.435    0.8074
   42.450    0.7548
   42.465    0.6495
   42.480    0.8952
   42.495    0.8074
   42.510    0.6495
   42.525    0.7548
   42.540    0.8601
   42.555    0.7723
   42.570    0.6846
   42.585    0.8425
   42.600    0.9128
   42.615    0.8250
   42.630    0.7197
   42.645    0.6144
   42.660    0.7548
   42.675    1.0532
   42.690    0.7372
   42.705    0.7548
   42.720    0.7372
   42.735    0.8425
   42.750    0.7899
   42.765    0.6670
   42.780    0.6495
   42.795    0.6319
   42.810    0.6846
   42.825    0.7548
   42.840    0.8952
   42.855    0.7723
   42.870    0.9830
   42.885    0.9128
   42.900    0.6846
   42.915    0.7548
   42.930    0.5441
   42.945    0.7372
   42.960    0.6144
   42.975    0.6846
   42.990    0.6846
   43.005    0.7899
   43.020    0.7899
   43.035    0.6144
   43.050    0.7899
   43.065    0.7021
   43.080    0.8250
   43.095    0.8250
   43.110    0.8601
   43.125    0.8425
   43.140    0.7548
   43.155    0.7372
   43.170    0.6846
   43.185    0.9830
   43.200    0.8777
   43.215    0.8601
   43.230    0.8425
   43.245    0.7899
   43.260    0.8777
   43.275    0.8425
   43.290    0.7197
   43.305    0.8601
   43.320    0.7548
   43.335    0.6495
   43.350    0.6319
   43.365    0.7723
   43.380    0.8777
   43.395    0.8250
   43.410    0.6319
   43.425    0.7197
   43.440    0.8777
   43.455    0.7021
   43.470    0.7548
   43.485    0.8777
   43.500    0.8777
   43.515    0.8601
   43.530    0.7372
   43.545    0.6670
   43.560    0.8250
   43.575    0.8074
   43.590    0.8074
   43.605    0.7548
   43.620    0.6495
   43.635    0.6670
   43.650    0.7899
   43.665    0.8777
   43.680    0.7723
   43.695    0.8074
   43.710    0.9830
   43.725    0.8425
   43.740    0.7021
   43.755    0.7197
   43.770    0.9128
   43.785    0.7723
   43.800    0.6495
   43.815    0.8250
   43.830    0.8952
   43.845    0.9830
   43.860    0.9479
   43.875    0.8074
   43.890    0.9303
   43.905    0.9303
   43.920    0.8777
   43.935    0.6319
   43.950    0.6846
   43.965    0.7021
   43.980    0.6846
   43.995    0.9479
   44.010    0.8074
   44.025    0.7548
   44.040    0.7899
   44.055    0.8425
   44.070    0.8074
   44.085    0.8074
   44.100    0.7197
   44.115    0.8601
   44.130    0.6495
   44.145    0.8601
   44.160    0.6846
   44.175    0.6846
   44.190    0.6319
   44.205    0.6670
   44.220    0.5793
   44.235    0.5793
   44.250    0.8425
   44.265    0.8250
   44.280    0.7372
   44.295    0.7021
   44.310    0.7723
   44.325    0.8425
   44.340    0.5793
   44.355    0.8074
   44.370    0.6495
   44.385    0.7021
   44.400    0.8250
   44.415    0.7723
   44.430    0.7899
   44.445    0.6144
   44.460    0.7197
   44.475    0.7372
   44.490    0.6670
   44.505    0.6144
   44.520    0.6670
   44.535    0.7548
   44.550    0.8601
   44.565    0.7548
   44.580    0.6670
   44.595    0.7723
   44.610    0.7372
   44.625    0.6495
   44.640    0.7197
   44.655    0.6670
   44.670    0.6670
   44.685    0.7197
   44.700    0.5968
   44.715    0.7021
   44.730    0.7372
   44.745    0.6495
   44.760    0.7548
   44.775    0.7899
   44.790    0.7372
   44.805    0.8601
   44.820    0.7723
   44.835    0.9479
   44.850    0.8952
   44.865    0.7723
   44.880    0.6846
   44.895    0.5266
   44.910    0.6495
   44.925    0.7197
   44.940    0.5617
   44.955    0.5617
   44.970    0.6846
   44.985    0.8074
   45.000    0.8952
   45.015    0.9303
   45.030    0.8074
   45.045    0.7899
   45.060    0.9303
   45.075    0.6670
   45.090    0.7899
   45.105    0.7372
   45.120    0.7372
   45.135    0.7548
   45.150    0.7197
   45.165    0.7372
   45.180    0.7372
   45.195    0.6670
   45.210    0.7372
   45.225    0.8250
   45.240    0.7197
   45.255    0.7021
   45.270    0.6319
   45.285    0.7899
   45.300    0.7548
   45.315    0.6670
   45.330    0.6846
   45.345    0.6846
   45.360    0.6670
   45.375    0.5793
   45.390    0.6495
   45.405    0.6144
   45.420    0.7372
   45.435    0.8601
   45.450    0.8074
   45.465    0.7723
   45.480    0.6670
   45.495    0.7372
   45.510    0.8425
   45.525    0.7197
   45.540    0.7021
   45.555    0.6144
   45.570    0.5617
   45.585    0.5793
   45.600    0.6846
   45.615    0.6670
   45.630    0.6144
   45.645    0.9303
   45.660    0.8952
   45.675    0.8952
   45.690    0.7899
   45.705    0.9479
   45.720    0.7723
   45.735    0.7899
   45.750    0.7197
   45.765    0.7197
   45.780    0.8952
   45.795    0.7021
   45.810    0.7723
   45.825    0.7899
   45.840    0.7548
   45.855    0.8425
   45.870    0.6495
   45.885    0.6495
   45.900    0.6495
   45.915    0.7723
   45.930    0.8952
   45.945    0.8074
   45.960    0.5441
   45.975    0.7197
   45.990    0.7372
   46.005    0.7372
   46.020    0.8250
   46.035    0.8425
   46.050    0.8777
   46.065    0.8074
   46.080    0.5968
   46.095    0.5617
   46.110    0.7021
   46.125    0.8601
   46.140    0.8074
   46.155    0.8250
   46.170    0.7197
   46.185    0.7548
   46.200    0.6670
   46.215    0.6144
   46.230    0.5441
   46.245    0.5968
   46.260    0.7372
   46.275    0.6144
   46.290    0.7197
   46.305    0.6846
   46.320    0.6670
   46.335    0.7723
   46.350    0.6319
   46.365    0.7723
   46.380    0.7548
   46.395    0.8777
   46.410    0.8074
   46.425    0.8250
   46.440    0.7197
   46.455    0.7021
   46.470    0.7372
   46.485    0.8601
   46.500    0.6846
   46.515    0.5968
   46.530    0.7723
   46.545    0.6846
   46.560    0.6495
   46.575    0.8777
   46.590    0.7899
   46.605    0.6846
   46.620    0.5617
   46.635    0.6495
   46.650    0.7021
   46.665    0.6144
   46.680    0.8074
   46.695    0.9128
   46.710    0.7197
   46.725    0.8250
   46.740    0.6670
   46.755    0.6495
   46.770    0.8250
   46.785    0.6846
   46.800    0.7372
   46.815    0.8250
   46.830    0.7021
   46.845    0.7372
   46.860    0.7723
   46.875    0.8250
   46.890    0.8601
   46.905    0.7197
   46.920    0.6144
   46.935    0.6670
   46.950    0.5441
   46.965    0.7021
   46.980    0.6846
   46.995    0.6144
   47.010    0.8601
   47.025    0.7197
   47.040    0.7548
   47.055    0.7197
   47.070    0.8250
   47.085    0.7197
   47.100    0.7197
   47.115    0.5968
   47.130    0.6144
   47.145    0.7021
   47.160    0.7899
   47.175    0.8601
   47.190    0.8425
   47.205    0.6846
   47.220    0.6846
   47.235    0.8777
   47.250    0.8601
   47.265    0.8601
   47.280    0.7197
   47.295    0.7372
   47.310    0.8250
   47.325    0.6495
   47.340    0.6144
   47.355    0.7021
   47.370    0.7548
   47.385    0.7021
   47.400    0.5090
   47.415    0.5793
   47.430    0.5793
   47.445    0.6319
   47.460    0.7197
   47.475    0.6670
   47.490    0.7372
   47.505    0.9128
   47.520    0.9479
   47.535    0.8250
   47.550    0.8601
   47.565    0.7372
   47.580    0.8601
   47.595    0.7197
   47.610    0.6495
   47.625    0.6319
   47.640    0.6846
   47.655    0.7021
   47.670    0.6144
   47.685    0.7197
   47.700    0.8074
   47.715    0.7723
   47.730    0.6670
   47.745    0.6144
   47.760    0.7899
   47.775    0.7021
   47.790    0.5617
   47.805    0.7372
   47.820    0.8250
   47.835    0.7197
   47.850    0.7548
   47.865    0.8250
   47.880    0.6846
   47.895    0.7197
   47.910    0.6670
   47.925    0.7197
   47.940    0.7197
   47.955    0.7021
   47.970    0.7899
   47.985    0.8074
   48.000    0.6846
   48.015    0.6495
   48.030    0.7197
   48.045    0.6670
   48.060    0.6495
   48.075    0.7372
   48.090    0.8250
   48.105    0.7723
   48.120    0.7372
   48.135    0.8074
   48.150    0.5266
   48.165    0.6846
   48.180    0.7021
   48.195    0.7372
   48.210    0.7899
   48.225    0.8074
   48.240    0.7197
   48.255    0.7899
   48.270    0.6670
   48.285    0.7021
   48.300    0.7021
   48.315    0.6846
   48.330    0.6144
   48.345    0.8074
   48.360    0.7899
   48.375    0.7899
   48.390    0.7372
   48.405    0.7021
   48.420    0.6495
   48.435    0.7548
   48.450    0.7372
   48.465    0.7723
   48.480    0.7548
   48.495    0.9654
   48.510    0.7372
   48.525    0.7548
   48.540    0.7197
   48.555    0.5441
   48.570    0.6670
   48.585    0.6670
   48.600    0.7372
   48.615    0.7899
   48.630    0.7021
   48.645    0.6846
   48.660    0.7548
   48.675    0.9303
   48.690    0.7723
   48.705    0.5793
   48.720    0.8074
   48.735    0.8250
   48.750    0.5266
   48.765    0.8074
   48.780    0.7197
   48.795    0.7548
   48.810    0.5617
   48.825    0.7021
   48.840    0.6670
   48.855    0.6846
   48.870    0.7197
   48.885    0.8601
   48.900    0.7899
   48.915    0.7197
   48.930    0.5090
   48.945    0.6846
   48.960    0.7548
   48.975    0.7723
   48.990    0.6319
   49.005    0.7197
   49.020    0.8777
   49.035    0.7548
   49.050    0.5617
   49.065    0.7197
   49.080    0.8074
   49.095    0.6144
   49.110    0.6670
   49.125    0.6319
   49.140    0.7197
   49.155    0.7197
   49.170    0.8601
   49.185    0.7548
   49.200    0.7197
   49.215    0.7372
   49.230    0.6670
   49.245    0.7372
   49.260    0.7021
   49.275    0.7372
   49.290    0.9128
   49.305    0.8074
   49.320    0.7021
   49.335    0.6319
   49.350    0.7021
   49.365    0.6319
   49.380    0.7723
   49.395    0.6319
   49.410    0.7021
   49.425    0.7372
   49.440    0.6846
   49.455    0.6144
   49.470    0.8952
   49.485    0.8074
   49.500    0.8601
   49.515    0.9303
   49.530    0.6670
   49.545    0.8952
   49.560    0.9830
   49.575    0.7723
   49.590    0.5090
   49.605    0.5266
   49.620    0.5617
   49.635    0.6319
   49.650    0.6670
   49.665    0.7548
   49.680    0.7548
   49.695    0.7021
   49.710    0.7372
   49.725    0.8777
   49.740    0.7197
   49.755    0.7021
   49.770    0.5441
   49.785    0.7021
   49.800    0.5441
   49.815    0.6495
   49.830    0.5968
   49.845    0.5793
   49.860    0.7372
   49.875    0.6319
   49.890    0.6495
   49.905    0.6319
   49.920    0.7021
   49.935    0.8250
   49.950    0.8601
   49.965    0.7548
   49.980    0.7723
