    1.500   13.4176
    1.515   13.8389
    1.530   12.9963
    1.545   13.1016
    1.560   12.6698
    1.575   12.6066
    1.590   13.0174
    1.605   12.5645
    1.620   12.4487
    1.635   12.5434
    1.650   11.5324
    1.665   11.9115
    1.680   12.2486
    1.695   12.1854
    1.710   12.0695
    1.725   11.8273
    1.740   12.2170
    1.755   11.8378
    1.770   11.7746
    1.785   11.3323
    1.800   11.5745
    1.815   11.3112
    1.830   11.0058
    1.845   11.3849
    1.860   11.0795
    1.875   10.6582
    1.890   10.5319
    1.905   10.4897
    1.920   10.1632
    1.935   10.3633
    1.950   10.5108
    1.965   10.3107
    1.980   10.0790
    1.995   10.5003
    2.010   10.3423
    2.025    9.9842
    2.040   10.1316
    2.055   10.0053
    2.070    9.6367
    2.085    9.1522
    2.100    9.8999
    2.115    9.9631
    2.130   10.2054
    2.145   10.1527
    2.160    9.4892
    2.175    9.4471
    2.190    9.7841
    2.205    9.3839
    2.220    9.4260
    2.235    9.8368
    2.250    9.4997
    2.265   10.1632
    2.280    9.8052
    2.295    9.6051
    2.310    9.1838
    2.325    9.7525
    2.340    9.7209
    2.355    9.6893
    2.370    9.3207
    2.385   10.0263
    2.400    9.6367
    2.415    9.7630
    2.430    9.3207
    2.445    9.3523
    2.460    9.3418
    2.475    9.4576
    2.490    9.3734
    2.505    9.2575
    2.520    8.9626
    2.535    9.2786
    2.550    9.8578
    2.565    9.2680
    2.580    9.1311
    2.595    9.2154
    2.610    9.3207
    2.625    9.4050
    2.640    9.4155
    2.655    9.2048
    2.670    9.7841
    2.685    9.8684
    2.700    9.5524
    2.715    9.7209
    2.730    9.7736
    2.745    9.3312
    2.760    9.5524
    2.775    9.3418
    2.790    9.8052
    2.805    9.0574
    2.820    8.5835
    2.835    9.7736
    2.850    9.7630
    2.865    9.3102
    2.880    9.0785
    2.895    9.7314
    2.910    9.3312
    2.925    9.6788
    2.940   10.4265
    2.955    9.9105
    2.970   10.2159
    2.985    9.7420
    3.000    9.5945
    3.015    9.9737
    3.030    9.7525
    3.045   10.2475
    3.060    9.9105
    3.075    9.6788
    3.090   10.0158
    3.105   10.1948
    3.120   10.3002
    3.135   10.6161
    3.150   10.7425
    3.165   11.0058
    3.180   10.9637
    3.195   10.7109
    3.210   10.4055
    3.225   10.7320
    3.240   10.4792
    3.255   10.8162
    3.270   10.9321
    3.285   10.7530
    3.300   11.2059
    3.315   10.9531
    3.330   11.2480
    3.345   11.5534
    3.360   11.3955
    3.375   12.0906
    3.390   12.0379
    3.405   12.5224
    3.420   12.4171
    3.435   12.4276
    3.450   12.9226
    3.465   12.5540
    3.480   13.5756
    3.495   12.9015
    3.510   12.9121
    3.525   12.8489
    3.540   13.6493
    3.555   13.9863
    3.570   14.7657
    3.585   15.0079
    3.600   15.3555
    3.615   15.7135
    3.630   15.6503
    3.645   16.1453
    3.660   16.6719
    3.675   17.3670
    3.690   17.5250
    3.705   18.1253
    3.720   19.8526
    3.735   20.1264
    3.750   20.2528
    3.765   21.2954
    3.780   21.8325
    3.795   23.6335
    3.810   25.5714
    3.825   26.4771
    3.840   28.0463
    3.855   30.0263
    3.870   32.1643
    3.885   32.4803
    3.900   29.7630
    3.915   27.0458
    3.930   22.9805
    3.945   18.4097
    3.960   15.1659
    3.975   12.2696
    3.990   10.8689
    4.005   10.3318
    4.020   10.4055
    4.035    9.9210
    4.050    9.3207
    4.065    9.0469
    4.080    9.1838
    4.095    9.2364
    4.110    8.7414
    4.125    8.9837
    4.140    8.6256
    4.155    8.6467
    4.170    8.5413
    4.185    8.7941
    4.200    8.6572
    4.215    8.3518
    4.230    8.2359
    4.245    8.8257
    4.260    7.9621
    4.275    8.3939
    4.290    8.3728
    4.305    7.9937
    4.320    8.2149
    4.335    8.3096
    4.350    8.0674
    4.365    8.2254
    4.380    7.9410
    4.395    8.6361
    4.410    8.2254
    4.425    8.5519
    4.440    8.3202
    4.455    8.2570
    4.470    8.2149
    4.485    8.1306
    4.500    7.9621
    4.515    8.2043
    4.530    8.2886
    4.545    8.3307
    4.560    8.4887
    4.575    7.9516
    4.590    8.1622
    4.605    8.0885
    4.620    7.8884
    4.635    8.0463
    4.650    8.2780
    4.665    8.2780
    4.680    7.5513
    4.695    7.8252
    4.710    7.9410
    4.725    8.1306
    4.740    8.0358
    4.755    8.0147
    4.770    8.2254
    4.785    8.5203
    4.800    8.2780
    4.815    8.2570
    4.830    8.2886
    4.845    8.2254
    4.860    8.3939
    4.875    8.6783
    4.890    8.3518
    4.905    8.2675
    4.920    8.5097
    4.935    7.9094
    4.950    7.9305
    4.965    7.9621
    4.980    8.1201
    4.995    8.4150
    5.010    8.1938
    5.025    8.5729
    5.040    8.5835
    5.055    8.6467
    5.070    8.3096
    5.085    8.8784
    5.100    8.6361
    5.115    8.6783
    5.130    8.6783
    5.145    8.9205
    5.160    8.5729
    5.175    9.0153
    5.190    8.9415
    5.205    8.4676
    5.220    8.7309
    5.235    8.8152
    5.250    8.4571
    5.265    8.8468
    5.280    9.6156
    5.295    9.4576
    5.310    9.4576
    5.325    9.2680
    5.340    9.4365
    5.355    9.8578
    5.370    9.9947
    5.385   10.1211
    5.400   10.3002
    5.415   10.5003
    5.430   10.7846
    5.445   10.6688
    5.460   11.0900
    5.475   11.2270
    5.490   11.6588
    5.505   11.8378
    5.520   11.9326
    5.535   11.4797
    5.550   10.6793
    5.565    9.6788
    5.580    9.5629
    5.595    9.5419
    5.610    8.5729
    5.625    8.0253
    5.640    8.6151
    5.655    8.1306
    5.670    7.6883
    5.685    8.1833
    5.700    8.0253
    5.715    7.7199
    5.730    7.7514
    5.745    7.7409
    5.760    7.8357
    5.775    8.1306
    5.790    8.0147
    5.805    8.0253
    5.820    8.0147
    5.835    7.7409
    5.850    7.5408
    5.865    7.3723
    5.880    7.9726
    5.895    8.1201
    5.910    7.7409
    5.925    7.8673
    5.940    8.0463
    5.955    8.0569
    5.970    7.8252
    5.985    8.0358
    6.000    8.0779
    6.015    8.0779
    6.030    7.8041
    6.045    8.4044
    6.060    7.8462
    6.075    7.7304
    6.090    7.5724
    6.105    7.6145
    6.120    7.3618
    6.135    7.6672
    6.150    7.8884
    6.165    7.8041
    6.180    7.6461
    6.195    7.9516
    6.210    7.9621
    6.225    7.5619
    6.240    7.7514
    6.255    7.9937
    6.270    7.8252
    6.285    8.0042
    6.300    7.6356
    6.315    7.7620
    6.330    7.8568
    6.345    7.5197
    6.360    7.5724
    6.375    7.5092
    6.390    7.6672
    6.405    8.0569
    6.420    8.2149
    6.435    8.0990
    6.450    8.2359
    6.465    8.0569
    6.480    8.0569
    6.495    8.1833
    6.510    8.3728
    6.525    7.9410
    6.540    7.9726
    6.555    7.6461
    6.570    8.0990
    6.585    8.1727
    6.600    8.0147
    6.615    8.0253
    6.630    8.1095
    6.645    7.8357
    6.660    7.7093
    6.675    8.1727
    6.690    8.2675
    6.705    8.0253
    6.720    8.1411
    6.735    8.4150
    6.750    8.4676
    6.765    8.1306
    6.780    8.2149
    6.795    8.5413
    6.810    8.3518
    6.825    7.9410
    6.840    7.9305
    6.855    8.4466
    6.870    7.7304
    6.885    7.5724
    6.900    7.8462
    6.915    7.9200
    6.930    7.7409
    6.945    7.7514
    6.960    8.4992
    6.975    8.2149
    6.990    8.1727
    7.005    8.3202
    7.020    8.0253
    7.035    7.8989
    7.050    8.0463
    7.065    8.2780
    7.080    7.9726
    7.095    7.7304
    7.110    7.7514
    7.125    7.5303
    7.140    7.9410
    7.155    7.5724
    7.170    7.7093
    7.185    7.8778
    7.200    7.4987
    7.215    8.0358
    7.230    8.1727
    7.245    7.6356
    7.260    7.7409
    7.275    8.0147
    7.290    7.7830
    7.305    7.8462
    7.320    8.0358
    7.335    7.7409
    7.350    7.3512
    7.365    8.1833
    7.380    8.1833
    7.395    8.2991
    7.410    8.1938
    7.425    8.2991
    7.440    8.5940
    7.455    8.3307
    7.470    8.2570
    7.485    8.1727
    7.500    7.9621
    7.515    8.0779
    7.530    8.0147
    7.545    8.5729
    7.560    8.2043
    7.575    8.2359
    7.590    8.2359
    7.605    8.1411
    7.620    8.4781
    7.635    8.3202
    7.650    8.4255
    7.665    8.8152
    7.680    8.8152
    7.695    8.4150
    7.710    8.8362
    7.725    8.7941
    7.740    8.6677
    7.755    8.7520
    7.770    9.0363
    7.785    8.7730
    7.800    8.5940
    7.815    8.7520
    7.830    9.0047
    7.845    8.9205
    7.860    8.7836
    7.875    8.8152
    7.890    8.9942
    7.905    8.3412
    7.920    8.0990
    7.935    8.3728
    7.950    8.0569
    7.965    8.1622
    7.980    8.3412
    7.995    8.1411
    8.010    7.9516
    8.025    8.3307
    8.040    8.0042
    8.055    8.4676
    8.070    7.8568
    8.085    8.2780
    8.100    8.2043
    8.115    7.9937
    8.130    8.0253
    8.145    8.1411
    8.160    8.3518
    8.175    8.4781
    8.190    8.5519
    8.205    8.1411
    8.220    8.2675
    8.235    8.1622
    8.250    8.6256
    8.265    8.3518
    8.280    8.1095
    8.295    7.8357
    8.310    8.1306
    8.325    7.9621
    8.340    8.5413
    8.355    8.6045
    8.370    8.4781
    8.385    8.5097
    8.400    8.5519
    8.415    8.4781
    8.430    8.3939
    8.445    8.7520
    8.460    8.8889
    8.475    8.5519
    8.490    8.1727
    8.505    8.4360
    8.520    8.3728
    8.535    8.2886
    8.550    8.5624
    8.565    8.9310
    8.580    8.7414
    8.595    8.3728
    8.610    8.3096
    8.625    8.2886
    8.640    8.3412
    8.655    8.5097
    8.670    8.5519
    8.685    8.7941
    8.700    8.8362
    8.715    8.9731
    8.730    8.8468
    8.745    8.6045
    8.760    8.8573
    8.775    8.5729
    8.790    8.4150
    8.805    8.4044
    8.820    8.5413
    8.835    8.7941
    8.850    8.7414
    8.865    8.9942
    8.880    8.9521
    8.895    8.7098
    8.910    8.6993
    8.925    8.5519
    8.940    8.5203
    8.955    8.4044
    8.970    8.4150
    8.985    8.8994
    9.000    8.9942
    9.015    9.0047
    9.030    8.6151
    9.045    8.7520
    9.060    8.6361
    9.075    8.3412
    9.090    8.6045
    9.105    9.0574
    9.120    8.6256
    9.135    8.5203
    9.150    8.7520
    9.165    8.8046
    9.180    8.7941
    9.195    8.8468
    9.210    9.0785
    9.225    8.9837
    9.240    8.8468
    9.255    9.0995
    9.270    9.2048
    9.285    8.5624
    9.300    8.5097
    9.315    8.8046
    9.330    9.4787
    9.345    9.3523
    9.360    9.2364
    9.375    8.8678
    9.390    9.1838
    9.405    9.2259
    9.420    9.0574
    9.435    9.3523
    9.450    9.4892
    9.465    9.3207
    9.480    9.6472
    9.495    9.9315
    9.510    9.8052
    9.525   10.2264
    9.540   10.5108
    9.555   10.4687
    9.570   10.8057
    9.585   10.8794
    9.600   10.8162
    9.615   10.2159
    9.630    9.7736
    9.645    9.5945
    9.660    9.0995
    9.675    9.3102
    9.690    9.1206
    9.705    8.4676
    9.720    8.7625
    9.735    9.1522
    9.750    8.8257
    9.765    8.6045
    9.780    8.7730
    9.795    9.0258
    9.810    8.9942
    9.825    8.8468
    9.840    8.6045
    9.855    8.7836
    9.870    8.6467
    9.885    8.9521
    9.900    8.8678
    9.915    9.0469
    9.930    8.9415
    9.945    8.7098
    9.960    8.5308
    9.975    8.4781
    9.990    8.9731
   10.005    9.0258
   10.020    9.2996
   10.035    8.9310
   10.050    8.7414
   10.065    8.6045
   10.080    8.8573
   10.095    9.0047
   10.110    8.3096
   10.125    8.7414
   10.140    8.8678
   10.155    9.0679
   10.170    9.5419
   10.185    8.5203
   10.200    9.2786
   10.215    9.2364
   10.230    9.1311
   10.245    9.0574
   10.260    9.4997
   10.275    9.4155
   10.290    9.1943
   10.305    9.1101
   10.320    9.2891
   10.335    9.0469
   10.350    9.0679
   10.365    9.1206
   10.380    9.1838
   10.395    9.1522
   10.410    8.8152
   10.425    9.0574
   10.440    9.2364
   10.455    8.6572
   10.470    8.6467
   10.485    8.5203
   10.500    8.8784
   10.515    8.6256
   10.530    8.1938
   10.545    8.3096
   10.560    8.6677
   10.575    8.5308
   10.590    8.9731
   10.605    9.2048
   10.620    8.0779
   10.635    8.6783
   10.650    9.0785
   10.665    8.7836
   10.680    9.0153
   10.695    8.8468
   10.710    8.4255
   10.725    8.8889
   10.740    8.5308
   10.755    8.6256
   10.770    8.6783
   10.785    8.7941
   10.800    8.6993
   10.815    8.5835
   10.830    8.7098
   10.845    8.6993
   10.860    8.6572
   10.875    8.8257
   10.890    9.0469
   10.905    8.9837
   10.920    8.7625
   10.935    9.0574
   10.950    9.0153
   10.965    9.0890
   10.980    9.1522
   10.995    8.8468
   11.010    8.9100
   11.025    9.2259
   11.040    8.6467
   11.055    8.6361
   11.070    8.9942
   11.085    9.1101
   11.100    8.9942
   11.115    8.6361
   11.130    8.6256
   11.145    8.5203
   11.160    8.2149
   11.175    8.4781
   11.190    8.4044
   11.205    8.3307
   11.220    8.2886
   11.235    7.7199
   11.250    7.9516
   11.265    7.9621
   11.280    8.2991
   11.295    8.0463
   11.310    8.0674
   11.325    8.5940
   11.340    8.4992
   11.355    8.4571
   11.370    8.1411
   11.385    8.1411
   11.400    7.8357
   11.415    8.3202
   11.430    8.4466
   11.445    7.9305
   11.460    8.1938
   11.475    8.4255
   11.490    7.9516
   11.505    8.0990
   11.520    7.9937
   11.535    8.2780
   11.550    8.6256
   11.565    8.6572
   11.580    8.2464
   11.595    8.3728
   11.610    8.5624
   11.625    7.9726
   11.640    8.5203
   11.655    8.8257
   11.670    8.2043
   11.685    8.0463
   11.700    8.2464
   11.715    8.6783
   11.730    8.7414
   11.745    8.4255
   11.760    8.8468
   11.775    8.6783
   11.790    8.5519
   11.805    8.5203
   11.820    8.2254
   11.835    8.2043
   11.850    7.8357
   11.865    8.0253
   11.880    8.0463
   11.895    8.1727
   11.910    7.9831
   11.925    7.8673
   11.940    7.7936
   11.955    8.1938
   11.970    7.9831
   11.985    8.0253
   12.000    8.2464
   12.015    8.2043
   12.030    8.1095
   12.045    7.9621
   12.060    7.9410
   12.075    7.8252
   12.090    8.1833
   12.105    8.2043
   12.120    7.6356
   12.135    7.7725
   12.150    7.8357
   12.165    7.6672
   12.180    7.5724
   12.195    7.6988
   12.210    8.1833
   12.225    7.9831
   12.240    8.1622
   12.255    8.0147
   12.270    7.6672
   12.285    7.8884
   12.300    7.7725
   12.315    7.9621
   12.330    8.0779
   12.345    8.0885
   12.360    7.4460
   12.375    7.6672
   12.390    7.4671
   12.405    7.7725
   12.420    7.7620
   12.435    7.9726
   12.450    8.0885
   12.465    7.7936
   12.480    7.4882
   12.495    7.6251
   12.510    7.7093
   12.525    7.6883
   12.540    7.7304
   12.555    7.5092
   12.570    7.4671
   12.585    8.0885
   12.600    7.6883
   12.615    7.1617
   12.630    7.6988
   12.645    7.8989
   12.660    7.4671
   12.675    7.3091
   12.690    7.3196
   12.705    7.2143
   12.720    7.9200
   12.735    8.0358
   12.750    7.4882
   12.765    7.5513
   12.780    7.7199
   12.795    7.9726
   12.810    8.1306
   12.825    7.8041
   12.840    7.4460
   12.855    7.9094
   12.870    7.8778
   12.885    8.2991
   12.900    7.7620
   12.915    7.7304
   12.930    7.8146
   12.945    7.8989
   12.960    8.1095
   12.975    8.0042
   12.990    8.5519
   13.005    8.1622
   13.020    7.6883
   13.035    7.6988
   13.050    7.6356
   13.065    7.8989
   13.080    8.0990
   13.095    7.5829
   13.110    7.4671
   13.125    7.6883
   13.140    7.5303
   13.155    7.1933
   13.170    7.4460
   13.185    7.3196
   13.200    7.2670
   13.215    7.1933
   13.230    7.5408
   13.245    7.7830
   13.260    7.4250
   13.275    7.1511
   13.290    7.4987
   13.305    7.6356
   13.320    7.6777
   13.335    7.2775
   13.350    7.5935
   13.365    8.0147
   13.380    7.4144
   13.395    7.4144
   13.410    7.0353
   13.425    7.9516
   13.440    7.4355
   13.455    7.9094
   13.470    7.7409
   13.485    7.8884
   13.500    7.4355
   13.515    7.5197
   13.530    7.8989
   13.545    7.9305
   13.560    7.9516
   13.575    7.6672
   13.590    7.6040
   13.605    7.6145
   13.620    7.8989
   13.635    7.4039
   13.650    7.4987
   13.665    7.7514
   13.680    7.9726
   13.695    7.6672
   13.710    7.6251
   13.725    7.5197
   13.740    7.1406
   13.755    7.3512
   13.770    7.7830
   13.785    7.2880
   13.800    7.2354
   13.815    7.0563
   13.830    7.1090
   13.845    7.5829
   13.860    7.6040
   13.875    7.7725
   13.890    7.6883
   13.905    7.4250
   13.920    7.8041
   13.935    7.8357
   13.950    7.0774
   13.965    7.3723
   13.980    7.5724
   13.995    7.9937
   14.010    7.9937
   14.025    7.6883
   14.040    7.5724
   14.055    7.4987
   14.070    7.6145
   14.085    7.8146
   14.100    7.9516
   14.115    7.6251
   14.130    8.0042
   14.145    8.1727
   14.160    7.1406
   14.175    7.5724
   14.190    7.5092
   14.205    7.3512
   14.220    7.4250
   14.235    8.0147
   14.250    7.4987
   14.265    7.4671
   14.280    7.3828
   14.295    7.1195
   14.310    7.5197
   14.325    7.6777
   14.340    7.7725
   14.355    7.6672
   14.370    7.7304
   14.385    7.4566
   14.400    7.5935
   14.415    7.6672
   14.430    7.5619
   14.445    7.4039
   14.460    7.6145
   14.475    7.1090
   14.490    7.4039
   14.505    7.7093
   14.520    7.6567
   14.535    7.4671
   14.550    7.3828
   14.565    7.7936
   14.580    7.3934
   14.595    7.1511
   14.610    7.2249
   14.625    7.2775
   14.640    7.8252
   14.655    8.0358
   14.670    7.5513
   14.685    7.5619
   14.700    7.2249
   14.715    7.6356
   14.730    7.4671
   14.745    7.8673
   14.760    7.5935
   14.775    7.4566
   14.790    7.4460
   14.805    7.8357
   14.820    7.6251
   14.835    7.3828
   14.850    7.3934
   14.865    7.3196
   14.880    7.5092
   14.895    7.6883
   14.910    7.4987
   14.925    7.0353
   14.940    7.4671
   14.955    7.3723
   14.970    7.2775
   14.985    7.3091
   15.000    7.5724
   15.015    7.6461
   15.030    7.6040
   15.045    7.7199
   15.060    7.4355
   15.075    7.1617
   15.090    7.4987
   15.105    7.6461
   15.120    7.7514
   15.135    7.4671
   15.150    7.6461
   15.165    7.6883
   15.180    7.8673
   15.195    7.6672
   15.210    7.6356
   15.225    7.6145
   15.240    7.7936
   15.255    7.8146
   15.270    7.7936
   15.285    7.8778
   15.300    7.6251
   15.315    7.5197
   15.330    7.2459
   15.345    7.6251
   15.360    7.4144
   15.375    7.6883
   15.390    7.6883
   15.405    7.5935
   15.420    7.4355
   15.435    7.4671
   15.450    7.7093
   15.465    7.2670
   15.480    7.2354
   15.495    7.5829
   15.510    7.5092
   15.525    7.8041
   15.540    7.5724
   15.555    7.8041
   15.570    8.0990
   15.585    7.4987
   15.600    7.5197
   15.615    7.6567
   15.630    7.5513
   15.645    7.8778
   15.660    7.6672
   15.675    7.7514
   15.690    7.4882
   15.705    8.0147
   15.720    7.0774
   15.735    7.3407
   15.750    7.7620
   15.765    7.4671
   15.780    7.9200
   15.795    7.7620
   15.810    7.5197
   15.825    7.5303
   15.840    7.6672
   15.855    7.7620
   15.870    7.7093
   15.885    7.6461
   15.900    7.4671
   15.915    7.4039
   15.930    7.6145
   15.945    7.7620
   15.960    7.5935
   15.975    7.5829
   15.990    7.4776
   16.005    7.4144
   16.020    7.5197
   16.035    8.2149
   16.050    7.6777
   16.065    7.4566
   16.080    7.9410
   16.095    7.8252
   16.110    7.5724
   16.125    7.5935
   16.140    7.8673
   16.155    7.5724
   16.170    7.7725
   16.185    7.8357
   16.200    8.1411
   16.215    7.9516
   16.230    7.9410
   16.245    7.7830
   16.260    8.0042
   16.275    8.0042
   16.290    7.8146
   16.305    7.7409
   16.320    7.7830
   16.335    7.9305
   16.350    7.8357
   16.365    8.0674
   16.380    7.6251
   16.395    7.3512
   16.410    7.4566
   16.425    8.0990
   16.440    7.6883
   16.455    7.7830
   16.470    7.9305
   16.485    7.5619
   16.500    7.5303
   16.515    7.9200
   16.530    7.8252
   16.545    7.7409
   16.560    7.8146
   16.575    8.0253
   16.590    8.1938
   16.605    7.9831
   16.620    8.1306
   16.635    7.9516
   16.650    8.0779
   16.665    7.8252
   16.680    7.7936
   16.695    7.6251
   16.710    7.3828
   16.725    7.6777
   16.740    7.4987
   16.755    7.7304
   16.770    7.4039
   16.785    7.5092
   16.800    7.9410
   16.815    7.6883
   16.830    7.8989
   16.845    8.2149
   16.860    7.8357
   16.875    7.7304
   16.890    7.5724
   16.905    7.5935
   16.920    7.7409
   16.935    7.5724
   16.950    7.7093
   16.965    7.7620
   16.980    7.6672
   16.995    7.4671
   17.010    7.3828
   17.025    7.9410
   17.040    7.7304
   17.055    7.9094
   17.070    7.8041
   17.085    8.0569
   17.100    8.0569
   17.115    8.0779
   17.130    7.8778
   17.145    7.7725
   17.160    8.2464
   17.175    7.7620
   17.190    8.0253
   17.205    7.8357
   17.220    7.8462
   17.235    7.7093
   17.250    7.6145
   17.265    7.8884
   17.280    7.8357
   17.295    7.9305
   17.310    7.6883
   17.325    7.4566
   17.340    7.8252
   17.355    7.8884
   17.370    7.7620
   17.385    7.7725
   17.400    8.0885
   17.415    7.6567
   17.430    7.8778
   17.445    8.0147
   17.460    7.7409
   17.475    7.7725
   17.490    7.9621
   17.505    7.5303
   17.520    8.1095
   17.535    7.9621
   17.550    7.6567
   17.565    7.6777
   17.580    7.8146
   17.595    7.4039
   17.610    7.6145
   17.625    7.4776
   17.640    7.7093
   17.655    7.8146
   17.670    7.6567
   17.685    7.6356
   17.700    7.6145
   17.715    7.4460
   17.730    7.4144
   17.745    7.4882
   17.760    7.7936
   17.775    7.7409
   17.790    7.5829
   17.805    7.5408
   17.820    7.6567
   17.835    7.3934
   17.850    7.3196
   17.865    7.5092
   17.880    7.5513
   17.895    7.5619
   17.910    7.2880
   17.925    8.0779
   17.940    7.4776
   17.955    7.5935
   17.970    7.8146
   17.985    7.8252
   18.000    7.3091
   18.015    7.6145
   18.030    7.6567
   18.045    7.5619
   18.060    7.3407
   18.075    7.8357
   18.090    7.5197
   18.105    7.4355
   18.120    7.6145
   18.135    7.5829
   18.150    7.7725
   18.165    7.7304
   18.180    7.8989
   18.195    7.4566
   18.210    7.9305
   18.225    7.0774
   18.240    7.3196
   18.255    7.9200
   18.270    7.5303
   18.285    7.6672
   18.300    7.5092
   18.315    7.6567
   18.330    7.9726
   18.345    7.6672
   18.360    7.8778
   18.375    7.3407
   18.390    7.6883
   18.405    7.9516
   18.420    8.1201
   18.435    7.6040
   18.450    7.8884
   18.465    7.8462
   18.480    7.5303
   18.495    7.2354
   18.510    7.7514
   18.525    8.0885
   18.540    8.1517
   18.555    7.6883
   18.570    7.9305
   18.585    7.8041
   18.600    7.4355
   18.615    7.5935
   18.630    7.7725
   18.645    7.6988
   18.660    7.4566
   18.675    7.7304
   18.690    7.8146
   18.705    8.0463
   18.720    7.4776
   18.735    7.8146
   18.750    7.8252
   18.765    7.6567
   18.780    7.6567
   18.795    7.8146
   18.810    7.9094
   18.825    7.7725
   18.840    7.9305
   18.855    8.0674
   18.870    7.7725
   18.885    7.8884
   18.900    8.1833
   18.915    8.1411
   18.930    8.3412
   18.945    8.0253
   18.960    8.1938
   18.975    8.6572
   18.990    8.7414
   19.005    8.4781
   19.020    8.5308
   19.035    7.9831
   19.050    8.2991
   19.065    8.4360
   19.080    7.8146
   19.095    7.8884
   19.110    7.8884
   19.125    7.8673
   19.140    8.0885
   19.155    8.0990
   19.170    7.8568
   19.185    7.6567
   19.200    7.3723
   19.215    7.3091
   19.230    7.6461
   19.245    7.6777
   19.260    7.7620
   19.275    7.7093
   19.290    7.7199
   19.305    8.0463
   19.320    7.9200
   19.335    7.9831
   19.350    7.8568
   19.365    7.6567
   19.380    7.4566
   19.395    7.8146
   19.410    7.9410
   19.425    8.1833
   19.440    7.8146
   19.455    7.9726
   19.470    7.4460
   19.485    7.7725
   19.500    8.0042
   19.515    7.8673
   19.530    7.7199
   19.545    8.1517
   19.560    8.0885
   19.575    8.2570
   19.590    8.2780
   19.605    8.1306
   19.620    8.1411
   19.635    8.0990
   19.650    8.2464
   19.665    7.8252
   19.680    7.5303
   19.695    7.6883
   19.710    7.8252
   19.725    7.7725
   19.740    8.0253
   19.755    7.7093
   19.770    8.1622
   19.785    8.0569
   19.800    7.8673
   19.815    8.0990
   19.830    8.2254
   19.845    8.0042
   19.860    7.6672
   19.875    7.7830
   19.890    8.0042
   19.905    7.9410
   19.920    7.5092
   19.935    8.2991
   19.950    7.7725
   19.965    7.6883
   19.980    8.2570
   19.995    8.3623
   20.010    7.7199
   20.025    8.1411
   20.040    8.0463
   20.055    8.0779
   20.070    7.9410
   20.085    7.6777
   20.100    7.7093
   20.115    7.7830
   20.130    7.6988
   20.145    8.3202
   20.160    7.6567
   20.175    7.4566
   20.190    8.0253
   20.205    8.2254
   20.220    8.0674
   20.235    7.6356
   20.250    7.7304
   20.265    7.9937
   20.280    7.9726
   20.295    7.8041
   20.310    8.1411
   20.325    8.1201
   20.340    8.0779
   20.355    7.8252
   20.370    7.8041
   20.385    8.0779
   20.400    8.3623
   20.415    8.4255
   20.430    7.8568
   20.445    8.0674
   20.460    8.1517
   20.475    8.0463
   20.490    7.8989
   20.505    8.1201
   20.520    8.1517
   20.535    8.0885
   20.550    8.1727
   20.565    8.2359
   20.580    7.9831
   20.595    8.4150
   20.610    8.2359
   20.625    8.1517
   20.640    7.7409
   20.655    7.8673
   20.670    7.8041
   20.685    8.1727
   20.700    7.8357
   20.715    7.8146
   20.730    8.0042
   20.745    8.5097
   20.760    8.3939
   20.775    7.7199
   20.790    8.1622
   20.805    8.2886
   20.820    8.2149
   20.835    8.2675
   20.850    7.8146
   20.865    8.0253
   20.880    7.9305
   20.895    7.7514
   20.910    7.8568
   20.925    7.7093
   20.940    7.6672
   20.955    8.1833
   20.970    8.0885
   20.985    7.9516
   21.000    8.0147
   21.015    7.6356
   21.030    7.7725
   21.045    7.9516
   21.060    8.0042
   21.075    7.5513
   21.090    8.1201
   21.105    8.1306
   21.120    7.9305
   21.135    8.2780
   21.150    8.0358
   21.165    8.1833
   21.180    8.0990
   21.195    7.8884
   21.210    7.8357
   21.225    7.8884
   21.240    8.2570
   21.255    7.6988
   21.270    8.1833
   21.285    8.1727
   21.300    8.4360
   21.315    8.1938
   21.330    8.1201
   21.345    7.8989
   21.360    7.9200
   21.375    7.6251
   21.390    7.6145
   21.405    7.8989
   21.420    7.9094
   21.435    8.0147
   21.450    8.0990
   21.465    7.3302
   21.480    7.7725
   21.495    8.3202
   21.510    7.6988
   21.525    7.8041
   21.540    8.2359
   21.555    7.9831
   21.570    8.5413
   21.585    7.6883
   21.600    7.8146
   21.615    8.2886
   21.630    7.6777
   21.645    8.2254
   21.660    7.9410
   21.675    8.0674
   21.690    8.1306
   21.705    7.9726
   21.720    7.7620
   21.735    8.0569
   21.750    7.9200
   21.765    7.9831
   21.780    8.1517
   21.795    8.1833
   21.810    8.1411
   21.825    8.2254
   21.840    7.9937
   21.855    8.2464
   21.870    8.2043
   21.885    8.2464
   21.900    7.9831
   21.915    8.2043
   21.930    8.5940
   21.945    8.2043
   21.960    7.7725
   21.975    8.0885
   21.990    8.3518
   22.005    8.6045
   22.020    8.6783
   22.035    8.4781
   22.050    8.0674
   22.065    8.0358
   22.080    8.1411
   22.095    7.9831
   22.110    7.7199
   22.125    8.0358
   22.140    7.9200
   22.155    8.2886
   22.170    7.8778
   22.185    8.1201
   22.200    8.1201
   22.215    8.0990
   22.230    8.1201
   22.245    8.0990
   22.260    7.9200
   22.275    8.0885
   22.290    8.0463
   22.305    7.8357
   22.320    7.9305
   22.335    8.1201
   22.350    8.1938
   22.365    8.4044
   22.380    8.0990
   22.395    7.6356
   22.410    8.2149
   22.425    8.1095
   22.440    8.4150
   22.455    8.4044
   22.470    8.2570
   22.485    8.0147
   22.500    8.5097
   22.515    8.0885
   22.530    7.6777
   22.545    8.0885
   22.560    8.2359
   22.575    8.3518
   22.590    8.1938
   22.605    8.6151
   22.620    8.3834
   22.635    8.5203
   22.650    8.8784
   22.665    8.5519
   22.680    8.8257
   22.695    8.1833
   22.710    8.3412
   22.725    8.5308
   22.740    8.2359
   22.755    7.9726
   22.770    7.8778
   22.785    8.3096
   22.800    8.1833
   22.815    8.2886
   22.830    8.3202
   22.845    8.2886
   22.860    8.1938
   22.875    8.2991
   22.890    8.1727
   22.905    8.0358
   22.920    8.3623
   22.935    8.6045
   22.950    8.5940
   22.965    8.2570
   22.980    8.4255
   22.995    8.5624
   23.010    8.7836
   23.025    8.4676
   23.040    8.2675
   23.055    8.4150
   23.070    8.3623
   23.085    8.5835
   23.100    8.5097
   23.115    8.7625
   23.130    8.4360
   23.145    8.2991
   23.160    8.2359
   23.175    8.4466
   23.190    7.9094
   23.205    8.0147
   23.220    8.5097
   23.235    7.9516
   23.250    8.2254
   23.265    8.2254
   23.280    8.1306
   23.295    7.8673
   23.310    8.0885
   23.325    8.2149
   23.340    7.8568
   23.355    8.0779
   23.370    8.4360
   23.385    8.4781
   23.400    8.4992
   23.415    8.1201
   23.430    8.1517
   23.445    7.7620
   23.460    7.8884
   23.475    7.8568
   23.490    8.5203
   23.505    8.4044
   23.520    8.3096
   23.535    7.9831
   23.550    8.0042
   23.565    8.4150
   23.580    8.0569
   23.595    8.0674
   23.610    7.7936
   23.625    7.6567
   23.640    7.5303
   23.655    7.9726
   23.670    7.7199
   23.685    7.7620
   23.700    8.3412
   23.715    7.7514
   23.730    7.7620
   23.745    7.9200
   23.760    8.2149
   23.775    7.9516
   23.790    8.1517
   23.805    8.0042
   23.820    7.5408
   23.835    7.6251
   23.850    8.0253
   23.865    8.0674
   23.880    8.0358
   23.895    8.2359
   23.910    8.0463
   23.925    8.0674
   23.940    8.3307
   23.955    7.8041
   23.970    7.6672
   23.985    8.0463
   24.000    7.9094
   24.015    8.0042
   24.030    7.8357
   24.045    8.1306
   24.060    7.6777
   24.075    7.5829
   24.090    7.5092
   24.105    8.1095
   24.120    7.9094
   24.135    8.1411
   24.150    7.8884
   24.165    8.1095
   24.180    7.8778
   24.195    7.5513
   24.210    7.8146
   24.225    7.5303
   24.240    7.8989
   24.255    8.0042
   24.270    7.6777
   24.285    7.8778
   24.300    7.4671
   24.315    7.6251
   24.330    7.5935
   24.345    7.5724
   24.360    7.8146
   24.375    7.9410
   24.390    7.6251
   24.405    7.9937
   24.420    8.2149
   24.435    7.7620
   24.450    8.0463
   24.465    8.0569
   24.480    7.8462
   24.495    7.9516
   24.510    7.6251
   24.525    7.4882
   24.540    7.7304
   24.555    7.6251
   24.570    7.8568
   24.585    7.3407
   24.600    7.7936
   24.615    7.6988
   24.630    7.6988
   24.645    7.7199
   24.660    7.9410
   24.675    7.5829
   24.690    7.8462
   24.705    7.4882
   24.720    7.3828
   24.735    7.2565
   24.750    7.4566
   24.765    7.2038
   24.780    7.3934
   24.795    7.7936
   24.810    7.9726
   24.825    7.7304
   24.840    7.7620
   24.855    7.5829
   24.870    7.2775
   24.885    7.8989
   24.900    7.8041
   24.915    7.2775
   24.930    7.4987
   24.945    7.4355
   24.960    7.3618
   24.975    7.6672
   24.990    7.7304
   25.005    7.3828
   25.020    7.9410
   25.035    8.0463
   25.050    7.9094
   25.065    7.8884
   25.080    7.8357
   25.095    7.8357
   25.110    7.5935
   25.125    7.6672
   25.140    7.8041
   25.155    7.7936
   25.170    7.4566
   25.185    7.4987
   25.200    7.5197
   25.215    7.6356
   25.230    7.8884
   25.245    7.6672
   25.260    7.6356
   25.275    7.8041
   25.290    7.5829
   25.305    7.6251
   25.320    7.4566
   25.335    7.5092
   25.350    7.3302
   25.365    7.6251
   25.380    7.6672
   25.395    8.0042
   25.410    8.0779
   25.425    7.9726
   25.440    7.6883
   25.455    7.9410
   25.470    7.3723
   25.485    7.9621
   25.500    7.8041
   25.515    7.9516
   25.530    7.9726
   25.545    7.5513
   25.560    7.8462
   25.575    7.7725
   25.590    7.4776
   25.605    7.2249
   25.620    7.4882
   25.635    7.4250
   25.650    7.4566
   25.665    7.7199
   25.680    7.4039
   25.695    7.7620
   25.710    7.3618
   25.725    7.1617
   25.740    7.3618
   25.755    7.8041
   25.770    7.7093
   25.785    7.9726
   25.800    7.2986
   25.815    7.4250
   25.830    7.6145
   25.845    7.5092
   25.860    7.2986
   25.875    7.9831
   25.890    8.1938
   25.905    7.6461
   25.920    7.5513
   25.935    7.5303
   25.950    8.2359
   25.965    7.7830
   25.980    7.9621
   25.995    7.5303
   26.010    7.4355
   26.025    7.6356
   26.040    7.7620
   26.055    7.5408
   26.070    7.5092
   26.085    7.4355
   26.100    7.4566
   26.115    7.6251
   26.130    7.6145
   26.145    7.7830
   26.160    7.3512
   26.175    7.7514
   26.190    7.6988
   26.205    7.5092
   26.220    7.1617
   26.235    7.2249
   26.250    7.0774
   26.265    7.1827
   26.280    7.3618
   26.295    7.7830
   26.310    7.8357
   26.325    7.6356
   26.340    7.7830
   26.355    7.5619
   26.370    7.2459
   26.385    7.3091
   26.400    7.4144
   26.415    7.5724
   26.430    7.2459
   26.445    7.3618
   26.460    7.2880
   26.475    7.5724
   26.490    7.3934
   26.505    7.5935
   26.520    7.2986
   26.535    7.2354
   26.550    7.4776
   26.565    7.4671
   26.580    7.5197
   26.595    7.4776
   26.610    7.3196
   26.625    7.4250
   26.640    7.4250
   26.655    7.7620
   26.670    7.6356
   26.685    7.4776
   26.700    7.2459
   26.715    7.2038
   26.730    7.4460
   26.745    7.6356
   26.760    7.6567
   26.775    7.2670
   26.790    7.3723
   26.805    7.1301
   26.820    7.6040
   26.835    7.4144
   26.850    7.1722
   26.865    7.3091
   26.880    7.4671
   26.895    7.2249
   26.910    6.9932
   26.925    7.4566
   26.940    7.0669
   26.955    7.2565
   26.970    7.2143
   26.985    7.4039
   27.000    7.6883
   27.015    6.8984
   27.030    6.9510
   27.045    7.0879
   27.060    6.4455
   27.075    7.1406
   27.090    7.4144
   27.105    7.4355
   27.120    7.4250
   27.135    7.4250
   27.150    7.4776
   27.165    7.2143
   27.180    7.3407
   27.195    7.3407
   27.210    7.3618
   27.225    7.0985
   27.240    6.9089
   27.255    7.4776
   27.270    7.0563
   27.285    7.2249
   27.300    7.2880
   27.315    7.4460
   27.330    7.4039
   27.345    7.2354
   27.360    6.7930
   27.375    7.2459
   27.390    7.2775
   27.405    7.0458
   27.420    6.8457
   27.435    7.2565
   27.450    7.4776
   27.465    7.3723
   27.480    7.2986
   27.495    6.8668
   27.510    7.6988
   27.525    7.5513
   27.540    7.3618
   27.555    7.3302
   27.570    7.5197
   27.585    7.4987
   27.600    6.9194
   27.615    7.4882
   27.630    7.6040
   27.645    6.9194
   27.660    7.1301
   27.675    7.7830
   27.690    7.2775
   27.705    7.2565
   27.720    7.5724
   27.735    7.2143
   27.750    7.1722
   27.765    7.3512
   27.780    7.9305
   27.795    7.5092
   27.810    7.2565
   27.825    6.9300
   27.840    7.2670
   27.855    7.0879
   27.870    7.5197
   27.885    7.5197
   27.900    7.2670
   27.915    7.5513
   27.930    7.3512
   27.945    7.4355
   27.960    7.5935
   27.975    7.8357
   27.990    7.3091
   28.005    7.8884
   28.020    7.4039
   28.035    7.8041
   28.050    8.0253
   28.065    7.7725
   28.080    7.4671
   28.095    7.5619
   28.110    7.4987
   28.125    7.2775
   28.140    7.6988
   28.155    7.2249
   28.170    7.4144
   28.185    7.4566
   28.200    7.0879
   28.215    7.1301
   28.230    7.4460
   28.245    7.3302
   28.260    7.4144
   28.275    6.9510
   28.290    7.2354
   28.305    7.0774
   28.320    7.4671
   28.335    7.2880
   28.350    7.1617
   28.365    7.0563
   28.380    7.0879
   28.395    7.0248
   28.410    7.7514
   28.425    7.5303
   28.440    7.0669
   28.455    7.1301
   28.470    7.0774
   28.485    7.2143
   28.500    7.4987
   28.515    7.6567
   28.530    7.6145
   28.545    7.5197
   28.560    7.1933
   28.575    7.1827
   28.590    7.0774
   28.605    7.2670
   28.620    7.3512
   28.635    7.3828
   28.650    7.2670
   28.665    6.9826
   28.680    6.8352
   28.695    7.0353
   28.710    6.8562
   28.725    6.7615
   28.740    7.1195
   28.755    7.3512
   28.770    7.2565
   28.785    7.0248
   28.800    6.7088
   28.815    7.0458
   28.830    7.1406
   28.845    7.1301
   28.860    7.0669
   28.875    7.2354
   28.890    7.0985
   28.905    7.2038
   28.920    7.5935
   28.935    7.4987
   28.950    7.6672
   28.965    7.6356
   28.980    7.6251
   28.995    7.5829
   29.010    7.2354
   29.025    7.2986
   29.040    7.6145
   29.055    7.2354
   29.070    6.7825
   29.085    6.9194
   29.100    6.5929
   29.115    7.1722
   29.130    6.9510
   29.145    6.5719
   29.160    6.7299
   29.175    6.7615
   29.190    6.6140
   29.205    6.5508
   29.220    7.0669
   29.235    7.0669
   29.250    6.7088
   29.265    6.8352
   29.280    7.2143
   29.295    7.0248
   29.310    6.7193
   29.325    6.8773
   29.340    6.9721
   29.355    6.8668
   29.370    7.0037
   29.385    7.2249
   29.400    6.7615
   29.415    7.3618
   29.430    6.9405
   29.445    6.9721
   29.460    6.4244
   29.475    7.0879
   29.490    7.1722
   29.505    7.2670
   29.520    7.0353
   29.535    7.4039
   29.550    7.0669
   29.565    6.9616
   29.580    6.9826
   29.595    7.0142
   29.610    6.9089
   29.625    7.1722
   29.640    7.0248
   29.655    6.7930
   29.670    6.8984
   29.685    7.2565
   29.700    7.1827
   29.715    7.3934
   29.730    6.8562
   29.745    6.3296
   29.760    6.7193
   29.775    6.9405
   29.790    6.8352
   29.805    7.3302
   29.820    6.9826
   29.835    6.9721
   29.850    6.9616
   29.865    6.4771
   29.880    6.6667
   29.895    6.6140
   29.910    6.4560
   29.925    6.8984
   29.940    7.0879
   29.955    7.1406
   29.970    6.6877
   29.985    6.6140
   30.000    6.9826
   30.015    6.7404
   30.030    6.4982
   30.045    6.5719
   30.060    6.5824
   30.075    6.9721
   30.090    6.8668
   30.105    6.8457
   30.120    6.9932
   30.135    6.6877
   30.150    6.6140
   30.165    6.9932
   30.180    7.1195
   30.195    7.3828
   30.210    6.7404
   30.225    6.7720
   30.240    6.5192
   30.255    6.3402
   30.270    6.4876
   30.285    6.8668
   30.300    7.0353
   30.315    6.8457
   30.330    6.7615
   30.345    7.0037
   30.360    6.6140
   30.375    6.4982
   30.390    6.8668
   30.405    6.8141
   30.420    6.6456
   30.435    6.6561
   30.450    6.8562
   30.465    6.7930
   30.480    6.6983
   30.495    6.7404
   30.510    6.3191
   30.525    6.6245
   30.540    6.8562
   30.555    6.4560
   30.570    6.6877
   30.585    6.5508
   30.600    6.3823
   30.615    6.9089
   30.630    6.8668
   30.645    6.4139
   30.660    6.7720
   30.675    6.9194
   30.690    6.8141
   30.705    6.6667
   30.720    6.4560
   30.735    6.8773
   30.750    6.8984
   30.765    6.7930
   30.780    6.9510
   30.795    6.7193
   30.810    6.5824
   30.825    6.6983
   30.840    6.5824
   30.855    6.5824
   30.870    6.5087
   30.885    6.5613
   30.900    6.5298
   30.915    6.9721
   30.930    6.8352
   30.945    6.4244
   30.960    6.7509
   30.975    6.6245
   30.990    6.9510
   31.005    7.2354
   31.020    7.2354
   31.035    6.8246
   31.050    6.3402
   31.065    6.6877
   31.080    6.7404
   31.095    6.7088
   31.110    6.6983
   31.125    6.6772
   31.140    6.7299
   31.155    6.7615
   31.170    6.7930
   31.185    6.8141
   31.200    6.5298
   31.215    7.0142
   31.230    6.7509
   31.245    6.4771
   31.260    6.4771
   31.275    6.5192
   31.290    6.6140
   31.305    6.8773
   31.320    6.8668
   31.335    6.0874
   31.350    6.4034
   31.365    6.5087
   31.380    6.7299
   31.395    6.8352
   31.410    6.8457
   31.425    6.4771
   31.440    6.4034
   31.455    6.4244
   31.470    6.4982
   31.485    6.3928
   31.500    6.3823
   31.515    6.8562
   31.530    6.7720
   31.545    6.5192
   31.560    6.5929
   31.575    6.7825
   31.590    6.6245
   31.605    6.1927
   31.620    6.5403
   31.635    6.4034
   31.650    6.1822
   31.665    6.5824
   31.680    6.4139
   31.695    6.5403
   31.710    6.7404
   31.725    6.7720
   31.740    6.3507
   31.755    6.8773
   31.770    6.4876
   31.785    6.7404
   31.800    7.0353
   31.815    6.5613
   31.830    6.6245
   31.845    6.9616
   31.860    6.2454
   31.875    6.7193
   31.890    6.8878
   31.905    6.8878
   31.920    6.8773
   31.935    6.8141
   31.950    6.4666
   31.965    6.8352
   31.980    7.3512
   31.995    7.1722
   32.010    6.8878
   32.025    7.1406
   32.040    7.8041
   32.055    7.8252
   32.070    7.8041
   32.085    7.9621
   32.100    7.8673
   32.115    7.6883
   32.130    7.4882
   32.145    7.5197
   32.160    7.6883
   32.175    7.3828
   32.190    6.7404
   32.205    6.9932
   32.220    6.9616
   32.235    6.2665
   32.250    6.0979
   32.265    6.1401
   32.280    5.8978
   32.295    6.5508
   32.310    6.7404
   32.325    6.3402
   32.340    6.3296
   32.355    6.4139
   32.370    6.4771
   32.385    6.3823
   32.400    6.5613
   32.415    6.4244
   32.430    6.7193
   32.445    6.4876
   32.460    6.4666
   32.475    6.5824
   32.490    7.1301
   32.505    6.2559
   32.520    6.0242
   32.535    6.3402
   32.550    6.4244
   32.565    6.3507
   32.580    5.8978
   32.595    6.5192
   32.610    6.5824
   32.625    6.4455
   32.640    6.4982
   32.655    6.2243
   32.670    6.2665
   32.685    6.2981
   32.700    5.9821
   32.715    6.2770
   32.730    6.3402
   32.745    6.5929
   32.760    6.4876
   32.775    6.1190
   32.790    6.2981
   32.805    6.0558
   32.820    6.2138
   32.835    6.0348
   32.850    6.3086
   32.865    6.7088
   32.880    6.1717
   32.895    6.2349
   32.910    6.8773
   32.925    6.8352
   32.940    6.2875
   32.955    6.5719
   32.970    6.4771
   32.985    6.0874
   33.000    6.3718
   33.015    6.4455
   33.030    6.4034
   33.045    6.3191
   33.060    6.2875
   33.075    6.2243
   33.090    6.4560
   33.105    6.4034
   33.120    5.9610
   33.135    6.5508
   33.150    6.8141
   33.165    6.2138
   33.180    6.4455
   33.195    6.2559
   33.210    6.1717
   33.225    6.1190
   33.240    6.4771
   33.255    6.3928
   33.270    6.4666
   33.285    6.0979
   33.300    6.0874
   33.315    5.9400
   33.330    6.1401
   33.345    6.0137
   33.360    6.1717
   33.375    5.8662
   33.390    6.3402
   33.405    6.5929
   33.420    5.9821
   33.435    6.1717
   33.450    6.0137
   33.465    6.4876
   33.480    6.5192
   33.495    6.3402
   33.510    6.2770
   33.525    6.3191
   33.540    6.4244
   33.555    6.5298
   33.570    6.3718
   33.585    6.4455
   33.600    5.9926
   33.615    6.1927
   33.630    6.4139
   33.645    5.8662
   33.660    5.9821
   33.675    6.4350
   33.690    6.3191
   33.705    6.5087
   33.720    6.1506
   33.735    6.6772
   33.750    6.7088
   33.765    7.0037
   33.780    6.7088
   33.795    6.6245
   33.810    6.5298
   33.825    6.8562
   33.840    6.7615
   33.855    6.9089
   33.870    6.7825
   33.885    6.7299
   33.900    6.3612
   33.915    6.6983
   33.930    6.4455
   33.945    6.5613
   33.960    6.5298
   33.975    6.1717
   33.990    6.1295
   34.005    6.3928
   34.020    6.4982
   34.035    6.4139
   34.050    6.4455
   34.065    6.8036
   34.080    6.6351
   34.095    6.4771
   34.110    6.5824
   34.125    6.6456
   34.140    6.4139
   34.155    5.8662
   34.170    6.0664
   34.185    6.2138
   34.200    6.4560
   34.215    6.0769
   34.230    6.0769
   34.245    6.3402
   34.260    6.0453
   34.275    5.7925
   34.290    5.7715
   34.305    5.8136
   34.320    6.0664
   34.335    6.1822
   34.350    5.8978
   34.365    5.9926
   34.380    6.0664
   34.395    6.3928
   34.410    6.4139
   34.425    6.3086
   34.440    6.1822
   34.455    6.1927
   34.470    6.0874
   34.485    6.0979
   34.500    6.6983
   34.515    6.0558
   34.530    6.0664
   34.545    5.8031
   34.560    5.9400
   34.575    6.2770
   34.590    6.1295
   34.605    5.7820
   34.620    6.1401
   34.635    5.8452
   34.650    6.3928
   34.665    6.2243
   34.680    5.8768
   34.695    6.1190
   34.710    6.3402
   34.725    6.1401
   34.740    6.2665
   34.755    6.1295
   34.770    5.7399
   34.785    5.5819
   34.800    6.2454
   34.815    6.2138
   34.830    6.4982
   34.845    6.2454
   34.860    6.5613
   34.875    6.1085
   34.890    6.0137
   34.905    5.8768
   34.920    6.0664
   34.935    6.2349
   34.950    6.1085
   34.965    5.8978
   34.980    5.6240
   34.995    5.8768
   35.010    5.9400
   35.025    6.0874
   35.040    5.9189
   35.055    6.0137
   35.070    6.2138
   35.085    6.3402
   35.100    5.9610
   35.115    5.7715
   35.130    5.9926
   35.145    6.0558
   35.160    5.8452
   35.175    6.0874
   35.190    5.9400
   35.205    5.9400
   35.220    6.0348
   35.235    6.1927
   35.250    5.7925
   35.265    5.9821
   35.280    5.7399
   35.295    6.0558
   35.310    6.2243
   35.325    5.8452
   35.340    5.7925
   35.355    5.8978
   35.370    6.3296
   35.385    5.9926
   35.400    5.8347
   35.415    5.8662
   35.430    6.0664
   35.445    5.9400
   35.460    6.3086
   35.475    6.2559
   35.490    6.0242
   35.505    5.6029
   35.520    5.8241
   35.535    6.0769
   35.550    5.9294
   35.565    5.9610
   35.580    6.1927
   35.595    6.2665
   35.610    6.0242
   35.625    5.8136
   35.640    5.8347
   35.655    5.6977
   35.670    6.0137
   35.685    5.7399
   35.700    5.9821
   35.715    5.9610
   35.730    5.7188
   35.745    5.8557
   35.760    6.0979
   35.775    6.2875
   35.790    5.7820
   35.805    5.7820
   35.820    5.7715
   35.835    6.0453
   35.850    6.3191
   35.865    6.0453
   35.880    6.2454
   35.895    6.1190
   35.910    6.1401
   35.925    5.9505
   35.940    6.4666
   35.955    5.9821
   35.970    6.3191
   35.985    6.0242
   36.000    5.8557
   36.015    6.0558
   36.030    6.0242
   36.045    6.1506
   36.060    5.7188
   36.075    5.9189
   36.090    5.8347
   36.105    5.9189
   36.120    5.9926
   36.135    6.0137
   36.150    6.0664
   36.165    5.9926
   36.180    6.2349
   36.195    5.7293
   36.210    5.7820
   36.225    6.0558
   36.240    5.6767
   36.255    5.6872
   36.270    5.9294
   36.285    5.4871
   36.300    5.8347
   36.315    5.7925
   36.330    5.9821
   36.345    5.8768
   36.360    5.8347
   36.375    6.0558
   36.390    6.0979
   36.405    5.9505
   36.420    6.0979
   36.435    6.1085
   36.450    5.8873
   36.465    5.9400
   36.480    5.6767
   36.495    5.7820
   36.510    6.0453
   36.525    5.8031
   36.540    5.3818
   36.555    5.7293
   36.570    5.6767
   36.585    5.6872
   36.600    5.6240
   36.615    5.5819
   36.630    5.8873
   36.645    5.9084
   36.660    6.0348
   36.675    5.6872
   36.690    5.8136
   36.705    6.0453
   36.720    5.9716
   36.735    6.1085
   36.750    5.6977
   36.765    5.5398
   36.780    5.6135
   36.795    5.8662
   36.810    6.0453
   36.825    5.9610
   36.840    6.0242
   36.855    6.0769
   36.870    6.0874
   36.885    5.5819
   36.900    6.0558
   36.915    5.7925
   36.930    5.6451
   36.945    5.7925
   36.960    5.9821
   36.975    5.6451
   36.990    5.8031
   37.005    5.9294
   37.020    5.5082
   37.035    6.1927
   37.050    6.0979
   37.065    5.7715
   37.080    5.7293
   37.095    5.8557
   37.110    5.8978
   37.125    5.8241
   37.140    5.9400
   37.155    5.8031
   37.170    5.9189
   37.185    5.9084
   37.200    5.8136
   37.215    5.9821
   37.230    5.9189
   37.245    5.8662
   37.260    5.6135
   37.275    5.8557
   37.290    5.7609
   37.305    5.7715
   37.320    5.8873
   37.335    6.0348
   37.350    5.6029
   37.365    5.7925
   37.380    5.3397
   37.395    5.4976
   37.410    6.0874
   37.425    5.6767
   37.440    5.4344
   37.455    5.4239
   37.470    5.6240
   37.485    5.8873
   37.500    5.9716
   37.515    6.0874
   37.530    5.8347
   37.545    5.6135
   37.560    5.8241
   37.575    6.2559
   37.590    5.9610
   37.605    6.1085
   37.620    5.9084
   37.635    5.8136
   37.650    5.6451
   37.665    5.9294
   37.680    6.2454
   37.695    5.9400
   37.710    6.0242
   37.725    5.8768
   37.740    5.9505
   37.755    5.9505
   37.770    5.8873
   37.785    6.1190
   37.800    6.1085
   37.815    5.9926
   37.830    6.0348
   37.845    5.8768
   37.860    5.8557
   37.875    6.2033
   37.890    5.9189
   37.905    6.0769
   37.920    6.0348
   37.935    5.9716
   37.950    5.8768
   37.965    6.2454
   37.980    5.8662
   37.995    5.4450
   38.010    5.6135
   38.025    5.6451
   38.040    6.0979
   38.055    5.9294
   38.070    6.2665
   38.085    5.9189
   38.100    5.5292
   38.115    6.2033
   38.130    5.6767
   38.145    5.8768
   38.160    5.9189
   38.175    5.6977
   38.190    5.7083
   38.205    5.8978
   38.220    5.5398
   38.235    5.7609
   38.250    5.7083
   38.265    5.7925
   38.280    5.8136
   38.295    5.6135
   38.310    5.8136
   38.325    5.8241
   38.340    6.0348
   38.355    5.9189
   38.370    5.7293
   38.385    6.1717
   38.400    6.1822
   38.415    6.0558
   38.430    5.9189
   38.445    5.6029
   38.460    5.6661
   38.475    6.1401
   38.490    5.7925
   38.505    5.7715
   38.520    5.6451
   38.535    5.9505
   38.550    5.9926
   38.565    6.3823
   38.580    6.2033
   38.595    5.7820
   38.610    6.0242
   38.625    6.3823
   38.640    6.4350
   38.655    6.4350
   38.670    5.8136
   38.685    6.0664
   38.700    5.8768
   38.715    6.1822
   38.730    6.2349
   38.745    6.2559
   38.760    5.9505
   38.775    5.7925
   38.790    5.5819
   38.805    5.5608
   38.820    5.9505
   38.835    5.7188
   38.850    5.5714
   38.865    5.9084
   38.880    6.0137
   38.895    5.7083
   38.910    6.0769
   38.925    5.7609
   38.940    6.0348
   38.955    5.4134
   38.970    5.7609
   38.985    5.6451
   39.000    5.8662
   39.015    5.8873
   39.030    5.8873
   39.045    5.1817
   39.060    5.6451
   39.075    5.7399
   39.090    6.0348
   39.105    5.9189
   39.120    5.7188
   39.135    5.8873
   39.150    5.6345
   39.165    5.8662
   39.180    5.6661
   39.195    5.8452
   39.210    5.8768
   39.225    5.7820
   39.240    5.5819
   39.255    5.9400
   39.270    6.0348
   39.285    5.8136
   39.300    5.9821
   39.315    5.9610
   39.330    5.8452
   39.345    6.2454
   39.360    5.9400
   39.375    5.6240
   39.390    5.8136
   39.405    5.7925
   39.420    5.7083
   39.435    5.6661
   39.450    6.0769
   39.465    6.1085
   39.480    5.8031
   39.495    6.3402
   39.510    6.1295
   39.525    5.9084
   39.540    5.9400
   39.555    5.9294
   39.570    5.8452
   39.585    5.8136
   39.600    5.9716
   39.615    5.7083
   39.630    5.4450
   39.645    5.7399
   39.660    5.6767
   39.675    5.6135
   39.690    5.5398
   39.705    5.9716
   39.720    5.8452
   39.735    5.8557
   39.750    6.0453
   39.765    5.7820
   39.780    5.8978
   39.795    5.8031
   39.810    5.7399
   39.825    5.6872
   39.840    5.7504
   39.855    5.6240
   39.870    5.5819
   39.885    6.2665
   39.900    5.8662
   39.915    5.7293
   39.930    5.7715
   39.945    5.8662
   39.960    5.7293
   39.975    5.7925
   39.990    5.5082
