    1.500   23.3702
    1.515   23.4229
    1.530   23.3175
    1.545   23.3070
    1.560   23.1069
    1.575   22.6014
    1.590   22.6330
    1.605   22.4750
    1.620   21.6114
    1.635   22.9910
    1.650   21.8220
    1.665   21.6219
    1.680   20.7688
    1.695   20.9584
    1.710   20.9689
    1.725   20.6424
    1.740   21.1374
    1.755   20.2738
    1.770   20.4318
    1.785   20.4423
    1.800   20.6951
    1.815   20.4845
    1.830   19.6946
    1.845   19.6314
    1.860   19.8210
    1.875   20.1896
    1.890   19.2312
    1.905   19.5261
    1.920   19.2628
    1.935   18.5361
    1.950   19.5998
    1.965   18.8415
    1.980   19.3786
    1.995   19.0627
    2.010   18.8626
    2.025   18.4729
    2.040   18.6940
    2.055   18.4308
    2.070   18.3360
    2.085   18.6940
    2.100   19.0943
    2.115   18.0937
    2.130   18.1569
    2.145   18.5361
    2.160   17.7567
    2.175   17.9358
    2.190   18.7678
    2.205   18.2201
    2.220   18.7256
    2.235   18.6098
    2.250   18.2938
    2.265   17.9147
    2.280   17.5777
    2.295   17.8936
    2.310   18.1148
    2.325   17.8410
    2.340   17.9884
    2.355   17.7778
    2.370   17.7357
    2.385   17.3670
    2.400   17.4092
    2.415   18.3254
    2.430   18.4202
    2.445   17.9884
    2.460   18.3465
    2.475   18.0095
    2.490   17.9779
    2.505   17.3776
    2.520   18.0937
    2.535   17.8726
    2.550   17.3354
    2.565   18.3360
    2.580   18.2201
    2.595   18.1043
    2.610   17.9989
    2.625   18.5045
    2.640   19.3997
    2.655   18.8415
    2.670   18.8310
    2.685   18.9784
    2.700   19.3892
    2.715   19.4629
    2.730   19.8736
    2.745   20.0105
    2.760   19.8631
    2.775   20.1159
    2.790   20.5477
    2.805   20.4213
    2.820   20.9268
    2.835   21.0005
    2.850   21.4639
    2.865   21.8115
    2.880   21.1480
    2.895   20.8847
    2.910   22.2854
    2.925   22.1274
    2.940   22.7488
    2.955   22.6856
    2.970   22.8857
    2.985   23.4018
    3.000   23.9073
    3.015   24.0864
    3.030   25.0658
    3.045   25.6240
    3.060   25.8347
    3.075   25.5714
    3.090   25.7083
    3.105   26.9194
    3.120   27.7409
    3.135   28.5308
    3.150   28.6151
    3.165   29.0785
    3.180   29.1522
    3.195   29.6577
    3.210   31.2691
    3.225   31.9958
    3.240   32.5856
    3.255   33.1964
    3.270   34.5024
    3.285   34.6498
    3.300   36.3770
    3.315   37.5355
    3.330   38.6414
    3.345   39.8631
    3.360   41.8852
    3.375   43.4966
    3.390   44.8236
    3.405   45.2238
    3.420   47.2775
    3.435   48.6888
    3.450   49.4892
    3.465   49.8684
    3.480   52.4487
    3.495   53.9652
    3.510   53.3123
    3.525   52.4803
    3.540   54.2496
    3.555   54.9447
    3.570   57.3354
    3.585   59.6314
    3.600   60.5793
    3.615   62.4961
    3.630   64.1074
    3.645   67.7409
    3.660   72.1116
    3.675   75.7241
    3.690   78.1675
    3.705   83.0858
    3.720   88.4466
    3.735   93.1438
    3.750  100.8531
    3.765  107.8252
    3.780  117.0406
    3.795  128.1201
    3.810  144.8973
    3.825  162.6435
    3.840  187.6251
    3.855  208.4782
    3.870  217.1248
    3.885  212.2802
    3.900  187.1827
    3.915  142.2644
    3.930   89.0258
    3.945   49.1522
    3.960   30.4055
    3.975   22.7593
    3.990   19.3681
    4.005   18.4518
    4.020   17.0721
    4.035   16.0400
    4.050   15.3344
    4.065   15.0079
    4.080   14.1127
    4.095   13.2596
    4.110   12.7751
    4.125   12.5856
    4.140   12.0379
    4.155   11.7220
    4.170   11.5219
    4.185   11.3955
    4.200   11.0690
    4.215   11.3323
    4.230   11.0374
    4.245   10.8057
    4.260   10.6056
    4.275   10.1316
    4.290   10.3423
    4.305   10.4687
    4.320   10.1948
    4.335    9.9315
    4.350    9.6682
    4.365   10.0263
    4.380   10.0895
    4.395    9.7841
    4.410    9.6998
    4.425    9.2154
    4.440    9.3102
    4.455    9.0469
    4.470    9.4576
    4.485    9.6472
    4.500    9.8052
    4.515    9.5735
    4.530    9.5629
    4.545    9.7841
    4.560    9.6682
    4.575    8.8257
    4.590    8.8573
    4.605    9.1417
    4.620    9.5208
    4.635    9.4892
    4.650    9.5208
    4.665    9.1838
    4.680    9.8473
    4.695    9.5103
    4.710    9.6788
    4.725    9.6682
    4.740    9.4997
    4.755    9.6998
    4.770   10.1843
    4.785   10.2264
    4.800   10.5951
    4.815   10.5424
    4.830   10.3633
    4.845   10.7109
    4.860   10.8373
    4.875   10.6793
    4.890   10.9847
    4.905   10.9426
    4.920   10.9426
    4.935   10.7636
    4.950   11.6693
    4.965   11.9537
    4.980   11.8799
    4.995   12.1011
    5.010   12.2696
    5.025   12.7330
    5.040   12.7857
    5.055   12.7857
    5.070   12.9647
    5.085   14.1864
    5.100   14.1127
    5.115   14.2812
    5.130   14.4392
    5.145   15.0606
    5.160   15.7135
    5.175   15.8083
    5.190   16.9458
    5.205   17.1459
    5.220   17.9252
    5.235   18.1780
    5.250   18.1569
    5.265   19.9157
    5.280   20.6530
    5.295   21.6851
    5.310   22.6856
    5.325   24.0337
    5.340   24.8973
    5.355   26.7825
    5.370   28.9626
    5.385   30.6372
    5.400   33.0911
    5.415   36.4613
    5.430   40.1790
    5.445   44.0337
    5.460   51.3849
    5.475   57.9042
    5.490   60.5477
    5.505   59.1364
    5.520   53.1016
    5.535   43.4650
    5.550   29.7314
    5.565   19.4734
    5.580   12.7330
    5.595   10.3002
    5.610    9.1206
    5.625    8.8257
    5.640    8.7941
    5.655    8.4992
    5.670    7.9937
    5.685    7.6777
    5.700    7.8252
    5.715    7.5303
    5.730    8.0358
    5.745    8.0569
    5.760    8.4255
    5.775    7.5829
    5.790    7.2143
    5.805    6.9721
    5.820    7.2775
    5.835    7.7725
    5.850    7.6567
    5.865    7.5303
    5.880    7.2565
    5.895    7.6672
    5.910    7.1617
    5.925    7.2775
    5.940    7.4987
    5.955    8.2043
    5.970    8.0569
    5.985    7.5619
    6.000    7.4039
    6.015    7.2565
    6.030    7.4250
    6.045    7.7830
    6.060    7.6040
    6.075    7.1090
    6.090    7.4776
    6.105    7.4355
    6.120    7.5829
    6.135    7.5724
    6.150    7.2038
    6.165    7.4460
    6.180    7.2354
    6.195    7.3196
    6.210    7.1406
    6.225    7.5408
    6.240    7.7725
    6.255    7.8673
    6.270    7.7304
    6.285    7.8673
    6.300    7.2986
    6.315    7.7936
    6.330    8.0463
    6.345    8.0885
    6.360    8.2675
    6.375    8.6888
    6.390    8.2675
    6.405    8.4676
    6.420    8.7836
    6.435    8.8784
    6.450    8.8678
    6.465    8.9415
    6.480    9.0258
    6.495    9.2364
    6.510    9.2259
    6.525    9.5103
    6.540    9.8157
    6.555    9.9105
    6.570    9.7525
    6.585   10.1106
    6.600   10.8373
    6.615   11.1532
    6.630   12.1011
    6.645   12.8910
    6.660   13.1227
    6.675   13.9968
    6.690   15.1027
    6.705   16.9247
    6.720   18.1569
    6.735   18.1464
    6.750   18.2306
    6.765   17.5566
    6.780   14.8815
    6.795   12.4276
    6.810   10.7004
    6.825    8.6572
    6.840    8.7098
    6.855    8.1833
    6.870    8.0042
    6.885    8.3939
    6.900    7.8041
    6.915    7.7936
    6.930    7.8146
    6.945    7.5092
    6.960    8.0569
    6.975    7.8252
    6.990    7.8778
    7.005    7.7725
    7.020    7.7514
    7.035    7.5619
    7.050    7.4460
    7.065    7.4460
    7.080    7.3828
    7.095    7.2565
    7.110    7.3302
    7.125    7.4566
    7.140    7.1301
    7.155    7.0669
    7.170    7.2459
    7.185    7.0142
    7.200    6.8562
    7.215    7.2670
    7.230    7.3723
    7.245    7.0985
    7.260    7.5829
    7.275    7.3407
    7.290    7.2880
    7.305    7.4776
    7.320    7.5197
    7.335    7.6040
    7.350    7.4882
    7.365    7.4039
    7.380    7.5619
    7.395    7.7830
    7.410    7.8673
    7.425    7.6040
    7.440    7.6040
    7.455    8.1095
    7.470    8.0674
    7.485    8.3307
    7.500    7.9305
    7.515    8.3834
    7.530    9.0995
    7.545    9.1943
    7.560    8.8889
    7.575    8.8046
    7.590    8.8784
    7.605    9.9210
    7.620   10.0158
    7.635   10.5003
    7.650   10.6688
    7.665   10.4792
    7.680   10.9215
    7.695   12.0906
    7.710   12.9647
    7.725   13.6388
    7.740   15.0500
    7.755   15.9347
    7.770   17.1775
    7.785   18.4413
    7.800   18.1675
    7.815   16.6825
    7.830   14.8183
    7.845   12.5013
    7.860   10.7214
    7.875    8.6045
    7.890    7.7093
    7.905    7.5092
    7.920    7.3723
    7.935    7.2459
    7.950    7.3302
    7.965    7.0985
    7.980    7.4355
    7.995    7.4144
    8.010    6.9405
    8.025    6.9616
    8.040    7.2038
    8.055    6.9721
    8.070    6.9300
    8.085    7.2670
    8.100    7.3512
    8.115    7.2249
    8.130    7.0037
    8.145    6.8246
    8.160    6.9721
    8.175    6.8036
    8.190    6.8036
    8.205    6.8878
    8.220    6.8457
    8.235    7.0142
    8.250    7.0774
    8.265    7.2459
    8.280    6.7720
    8.295    7.0353
    8.310    6.9194
    8.325    6.8246
    8.340    7.2459
    8.355    7.1511
    8.370    7.0985
    8.385    7.3302
    8.400    7.4039
    8.415    7.4566
    8.430    6.6667
    8.445    6.8878
    8.460    7.0248
    8.475    6.7720
    8.490    7.1406
    8.505    7.2459
    8.520    7.2459
    8.535    7.1406
    8.550    7.0353
    8.565    6.8036
    8.580    7.1827
    8.595    7.1722
    8.610    7.2038
    8.625    7.0142
    8.640    7.6040
    8.655    7.8989
    8.670    8.0463
    8.685    7.7620
    8.700    8.0042
    8.715    7.9516
    8.730    7.8989
    8.745    7.8357
    8.760    7.8673
    8.775    7.2670
    8.790    6.9510
    8.805    6.5087
    8.820    6.7299
    8.835    6.8352
    8.850    6.8141
    8.865    6.4876
    8.880    6.0874
    8.895    6.5403
    8.910    6.5824
    8.925    6.6983
    8.940    7.0142
    8.955    6.8036
    8.970    6.7615
    8.985    7.2880
    9.000    6.9932
    9.015    6.9932
    9.030    7.0037
    9.045    6.9616
    9.060    7.1617
    9.075    7.1827
    9.090    7.3723
    9.105    7.4250
    9.120    7.4566
    9.135    7.3723
    9.150    7.3618
    9.165    7.5513
    9.180    7.4355
    9.195    7.8357
    9.210    8.1938
    9.225    7.8989
    9.240    8.2570
    9.255    8.4571
    9.270    8.8362
    9.285    8.8257
    9.300    9.0785
    9.315    8.9205
    9.330    9.6156
    9.345   10.5108
    9.360   10.2896
    9.375   10.6372
    9.390   11.2902
    9.405   12.2591
    9.420   13.1332
    9.435   13.8178
    9.450   14.9974
    9.465   15.6714
    9.480   17.1564
    9.495   19.6946
    9.510   22.2117
    9.525   24.4128
    9.540   27.0563
    9.555   27.9200
    9.570   27.1617
    9.585   24.6446
    9.600   19.2206
    9.615   15.0079
    9.630   11.0269
    9.645    9.0047
    9.660    7.4566
    9.675    6.9721
    9.690    7.4776
    9.705    6.6983
    9.720    6.6877
    9.735    6.7509
    9.750    6.8668
    9.765    6.8352
    9.780    7.0353
    9.795    6.7404
    9.810    6.4455
    9.825    6.1822
    9.840    6.7404
    9.855    7.1933
    9.870    6.8352
    9.885    6.4666
    9.900    6.2875
    9.915    6.8878
    9.930    6.8773
    9.945    6.8246
    9.960    6.9721
    9.975    7.1617
    9.990    7.0879
   10.005    7.1511
   10.020    6.8984
   10.035    7.3407
   10.050    7.1617
   10.065    6.8457
   10.080    7.0037
   10.095    6.9300
   10.110    7.4671
   10.125    7.6356
   10.140    7.7936
   10.155    7.5408
   10.170    8.1727
   10.185    8.7204
   10.200    9.0574
   10.215    9.1627
   10.230    9.7841
   10.245    9.8052
   10.260   10.5529
   10.275   11.7957
   10.290   12.4592
   10.305   13.2491
   10.320   13.9337
   10.335   14.2496
   10.350   13.3228
   10.365   11.3639
   10.380   10.0369
   10.395    8.9205
   10.410    8.4466
   10.425    7.2670
   10.440    6.5613
   10.455    6.5719
   10.470    6.4350
   10.485    6.6351
   10.500    6.6245
   10.515    6.7088
   10.530    6.4876
   10.545    6.7299
   10.560    6.7404
   10.575    6.4244
   10.590    6.2243
   10.605    6.5613
   10.620    6.4876
   10.635    6.8457
   10.650    6.7299
   10.665    6.3612
   10.680    6.8141
   10.695    6.6035
   10.710    6.7720
   10.725    6.6456
   10.740    6.5298
   10.755    6.8352
   10.770    6.7193
   10.785    7.1090
   10.800    6.8562
   10.815    7.3934
   10.830    7.2880
   10.845    7.6883
   10.860    8.0358
   10.875    7.6567
   10.890    7.8462
   10.905    7.9937
   10.920    8.1306
   10.935    8.7836
   10.950    9.5313
   10.965    9.8262
   10.980   10.5635
   10.995   11.0585
   11.010   11.4165
   11.025   12.0169
   11.040   12.5224
   11.055   12.8805
   11.070   12.0379
   11.085   10.9847
   11.100    9.7841
   11.115    8.6151
   11.130    7.6040
   11.145    6.8668
   11.160    6.5824
   11.175    6.7509
   11.190    6.0979
   11.205    6.3718
   11.220    6.0874
   11.235    6.0137
   11.250    6.4244
   11.265    6.3612
   11.280    6.3296
   11.295    6.7404
   11.310    6.7720
   11.325    6.1401
   11.340    6.8984
   11.355    6.6245
   11.370    6.4876
   11.385    6.6561
   11.400    7.0563
   11.415    6.7720
   11.430    6.4771
   11.445    6.3823
   11.460    6.6140
   11.475    7.2038
   11.490    7.6988
   11.505    7.2249
   11.520    7.3196
   11.535    7.7725
   11.550    7.7514
   11.565    8.1201
   11.580    7.9937
   11.595    8.6361
   11.610    9.0995
   11.625    9.5945
   11.640    9.8789
   11.655   10.4581
   11.670   10.8794
   11.685   11.7746
   11.700   12.8173
   11.715   13.5440
   11.730   14.1443
   11.745   12.2275
   11.760   10.5951
   11.775    9.5840
   11.790    8.4360
   11.805    7.5408
   11.820    7.0353
   11.835    6.5298
   11.850    6.5824
   11.865    6.4034
   11.880    6.1717
   11.895    5.6977
   11.910    6.0242
   11.925    6.4455
   11.940    6.1822
   11.955    6.0348
   11.970    6.0558
   11.985    6.0769
   12.000    6.1295
   12.015    6.1190
   12.030    6.2349
   12.045    5.9400
   12.060    6.2243
   12.075    6.4034
   12.090    6.5192
   12.105    6.2559
   12.120    6.1401
   12.135    6.4876
   12.150    6.4244
   12.165    6.2875
   12.180    6.3718
   12.195    6.2454
   12.210    6.1401
   12.225    6.3928
   12.240    6.4560
   12.255    6.2454
   12.270    6.2033
   12.285    6.5719
   12.300    6.6667
   12.315    6.8246
   12.330    7.0248
   12.345    7.1195
   12.360    7.0458
   12.375    6.6877
   12.390    6.9089
   12.405    6.6983
   12.420    6.2138
   12.435    6.4350
   12.450    5.9294
   12.465    6.4244
   12.480    6.3402
   12.495    6.5087
   12.510    6.0769
   12.525    5.6977
   12.540    5.8557
   12.555    6.2559
   12.570    6.0979
   12.585    6.3718
   12.600    5.9505
   12.615    5.8347
   12.630    5.9926
   12.645    6.1717
   12.660    6.1295
   12.675    6.2770
   12.690    6.1717
   12.705    6.2559
   12.720    6.6035
   12.735    6.7088
   12.750    6.4034
   12.765    6.4876
   12.780    6.4982
   12.795    6.9089
   12.810    6.9510
   12.825    6.8562
   12.840    7.0037
   12.855    7.0142
   12.870    7.6883
   12.885    8.0674
   12.900    8.4150
   12.915    8.9731
   12.930   10.0263
   12.945   10.4687
   12.960   10.7952
   12.975   10.5108
   12.990   10.4055
   13.005    9.1417
   13.020    8.2149
   13.035    7.3407
   13.050    6.4666
   13.065    6.4666
   13.080    6.1401
   13.095    6.1611
   13.110    6.3507
   13.125    6.1190
   13.140    6.0348
   13.155    6.2243
   13.170    5.9189
   13.185    6.1085
   13.200    5.8347
   13.215    5.6872
   13.230    5.9400
   13.245    6.1401
   13.260    6.0558
   13.275    6.0242
   13.290    6.2033
   13.305    6.0664
   13.320    6.3296
   13.335    6.1927
   13.350    6.3402
   13.365    5.8978
   13.380    5.8031
   13.395    6.1611
   13.410    6.5298
   13.425    6.4034
   13.440    6.5403
   13.455    7.0037
   13.470    7.2459
   13.485    7.6145
   13.500    7.6251
   13.515    7.7725
   13.530    7.8146
   13.545    8.0253
   13.560    7.9200
   13.575    7.7093
   13.590    7.3196
   13.605    7.2143
   13.620    6.5192
   13.635    6.2243
   13.650    5.7609
   13.665    5.8031
   13.680    5.9821
   13.695    6.0242
   13.710    5.7293
   13.725    5.8452
   13.740    5.6872
   13.755    5.5924
   13.770    6.1401
   13.785    6.3718
   13.800    6.3928
   13.815    6.0769
   13.830    6.1190
   13.845    6.0137
   13.860    5.8347
   13.875    6.0242
   13.890    6.3928
   13.905    6.5403
   13.920    6.2454
   13.935    6.2243
   13.950    7.0669
   13.965    6.7193
   13.980    6.9721
   13.995    7.1195
   14.010    7.3407
   14.025    8.0042
   14.040    8.3728
   14.055    8.6467
   14.070    9.2680
   14.085    9.8368
   14.100    9.6472
   14.115    9.7420
   14.130    9.4260
   14.145    8.5308
   14.160    7.7199
   14.175    7.0985
   14.190    6.4560
   14.205    6.1927
   14.220    6.0348
   14.235    6.0137
   14.250    6.0453
   14.265    6.1085
   14.280    5.7925
   14.295    5.5924
   14.310    5.7925
   14.325    6.1295
   14.340    6.0242
   14.355    5.9294
   14.370    6.0558
   14.385    5.7188
   14.400    6.0348
   14.415    5.5819
   14.430    5.4134
   14.445    5.8452
   14.460    5.9294
   14.475    5.6767
   14.490    5.7188
   14.505    5.4660
   14.520    5.5082
   14.535    5.7609
   14.550    5.7293
   14.565    5.9716
   14.580    5.8452
   14.595    5.6767
   14.610    5.7715
   14.625    5.7925
   14.640    6.0348
   14.655    5.4450
   14.670    5.2659
   14.685    5.2554
   14.700    5.3186
   14.715    5.5819
   14.730    6.2349
   14.745    5.9716
   14.760    5.6556
   14.775    5.5292
   14.790    5.5292
   14.805    5.6345
   14.820    5.8347
   14.835    5.5819
   14.850    5.8873
   14.865    5.9610
   14.880    5.9505
   14.895    5.6029
   14.910    5.5608
   14.925    5.6029
   14.940    5.8873
   14.955    6.1506
   14.970    5.8557
   14.985    5.7293
   15.000    5.8241
   15.015    5.9294
   15.030    6.0453
   15.045    6.3296
   15.060    6.6245
   15.075    6.2665
   15.090    6.5087
   15.105    6.2349
   15.120    6.4876
   15.135    6.7615
   15.150    6.6351
   15.165    6.7509
   15.180    6.5298
   15.195    6.2665
   15.210    6.4560
   15.225    6.2665
   15.240    5.8347
   15.255    5.8241
   15.270    5.4871
   15.285    5.6451
   15.300    5.8136
   15.315    5.7504
   15.330    5.3712
   15.345    5.8662
   15.360    5.6661
   15.375    5.5187
   15.390    5.6661
   15.405    5.5398
   15.420    5.8768
   15.435    5.6029
   15.450    5.5503
   15.465    5.4766
   15.480    5.8347
   15.495    5.5714
   15.510    5.5187
   15.525    5.5819
   15.540    5.6345
   15.555    5.7715
   15.570    5.6977
   15.585    6.0137
   15.600    5.8662
   15.615    6.3191
   15.630    6.1611
   15.645    5.8136
   15.660    5.7715
   15.675    5.9926
   15.690    5.8136
   15.705    5.8241
   15.720    5.8452
   15.735    6.0453
   15.750    5.7925
   15.765    5.4871
   15.780    5.4134
   15.795    5.8136
   15.810    5.6556
   15.825    5.8557
   15.840    5.5924
   15.855    5.8031
   15.870    5.8978
   15.885    6.0874
   15.900    6.0558
   15.915    5.3923
   15.930    5.5714
   15.945    5.8136
   15.960    6.1190
   15.975    6.1927
   15.990    6.1401
   16.005    5.7715
   16.020    5.9716
   16.035    6.0664
   16.050    5.7820
   16.065    6.4876
   16.080    6.5824
   16.095    6.4455
   16.110    6.4982
   16.125    6.8984
   16.140    6.7088
   16.155    6.5929
   16.170    6.8141
   16.185    6.3612
   16.200    6.2770
   16.215    6.3402
   16.230    5.9926
   16.245    5.7399
   16.260    5.7083
   16.275    5.7715
   16.290    5.6872
   16.305    5.6451
   16.320    5.8662
   16.335    5.5819
   16.350    5.6345
   16.365    5.8768
   16.380    5.9716
   16.395    6.0453
   16.410    5.7715
   16.425    6.2454
   16.440    5.8241
   16.455    5.7293
   16.470    5.7925
   16.485    6.1717
   16.500    6.3402
   16.515    5.8768
   16.530    6.1927
   16.545    6.2454
   16.560    6.2454
   16.575    6.6456
   16.590    6.2349
   16.605    6.7193
   16.620    6.8773
   16.635    6.4455
   16.650    6.7404
   16.665    6.6983
   16.680    6.6035
   16.695    6.0979
   16.710    6.2033
   16.725    6.0242
   16.740    5.5924
   16.755    5.8452
   16.770    5.9189
   16.785    5.9821
   16.800    5.6977
   16.815    5.9610
   16.830    6.0348
   16.845    6.2559
   16.860    6.3191
   16.875    6.0874
   16.890    6.2349
   16.905    6.3191
   16.920    6.7509
   16.935    6.7509
   16.950    7.1195
   16.965    6.9721
   16.980    6.8668
   16.995    7.3723
   17.010    7.6356
   17.025    7.9410
   17.040    8.1938
   17.055    8.4255
   17.070    9.0679
   17.085    9.2996
   17.100    8.7098
   17.115    8.1306
   17.130    7.5197
   17.145    7.4671
   17.160    6.8246
   17.175    6.3296
   17.190    6.2875
   17.205    6.0979
   17.220    5.8347
   17.235    5.7925
   17.250    5.8452
   17.265    5.4976
   17.280    5.8347
   17.295    5.7715
   17.310    6.0137
   17.325    5.9294
   17.340    5.7293
   17.355    5.4450
   17.370    5.8978
   17.385    5.8557
   17.400    5.5714
   17.415    5.9084
   17.430    6.1927
   17.445    5.9610
   17.460    6.1822
   17.475    6.3507
   17.490    6.3718
   17.505    5.9189
   17.520    6.3402
   17.535    6.6245
   17.550    6.1927
   17.565    6.3718
   17.580    5.9716
   17.595    6.1085
   17.610    6.1190
   17.625    5.9610
   17.640    6.1295
   17.655    6.0032
   17.670    5.7609
   17.685    5.8031
   17.700    5.4134
   17.715    5.6872
   17.730    6.0032
   17.745    5.7293
   17.760    5.9294
   17.775    5.8241
   17.790    5.9821
   17.805    5.8662
   17.820    5.6872
   17.835    5.6872
   17.850    6.1401
   17.865    6.0769
   17.880    5.9716
   17.895    6.0769
   17.910    5.8031
   17.925    6.5403
   17.940    6.9721
   17.955    6.6245
   17.970    6.4982
   17.985    6.3823
   18.000    6.4982
   18.015    6.3402
   18.030    6.2770
   18.045    5.9716
   18.060    5.6556
   18.075    5.6556
   18.090    5.8031
   18.105    6.4034
   18.120    6.1822
   18.135    5.7820
   18.150    5.7504
   18.165    5.7399
   18.180    5.8768
   18.195    5.6661
   18.210    5.8136
   18.225    5.5714
   18.240    5.6345
   18.255    5.6872
   18.270    5.9084
   18.285    5.7715
   18.300    6.0664
   18.315    5.8768
   18.330    6.2454
   18.345    6.4455
   18.360    6.9089
   18.375    6.8984
   18.390    6.5824
   18.405    6.9089
   18.420    6.7825
   18.435    6.2349
   18.450    6.0137
   18.465    6.3823
   18.480    6.0979
   18.495    5.9716
   18.510    5.6556
   18.525    5.8241
   18.540    5.7609
   18.555    5.8452
   18.570    6.0558
   18.585    5.9084
   18.600    5.7188
   18.615    5.8136
   18.630    5.3607
   18.645    5.4660
   18.660    5.4976
   18.675    5.9716
   18.690    6.2138
   18.705    6.2559
   18.720    6.1506
   18.735    5.9084
   18.750    6.1717
   18.765    5.7083
   18.780    6.2243
   18.795    5.8241
   18.810    6.0453
   18.825    6.2770
   18.840    5.9189
   18.855    6.0137
   18.870    6.0032
   18.885    6.0769
   18.900    6.0558
   18.915    6.5613
   18.930    6.3823
   18.945    6.4455
   18.960    6.5087
   18.975    6.4560
   18.990    6.4560
   19.005    6.6035
   19.020    6.3191
   19.035    6.2033
   19.050    6.0558
   19.065    5.9716
   19.080    6.0453
   19.095    5.7083
   19.110    5.6451
   19.125    5.8768
   19.140    5.7083
   19.155    5.9294
   19.170    5.5608
   19.185    5.5503
   19.200    5.9716
   19.215    5.6029
   19.230    5.6240
   19.245    6.1295
   19.260    5.7399
   19.275    5.8452
   19.290    6.0874
   19.305    5.6029
   19.320    5.2659
   19.335    5.4028
   19.350    5.8768
   19.365    6.1506
   19.380    5.7504
   19.395    5.5819
   19.410    5.5082
   19.425    5.9294
   19.440    5.9084
   19.455    5.9926
   19.470    5.7293
   19.485    6.0032
   19.500    5.9400
   19.515    5.9400
   19.530    6.1085
   19.545    6.1611
   19.560    6.4982
   19.575    6.6035
   19.590    6.7930
   19.605    6.4455
   19.620    6.8141
   19.635    6.6035
   19.650    6.6456
   19.665    6.6772
   19.680    6.2770
   19.695    6.5613
   19.710    6.4455
   19.725    6.2243
   19.740    6.0664
   19.755    5.5608
   19.770    5.4871
   19.785    5.5819
   19.800    5.7188
   19.815    6.0769
   19.830    5.7925
   19.845    6.2033
   19.860    5.6345
   19.875    5.8136
   19.890    6.1927
   19.905    6.1717
   19.920    6.2454
   19.935    5.6556
   19.950    5.7188
   19.965    5.6872
   19.980    6.0242
   19.995    6.1401
   20.010    6.5192
   20.025    6.2033
   20.040    5.9716
   20.055    5.9400
   20.070    6.2770
   20.085    5.8662
   20.100    5.8241
   20.115    5.8662
   20.130    5.5292
   20.145    6.0032
   20.160    5.8241
   20.175    5.7925
   20.190    5.9926
   20.205    6.1190
   20.220    5.9821
   20.235    6.2665
   20.250    6.5508
   20.265    6.7299
   20.280    6.7930
   20.295    6.5719
   20.310    7.2670
   20.325    7.0458
   20.340    7.4882
   20.355    7.9200
   20.370    7.9200
   20.385    8.0253
   20.400    8.1622
   20.415    8.3939
   20.430    8.3728
   20.445    7.6567
   20.460    7.4144
   20.475    7.1195
   20.490    6.9089
   20.505    6.6983
   20.520    6.3507
   20.535    6.3296
   20.550    6.4560
   20.565    6.1822
   20.580    5.8136
   20.595    5.7609
   20.610    6.0664
   20.625    6.0348
   20.640    5.8347
   20.655    5.6661
   20.670    5.7504
   20.685    5.7504
   20.700    5.8347
   20.715    5.9189
   20.730    5.9610
   20.745    5.8347
   20.760    6.1927
   20.775    5.9716
   20.790    5.8347
   20.805    5.6240
   20.820    5.7820
   20.835    6.0664
   20.850    5.7820
   20.865    6.1295
   20.880    6.2665
   20.895    5.9084
   20.910    5.9926
   20.925    5.9505
   20.940    6.1295
   20.955    5.9189
   20.970    5.9189
   20.985    5.8347
   21.000    5.8031
   21.015    6.0032
   21.030    5.8452
   21.045    5.7188
   21.060    6.2981
   21.075    6.1190
   21.090    5.5187
   21.105    5.8662
   21.120    5.8662
   21.135    5.9400
   21.150    5.7083
   21.165    5.8452
   21.180    5.8031
   21.195    6.0664
   21.210    6.0348
   21.225    5.8557
   21.240    5.9716
   21.255    6.0242
   21.270    5.7925
   21.285    5.8452
   21.300    6.3296
   21.315    5.9505
   21.330    5.8031
   21.345    5.6451
   21.360    6.0137
   21.375    6.1401
   21.390    6.0558
   21.405    6.1401
   21.420    6.1401
   21.435    6.1717
   21.450    6.0137
   21.465    6.2138
   21.480    5.8347
   21.495    5.5714
   21.510    5.9294
   21.525    6.2454
   21.540    6.0032
   21.555    5.7820
   21.570    5.7504
   21.585    6.1506
   21.600    6.1717
   21.615    5.9926
   21.630    5.5714
   21.645    5.9084
   21.660    6.4560
   21.675    6.2349
   21.690    5.7083
   21.705    5.5187
   21.720    6.1717
   21.735    6.2243
   21.750    6.3718
   21.765    6.4244
   21.780    6.2349
   21.795    6.6245
   21.810    6.4034
   21.825    6.4666
   21.840    6.8352
   21.855    6.9932
   21.870    6.9300
   21.885    6.8984
   21.900    6.7930
   21.915    6.7615
   21.930    6.7299
   21.945    6.2349
   21.960    6.3612
   21.975    6.2454
   21.990    6.1927
   22.005    5.6767
   22.020    6.1401
   22.035    5.9716
   22.050    6.5613
   22.065    5.9505
   22.080    6.3086
   22.095    6.0979
   22.110    6.1295
   22.125    6.6667
   22.140    6.0242
   22.155    6.3086
   22.170    6.4982
   22.185    6.5719
   22.200    6.6035
   22.215    6.8773
   22.230    6.6140
   22.245    6.9405
   22.260    6.6983
   22.275    6.5087
   22.290    6.4666
   22.305    6.5403
   22.320    6.4139
   22.335    6.3928
   22.350    6.2875
   22.365    6.1822
   22.380    6.3718
   22.395    6.3191
   22.410    6.3507
   22.425    6.1927
   22.440    6.3191
   22.455    6.7615
   22.470    6.8562
   22.485    7.0458
   22.500    7.3407
   22.515    7.3723
   22.530    7.6145
   22.545    8.8678
   22.560    8.1833
   22.575    8.4150
   22.590    8.7204
   22.605    8.5097
   22.620    8.0990
   22.635    8.3623
   22.650    7.7725
   22.665    7.3934
   22.680    7.1722
   22.695    7.1722
   22.710    6.5613
   22.725    6.7720
   22.740    6.7720
   22.755    6.8984
   22.770    6.5824
   22.785    6.6035
   22.800    6.6877
   22.815    7.0563
   22.830    7.1406
   22.845    7.6777
   22.860    7.3091
   22.875    7.7830
   22.890    8.6151
   22.905    8.5097
   22.920    8.7098
   22.935    9.0047
   22.950    8.5519
   22.965    8.3518
   22.980    7.8778
   22.995    7.3091
   23.010    7.1301
   23.025    7.1722
   23.040    6.7825
   23.055    6.5719
   23.070    6.4982
   23.085    6.2454
   23.100    6.2875
   23.115    6.3507
   23.130    6.4139
   23.145    6.1822
   23.160    6.6351
   23.175    6.6667
   23.190    6.4560
   23.205    6.5719
   23.220    6.6351
   23.235    7.0669
   23.250    6.9616
   23.265    6.8773
   23.280    6.7404
   23.295    7.0563
   23.310    7.0985
   23.325    6.5824
   23.340    6.8141
   23.355    6.4034
   23.370    5.9716
   23.385    6.0453
   23.400    6.3296
   23.415    6.0032
   23.430    6.0769
   23.445    6.0664
   23.460    5.8136
   23.475    5.4344
   23.490    5.7188
   23.505    6.0664
   23.520    6.0979
   23.535    5.7504
   23.550    5.8978
   23.565    6.0874
   23.580    6.0664
   23.595    5.6661
   23.610    6.0032
   23.625    6.1822
   23.640    6.0242
   23.655    5.5082
   23.670    5.9610
   23.685    6.1295
   23.700    5.8347
   23.715    5.8873
   23.730    6.1506
   23.745    6.0453
   23.760    5.7609
   23.775    5.5714
   23.790    6.0979
   23.805    6.6035
   23.820    6.2349
   23.835    6.0769
   23.850    5.8873
   23.865    6.4876
   23.880    6.1822
   23.895    6.2138
   23.910    7.0142
   23.925    6.5719
   23.940    6.4455
   23.955    6.6140
   23.970    6.7615
   23.985    6.6245
   24.000    6.4771
   24.015    6.2770
   24.030    5.8452
   24.045    6.2559
   24.060    6.2875
   24.075    6.0348
   24.090    5.8452
   24.105    5.9610
   24.120    5.8241
   24.135    6.0769
   24.150    6.0137
   24.165    5.9084
   24.180    6.0032
   24.195    6.1401
   24.210    5.7820
   24.225    5.8557
   24.240    5.9084
   24.255    6.2138
   24.270    5.9610
   24.285    5.6767
   24.300    5.4871
   24.315    6.2349
   24.330    5.6767
   24.345    5.9716
   24.360    5.9716
   24.375    5.4871
   24.390    5.5819
   24.405    5.5398
   24.420    5.7820
   24.435    6.1190
   24.450    6.0348
   24.465    5.8347
   24.480    6.0348
   24.495    5.6556
   24.510    5.8662
   24.525    5.9716
   24.540    5.8978
   24.555    6.0664
   24.570    5.9610
   24.585    5.7293
   24.600    6.0242
   24.615    6.1822
   24.630    6.2770
   24.645    5.7399
   24.660    5.7820
   24.675    5.8768
   24.690    5.8768
   24.705    6.0874
   24.720    6.0769
   24.735    5.9821
   24.750    5.4555
   24.765    5.9189
   24.780    6.0032
   24.795    5.7504
   24.810    5.7293
   24.825    5.7188
   24.840    5.6556
   24.855    5.9610
   24.870    6.0348
   24.885    5.8557
   24.900    6.0769
   24.915    5.9294
   24.930    5.7820
   24.945    5.8452
   24.960    6.1190
   24.975    6.1506
   24.990    5.6767
   25.005    5.8978
   25.020    5.6451
   25.035    5.3818
   25.050    5.7293
   25.065    5.4976
   25.080    5.7925
   25.095    5.7925
   25.110    5.8978
   25.125    5.6451
   25.140    5.8768
   25.155    6.0032
   25.170    6.2138
   25.185    5.8347
   25.200    5.9716
   25.215    6.0558
   25.230    6.0979
   25.245    6.0664
   25.260    6.2981
   25.275    5.9294
   25.290    5.5398
   25.305    5.9716
   25.320    5.8347
   25.335    5.7715
   25.350    5.8768
   25.365    5.6135
   25.380    5.7820
   25.395    6.2138
   25.410    5.8031
   25.425    5.6556
   25.440    5.9189
   25.455    5.9716
   25.470    5.6240
   25.485    5.7820
   25.500    5.5503
   25.515    5.7925
   25.530    5.8873
   25.545    5.8873
   25.560    6.1295
   25.575    5.9505
   25.590    6.0137
   25.605    5.8347
   25.620    6.0664
   25.635    5.6661
   25.650    5.9716
   25.665    5.8031
   25.680    6.0979
   25.695    6.2665
   25.710    6.1506
   25.725    6.5192
   25.740    6.6351
   25.755    6.8773
   25.770    7.0774
   25.785    7.4671
   25.800    7.1511
   25.815    7.4250
   25.830    7.5092
   25.845    7.4460
   25.860    7.6040
   25.875    7.4460
   25.890    7.3512
   25.905    6.5824
   25.920    6.4666
   25.935    6.3823
   25.950    6.1927
   25.965    6.1927
   25.980    5.5924
   25.995    5.6977
   26.010    5.9926
   26.025    5.8031
   26.040    5.9400
   26.055    5.6872
   26.070    5.6977
   26.085    5.4871
   26.100    5.9189
   26.115    5.5608
   26.130    5.5292
   26.145    5.6661
   26.160    5.4134
   26.175    5.3818
   26.190    5.8452
   26.205    6.1506
   26.220    5.8768
   26.235    5.6661
   26.250    5.5292
   26.265    5.9821
   26.280    5.8136
   26.295    5.5398
   26.310    5.6661
   26.325    5.6135
   26.340    5.9400
   26.355    6.0348
   26.370    6.2875
   26.385    5.9189
   26.400    6.2033
   26.415    6.1506
   26.430    6.0242
   26.445    6.3612
   26.460    6.5192
   26.475    6.2243
   26.490    6.1611
   26.505    6.0137
   26.520    6.2349
   26.535    6.2559
   26.550    5.6240
   26.565    5.7188
   26.580    5.7715
   26.595    5.6135
   26.610    5.8662
   26.625    5.7715
   26.640    5.5819
   26.655    6.1927
   26.670    5.8978
   26.685    5.6135
   26.700    5.6029
   26.715    5.6345
   26.730    5.6345
   26.745    5.5082
   26.760    5.8136
   26.775    5.4134
   26.790    5.5398
   26.805    5.6977
   26.820    5.6767
   26.835    5.4766
   26.850    5.5503
   26.865    5.4555
   26.880    5.3607
   26.895    5.4766
   26.910    5.7188
   26.925    6.0453
   26.940    5.7820
   26.955    6.0664
   26.970    6.0558
   26.985    5.8241
   27.000    6.0453
   27.015    6.1295
   27.030    5.9610
   27.045    6.1506
   27.060    6.2981
   27.075    6.0242
   27.090    5.7399
   27.105    5.8452
   27.120    5.5082
   27.135    5.6767
   27.150    5.7820
   27.165    5.8241
   27.180    5.4766
   27.195    5.7399
   27.210    5.8557
   27.225    5.6029
   27.240    5.2659
   27.255    5.4660
   27.270    5.6977
   27.285    5.6872
   27.300    5.4028
   27.315    5.5082
   27.330    5.1606
   27.345    5.4555
   27.360    5.6029
   27.375    5.3818
   27.390    5.5819
   27.405    5.6661
   27.420    5.6767
   27.435    5.5924
   27.450    5.2765
   27.465    5.4134
   27.480    5.5082
   27.495    5.5292
   27.510    6.2349
   27.525    5.7504
   27.540    5.7399
   27.555    6.0032
   27.570    5.9610
   27.585    6.2349
   27.600    5.7715
   27.615    5.6661
   27.630    5.8452
   27.645    5.6240
   27.660    5.7925
   27.675    5.8557
   27.690    5.9610
   27.705    5.7820
   27.720    5.6661
   27.735    5.3818
   27.750    5.5819
   27.765    5.2449
   27.780    5.2238
   27.795    5.7609
   27.810    5.3186
   27.825    5.5292
   27.840    6.0453
   27.855    5.7399
   27.870    5.6872
   27.885    5.1817
   27.900    5.6977
   27.915    5.7083
   27.930    6.0032
   27.945    6.1401
   27.960    6.0453
   27.975    6.0979
   27.990    5.8873
   28.005    5.7399
   28.020    5.6661
   28.035    5.9716
   28.050    6.1927
   28.065    6.3296
   28.080    6.0242
   28.095    6.5403
   28.110    6.0769
   28.125    5.8978
   28.140    5.8136
   28.155    5.7504
   28.170    6.3928
   28.185    6.3191
   28.200    6.1085
   28.215    6.1717
   28.230    6.0453
   28.245    6.2033
   28.260    5.8347
   28.275    5.8873
   28.290    5.9716
   28.305    5.8978
   28.320    5.8557
   28.335    5.9189
   28.350    6.2770
   28.365    6.0453
   28.380    5.6767
   28.395    5.6661
   28.410    5.9716
   28.425    6.1717
   28.440    5.7399
   28.455    5.6345
   28.470    5.6345
   28.485    6.2138
   28.500    5.9400
   28.515    6.0453
   28.530    6.0874
   28.545    6.0664
   28.560    5.6556
   28.575    5.5608
   28.590    5.3397
   28.605    5.2765
   28.620    5.7083
   28.635    5.3712
   28.650    5.4239
   28.665    5.5924
   28.680    5.3081
   28.695    5.6135
   28.710    5.3923
   28.725    5.3186
   28.740    5.5608
   28.755    5.6767
   28.770    5.4028
   28.785    5.3712
   28.800    5.6977
   28.815    5.4555
   28.830    5.1185
   28.845    5.5187
   28.860    5.3923
   28.875    5.2975
   28.890    5.5292
   28.905    5.6240
   28.920    5.7504
   28.935    6.1190
   28.950    5.8662
   28.965    5.4766
   28.980    5.6240
   28.995    5.8136
   29.010    5.5714
   29.025    5.7715
   29.040    5.6661
   29.055    5.4028
   29.070    5.4344
   29.085    5.6135
   29.100    5.4871
   29.115    5.5608
   29.130    5.3502
   29.145    4.9710
   29.160    5.5608
   29.175    5.4871
   29.190    5.4239
   29.205    5.6240
   29.220    5.6661
   29.235    5.4871
   29.250    5.9084
   29.265    5.8031
   29.280    5.8031
   29.295    5.5187
   29.310    5.4871
   29.325    5.7609
   29.340    5.4871
   29.355    5.6029
   29.370    5.5398
   29.385    5.6240
   29.400    5.3502
   29.415    5.1606
   29.430    5.1711
   29.445    5.4450
   29.460    5.5714
   29.475    5.3081
   29.490    5.0974
   29.505    5.3818
   29.520    5.2133
   29.535    5.3502
   29.550    5.3186
   29.565    5.3818
   29.580    5.0869
   29.595    5.1080
   29.610    5.0132
   29.625    5.1290
   29.640    4.9289
   29.655    5.0026
   29.670    5.2133
   29.685    5.1711
   29.700    4.8236
   29.715    5.3923
   29.730    5.3712
   29.745    5.2870
   29.760    5.4134
   29.775    5.1290
   29.790    5.5819
   29.805    5.7609
   29.820    5.4660
   29.835    5.6872
   29.850    5.6661
   29.865    5.4344
   29.880    5.3081
   29.895    5.0237
   29.910    5.5398
   29.925    5.5187
   29.940    5.2238
   29.955    5.1501
   29.970    5.0658
   29.985    5.3081
   30.000    5.1922
   30.015    5.0658
   30.030    5.0869
   30.045    5.0974
   30.060    5.3186
   30.075    5.4766
   30.090    5.1711
   30.105    5.2343
   30.120    5.0132
   30.135    5.2133
   30.150    5.1290
   30.165    5.5082
   30.180    5.4028
   30.195    5.2027
   30.210    5.2870
   30.225    5.2659
   30.240    5.0974
   30.255    4.9921
   30.270    5.1501
   30.285    5.2449
   30.300    5.0237
   30.315    5.0658
   30.330    5.2238
   30.345    5.3397
   30.360    5.4766
   30.375    5.2765
   30.390    5.1395
   30.405    5.2449
   30.420    5.3712
   30.435    4.8763
   30.450    4.9816
   30.465    5.3502
   30.480    5.3923
   30.495    5.1395
   30.510    5.3397
   30.525    5.5819
   30.540    5.5714
   30.555    5.5082
   30.570    5.1606
   30.585    4.9816
   30.600    5.0869
   30.615    5.3186
   30.630    5.3186
   30.645    5.2765
   30.660    5.2975
   30.675    5.0448
   30.690    4.9500
   30.705    5.0448
   30.720    5.1501
   30.735    5.1185
   30.750    5.0764
   30.765    5.0869
   30.780    4.7709
   30.795    4.8236
   30.810    5.0658
   30.825    5.1922
   30.840    5.2765
   30.855    5.4766
   30.870    5.0132
   30.885    5.2765
   30.900    5.0342
   30.915    4.9184
   30.930    5.0026
   30.945    5.0026
   30.960    4.8236
   30.975    4.9921
   30.990    5.2554
   31.005    5.5398
   31.020    5.3923
   31.035    5.0869
   31.050    5.0448
   31.065    4.8236
   31.080    4.9184
   31.095    4.9921
   31.110    4.8552
   31.125    5.1290
   31.140    4.9500
   31.155    4.8552
   31.170    5.0869
   31.185    5.0448
   31.200    4.8025
   31.215    4.8025
   31.230    5.1395
   31.245    5.0448
   31.260    4.9289
   31.275    4.9710
   31.290    5.1290
   31.305    4.9500
   31.320    5.0026
   31.335    5.2027
   31.350    5.1080
   31.365    5.1395
   31.380    5.5187
   31.395    5.1606
   31.410    4.9078
   31.425    5.3291
   31.440    4.8236
   31.455    4.9078
   31.470    5.5819
   31.485    4.9816
   31.500    4.7393
   31.515    4.7604
   31.530    5.0342
   31.545    4.9394
   31.560    4.7815
   31.575    5.1395
   31.590    4.9289
   31.605    5.1501
   31.620    4.8236
   31.635    5.1290
   31.650    5.2343
   31.665    5.1395
   31.680    4.8131
   31.695    4.9500
   31.710    4.9816
   31.725    5.1606
   31.740    5.2133
   31.755    4.9289
   31.770    5.0448
   31.785    5.2765
   31.800    5.0764
   31.815    5.0237
   31.830    5.3712
   31.845    4.8973
   31.860    5.3397
   31.875    5.1711
   31.890    5.1185
   31.905    5.3186
   31.920    5.4134
   31.935    5.0237
   31.950    4.7077
   31.965    5.5082
   31.980    5.6872
   31.995    5.4555
   32.010    5.6345
   32.025    5.4450
   32.040    5.2975
   32.055    5.7925
   32.070    5.8557
   32.085    5.8978
   32.100    6.0769
   32.115    5.6451
   32.130    5.8241
   32.145    5.5082
   32.160    5.5819
   32.175    5.2133
   32.190    5.5398
   32.205    5.6872
   32.220    5.2343
   32.235    5.2027
   32.250    4.8868
   32.265    5.1501
   32.280    4.4128
   32.295    4.7920
   32.310    4.7288
   32.325    4.7604
   32.340    4.7709
   32.355    4.3391
   32.370    4.7604
   32.385    4.9710
   32.400    4.5708
   32.415    4.5182
   32.430    4.3391
   32.445    4.4866
   32.460    4.4023
   32.475    4.6340
   32.490    4.8763
   32.505    4.7183
   32.520    4.8763
   32.535    4.7077
   32.550    4.6130
   32.565    4.8025
   32.580    4.8341
   32.595    4.7815
   32.610    4.9816
   32.625    4.6656
   32.640    4.7077
   32.655    4.8236
   32.670    4.4866
   32.685    4.4550
   32.700    4.4760
   32.715    4.6867
   32.730    4.6445
   32.745    4.8763
   32.760    4.7604
   32.775    4.6656
   32.790    4.5392
   32.805    4.8025
   32.820    4.6340
   32.835    5.0448
   32.850    4.9394
   32.865    4.9921
   32.880    5.2554
   32.895    4.9184
   32.910    4.9500
   32.925    4.8131
   32.940    4.7183
   32.955    4.6972
   32.970    4.9816
   32.985    4.7077
   33.000    4.7604
   33.015    4.6761
   33.030    4.6024
   33.045    4.9710
   33.060    4.8973
   33.075    4.6656
   33.090    4.6130
   33.105    4.5919
   33.120    4.4550
   33.135    4.3391
   33.150    4.6445
   33.165    4.6340
   33.180    4.6130
   33.195    4.6235
   33.210    4.8131
   33.225    4.4866
   33.240    4.6761
   33.255    4.8973
   33.270    4.5814
   33.285    4.9500
   33.300    4.7920
   33.315    4.5182
   33.330    4.4971
   33.345    4.3075
   33.360    4.5708
   33.375    4.7393
   33.390    4.5498
   33.405    4.2759
   33.420    4.5392
   33.435    4.3602
   33.450    4.9078
   33.465    4.7815
   33.480    4.2759
   33.495    4.3707
   33.510    4.8236
   33.525    4.6867
   33.540    4.7920
   33.555    4.3918
   33.570    4.6551
   33.585    4.9184
   33.600    4.6235
   33.615    4.4444
   33.630    4.8447
   33.645    5.0026
   33.660    5.0237
   33.675    4.5182
   33.690    4.7815
   33.705    5.0869
   33.720    5.0974
   33.735    4.9184
   33.750    5.0974
   33.765    5.4028
   33.780    5.3923
   33.795    5.4239
   33.810    5.0448
   33.825    5.0026
   33.840    5.3923
   33.855    5.3502
   33.870    5.8557
   33.885    5.7715
   33.900    5.2975
   33.915    5.2027
   33.930    4.9394
   33.945    5.0132
   33.960    4.9500
   33.975    4.7709
   33.990    4.6551
   34.005    4.7920
   34.020    5.0764
   34.035    4.9605
   34.050    4.7499
   34.065    4.6867
   34.080    4.7288
   34.095    5.0342
   34.110    4.6867
   34.125    4.4550
   34.140    4.5919
   34.155    4.8657
   34.170    5.0553
   34.185    4.9921
   34.200    4.6551
   34.215    4.3707
   34.230    4.3497
   34.245    4.5182
   34.260    4.7077
   34.275    4.6656
   34.290    4.4444
   34.305    4.9289
   34.320    4.9500
   34.335    4.8868
   34.350    4.7920
   34.365    4.5814
   34.380    4.6761
   34.395    4.9500
   34.410    4.4760
   34.425    4.6761
   34.440    4.8341
   34.455    4.5076
   34.470    4.3813
   34.485    4.5919
   34.500    4.6551
   34.515    4.2443
   34.530    4.2127
   34.545    4.5919
   34.560    4.8657
   34.575    4.6972
   34.590    4.6130
   34.605    4.4655
   34.620    4.3602
   34.635    4.5708
   34.650    4.3918
   34.665    4.5287
   34.680    4.6130
   34.695    4.7393
   34.710    4.6867
   34.725    4.5287
   34.740    4.3181
   34.755    4.2549
   34.770    4.5603
   34.785    4.5287
   34.800    4.7920
   34.815    4.3181
   34.830    4.6445
   34.845    4.3918
   34.860    4.5182
   34.875    4.6340
   34.890    4.3918
   34.905    4.7183
   34.920    4.7815
   34.935    4.7709
   34.950    4.3918
   34.965    4.1917
   34.980    4.7709
   34.995    4.6867
   35.010    4.3497
   35.025    4.4760
   35.040    4.4655
   35.055    4.2549
   35.070    4.6235
   35.085    4.5287
   35.100    4.3181
   35.115    4.0126
   35.130    4.2970
   35.145    4.3497
   35.160    4.3813
   35.175    4.3707
   35.190    4.5392
   35.205    4.5182
   35.220    4.4444
   35.235    4.2865
   35.250    4.3918
   35.265    4.2549
   35.280    4.4023
   35.295    4.4444
   35.310    4.6551
   35.325    4.6340
   35.340    4.4866
   35.355    4.5392
   35.370    4.6972
   35.385    4.5498
   35.400    4.4550
   35.415    4.5919
   35.430    4.8447
   35.445    4.6130
   35.460    4.3497
   35.475    4.4234
   35.490    4.4234
   35.505    4.4128
   35.520    4.2022
   35.535    4.3075
   35.550    4.5182
   35.565    4.6024
   35.580    4.2233
   35.595    4.2865
   35.610    4.5919
   35.625    4.4444
   35.640    4.5182
   35.655    4.8657
   35.670    4.6130
   35.685    4.6024
   35.700    4.7709
   35.715    4.4655
   35.730    4.3918
   35.745    4.4760
   35.760    4.5498
   35.775    4.2654
   35.790    4.5182
   35.805    4.3707
   35.820    4.3602
   35.835    4.8236
   35.850    4.3391
   35.865    4.4550
   35.880    4.5919
   35.895    4.3075
   35.910    4.5603
   35.925    4.7183
   35.940    4.4234
   35.955    4.4971
   35.970    4.6445
   35.985    4.7815
   36.000    4.4760
   36.015    4.4234
   36.030    4.2654
   36.045    4.3918
   36.060    4.5708
   36.075    4.6551
   36.090    4.2970
   36.105    4.5182
   36.120    4.6340
   36.135    4.2654
   36.150    4.4550
   36.165    4.6340
   36.180    4.5498
   36.195    4.4444
   36.210    4.4444
   36.225    4.6551
   36.240    4.7183
   36.255    4.5182
   36.270    4.5498
   36.285    4.4866
   36.300    4.3918
   36.315    4.2443
   36.330    4.2233
   36.345    4.3602
   36.360    4.2127
   36.375    4.2654
   36.390    4.2022
   36.405    4.0969
   36.420    4.2759
   36.435    4.4339
   36.450    4.5814
   36.465    4.3602
   36.480    4.2338
   36.495    4.5182
   36.510    4.1390
   36.525    3.9073
   36.540    4.3813
   36.555    4.1074
   36.570    4.1180
   36.585    4.2970
   36.600    4.6024
   36.615    4.3286
   36.630    4.2970
   36.645    4.4339
   36.660    4.2022
   36.675    4.3075
   36.690    4.5708
   36.705    4.3497
   36.720    4.6445
   36.735    4.5814
   36.750    4.7499
   36.765    4.4760
   36.780    4.3075
   36.795    4.4128
   36.810    4.5498
   36.825    4.1074
   36.840    4.3813
   36.855    4.4339
   36.870    4.4550
   36.885    4.0758
   36.900    4.5392
   36.915    4.3286
   36.930    4.3391
   36.945    4.4866
   36.960    4.1917
   36.975    4.3602
   36.990    4.4550
   37.005    4.3181
   37.020    4.3707
   37.035    4.1390
   37.050    4.4023
   37.065    4.6867
   37.080    4.5814
   37.095    4.5182
   37.110    4.4971
   37.125    4.3286
   37.140    4.8868
   37.155    4.5182
   37.170    4.0337
   37.185    4.4655
   37.200    4.2759
   37.215    4.3497
   37.230    4.3918
   37.245    4.3286
   37.260    4.3497
   37.275    4.2022
   37.290    4.5708
   37.305    4.1074
   37.320    4.3707
   37.335    4.5392
   37.350    4.2865
   37.365    4.2443
   37.380    4.3707
   37.395    4.3181
   37.410    4.3286
   37.425    4.3286
   37.440    4.3918
   37.455    4.6024
   37.470    4.2970
   37.485    4.1601
   37.500    4.4760
   37.515    4.3602
   37.530    4.4655
   37.545    4.5287
   37.560    4.4023
   37.575    4.4234
   37.590    4.6445
   37.605    4.4339
   37.620    4.2233
   37.635    4.3075
   37.650    4.0864
   37.665    4.2970
   37.680    4.3707
   37.695    4.5392
   37.710    4.8552
   37.725    4.6445
   37.740    4.2233
   37.755    4.0653
   37.770    4.5498
   37.785    4.2865
   37.800    4.3813
   37.815    4.4444
   37.830    4.2549
   37.845    4.0442
   37.860    4.2970
   37.875    4.3497
   37.890    4.4023
   37.905    4.6656
   37.920    4.6340
   37.935    4.3813
   37.950    4.5498
   37.965    4.3181
   37.980    4.5603
   37.995    4.0548
   38.010    4.0758
   38.025    4.2549
   38.040    4.8025
   38.055    4.7288
   38.070    4.5498
   38.085    4.5392
   38.100    3.8863
   38.115    4.1917
   38.130    4.4128
   38.145    4.6130
   38.160    4.2338
   38.175    4.0232
   38.190    4.3602
   38.205    4.6867
   38.220    4.2549
   38.235    4.1917
   38.250    4.0653
   38.265    4.2970
   38.280    4.3813
   38.295    4.2865
   38.310    4.3497
   38.325    4.2127
   38.340    4.0548
   38.355    4.2654
   38.370    4.3813
   38.385    4.3497
   38.400    4.4444
   38.415    4.5182
   38.430    4.0653
   38.445    4.5814
   38.460    4.4339
   38.475    4.4866
   38.490    4.2127
   38.505    4.5392
   38.520    4.3813
   38.535    4.2970
   38.550    4.7183
   38.565    4.4234
   38.580    4.3497
   38.595    4.7077
   38.610    4.4339
   38.625    4.4444
   38.640    4.1285
   38.655    4.1496
   38.670    4.2127
   38.685    4.2970
   38.700    4.1811
   38.715    4.2127
   38.730    4.1601
   38.745    4.3391
   38.760    4.0337
   38.775    4.0232
   38.790    4.2865
   38.805    4.3391
   38.820    4.2443
   38.835    4.0864
   38.850    4.3181
   38.865    4.5392
   38.880    4.4444
   38.895    4.1917
   38.910    4.1285
   38.925    4.0653
   38.940    4.0969
   38.955    4.3813
   38.970    4.4866
   38.985    4.1074
   39.000    3.8020
   39.015    4.2127
   39.030    4.1285
   39.045    4.1496
   39.060    4.4760
   39.075    4.2654
   39.090    4.2970
   39.105    4.2970
   39.120    4.3813
   39.135    4.3813
   39.150    4.2338
   39.165    4.2549
   39.180    4.0969
   39.195    4.3286
   39.210    4.3707
   39.225    4.0442
   39.240    4.3075
   39.255    4.3602
   39.270    4.3497
   39.285    4.4023
   39.300    4.3075
   39.315    4.0758
   39.330    4.0864
   39.345    4.2759
   39.360    4.2443
   39.375    4.3497
   39.390    4.4550
   39.405    4.2865
   39.420    3.9073
   39.435    3.9494
   39.450    4.1601
   39.465    4.4023
   39.480    4.2759
   39.495    4.5076
   39.510    4.4023
   39.525    4.3075
   39.540    4.3602
   39.555    4.1811
   39.570    4.0232
   39.585    4.4444
   39.600    4.3813
   39.615    4.3707
   39.630    4.2654
   39.645    4.0548
   39.660    4.0442
   39.675    4.0653
   39.690    4.2022
   39.705    4.1285
   39.720    4.0021
   39.735    4.1706
   39.750    4.4655
   39.765    4.2654
   39.780    4.3181
   39.795    3.8757
   39.810    4.4866
   39.825    4.3918
   39.840    4.6340
   39.855    4.3286
   39.870    4.2338
   39.885    4.2443
   39.900    4.3602
   39.915    4.2654
   39.930    4.3497
   39.945    4.4550
   39.960    4.2759
   39.975    4.2865
   39.990    4.0653
