    1.500   11.4271
    1.515   11.0163
    1.530   11.8273
    1.545   11.2164
    1.560   10.7425
    1.575   10.5635
    1.590   10.5424
    1.605   10.6266
    1.620   10.5951
    1.635   10.3949
    1.650   10.5635
    1.665   11.1743
    1.680   10.8689
    1.695   10.1316
    1.710    9.9526
    1.725    9.8368
    1.740    9.5945
    1.755    9.7209
    1.770    9.7525
    1.785   10.2054
    1.800    9.5208
    1.815    9.3102
    1.830    9.9315
    1.845    9.9842
    1.860    9.4787
    1.875    9.3523
    1.890    9.7630
    1.905    9.7420
    1.920    9.2786
    1.935    9.0153
    1.950    8.5203
    1.965    8.8994
    1.980    9.1417
    1.995    8.7730
    2.010    8.8468
    2.025    8.8678
    2.040    8.8889
    2.055    9.1627
    2.070    8.7730
    2.085    9.0047
    2.100    8.9942
    2.115    8.9626
    2.130    8.6572
    2.145    8.4360
    2.160    8.5308
    2.175    8.4150
    2.190    8.3412
    2.205    8.2780
    2.220    8.7309
    2.235    8.2464
    2.250    8.5940
    2.265    7.9305
    2.280    7.8989
    2.295    8.3623
    2.310    7.9516
    2.325    7.7830
    2.340    8.0463
    2.355    8.2675
    2.370    8.2359
    2.385    7.8778
    2.400    7.9831
    2.415    7.9831
    2.430    8.0147
    2.445    8.2675
    2.460    8.2675
    2.475    8.2886
    2.490    8.0463
    2.505    7.9726
    2.520    7.7936
    2.535    7.9410
    2.550    7.6356
    2.565    7.9621
    2.580    8.1938
    2.595    8.3623
    2.610    8.0885
    2.625    8.1938
    2.640    8.0674
    2.655    7.7830
    2.670    7.9726
    2.685    8.2675
    2.700    8.1622
    2.715    7.8989
    2.730    7.8357
    2.745    7.9305
    2.760    8.3623
    2.775    8.4255
    2.790    8.8152
    2.805    8.6572
    2.820    8.5519
    2.835    8.1938
    2.850    8.1411
    2.865    8.4887
    2.880    8.7098
    2.895    9.0469
    2.910    9.1522
    2.925    9.1101
    2.940    8.8889
    2.955    9.2996
    2.970    9.9737
    2.985    9.8157
    3.000    9.7314
    3.015    9.3734
    3.030   10.4687
    3.045   10.3318
    3.060   10.2370
    3.075   10.7636
    3.090   10.2580
    3.105   10.6372
    3.120   11.5008
    3.135   11.5534
    3.150   11.6061
    3.165   11.9326
    3.180   12.4908
    3.195   12.8173
    3.210   12.4381
    3.225   13.0068
    3.240   13.2070
    3.255   13.9021
    3.270   14.7341
    3.285   15.4608
    3.300   15.4924
    3.315   15.8083
    3.330   16.0611
    3.345   16.6719
    3.360   18.0621
    3.375   18.2412
    3.390   18.3360
    3.405   19.0943
    3.420   20.2001
    3.435   20.5582
    3.450   20.8426
    3.465   20.9163
    3.480   21.6324
    3.495   21.3270
    3.510   21.2744
    3.525   21.2533
    3.540   20.4002
    3.555   20.8847
    3.570   19.1048
    3.585   19.3786
    3.600   18.8626
    3.615   17.8199
    3.630   17.5040
    3.645   16.5456
    3.660   16.1664
    3.675   15.9242
    3.690   16.0084
    3.705   15.7662
    3.720   15.7873
    3.735   15.3555
    3.750   15.3028
    3.765   15.3028
    3.780   15.3449
    3.795   15.0606
    3.810   15.1659
    3.825   15.2607
    3.840   16.1243
    3.855   15.0290
    3.870   15.2712
    3.885   14.8394
    3.900   14.9552
    3.915   14.4076
    3.930   13.8705
    3.945   13.1543
    3.960   13.7441
    3.975   13.3017
    3.990   13.4597
    4.005   13.0384
    4.020   11.9642
    4.035   11.6904
    4.050   11.5429
    4.065   10.9953
    4.080   10.7320
    4.095   10.5635
    4.110   10.4687
    4.125   10.4265
    4.140    9.8684
    4.155    9.5840
    4.170    9.1311
    4.185    9.4471
    4.200    8.7098
    4.215    8.6361
    4.230    8.4992
    4.245    8.4150
    4.260    8.3939
    4.275    7.8041
    4.290    7.8568
    4.305    7.9410
    4.320    7.9937
    4.335    8.5624
    4.350    7.4566
    4.365    7.5829
    4.380    7.4671
    4.395    6.9194
    4.410    7.6040
    4.425    7.6883
    4.440    7.4355
    4.455    7.2354
    4.470    7.1511
    4.485    7.6251
    4.500    7.5303
    4.515    7.2143
    4.530    6.9405
    4.545    7.0985
    4.560    6.8036
    4.575    7.6672
    4.590    7.1722
    4.605    7.0563
    4.620    6.7615
    4.635    7.0353
    4.650    7.0458
    4.665    6.7615
    4.680    6.9194
    4.695    6.9089
    4.710    7.3091
    4.725    6.8562
    4.740    6.5403
    4.755    6.7930
    4.770    6.9721
    4.785    7.0985
    4.800    6.9089
    4.815    6.6877
    4.830    7.1722
    4.845    6.7299
    4.860    6.6772
    4.875    6.8352
    4.890    7.1722
    4.905    7.1617
    4.920    6.8562
    4.935    7.2354
    4.950    6.9194
    4.965    6.9089
    4.980    6.5929
    4.995    6.6877
    5.010    6.8352
    5.025    7.1090
    5.040    7.1195
    5.055    7.2565
    5.070    7.3828
    5.085    7.3091
    5.100    6.9300
    5.115    7.1406
    5.130    7.7936
    5.145    7.2354
    5.160    7.9831
    5.175    7.7093
    5.190    7.4460
    5.205    7.3302
    5.220    7.4144
    5.235    7.3618
    5.250    7.6883
    5.265    7.5619
    5.280    7.6356
    5.295    7.5724
    5.310    8.3518
    5.325    8.0253
    5.340    7.7514
    5.355    8.0990
    5.370    8.0990
    5.385    8.0147
    5.400    8.2570
    5.415    8.6256
    5.430    8.5519
    5.445    8.2043
    5.460    8.1095
    5.475    8.3623
    5.490    8.7941
    5.505    8.6677
    5.520    8.6783
    5.535    8.8257
    5.550    8.1517
    5.565    7.9937
    5.580    8.2675
    5.595    8.6361
    5.610    8.6888
    5.625    8.4676
    5.640    8.2675
    5.655    8.2675
    5.670    8.4466
    5.685    8.2991
    5.700    8.2886
    5.715    8.4571
    5.730    8.0358
    5.745    7.6672
    5.760    8.0042
    5.775    7.9516
    5.790    7.9305
    5.805    7.5829
    5.820    7.6883
    5.835    7.3091
    5.850    7.2354
    5.865    7.4250
    5.880    7.3934
    5.895    7.7304
    5.910    7.2880
    5.925    7.2354
    5.940    7.0985
    5.955    7.2354
    5.970    7.3407
    5.985    6.6561
    6.000    6.2454
    6.015    6.6561
    6.030    6.7615
    6.045    6.7930
    6.060    6.5929
    6.075    6.4666
    6.090    6.3296
    6.105    6.3507
    6.120    5.9716
    6.135    6.2033
    6.150    6.3612
    6.165    6.6245
    6.180    6.4771
    6.195    6.4350
    6.210    6.3507
    6.225    6.4034
    6.240    6.3086
    6.255    6.1717
    6.270    6.1401
    6.285    6.0558
    6.300    6.0664
    6.315    6.3086
    6.330    6.3507
    6.345    5.9610
    6.360    5.9400
    6.375    5.9505
    6.390    6.2875
    6.405    6.2665
    6.420    6.0032
    6.435    6.0137
    6.450    6.3507
    6.465    5.8662
    6.480    6.2770
    6.495    5.7609
    6.510    5.8031
    6.525    6.1085
    6.540    6.0453
    6.555    5.8768
    6.570    5.8136
    6.585    5.9716
    6.600    5.8347
    6.615    5.7820
    6.630    5.7609
    6.645    6.0769
    6.660    5.8557
    6.675    5.9821
    6.690    6.0979
    6.705    6.2138
    6.720    5.7188
    6.735    5.7083
    6.750    6.0558
    6.765    6.2243
    6.780    6.4876
    6.795    6.4666
    6.810    6.5298
    6.825    6.2875
    6.840    6.5192
    6.855    6.3928
    6.870    6.3507
    6.885    6.1295
    6.900    6.2875
    6.915    6.7825
    6.930    6.7720
    6.945    6.7509
    6.960    6.7509
    6.975    6.8878
    6.990    7.0142
    7.005    7.0353
    7.020    6.8878
    7.035    6.8668
    7.050    6.9405
    7.065    6.9089
    7.080    6.3928
    7.095    6.2033
    7.110    6.2454
    7.125    6.4771
    7.140    6.0558
    7.155    5.9926
    7.170    5.9716
    7.185    6.0874
    7.200    5.8347
    7.215    5.4976
    7.230    5.4028
    7.245    5.5503
    7.260    5.6977
    7.275    5.4134
    7.290    5.5398
    7.305    5.5398
    7.320    5.3291
    7.335    5.2554
    7.350    4.9921
    7.365    5.3397
    7.380    5.1711
    7.395    5.6135
    7.410    5.0974
    7.425    5.1817
    7.440    4.7815
    7.455    5.0869
    7.470    4.9921
    7.485    5.4976
    7.500    5.5292
    7.515    5.3923
    7.530    5.2238
    7.545    5.2765
    7.560    5.3607
    7.575    5.4660
    7.590    5.2449
    7.605    5.3818
    7.620    5.0658
    7.635    5.2027
    7.650    5.2765
    7.665    5.2659
    7.680    5.2975
    7.695    5.4555
    7.710    5.3186
    7.725    5.5608
    7.740    5.4450
    7.755    5.2449
    7.770    5.3712
    7.785    5.2449
    7.800    5.2870
    7.815    5.8557
    7.830    5.7399
    7.845    5.5082
    7.860    5.6029
    7.875    5.5714
    7.890    5.4871
    7.905    5.1711
    7.920    5.5924
    7.935    5.2343
    7.950    5.4871
    7.965    5.4028
    7.980    5.1817
    7.995    5.1711
    8.010    4.7393
    8.025    5.1290
    8.040    4.8552
    8.055    5.2975
    8.070    5.0026
    8.085    4.7815
    8.100    4.7604
    8.115    4.5498
    8.130    4.6024
    8.145    4.1285
    8.160    4.1917
    8.175    4.6445
    8.190    4.8025
    8.205    4.6130
    8.220    4.5498
    8.235    4.2865
    8.250    4.1811
    8.265    4.4655
    8.280    4.7709
    8.295    4.4444
    8.310    4.2338
    8.325    4.0969
    8.340    4.1074
    8.355    4.2865
    8.370    4.3497
    8.385    4.2549
    8.400    4.2654
    8.415    3.8968
    8.430    4.0969
    8.445    4.0232
    8.460    4.0021
    8.475    4.1811
    8.490    4.2022
    8.505    4.2127
    8.520    4.3707
    8.535    3.8968
    8.550    4.1601
    8.565    4.0548
    8.580    3.9073
    8.595    4.0442
    8.610    3.8336
    8.625    4.0126
    8.640    3.8547
    8.655    3.7809
    8.670    3.8231
    8.685    3.6967
    8.700    3.9494
    8.715    3.8547
    8.730    4.0337
    8.745    3.9494
    8.760    3.8968
    8.775    3.9705
    8.790    4.0548
    8.805    4.0864
    8.820    4.0021
    8.835    4.0021
    8.850    3.9284
    8.865    3.8863
    8.880    3.8863
    8.895    3.8757
    8.910    3.7599
    8.925    3.9073
    8.940    4.0758
    8.955    4.1390
    8.970    4.0969
    8.985    3.8336
    9.000    4.0232
    9.015    3.8757
    9.030    3.9389
    9.045    3.6230
    9.060    3.8020
    9.075    3.6862
    9.090    3.6967
    9.105    3.9389
    9.120    3.8231
    9.135    3.5808
    9.150    3.6124
    9.165    3.8863
    9.180    3.9179
    9.195    3.8336
    9.210    3.6124
    9.225    3.6335
    9.240    3.9705
    9.255    3.7599
    9.270    3.7599
    9.285    3.4755
    9.300    3.4123
    9.315    3.6651
    9.330    3.4650
    9.345    3.5071
    9.360    4.1496
    9.375    3.8336
    9.390    3.5703
    9.405    3.7809
    9.420    3.9810
    9.435    3.7177
    9.450    3.7388
    9.465    3.4860
    9.480    4.0969
    9.495    3.8020
    9.510    3.5808
    9.525    3.8336
    9.540    3.6019
    9.555    3.6230
    9.570    3.8020
    9.585    3.3702
    9.600    3.7809
    9.615    3.6862
    9.630    3.6546
    9.645    3.8652
    9.660    3.8547
    9.675    3.7704
    9.690    3.6546
    9.705    3.5492
    9.720    3.6440
    9.735    3.6019
    9.750    3.5071
    9.765    3.4860
    9.780    3.6019
    9.795    3.6862
    9.810    3.7809
    9.825    3.5703
    9.840    3.6440
    9.855    3.4544
    9.870    3.6756
    9.885    3.7599
    9.900    3.6651
    9.915    3.5808
    9.930    3.6019
    9.945    3.6019
    9.960    3.8336
    9.975    3.7388
    9.990    3.5914
   10.005    3.8652
   10.020    3.7177
   10.035    3.5914
   10.050    3.8863
   10.065    4.0442
   10.080    3.6756
   10.095    3.7599
   10.110    3.6756
   10.125    3.8757
   10.140    4.0864
   10.155    3.8652
   10.170    3.7704
   10.185    3.5282
   10.200    3.8441
   10.215    3.8968
   10.230    3.8020
   10.245    3.7915
   10.260    3.6124
   10.275    3.6440
   10.290    3.9600
   10.305    3.7493
   10.320    3.6862
   10.335    3.9494
   10.350    3.5703
   10.365    3.4966
   10.380    3.6862
   10.395    3.9810
   10.410    3.4650
   10.425    3.8968
   10.440    3.6546
   10.455    3.8547
   10.470    3.6440
   10.485    3.3913
   10.500    3.7704
   10.515    3.6862
   10.530    4.0021
   10.545    4.0758
   10.560    4.1180
   10.575    3.7493
   10.590    4.1706
   10.605    3.9179
   10.620    3.6967
   10.635    3.9494
   10.650    3.8336
   10.665    3.9810
   10.680    3.8863
   10.695    3.8863
   10.710    3.8968
   10.725    3.8547
   10.740    3.8441
   10.755    3.8125
   10.770    3.9810
   10.785    3.9494
   10.800    4.0442
   10.815    3.8125
   10.830    3.7915
   10.845    3.9179
   10.860    4.0758
   10.875    4.1601
   10.890    3.7704
   10.905    3.8968
   10.920    3.9179
   10.935    4.0442
   10.950    4.0232
   10.965    4.0758
   10.980    3.6335
   10.995    4.2022
   11.010    3.9179
   11.025    4.1390
   11.040    3.8020
   11.055    3.7809
   11.070    3.9284
   11.085    4.0864
   11.100    4.0232
   11.115    3.8863
   11.130    4.0442
   11.145    4.0021
   11.160    3.8336
   11.175    4.1601
   11.190    4.1285
   11.205    3.6440
   11.220    3.7704
   11.235    4.0758
   11.250    4.1074
   11.265    4.1390
   11.280    4.2127
   11.295    4.1390
   11.310    3.8125
   11.325    4.0758
   11.340    4.0021
   11.355    4.2233
   11.370    4.0126
   11.385    4.0548
   11.400    4.1706
   11.415    4.1074
   11.430    3.9705
   11.445    3.8757
   11.460    4.2338
   11.475    3.9494
   11.490    4.1074
   11.505    4.3181
   11.520    4.0232
   11.535    4.0021
   11.550    3.8968
   11.565    4.1390
   11.580    3.9284
   11.595    3.6967
   11.610    3.9600
   11.625    3.9705
   11.640    4.1390
   11.655    4.1496
   11.670    4.0232
   11.685    4.0232
   11.700    4.1285
   11.715    4.2127
   11.730    3.9494
   11.745    4.0442
   11.760    3.8547
   11.775    3.9810
   11.790    4.0758
   11.805    4.0969
   11.820    3.8652
   11.835    3.6756
   11.850    4.2022
   11.865    4.2549
   11.880    3.8968
   11.895    4.0337
   11.910    3.8020
   11.925    3.6651
   11.940    4.0232
   11.955    4.1496
   11.970    3.7915
   11.985    3.6967
   12.000    3.6967
   12.015    3.7915
   12.030    4.1917
   12.045    3.9179
   12.060    3.8757
   12.075    3.8652
   12.090    3.9389
   12.105    4.0337
   12.120    3.8757
   12.135    4.0126
   12.150    3.7599
   12.165    3.6651
   12.180    4.0548
   12.195    3.6967
   12.210    3.8020
   12.225    4.1074
   12.240    3.7599
   12.255    3.9179
   12.270    3.8125
   12.285    3.8441
   12.300    3.6546
   12.315    3.6335
   12.330    3.8125
   12.345    3.7704
   12.360    4.0126
   12.375    3.9494
   12.390    3.7809
   12.405    3.5598
   12.420    3.5598
   12.435    3.7177
   12.450    3.7704
   12.465    4.0232
   12.480    3.6756
   12.495    3.8547
   12.510    3.5808
   12.525    3.6862
   12.540    3.7704
   12.555    3.7283
   12.570    3.8020
   12.585    3.8757
   12.600    3.7704
   12.615    3.3386
   12.630    3.5914
   12.645    4.0021
   12.660    3.9494
   12.675    3.6230
   12.690    3.6651
   12.705    3.5703
   12.720    3.5282
   12.735    3.7704
   12.750    3.7915
   12.765    3.6967
   12.780    3.5914
   12.795    3.6862
   12.810    3.7493
   12.825    3.7809
   12.840    4.0021
   12.855    3.9600
   12.870    4.0126
   12.885    4.1706
   12.900    3.8125
   12.915    3.4439
   12.930    3.7072
   12.945    3.8863
   12.960    3.6651
   12.975    3.7493
   12.990    3.6019
   13.005    3.5387
   13.020    3.5598
   13.035    3.8968
   13.050    3.4334
   13.065    3.6862
   13.080    3.8020
   13.095    3.8336
   13.110    3.6440
   13.125    3.7072
   13.140    3.6546
   13.155    3.4650
   13.170    3.5282
   13.185    3.7704
   13.200    3.5703
   13.215    3.4439
   13.230    3.6546
   13.245    3.5598
   13.260    3.7599
   13.275    3.8125
   13.290    3.5492
   13.305    3.4650
   13.320    3.6019
   13.335    3.7493
   13.350    3.6440
   13.365    3.7599
   13.380    3.6335
   13.395    3.5282
   13.410    3.5387
   13.425    3.6967
   13.440    3.5071
   13.455    3.7704
   13.470    3.7704
   13.485    3.9389
   13.500    3.7599
   13.515    3.6230
   13.530    3.5071
   13.545    3.9179
   13.560    3.6967
   13.575    3.4334
   13.590    3.5282
   13.605    3.6124
   13.620    3.6546
   13.635    3.5387
   13.650    3.6546
   13.665    3.5703
   13.680    3.7915
   13.695    3.6335
   13.710    3.7704
   13.725    3.7493
   13.740    3.7599
   13.755    3.6756
   13.770    3.8231
   13.785    3.7704
   13.800    3.7388
   13.815    3.9600
   13.830    3.9179
   13.845    3.8441
   13.860    3.8863
   13.875    3.7915
   13.890    3.8757
   13.905    3.7809
   13.920    3.7809
   13.935    3.9284
   13.950    3.8547
   13.965    3.6019
   13.980    3.8757
   13.995    3.8441
   14.010    3.7283
   14.025    3.8441
   14.040    3.8441
   14.055    4.0653
   14.070    3.6019
   14.085    3.7915
   14.100    4.1074
   14.115    3.7493
   14.130    3.7704
   14.145    3.4544
   14.160    3.7599
   14.175    3.8441
   14.190    4.0653
   14.205    4.0442
   14.220    3.9494
   14.235    3.9705
   14.250    4.0337
   14.265    4.1390
   14.280    4.1496
   14.295    4.0653
   14.310    4.1390
   14.325    4.1074
   14.340    4.2022
   14.355    4.2022
   14.370    3.9916
   14.385    3.9494
   14.400    3.9179
   14.415    4.2654
   14.430    4.2127
   14.445    4.3602
   14.460    4.2127
   14.475    4.5919
   14.490    4.4234
   14.505    4.0548
   14.520    4.0969
   14.535    3.9389
   14.550    3.7283
   14.565    4.0232
   14.580    3.9810
   14.595    4.2022
   14.610    4.1496
   14.625    4.5076
   14.640    4.2338
   14.655    4.2233
   14.670    3.9705
   14.685    4.0653
   14.700    4.0548
   14.715    3.9179
   14.730    3.9494
   14.745    3.9284
   14.760    4.1074
   14.775    3.7704
   14.790    4.1180
   14.805    4.0864
   14.820    4.2127
   14.835    3.8863
   14.850    3.5598
   14.865    3.8441
   14.880    4.1917
   14.895    3.8652
   14.910    3.4966
   14.925    3.7283
   14.940    3.8547
   14.955    3.9073
   14.970    3.8125
   14.985    3.6862
   15.000    3.7493
   15.015    3.8757
   15.030    3.7493
   15.045    4.0548
   15.060    3.7493
   15.075    3.8125
   15.090    3.6967
   15.105    3.6124
   15.120    3.8547
   15.135    3.6019
   15.150    3.5387
   15.165    3.8441
   15.180    3.8125
   15.195    3.9073
   15.210    3.8125
   15.225    3.5282
   15.240    3.6440
   15.255    3.6230
   15.270    3.7493
   15.285    3.6124
   15.300    3.7493
   15.315    3.8231
   15.330    3.6651
   15.345    3.7072
   15.360    3.2649
   15.375    3.3491
   15.390    3.6862
   15.405    3.6967
   15.420    3.5914
   15.435    3.5808
   15.450    3.4439
   15.465    3.7704
   15.480    3.7177
   15.495    3.5387
   15.510    3.3281
   15.525    3.4860
   15.540    3.4439
   15.555    3.2754
   15.570    3.5808
   15.585    3.3386
   15.600    3.6967
   15.615    3.9705
   15.630    3.4860
   15.645    3.7177
   15.660    3.5703
   15.675    3.3281
   15.690    3.6546
   15.705    3.9705
   15.720    3.8968
   15.735    3.7809
   15.750    3.3807
   15.765    3.6546
   15.780    3.6230
   15.795    3.5282
   15.810    3.6651
   15.825    3.6335
   15.840    3.7704
   15.855    3.6756
   15.870    3.6862
   15.885    3.7283
   15.900    3.6862
   15.915    3.6230
   15.930    3.7177
   15.945    3.6546
   15.960    3.7493
   15.975    3.8336
   15.990    3.7177
   16.005    3.4123
   16.020    3.6651
   16.035    3.8757
   16.050    3.4650
   16.065    3.8231
   16.080    3.4650
   16.095    3.2859
   16.110    3.7072
   16.125    3.6756
   16.140    3.6019
   16.155    3.6967
   16.170    3.6546
   16.185    3.8125
   16.200    3.6230
   16.215    3.3281
   16.230    3.6546
   16.245    3.5492
   16.260    3.3175
   16.275    3.4860
   16.290    3.3702
   16.305    3.5282
   16.320    3.7599
   16.335    3.4860
   16.350    3.4439
   16.365    3.3070
   16.380    3.3597
   16.395    3.4755
   16.410    3.7388
   16.425    3.3386
   16.440    3.5914
   16.455    3.6230
   16.470    3.6651
   16.485    3.6546
   16.500    3.5598
   16.515    3.5598
   16.530    3.7177
   16.545    3.5282
   16.560    3.3175
   16.575    3.4650
   16.590    3.3702
   16.605    3.1701
   16.620    3.2438
   16.635    3.4018
   16.650    3.7704
   16.665    3.6335
   16.680    3.9705
   16.695    3.7072
   16.710    3.4018
   16.725    3.5282
   16.740    3.6124
   16.755    3.5808
   16.770    3.7809
   16.785    3.6019
   16.800    3.5492
   16.815    3.4860
   16.830    3.5703
   16.845    3.3386
   16.860    3.4755
   16.875    3.4966
   16.890    3.6546
   16.905    3.5176
   16.920    3.4123
   16.935    3.5492
   16.950    3.5914
   16.965    3.8863
   16.980    3.5914
   16.995    3.4334
   17.010    3.3175
   17.025    3.5808
   17.040    3.9494
   17.055    3.7072
   17.070    3.5914
   17.085    3.3807
   17.100    3.4650
   17.115    3.6546
   17.130    3.8125
   17.145    3.8020
   17.160    3.3175
   17.175    3.4018
   17.190    3.5703
   17.205    3.5492
   17.220    3.2965
   17.235    3.6124
   17.250    3.5703
   17.265    3.5598
   17.280    3.6967
   17.295    3.4860
   17.310    3.8020
   17.325    3.6967
   17.340    3.6862
   17.355    3.5492
   17.370    3.6335
   17.385    3.4755
   17.400    3.4966
   17.415    3.5071
   17.430    3.8652
   17.445    3.5703
   17.460    3.4229
   17.475    3.3281
   17.490    3.6546
   17.505    3.4860
   17.520    3.3281
   17.535    3.1490
   17.550    3.5808
   17.565    3.5598
   17.580    3.4018
   17.595    3.3702
   17.610    3.6440
   17.625    3.5492
   17.640    3.9389
   17.655    3.8125
   17.670    3.8231
   17.685    3.6756
   17.700    3.0964
   17.715    3.6756
   17.730    3.8863
   17.745    3.8863
   17.760    3.3597
   17.775    3.2859
   17.790    3.4334
   17.805    3.6756
   17.820    3.9494
   17.835    3.8020
   17.850    3.8125
   17.865    3.5914
   17.880    3.5387
   17.895    3.5282
   17.910    3.5808
   17.925    3.4334
   17.940    3.5492
   17.955    3.3702
   17.970    3.4334
   17.985    3.6862
   18.000    3.7177
   18.015    3.5914
   18.030    3.4018
   18.045    3.4650
   18.060    3.7915
   18.075    3.9494
   18.090    3.7915
   18.105    3.4860
   18.120    3.4966
   18.135    3.4966
   18.150    3.3386
   18.165    3.5387
   18.180    3.4860
   18.195    3.3702
   18.210    3.4650
   18.225    3.4334
   18.240    3.5598
   18.255    3.4755
   18.270    3.3386
   18.285    3.5282
   18.300    3.4966
   18.315    3.6651
   18.330    3.5176
   18.345    3.4123
   18.360    3.6124
   18.375    3.7599
   18.390    3.5492
   18.405    3.7072
   18.420    3.6967
   18.435    3.8441
   18.450    3.6019
   18.465    3.4334
   18.480    3.6019
   18.495    3.4439
   18.510    3.6756
   18.525    3.5282
   18.540    3.5176
   18.555    3.6019
   18.570    3.2965
   18.585    3.5598
   18.600    3.5914
   18.615    3.6124
   18.630    3.2754
   18.645    3.4123
   18.660    3.3070
   18.675    3.3070
   18.690    3.5176
   18.705    3.4229
   18.720    3.6756
   18.735    3.3070
   18.750    3.5282
   18.765    3.8125
   18.780    3.8757
   18.795    3.5071
   18.810    3.6335
   18.825    3.6756
   18.840    3.5176
   18.855    3.3070
   18.870    3.6335
   18.885    3.6440
   18.900    3.5176
   18.915    3.2122
   18.930    3.4544
   18.945    3.4650
   18.960    3.5808
   18.975    3.4439
   18.990    3.4966
   19.005    3.5492
   19.020    3.6335
   19.035    3.9179
   19.050    3.6756
   19.065    3.2017
   19.080    3.4123
   19.095    3.3175
   19.110    3.5703
   19.125    3.2543
   19.140    3.4860
   19.155    3.4966
   19.170    3.4018
   19.185    3.5808
   19.200    3.6756
   19.215    3.6862
   19.230    3.7177
   19.245    3.4966
   19.260    3.5808
   19.275    3.5914
   19.290    3.6335
   19.305    3.4439
   19.320    3.3597
   19.335    3.5176
   19.350    3.6756
   19.365    3.1701
   19.380    3.3491
   19.395    3.3175
   19.410    3.4334
   19.425    3.6335
   19.440    3.6019
   19.455    3.3386
   19.470    3.3070
   19.485    3.2965
   19.500    3.2965
   19.515    3.5808
   19.530    3.3175
   19.545    3.6124
   19.560    3.7599
   19.575    3.7704
   19.590    3.2754
   19.605    3.6335
   19.620    3.5703
   19.635    3.2965
   19.650    3.2543
   19.665    3.4229
   19.680    3.6862
   19.695    3.4229
   19.710    3.6230
   19.725    3.5387
   19.740    2.9910
   19.755    3.2859
   19.770    3.4966
   19.785    3.3597
   19.800    3.2333
   19.815    3.1806
   19.830    3.2543
   19.845    3.5914
   19.860    3.2965
   19.875    3.3281
   19.890    3.2649
   19.905    3.4544
   19.920    3.3913
   19.935    3.4439
   19.950    3.3597
   19.965    3.2017
   19.980    3.1490
   19.995    3.2649
   20.010    3.2122
   20.025    3.1912
   20.040    3.4966
   20.055    3.5071
   20.070    3.3070
   20.085    3.4334
   20.100    3.1701
   20.115    3.0753
   20.130    3.2859
   20.145    3.2122
   20.160    3.2859
   20.175    3.3807
   20.190    3.5914
   20.205    3.4018
   20.220    3.2859
   20.235    3.2859
   20.250    3.4439
   20.265    3.4439
   20.280    3.3281
   20.295    3.3386
   20.310    3.6019
   20.325    3.5598
   20.340    3.5071
   20.355    3.2333
   20.370    3.6230
   20.385    3.1596
   20.400    3.4439
   20.415    3.5492
   20.430    3.6019
   20.445    3.3175
   20.460    3.0016
   20.475    3.2859
   20.490    3.1701
   20.505    3.0753
   20.520    3.0753
   20.535    3.0858
   20.550    3.3386
   20.565    3.0542
   20.580    3.2965
   20.595    3.2965
   20.610    3.5176
   20.625    3.3807
   20.640    3.4123
   20.655    3.2017
   20.670    3.2122
   20.685    3.2438
   20.700    3.3913
   20.715    3.2333
   20.730    3.2859
   20.745    2.9805
   20.760    3.2859
   20.775    3.2543
   20.790    3.2122
   20.805    3.3386
   20.820    3.1701
   20.835    3.2438
   20.850    3.4860
   20.865    3.3807
   20.880    3.2438
   20.895    3.1490
   20.910    3.3491
   20.925    3.1280
   20.940    3.2122
   20.955    3.3175
   20.970    3.2017
   20.985    3.4439
   21.000    3.2754
   21.015    3.4650
   21.030    3.5071
   21.045    3.3386
   21.060    3.2333
   21.075    3.0332
   21.090    3.0858
   21.105    3.2333
   21.120    3.1806
   21.135    3.1174
   21.150    3.2227
   21.165    3.4229
   21.180    3.1596
   21.195    3.1806
   21.210    3.2122
   21.225    3.1490
   21.240    3.2649
   21.255    3.3281
   21.270    3.2754
   21.285    3.1701
   21.300    3.0648
   21.315    3.0437
   21.330    3.3491
   21.345    3.3491
   21.360    3.4018
   21.375    3.4018
   21.390    3.1280
   21.405    3.3913
   21.420    3.2438
   21.435    3.2859
   21.450    3.3702
   21.465    3.2649
   21.480    3.1701
   21.495    3.4123
   21.510    3.3702
   21.525    3.1174
   21.540    3.1174
   21.555    3.1385
   21.570    3.5282
   21.585    3.2754
   21.600    3.0648
   21.615    3.2333
   21.630    3.1912
   21.645    3.1069
   21.660    2.9068
   21.675    3.0226
   21.690    3.1069
   21.705    3.3491
   21.720    3.1069
   21.735    3.2965
   21.750    3.1385
   21.765    3.1385
   21.780    3.3281
   21.795    3.5282
   21.810    3.2017
   21.825    3.2965
   21.840    3.2965
   21.855    3.0858
   21.870    3.1174
   21.885    3.5387
   21.900    3.2965
   21.915    3.1174
   21.930    3.2017
   21.945    3.2122
   21.960    3.1912
   21.975    2.7067
   21.990    3.1596
   22.005    2.9279
   22.020    3.0542
   22.035    3.1280
   22.050    3.3597
   22.065    3.0121
   22.080    2.9279
   22.095    2.8120
   22.110    3.2017
   22.125    3.0858
   22.140    2.9910
   22.155    3.0226
   22.170    3.0648
   22.185    2.9700
   22.200    2.8857
   22.215    2.9595
   22.230    3.0226
   22.245    2.8647
   22.260    2.9279
   22.275    2.8857
   22.290    3.0753
   22.305    3.3491
   22.320    3.2227
   22.335    2.9384
   22.350    3.1596
   22.365    3.0542
   22.380    2.9173
   22.395    2.9173
   22.410    3.0437
   22.425    2.8120
   22.440    3.2965
   22.455    3.2649
   22.470    3.1806
   22.485    2.9700
   22.500    3.2122
   22.515    3.0648
   22.530    2.7804
   22.545    2.9700
   22.560    2.9805
   22.575    2.9173
   22.590    3.0226
   22.605    3.2754
   22.620    3.1596
   22.635    2.8857
   22.650    2.9384
   22.665    3.2754
   22.680    3.4334
   22.695    3.1490
   22.710    3.0753
   22.725    3.0964
   22.740    3.2438
   22.755    3.0121
   22.770    3.0226
   22.785    2.9068
   22.800    3.1174
   22.815    2.9910
   22.830    3.1701
   22.845    2.8120
   22.860    2.7909
   22.875    3.0226
   22.890    3.1490
   22.905    2.8963
   22.920    3.1596
   22.935    3.3175
   22.950    3.0542
   22.965    3.0437
   22.980    3.0226
   22.995    2.9279
   23.010    2.7804
   23.025    2.8436
   23.040    2.9384
   23.055    3.2017
   23.070    3.0016
   23.085    3.0016
   23.100    2.7172
   23.115    2.9384
   23.130    2.7383
   23.145    2.7593
   23.160    2.9068
   23.175    3.1701
   23.190    3.1596
   23.205    3.0437
   23.220    3.1174
   23.235    2.8647
   23.250    2.6962
   23.265    3.0226
   23.280    2.8436
   23.295    2.6435
   23.310    2.5487
   23.325    3.0332
   23.340    2.8015
   23.355    2.7593
   23.370    2.7383
   23.385    2.9595
   23.400    2.9805
   23.415    2.8857
   23.430    2.8120
   23.445    2.9068
   23.460    2.7488
   23.475    2.7278
   23.490    2.7699
   23.505    2.6751
   23.520    2.7278
   23.535    2.8015
   23.550    2.9489
   23.565    3.0648
   23.580    2.9489
   23.595    3.0016
   23.610    2.8120
   23.625    2.7804
   23.640    2.8120
   23.655    2.7278
   23.670    2.6540
   23.685    3.0648
   23.700    2.6962
   23.715    2.9489
   23.730    3.2227
   23.745    2.9173
   23.760    2.6962
   23.775    2.8647
   23.790    2.9068
   23.805    2.8120
   23.820    2.9910
   23.835    2.8331
   23.850    2.7278
   23.865    2.6856
   23.880    2.6330
   23.895    2.7909
   23.910    2.9068
   23.925    2.7278
   23.940    2.8752
   23.955    2.7804
   23.970    2.8541
   23.985    2.7909
   24.000    2.7593
   24.015    3.0964
   24.030    2.7593
   24.045    2.7488
   24.060    2.9489
   24.075    3.0226
   24.090    2.7804
   24.105    2.6435
   24.120    2.6540
   24.135    2.5276
   24.150    2.6435
   24.165    2.4855
   24.180    2.5698
   24.195    2.8120
   24.210    2.7067
   24.225    2.6540
   24.240    2.9910
   24.255    2.8225
   24.270    2.9173
   24.285    2.6435
   24.300    2.6856
   24.315    2.8436
   24.330    2.5908
   24.345    2.8331
   24.360    2.7067
   24.375    2.4645
   24.390    2.5276
   24.405    2.6856
   24.420    2.9173
   24.435    2.8120
   24.450    2.3802
   24.465    2.4539
   24.480    2.8436
   24.495    2.7804
   24.510    2.8436
   24.525    2.7909
   24.540    2.8541
   24.555    2.5066
   24.570    2.6119
   24.585    2.7909
   24.600    2.5803
   24.615    2.7383
   24.630    2.7488
   24.645    2.9279
   24.660    2.7383
   24.675    2.4645
   24.690    2.4855
   24.705    2.8015
   24.720    2.9173
   24.735    2.7488
   24.750    2.6962
   24.765    2.7488
   24.780    2.8963
   24.795    2.8541
   24.810    2.6751
   24.825    2.7488
   24.840    2.7804
   24.855    2.6962
   24.870    2.8647
   24.885    2.7383
   24.900    2.6856
   24.915    2.6330
   24.930    2.5171
   24.945    2.5276
   24.960    2.6962
   24.975    2.6751
   24.990    2.7488
   25.005    2.5698
   25.020    2.5908
   25.035    2.6646
   25.050    2.5908
   25.065    2.5592
   25.080    2.5803
   25.095    2.7172
   25.110    2.6119
   25.125    2.3275
   25.140    2.3907
   25.155    2.4750
   25.170    2.3381
   25.185    2.4118
   25.200    2.4434
   25.215    2.5908
   25.230    2.5698
   25.245    2.7278
   25.260    2.2959
   25.275    2.5276
   25.290    2.6540
   25.305    2.8225
   25.320    2.7488
   25.335    2.6435
   25.350    2.6014
   25.365    2.8225
   25.380    2.4855
   25.395    2.3591
   25.410    2.5908
   25.425    2.5276
   25.440    2.6224
   25.455    2.5066
   25.470    2.3591
   25.485    2.6435
   25.500    2.4223
   25.515    2.4750
   25.530    2.8120
   25.545    2.4961
   25.560    2.2117
   25.575    2.4223
   25.590    2.5803
   25.605    2.6540
   25.620    2.6856
   25.635    2.6119
   25.650    2.6646
   25.665    2.6751
   25.680    2.3591
   25.695    2.7383
   25.710    2.7488
   25.725    2.6119
   25.740    2.5698
   25.755    2.6751
   25.770    2.6435
   25.785    2.3486
   25.800    2.4329
   25.815    2.4223
   25.830    2.6119
   25.845    2.4961
   25.860    2.5382
   25.875    2.4645
   25.890    2.5382
   25.905    2.5276
   25.920    2.4961
   25.935    2.3381
   25.950    2.4223
   25.965    2.4750
   25.980    2.6540
   25.995    2.4645
   26.010    2.2433
   26.025    2.3486
   26.040    2.6119
   26.055    2.6962
   26.070    2.6751
   26.085    2.4223
   26.100    2.4539
   26.115    2.5066
   26.130    2.5908
   26.145    2.2117
   26.160    2.3591
   26.175    2.4118
   26.190    2.3802
   26.205    2.4118
   26.220    2.2222
   26.235    2.5382
   26.250    2.4855
   26.265    2.6014
   26.280    2.6014
   26.295    2.4539
   26.310    2.5592
   26.325    2.7699
   26.340    2.4855
   26.355    2.5698
   26.370    2.4013
   26.385    2.3697
   26.400    2.4223
   26.415    2.4961
   26.430    2.5171
   26.445    2.3802
   26.460    2.4750
   26.475    2.2328
   26.490    2.2643
   26.505    2.1590
   26.520    2.3591
   26.535    2.4329
   26.550    2.3697
   26.565    2.6119
   26.580    2.5276
   26.595    2.3802
   26.610    2.2433
   26.625    2.4855
   26.640    2.2538
   26.655    2.4750
   26.670    2.3697
   26.685    2.3275
   26.700    2.3802
   26.715    2.6224
   26.730    2.3591
   26.745    2.3907
   26.760    2.5276
   26.775    2.5382
   26.790    2.2117
   26.805    2.2749
   26.820    2.2538
   26.835    2.5487
   26.850    2.6646
   26.865    2.5487
   26.880    2.6330
   26.895    2.6224
   26.910    2.2012
   26.925    2.2959
   26.940    2.4539
   26.955    2.4434
   26.970    2.3486
   26.985    2.3907
   27.000    2.2538
   27.015    2.3275
   27.030    2.3381
   27.045    2.5487
   27.060    2.5066
   27.075    2.4961
   27.090    2.4434
   27.105    2.5487
   27.120    2.3065
   27.135    2.2643
   27.150    2.2959
   27.165    2.2328
   27.180    2.2854
   27.195    2.3381
   27.210    2.4223
   27.225    2.3065
   27.240    2.2222
   27.255    2.1590
   27.270    2.3275
   27.285    2.3697
   27.300    2.4013
   27.315    2.2854
   27.330    2.1485
   27.345    2.5276
   27.360    2.4118
   27.375    2.2854
   27.390    2.3275
   27.405    2.2222
   27.420    2.1696
   27.435    2.1696
   27.450    2.3486
   27.465    2.3065
   27.480    2.3170
   27.495    2.2117
   27.510    2.4329
   27.525    2.0116
   27.540    2.0642
   27.555    2.3381
   27.570    2.2433
   27.585    2.4329
   27.600    2.0958
   27.615    2.2854
   27.630    2.2959
   27.645    2.2328
   27.660    2.3170
   27.675    2.1801
   27.690    2.1590
   27.705    2.3907
   27.720    2.0958
   27.735    1.8009
   27.750    1.9800
   27.765    2.1801
   27.780    2.1906
   27.795    2.4961
   27.810    2.2222
   27.825    2.4750
   27.840    2.3591
   27.855    2.1696
   27.870    2.1169
   27.885    2.1064
   27.900    2.3065
   27.915    2.3065
   27.930    2.3486
   27.945    2.2328
   27.960    2.1696
   27.975    2.3275
   27.990    2.2749
   28.005    2.2433
   28.020    2.1380
   28.035    2.0642
   28.050    2.0432
   28.065    2.0221
   28.080    2.2012
   28.095    2.2854
   28.110    2.2433
   28.125    2.1590
   28.140    2.2749
   28.155    2.1380
   28.170    2.2749
   28.185    2.2854
   28.200    2.2959
   28.215    2.0116
   28.230    2.1169
   28.245    2.1801
   28.260    2.0958
   28.275    2.2749
   28.290    2.1485
   28.305    2.2222
   28.320    2.1274
   28.335    2.1590
   28.350    2.2538
   28.365    2.3591
   28.380    2.2222
   28.395    2.2643
   28.410    2.0958
   28.425    2.0958
   28.440    1.9273
   28.455    2.1485
   28.470    2.2433
   28.485    2.3802
   28.500    2.1696
   28.515    2.2538
   28.530    2.2749
   28.545    2.1801
   28.560    1.9484
   28.575    2.0116
   28.590    2.4645
   28.605    2.2538
   28.620    2.1274
   28.635    2.0011
   28.650    2.1380
   28.665    2.2117
   28.680    2.1169
   28.695    2.1169
   28.710    2.0853
   28.725    2.0853
   28.740    2.1906
   28.755    2.0642
   28.770    2.1380
   28.785    2.3275
   28.800    2.3170
   28.815    2.2749
   28.830    2.3170
   28.845    2.2012
   28.860    2.3591
   28.875    2.2222
   28.890    2.3802
   28.905    2.4329
   28.920    2.0432
   28.935    1.9800
   28.950    2.1906
   28.965    2.0537
   28.980    2.2328
   28.995    2.5487
   29.010    2.2643
   29.025    2.1169
   29.040    2.0011
   29.055    2.4013
   29.070    2.3802
   29.085    2.4329
   29.100    2.3591
   29.115    2.2328
   29.130    2.1380
   29.145    2.3065
   29.160    2.3591
   29.175    2.2854
   29.190    2.3065
   29.205    2.2012
   29.220    2.3486
   29.235    2.1906
   29.250    2.0958
   29.265    2.1064
   29.280    2.2959
   29.295    2.3486
   29.310    2.1801
   29.325    2.0432
   29.340    2.1064
   29.355    2.1696
   29.370    2.2222
   29.385    2.1485
   29.400    2.0432
   29.415    1.9695
   29.430    2.2222
   29.445    2.0958
   29.460    2.0853
   29.475    2.0221
   29.490    1.8431
   29.505    1.9695
   29.520    2.1380
   29.535    1.8536
   29.550    1.9063
   29.565    2.0326
   29.580    2.0221
   29.595    2.0221
   29.610    1.8957
   29.625    2.0853
   29.640    1.9063
   29.655    1.9905
   29.670    1.7588
   29.685    2.1274
   29.700    2.0221
   29.715    1.9800
   29.730    1.8957
   29.745    1.9589
   29.760    1.9063
   29.775    2.1274
   29.790    1.9695
   29.805    1.8536
   29.820    1.7904
   29.835    1.8431
   29.850    1.9905
   29.865    1.7799
   29.880    1.9379
   29.895    1.7799
   29.910    2.0221
   29.925    1.9695
   29.940    1.8852
   29.955    1.7272
   29.970    1.7167
   29.985    1.8536
   30.000    2.1590
   30.015    1.8957
   30.030    1.9589
   30.045    1.7694
   30.060    1.8852
   30.075    1.8325
   30.090    1.7167
   30.105    1.7588
   30.120    1.8852
   30.135    1.8220
   30.150    1.8325
   30.165    1.9800
   30.180    1.9168
   30.195    1.9589
   30.210    1.9484
   30.225    1.6851
   30.240    1.7378
   30.255    1.8009
   30.270    1.9484
   30.285    1.8220
   30.300    1.9379
   30.315    1.7904
   30.330    1.6114
   30.345    1.9063
   30.360    2.0853
   30.375    1.8431
   30.390    1.8325
   30.405    2.0011
   30.420    1.8852
   30.435    1.8220
   30.450    1.7378
   30.465    1.8641
   30.480    1.8852
   30.495    1.7904
   30.510    1.8325
   30.525    1.8852
   30.540    2.0853
   30.555    2.0537
   30.570    1.8641
   30.585    1.7694
   30.600    1.7904
   30.615    1.7272
   30.630    1.9484
   30.645    1.8220
   30.660    1.8536
   30.675    1.9484
   30.690    1.8536
   30.705    2.1485
   30.720    2.0326
   30.735    1.8852
   30.750    1.9063
   30.765    1.8325
   30.780    1.7167
   30.795    1.7799
   30.810    1.9484
   30.825    1.8957
   30.840    1.6851
   30.855    1.8747
   30.870    1.8641
   30.885    1.9589
   30.900    1.7483
   30.915    1.8325
   30.930    1.7272
   30.945    1.7694
   30.960    1.8641
   30.975    1.7483
   30.990    1.7062
   31.005    1.8747
   31.020    1.8957
   31.035    1.7378
   31.050    1.7799
   31.065    1.8747
   31.080    1.6324
   31.095    1.9063
   31.110    1.8115
   31.125    1.6851
   31.140    1.8220
   31.155    1.5692
   31.170    1.5587
   31.185    1.7588
   31.200    1.8747
   31.215    1.9168
   31.230    1.8431
   31.245    1.8431
   31.260    1.8009
   31.275    1.6324
   31.290    1.7483
   31.305    1.8115
   31.320    1.8009
   31.335    1.7483
   31.350    1.8009
   31.365    1.6956
   31.380    1.6956
   31.395    1.7167
   31.410    1.7272
   31.425    1.6430
   31.440    1.8641
   31.455    1.6640
   31.470    1.7483
   31.485    1.7588
   31.500    1.6851
   31.515    1.7483
   31.530    1.6746
   31.545    1.7799
   31.560    1.7694
   31.575    1.4850
   31.590    1.7062
   31.605    1.8641
   31.620    1.8220
   31.635    1.8115
   31.650    1.8115
   31.665    1.6746
   31.680    1.7272
   31.695    1.6430
   31.710    1.6008
   31.725    1.7062
   31.740    1.7694
   31.755    1.5587
   31.770    1.8536
   31.785    1.6956
   31.800    1.7694
   31.815    1.8115
   31.830    1.8325
   31.845    1.7588
   31.860    1.6851
   31.875    1.7167
   31.890    1.8747
   31.905    1.6640
   31.920    1.7799
   31.935    1.9589
   31.950    1.7694
   31.965    1.5903
   31.980    1.6851
   31.995    1.6324
   32.010    1.6746
   32.025    1.7483
   32.040    1.6535
   32.055    1.7378
   32.070    1.5798
   32.085    1.6746
   32.100    1.8115
   32.115    1.8115
   32.130    1.5903
   32.145    1.7694
   32.160    1.7167
   32.175    1.4745
   32.190    1.6956
   32.205    1.6535
   32.220    1.8220
   32.235    1.8325
   32.250    1.4850
   32.265    1.4534
   32.280    1.6219
   32.295    1.6324
   32.310    1.5166
   32.325    1.4955
   32.340    1.5903
   32.355    1.8115
   32.370    1.7167
   32.385    1.5692
   32.400    1.7167
   32.415    1.5692
   32.430    1.5271
   32.445    1.7272
   32.460    1.6746
   32.475    1.6114
   32.490    1.7062
   32.505    1.6219
   32.520    1.8009
   32.535    1.6956
   32.550    1.5377
   32.565    1.7272
   32.580    1.5692
   32.595    1.5377
   32.610    1.5587
   32.625    1.5587
   32.640    1.4850
   32.655    1.6746
   32.670    1.7272
   32.685    1.6746
   32.700    1.8115
   32.715    1.6430
   32.730    1.4745
   32.745    1.6008
   32.760    1.5798
   32.775    1.5482
   32.790    1.4955
   32.805    1.4955
   32.820    1.7272
   32.835    1.5903
   32.850    1.7483
   32.865    1.5798
   32.880    1.6219
   32.895    1.4218
   32.910    1.4218
   32.925    1.5587
   32.940    1.6008
   32.955    1.6746
   32.970    1.5587
   32.985    1.4745
   33.000    1.5692
   33.015    1.7167
   33.030    1.6114
   33.045    1.5482
   33.060    1.5482
   33.075    1.5692
   33.090    1.5166
   33.105    1.6956
   33.120    1.4534
   33.135    1.5271
   33.150    1.4850
   33.165    1.6324
   33.180    1.5798
   33.195    1.5587
   33.210    1.5798
   33.225    1.5061
   33.240    1.6219
   33.255    1.4745
   33.270    1.5166
   33.285    1.5903
   33.300    1.6324
   33.315    1.5271
   33.330    1.5798
   33.345    1.5692
   33.360    1.6219
   33.375    1.4323
   33.390    1.6956
   33.405    1.6640
   33.420    1.5166
   33.435    1.5377
   33.450    1.7694
   33.465    1.5587
   33.480    1.3797
   33.495    1.3691
   33.510    1.5798
   33.525    1.6640
   33.540    1.6535
   33.555    1.6746
   33.570    1.5377
   33.585    1.4850
   33.600    1.4745
   33.615    1.4745
   33.630    1.3797
   33.645    1.4429
   33.660    1.5903
   33.675    1.4745
   33.690    1.5798
   33.705    1.4955
   33.720    1.5798
   33.735    1.5166
   33.750    1.5166
   33.765    1.6430
   33.780    1.5692
   33.795    1.5903
   33.810    1.4955
   33.825    1.6640
   33.840    1.5587
   33.855    1.6114
   33.870    1.5798
   33.885    1.6746
   33.900    1.4534
   33.915    1.6851
   33.930    1.8009
   33.945    1.6430
   33.960    1.5271
   33.975    1.6956
   33.990    1.6008
   34.005    1.5061
   34.020    1.6114
   34.035    1.5166
   34.050    1.4007
   34.065    1.4534
   34.080    1.4429
   34.095    1.4850
   34.110    1.4745
   34.125    1.5377
   34.140    1.5903
   34.155    1.6219
   34.170    1.4323
   34.185    1.4007
   34.200    1.4007
   34.215    1.4113
   34.230    1.6535
   34.245    1.4534
   34.260    1.4429
   34.275    1.5061
   34.290    1.5692
   34.305    1.4534
   34.320    1.4639
   34.335    1.6430
   34.350    1.5587
   34.365    1.5166
   34.380    1.5061
   34.395    1.5692
   34.410    1.6324
   34.425    1.5587
   34.440    1.3797
   34.455    1.4534
   34.470    1.5166
   34.485    1.4007
   34.500    1.4955
   34.515    1.3902
   34.530    1.3375
   34.545    1.5587
   34.560    1.3797
   34.575    1.5166
   34.590    1.6535
   34.605    1.6430
   34.620    1.4323
   34.635    1.3586
   34.650    1.5271
   34.665    1.6008
   34.680    1.5166
   34.695    1.5271
   34.710    1.6219
   34.725    1.4534
   34.740    1.6430
   34.755    1.4850
   34.770    1.4218
   34.785    1.2849
   34.800    1.5061
   34.815    1.4218
   34.830    1.5166
   34.845    1.4955
   34.860    1.4745
   34.875    1.4955
   34.890    1.4955
   34.905    1.5061
   34.920    1.6114
   34.935    1.3797
   34.950    1.5061
   34.965    1.3165
   34.980    1.5692
   34.995    1.5587
   35.010    1.3691
   35.025    1.5587
   35.040    1.5271
   35.055    1.6008
   35.070    1.4850
   35.085    1.5692
   35.100    1.5692
   35.115    1.3902
   35.130    1.3165
   35.145    1.3902
   35.160    1.4113
   35.175    1.4534
   35.190    1.5377
   35.205    1.3797
   35.220    1.4850
   35.235    1.3691
   35.250    1.3060
   35.265    1.4323
   35.280    1.5377
   35.295    1.4218
   35.310    1.5587
   35.325    1.6851
   35.340    1.4113
   35.355    1.4429
   35.370    1.5271
   35.385    1.4534
   35.400    1.5061
   35.415    1.4639
   35.430    1.5061
   35.445    1.4534
   35.460    1.6008
   35.475    1.4218
   35.490    1.4850
   35.505    1.6430
   35.520    1.5798
   35.535    1.7378
   35.550    1.4218
   35.565    1.4429
   35.580    1.4745
   35.595    1.4639
   35.610    1.4745
   35.625    1.5903
   35.640    1.5587
   35.655    1.3797
   35.670    1.4007
   35.685    1.3902
   35.700    1.4850
   35.715    1.5692
   35.730    1.4850
   35.745    1.4218
   35.760    1.3691
   35.775    1.5903
   35.790    1.4323
   35.805    1.4429
   35.820    1.5903
   35.835    1.5587
   35.850    1.4113
   35.865    1.4113
   35.880    1.4429
   35.895    1.5166
   35.910    1.4639
   35.925    1.4323
   35.940    1.5587
   35.955    1.5587
   35.970    1.4218
   35.985    1.4007
   36.000    1.4218
   36.015    1.5482
   36.030    1.6956
   36.045    1.4850
   36.060    1.5377
   36.075    1.4113
   36.090    1.4007
   36.105    1.4639
   36.120    1.4955
   36.135    1.4113
   36.150    1.5903
   36.165    1.4850
   36.180    1.4429
   36.195    1.4534
   36.210    1.4955
   36.225    1.4218
   36.240    1.5377
   36.255    1.6746
   36.270    1.3586
   36.285    1.5271
   36.300    1.3797
   36.315    1.3797
   36.330    1.5798
   36.345    1.5271
   36.360    1.4850
   36.375    1.3586
   36.390    1.5061
   36.405    1.5903
   36.420    1.4007
   36.435    1.5903
   36.450    1.6535
   36.465    1.4323
   36.480    1.4639
   36.495    1.5166
   36.510    1.3165
   36.525    1.3797
   36.540    1.3165
   36.555    1.4534
   36.570    1.5166
   36.585    1.4955
   36.600    1.4007
   36.615    1.5166
   36.630    1.5271
   36.645    1.5798
   36.660    1.3481
   36.675    1.5482
   36.690    1.6640
   36.705    1.3902
   36.720    1.3165
   36.735    1.4323
   36.750    1.5271
   36.765    1.4218
   36.780    1.5482
   36.795    1.4429
   36.810    1.3481
   36.825    1.4534
   36.840    1.5587
   36.855    1.3797
   36.870    1.3797
   36.885    1.3375
   36.900    1.3375
   36.915    1.3375
   36.930    1.4955
   36.945    1.5377
   36.960    1.4218
   36.975    1.3902
   36.990    1.6851
   37.005    1.4534
   37.020    1.3586
   37.035    1.5061
   37.050    1.3691
   37.065    1.3165
   37.080    1.7167
   37.095    1.4850
   37.110    1.4429
   37.125    1.2217
   37.140    1.5061
   37.155    1.5798
   37.170    1.3481
   37.185    1.3586
   37.200    1.4639
   37.215    1.3691
   37.230    1.4429
   37.245    1.3691
   37.260    1.4323
   37.275    1.2744
   37.290    1.3481
   37.305    1.3270
   37.320    1.2849
   37.335    1.2954
   37.350    1.4113
   37.365    1.5166
   37.380    1.1269
   37.395    1.3586
   37.410    1.5903
   37.425    1.5482
   37.440    1.3797
   37.455    1.3797
   37.470    1.2849
   37.485    1.2428
   37.500    1.3902
   37.515    1.2638
   37.530    1.1901
   37.545    1.3691
   37.560    1.2954
   37.575    1.1901
   37.590    1.2428
   37.605    1.3586
   37.620    1.5061
   37.635    1.4218
   37.650    1.4218
   37.665    1.4218
   37.680    1.3270
   37.695    1.4218
   37.710    1.4534
   37.725    1.4323
   37.740    1.2849
   37.755    1.2638
   37.770    1.3797
   37.785    1.3586
   37.800    1.5271
   37.815    1.3165
   37.830    1.3481
   37.845    1.3165
   37.860    1.3060
   37.875    1.6851
   37.890    1.5377
   37.905    1.4113
   37.920    1.5061
   37.935    1.4007
   37.950    1.3270
   37.965    1.4745
   37.980    1.4218
   37.995    1.3270
   38.010    1.2217
   38.025    1.2744
   38.040    1.3060
   38.055    1.2954
   38.070    1.3270
   38.085    1.4639
   38.100    1.3902
   38.115    1.4113
   38.130    1.3902
   38.145    1.3797
   38.160    1.2638
   38.175    1.2744
   38.190    1.3270
   38.205    1.4745
   38.220    1.3481
   38.235    1.2322
   38.250    1.3797
   38.265    1.2954
   38.280    1.6430
   38.295    1.3797
   38.310    1.3060
   38.325    1.3481
   38.340    1.3586
   38.355    1.3270
   38.370    1.3375
   38.385    1.2217
   38.400    1.2638
   38.415    1.0532
   38.430    1.3060
   38.445    1.4218
   38.460    1.4007
   38.475    1.3375
   38.490    1.2954
   38.505    1.2322
   38.520    1.3691
   38.535    1.2744
   38.550    1.2954
   38.565    1.2322
   38.580    1.4218
   38.595    1.3691
   38.610    1.3481
   38.625    1.3060
   38.640    1.3165
   38.655    1.3270
   38.670    1.5271
   38.685    1.4429
   38.700    1.3481
   38.715    1.4639
   38.730    1.5377
   38.745    1.3902
   38.760    1.3691
   38.775    1.2954
   38.790    1.3375
   38.805    1.1058
   38.820    1.2638
   38.835    1.3902
   38.850    1.4323
   38.865    1.2217
   38.880    1.2954
   38.895    1.4218
   38.910    1.4429
   38.925    1.3797
   38.940    1.4218
   38.955    1.4429
   38.970    1.2638
   38.985    1.4007
   39.000    1.5798
   39.015    1.4218
   39.030    1.3060
   39.045    1.2638
   39.060    1.4218
   39.075    1.5061
   39.090    1.4850
   39.105    1.4113
   39.120    1.4850
   39.135    1.4639
   39.150    1.4007
   39.165    1.2954
   39.180    1.3060
   39.195    1.4639
   39.210    1.3270
   39.225    1.3375
   39.240    1.3691
   39.255    1.2849
   39.270    1.3481
   39.285    1.4534
   39.300    1.3902
   39.315    1.2744
   39.330    1.5061
   39.345    1.3165
   39.360    1.3797
   39.375    1.4323
   39.390    1.3797
   39.405    1.3165
   39.420    1.3902
   39.435    1.3270
   39.450    1.2322
   39.465    1.2322
   39.480    1.4007
   39.495    1.2849
   39.510    1.1796
   39.525    1.2112
   39.540    1.2112
   39.555    1.3060
   39.570    1.3375
   39.585    1.3375
   39.600    1.2638
   39.615    1.6008
   39.630    1.3060
   39.645    1.2217
   39.660    1.2533
   39.675    1.1796
   39.690    1.3691
   39.705    1.4113
   39.720    1.5061
   39.735    1.2744
   39.750    1.2322
   39.765    1.2638
   39.780    1.3902
   39.795    1.2638
   39.810    1.3270
   39.825    1.2322
   39.840    1.5271
   39.855    1.5061
   39.870    1.2849
   39.885    1.2744
   39.900    1.5903
   39.915    1.3797
   39.930    1.2849
   39.945    1.0637
   39.960    1.3060
   39.975    1.3586
   39.990    1.3165
