    1.500   56.1980
    1.515   56.5666
    1.530   55.8294
    1.545   54.2812
    1.560   51.4165
    1.575   50.5319
    1.590   49.1311
    1.605   49.2891
    1.620   48.1095
    1.635   47.7409
    1.650   47.9410
    1.665   46.4139
    1.680   45.2027
    1.695   43.1280
    1.710   42.6540
    1.725   41.4639
    1.740   40.8531
    1.755   40.0527
    1.770   39.6209
    1.785   39.4629
    1.800   38.8520
    1.815   37.0616
    1.830   37.0827
    1.845   35.9242
    1.860   34.4076
    1.875   33.8599
    1.890   33.3544
    1.905   33.7757
    1.920   33.9442
    1.935   33.4071
    1.950   32.1327
    1.965   31.9221
    1.980   31.5429
    1.995   31.9115
    2.010   31.1848
    2.025   31.3007
    2.040   30.7741
    2.055   30.4476
    2.070   29.3312
    2.085   29.6261
    2.100   29.6051
    2.115   29.1627
    2.130   28.1727
    2.145   29.0258
    2.160   29.0679
    2.175   27.5303
    2.190   27.2565
    2.205   27.0142
    2.220   27.0142
    2.235   27.2880
    2.250   27.6567
    2.265   27.0458
    2.280   26.8668
    2.295   26.8984
    2.310   27.2459
    2.325   27.2670
    2.340   26.4350
    2.355   26.3928
    2.370   26.3718
    2.385   25.5714
    2.400   26.4876
    2.415   26.0348
    2.430   25.9400
    2.445   25.9716
    2.460   25.3607
    2.475   26.0032
    2.490   25.6977
    2.505   25.6977
    2.520   26.0664
    2.535   26.8036
    2.550   25.6767
    2.565   25.4555
    2.580   25.9610
    2.595   26.9826
    2.610   26.8773
    2.625   26.0137
    2.640   26.3507
    2.655   27.2143
    2.670   27.9832
    2.685   28.4676
    2.700   27.6356
    2.715   28.0253
    2.730   27.6251
    2.745   28.0569
    2.760   29.1101
    2.775   29.1522
    2.790   29.3944
    2.805   28.9731
    2.820   29.2154
    2.835   30.1422
    2.850   30.7109
    2.865   30.9321
    2.880   31.1848
    2.895   32.1854
    2.910   32.9015
    2.925   33.4492
    2.940   32.9226
    2.955   33.8599
    2.970   35.4924
    2.985   35.7767
    3.000   35.7978
    3.015   37.4829
    3.030   38.1991
    3.045   38.3781
    3.060   39.1259
    3.075   39.7894
    3.090   41.1480
    3.105   42.1169
    3.120   43.1490
    3.135   43.3807
    3.150   44.9289
    3.165   45.9926
    3.180   47.4566
    3.195   48.6151
    3.210   49.8578
    3.225   51.9537
    3.240   53.0384
    3.255   54.7657
    3.270   56.7983
    3.285   59.5155
    3.300   60.0632
    3.315   61.3691
    3.330   63.7178
    3.345   67.0248
    3.360   67.8778
    3.375   70.1211
    3.390   71.3007
    3.405   71.1217
    3.420   72.8489
    3.435   74.3233
    3.450   74.6814
    3.465   75.0395
    3.480   74.5866
    3.495   73.7967
    3.510   73.1859
    3.525   73.0069
    3.540   72.2696
    3.555   71.2375
    3.570   67.1827
    3.585   65.6030
    3.600   62.8120
    3.615   60.8110
    3.630   58.8520
    3.645   57.6303
    3.660   54.9658
    3.675   52.7330
    3.690   49.5629
    3.705   48.1306
    3.720   47.4671
    3.735   44.8447
    3.750   44.6446
    3.765   43.5914
    3.780   43.3702
    3.795   42.2433
    3.810   41.2638
    3.825   40.6003
    3.840   40.1580
    3.855   39.3470
    3.870   37.0300
    3.885   37.4302
    3.900   37.5355
    3.915   37.6619
    3.930   36.1559
    3.945   35.3449
    3.960   35.4081
    3.975   35.0184
    3.990   34.9974
    4.005   33.7651
    4.020   33.2491
    4.035   32.3855
    4.050   31.4376
    4.065   30.2580
    4.080   29.4365
    4.095   29.0574
    4.110   28.5835
    4.125   28.5308
    4.140   28.0147
    4.155   26.3191
    4.170   26.8352
    4.185   25.8452
    4.200   25.1501
    4.215   24.7393
    4.230   23.8968
    4.245   23.0121
    4.260   22.7383
    4.275   22.7067
    4.290   21.6535
    4.305   21.2638
    4.320   21.0216
    4.335   20.1159
    4.350   19.3997
    4.365   19.3049
    4.380   17.9884
    4.395   18.2517
    4.410   18.3992
    4.425   17.3249
    4.440   16.9142
    4.455   16.3981
    4.470   15.6187
    4.485   15.5872
    4.500   15.4713
    4.515   15.2291
    4.530   14.5972
    4.545   14.5866
    4.560   14.1338
    4.575   14.1969
    4.590   13.3860
    4.605   13.6493
    4.620   13.4176
    4.635   13.1754
    4.650   12.6909
    4.665   12.7120
    4.680   12.5013
    4.695   11.7114
    4.710   11.6272
    4.725   11.1638
    4.740   11.5850
    4.755   11.5008
    4.770   11.1427
    4.785   11.1743
    4.800   11.3112
    4.815   10.8373
    4.830   10.4897
    4.845   10.6056
    4.860   10.4687
    4.875    9.5840
    4.890    9.7314
    4.905    9.8789
    4.920   10.0263
    4.935    9.9526
    4.950    9.3944
    4.965    9.5103
    4.980    9.7420
    4.995    9.4892
    5.010    9.0890
    5.025    9.1838
    5.040    9.2575
    5.055    9.0363
    5.070    9.1838
    5.085    9.2680
    5.100    9.1101
    5.115    8.8889
    5.130    8.7204
    5.145    9.1522
    5.160    9.1206
    5.175    8.8257
    5.190    8.6993
    5.205    8.4887
    5.220    8.3518
    5.235    8.3412
    5.250    8.1201
    5.265    7.9726
    5.280    8.2886
    5.295    8.2991
    5.310    8.2886
    5.325    7.9516
    5.340    7.9621
    5.355    8.1622
    5.370    7.6461
    5.385    8.0253
    5.400    8.3728
    5.415    8.4150
    5.430    7.9516
    5.445    7.7304
    5.460    7.6567
    5.475    7.8568
    5.490    7.8462
    5.505    7.6145
    5.520    7.7620
    5.535    7.7830
    5.550    7.7936
    5.565    7.4144
    5.580    7.7199
    5.595    7.2565
    5.610    7.3091
    5.625    7.9831
    5.640    7.3828
    5.655    7.2459
    5.670    7.3512
    5.685    7.5513
    5.700    7.1090
    5.715    7.3828
    5.730    7.0458
    5.745    6.9194
    5.760    6.9510
    5.775    7.3934
    5.790    7.1090
    5.805    7.2986
    5.820    7.0353
    5.835    6.9721
    5.850    7.0037
    5.865    7.2565
    5.880    7.4671
    5.895    7.2775
    5.910    7.0985
    5.925    7.0669
    5.940    7.3407
    5.955    7.4566
    5.970    7.3407
    5.985    7.4039
    6.000    7.2354
    6.015    7.0458
    6.030    6.6561
    6.045    6.9721
    6.060    6.6245
    6.075    7.0563
    6.090    6.9721
    6.105    7.7304
    6.120    7.3091
    6.135    7.1406
    6.150    7.1933
    6.165    7.2354
    6.180    7.2143
    6.195    7.2775
    6.210    6.8457
    6.225    6.8352
    6.240    7.1301
    6.255    7.1090
    6.270    7.4460
    6.285    7.7725
    6.300    7.2880
    6.315    6.9089
    6.330    7.1406
    6.345    6.8036
    6.360    7.1406
    6.375    7.5513
    6.390    7.2459
    6.405    7.6461
    6.420    7.4250
    6.435    7.5408
    6.450    7.2354
    6.465    7.4144
    6.480    7.5724
    6.495    7.7620
    6.510    7.4987
    6.525    7.6356
    6.540    7.8462
    6.555    7.7725
    6.570    7.7620
    6.585    7.8673
    6.600    8.0358
    6.615    8.2359
    6.630    8.3939
    6.645    8.3202
    6.660    8.3518
    6.675    8.6993
    6.690    8.8573
    6.705    9.0995
    6.720    9.0995
    6.735    9.1732
    6.750    9.2259
    6.765    9.1417
    6.780    8.9837
    6.795    9.8262
    6.810   10.1527
    6.825    9.8999
    6.840   10.3949
    6.855   10.4055
    6.870   10.7952
    6.885   10.9847
    6.900   10.9742
    6.915   11.1848
    6.930   11.5113
    6.945   11.3323
    6.960   11.5113
    6.975   11.7325
    6.990   11.3533
    7.005   11.5008
    7.020   11.2691
    7.035   11.1427
    7.050   11.3639
    7.065   10.6266
    7.080   10.5529
    7.095   10.6793
    7.110   10.7109
    7.125   10.0685
    7.140   10.2686
    7.155   10.0579
    7.170    9.8999
    7.185    9.8368
    7.200    9.4260
    7.215    9.3102
    7.230    9.5945
    7.245    9.1417
    7.260    8.5097
    7.275    8.1622
    7.290    8.7204
    7.305    8.5203
    7.320    8.6045
    7.335    8.1095
    7.350    7.9726
    7.365    8.0779
    7.380    7.9094
    7.395    8.3728
    7.410    8.7941
    7.425    7.9726
    7.440    8.1833
    7.455    7.8462
    7.470    7.6988
    7.485    8.0463
    7.500    8.2570
    7.515    7.5092
    7.530    7.9305
    7.545    7.8462
    7.560    7.7620
    7.575    7.4566
    7.590    7.9831
    7.605    8.1095
    7.620    7.7199
    7.635    8.0885
    7.650    7.3828
    7.665    7.7514
    7.680    8.0042
    7.695    8.3728
    7.710    7.8357
    7.725    7.7936
    7.740    7.8884
    7.755    8.1727
    7.770    8.4992
    7.785    7.7304
    7.800    7.7936
    7.815    7.9937
    7.830    8.1727
    7.845    7.9726
    7.860    7.9621
    7.875    7.8568
    7.890    8.0779
    7.905    8.3202
    7.920    8.0569
    7.935    7.6883
    7.950    8.4781
    7.965    8.3728
    7.980    8.2991
    7.995    8.4466
    8.010    8.5624
    8.025    8.3412
    8.040    8.4466
    8.055    8.3623
    8.070    8.2886
    8.085    7.8884
    8.100    7.6567
    8.115    8.1938
    8.130    8.0042
    8.145    7.9094
    8.160    7.9937
    8.175    7.8462
    8.190    8.0253
    8.205    7.8673
    8.220    8.0147
    8.235    8.3728
    8.250    8.1306
    8.265    7.9516
    8.280    8.0358
    8.295    7.7304
    8.310    7.8884
    8.325    7.4776
    8.340    7.8884
    8.355    7.4987
    8.370    7.6567
    8.385    7.7830
    8.400    7.4460
    8.415    7.5408
    8.430    7.8357
    8.445    7.7514
    8.460    7.7725
    8.475    7.7304
    8.490    7.6672
    8.505    7.3512
    8.520    7.8989
    8.535    7.7620
    8.550    7.4144
    8.565    7.2775
    8.580    7.4776
    8.595    7.7093
    8.610    7.1933
    8.625    7.2986
    8.640    7.1406
    8.655    7.2986
    8.670    7.5303
    8.685    7.3407
    8.700    7.5092
    8.715    6.9616
    8.730    7.1301
    8.745    7.4355
    8.760    7.5092
    8.775    7.0563
    8.790    7.0879
    8.805    7.2459
    8.820    7.1933
    8.835    7.4250
    8.850    6.7720
    8.865    6.9089
    8.880    6.7930
    8.895    6.6667
    8.910    7.0563
    8.925    7.1933
    8.940    6.6983
    8.955    6.8036
    8.970    7.1090
    8.985    7.0985
    9.000    6.7088
    9.015    6.6140
    9.030    6.2875
    9.045    6.8036
    9.060    6.6877
    9.075    6.9510
    9.090    6.5087
    9.105    6.5719
    9.120    6.7615
    9.135    6.6351
    9.150    6.7825
    9.165    6.9300
    9.180    6.3507
    9.195    6.4350
    9.210    6.3402
    9.225    6.4876
    9.240    6.3928
    9.255    6.1927
    9.270    6.9194
    9.285    7.1301
    9.300    6.4034
    9.315    6.5613
    9.330    6.6351
    9.345    6.7509
    9.360    6.4560
    9.375    6.2138
    9.390    6.3823
    9.405    6.2665
    9.420    6.3612
    9.435    6.2875
    9.450    6.4876
    9.465    6.4560
    9.480    6.2875
    9.495    6.1611
    9.510    6.4350
    9.525    6.4244
    9.540    6.2033
    9.555    6.1085
    9.570    6.2349
    9.585    6.4455
    9.600    6.3612
    9.615    6.7509
    9.630    6.7615
    9.645    6.7088
    9.660    6.2875
    9.675    6.5192
    9.690    6.1611
    9.705    6.4455
    9.720    6.6561
    9.735    6.4876
    9.750    6.2559
    9.765    5.9294
    9.780    6.0032
    9.795    6.0979
    9.810    6.3402
    9.825    6.5192
    9.840    6.3612
    9.855    5.9505
    9.870    6.0979
    9.885    6.3086
    9.900    6.0453
    9.915    6.2138
    9.930    6.1190
    9.945    6.5824
    9.960    6.7930
    9.975    6.2770
    9.990    5.9505
   10.005    6.1190
   10.020    5.9926
   10.035    6.2665
   10.050    6.3086
   10.065    5.9505
   10.080    6.1401
   10.095    6.7193
   10.110    6.3086
   10.125    6.2033
   10.140    6.1401
   10.155    6.1190
   10.170    6.3507
   10.185    6.0453
   10.200    5.8768
   10.215    5.9926
   10.230    6.3402
   10.245    6.5192
   10.260    6.2875
   10.275    6.1611
   10.290    6.0874
   10.305    6.4350
   10.320    6.6140
   10.335    6.4982
   10.350    6.5929
   10.365    6.6456
   10.380    6.2875
   10.395    6.5824
   10.410    6.6351
   10.425    6.4139
   10.440    6.0137
   10.455    6.2875
   10.470    6.2981
   10.485    6.7088
   10.500    6.4876
   10.515    6.2559
   10.530    6.1085
   10.545    6.2349
   10.560    6.3402
   10.575    6.2770
   10.590    6.2770
   10.605    6.2349
   10.620    6.3191
   10.635    6.7299
   10.650    6.3823
   10.665    6.4876
   10.680    6.4350
   10.695    6.4350
   10.710    6.3296
   10.725    6.6983
   10.740    6.4771
   10.755    6.6877
   10.770    6.5719
   10.785    6.6035
   10.800    6.3507
   10.815    6.1401
   10.830    5.8241
   10.845    6.2665
   10.860    6.0979
   10.875    6.0032
   10.890    6.2349
   10.905    5.8768
   10.920    6.2875
   10.935    6.1401
   10.950    6.0348
   10.965    6.0032
   10.980    6.0348
   10.995    6.0137
   11.010    6.6983
   11.025    6.0137
   11.040    6.1085
   11.055    6.4560
   11.070    6.3612
   11.085    6.0769
   11.100    6.0558
   11.115    6.1506
   11.130    6.2138
   11.145    6.3612
   11.160    6.3507
   11.175    6.0558
   11.190    6.0664
   11.205    6.2349
   11.220    6.5508
   11.235    6.4771
   11.250    6.2454
   11.265    6.1190
   11.280    6.2454
   11.295    6.3402
   11.310    5.5924
   11.325    5.9505
   11.340    6.2243
   11.355    5.9716
   11.370    5.9294
   11.385    6.1401
   11.400    5.8662
   11.415    6.1822
   11.430    5.9610
   11.445    5.9084
   11.460    5.8978
   11.475    6.0453
   11.490    6.2243
   11.505    6.4034
   11.520    6.2349
   11.535    6.2138
   11.550    6.1717
   11.565    6.3612
   11.580    6.4560
   11.595    6.4139
   11.610    6.3928
   11.625    6.2033
   11.640    6.2665
   11.655    6.1295
   11.670    6.3823
   11.685    6.1085
   11.700    5.8662
   11.715    6.0348
   11.730    6.2559
   11.745    6.3823
   11.760    6.4560
   11.775    6.2559
   11.790    6.1190
   11.805    6.2665
   11.820    6.4560
   11.835    6.3823
   11.850    6.5087
   11.865    6.0874
   11.880    6.0137
   11.895    6.2665
   11.910    6.2243
   11.925    6.1611
   11.940    5.8452
   11.955    6.3507
   11.970    6.1295
   11.985    6.2875
   12.000    6.0664
   12.015    6.3823
   12.030    6.3191
   12.045    6.2875
   12.060    6.4771
   12.075    6.2665
   12.090    6.3296
   12.105    5.7820
   12.120    6.0979
   12.135    6.3612
   12.150    6.1927
   12.165    6.2770
   12.180    6.2875
   12.195    5.9610
   12.210    5.8768
   12.225    6.0769
   12.240    6.2770
   12.255    6.0664
   12.270    6.2138
   12.285    6.4666
   12.300    6.2875
   12.315    5.9716
   12.330    6.1085
   12.345    5.9189
   12.360    6.0032
   12.375    5.7399
   12.390    6.0979
   12.405    6.1717
   12.420    6.1927
   12.435    6.3718
   12.450    6.0453
   12.465    6.0979
   12.480    6.1401
   12.495    6.6877
   12.510    6.4244
   12.525    6.0769
   12.540    6.0137
   12.555    6.3507
   12.570    6.0137
   12.585    6.2033
   12.600    5.5924
   12.615    6.1717
   12.630    6.2981
   12.645    6.0348
   12.660    6.2665
   12.675    6.1295
   12.690    5.9400
   12.705    6.1401
   12.720    5.9505
   12.735    5.9400
   12.750    6.2665
   12.765    6.2454
   12.780    6.1927
   12.795    6.0558
   12.810    6.2349
   12.825    6.0348
   12.840    5.9400
   12.855    6.1927
   12.870    6.3296
   12.885    6.1085
   12.900    6.1190
   12.915    6.0979
   12.930    5.8452
   12.945    5.7293
   12.960    6.3612
   12.975    6.2454
   12.990    6.0032
   13.005    6.2138
   13.020    6.3612
   13.035    6.2243
   13.050    6.0242
   13.065    6.4244
   13.080    6.0032
   13.095    6.0558
   13.110    5.7820
   13.125    5.6556
   13.140    5.9505
   13.155    6.2349
   13.170    5.9400
   13.185    6.0979
   13.200    6.0664
   13.215    6.2243
   13.230    6.0348
   13.245    6.4876
   13.260    6.3928
   13.275    6.2770
   13.290    6.1611
   13.305    6.0979
   13.320    5.9610
   13.335    6.1822
   13.350    5.8557
   13.365    6.0348
   13.380    6.2665
   13.395    6.3612
   13.410    6.4244
   13.425    6.2138
   13.440    6.0874
   13.455    5.7925
   13.470    5.6556
   13.485    6.1927
   13.500    5.7609
   13.515    5.6872
   13.530    5.8662
   13.545    5.9189
   13.560    5.8452
   13.575    6.3191
   13.590    6.1506
   13.605    5.9505
   13.620    5.7399
   13.635    5.7925
   13.650    6.0348
   13.665    5.9926
   13.680    6.1190
   13.695    5.9294
   13.710    5.8768
   13.725    5.9294
   13.740    5.9189
   13.755    5.7083
   13.770    5.9294
   13.785    6.0874
   13.800    5.8031
   13.815    6.2349
   13.830    6.3928
   13.845    5.7715
   13.860    5.8241
   13.875    6.2138
   13.890    5.6240
   13.905    5.4766
   13.920    5.8136
   13.935    6.4666
   13.950    5.9400
   13.965    5.8241
   13.980    5.8873
   13.995    6.0137
   14.010    6.0242
   14.025    5.8768
   14.040    5.8978
   14.055    6.2770
   14.070    5.9610
   14.085    6.3823
   14.100    6.0874
   14.115    6.0664
   14.130    5.9716
   14.145    5.6556
   14.160    5.9400
   14.175    6.1190
   14.190    5.9189
   14.205    5.7925
   14.220    6.2875
   14.235    6.0242
   14.250    5.7504
   14.265    6.0348
   14.280    6.4771
   14.295    5.9400
   14.310    5.9084
   14.325    5.7293
   14.340    6.0242
   14.355    6.0137
   14.370    6.2665
   14.385    6.5087
   14.400    5.7925
   14.415    5.7925
   14.430    6.0453
   14.445    6.3296
   14.460    5.7609
   14.475    6.0558
   14.490    6.2349
   14.505    5.9716
   14.520    5.8662
   14.535    6.3507
   14.550    6.1506
   14.565    5.6977
   14.580    5.7715
   14.595    5.9189
   14.610    6.2243
   14.625    6.0664
   14.640    5.6240
   14.655    6.1085
   14.670    6.0032
   14.685    6.0137
   14.700    6.3086
   14.715    5.6872
   14.730    6.0769
   14.745    5.6767
   14.760    5.8662
   14.775    5.9716
   14.790    5.8978
   14.805    5.7188
   14.820    5.7399
   14.835    6.1401
   14.850    6.0979
   14.865    5.8978
   14.880    5.7399
   14.895    5.8136
   14.910    5.9610
   14.925    5.8136
   14.940    6.0453
   14.955    6.2875
   14.970    6.1822
   14.985    6.4350
   15.000    6.0242
   15.015    6.0137
   15.030    5.8031
   15.045    5.6029
   15.060    6.1085
   15.075    6.2243
   15.090    5.8662
   15.105    5.8241
   15.120    5.9926
   15.135    5.8662
   15.150    5.6135
   15.165    5.5292
   15.180    5.8031
   15.195    5.9189
   15.210    5.8136
   15.225    5.8031
   15.240    5.9926
   15.255    5.7293
   15.270    5.7820
   15.285    5.7293
   15.300    6.0979
   15.315    5.6135
   15.330    5.6977
   15.345    5.8662
   15.360    5.7820
   15.375    6.1717
   15.390    5.9821
   15.405    5.6872
   15.420    6.1295
   15.435    6.3086
   15.450    5.7399
   15.465    5.8768
   15.480    5.6661
   15.495    5.9505
   15.510    5.6240
   15.525    5.8978
   15.540    6.3086
   15.555    6.5613
   15.570    6.0979
   15.585    5.7504
   15.600    6.3191
   15.615    6.1506
   15.630    6.2454
   15.645    6.1927
   15.660    5.8136
   15.675    5.8557
   15.690    6.0874
   15.705    6.0137
   15.720    5.9084
   15.735    5.8873
   15.750    5.9821
   15.765    6.3296
   15.780    6.0874
   15.795    5.8031
   15.810    5.7925
   15.825    6.0348
   15.840    5.8662
   15.855    6.2349
   15.870    5.9084
   15.885    5.6977
   15.900    6.0558
   15.915    5.7715
   15.930    6.2770
   15.945    5.9400
   15.960    6.0348
   15.975    6.0979
   15.990    6.5613
   16.005    6.1927
   16.020    6.1295
   16.035    6.0137
   16.050    6.2559
   16.065    6.3086
   16.080    6.3402
   16.095    6.6772
   16.110    6.4560
   16.125    6.4560
   16.140    6.4560
   16.155    6.3718
   16.170    6.1085
   16.185    5.9084
   16.200    6.3191
   16.215    6.5824
   16.230    6.2875
   16.245    6.1085
   16.260    6.0032
   16.275    6.0137
   16.290    6.1822
   16.305    6.0348
   16.320    6.0979
   16.335    6.4244
   16.350    5.8136
   16.365    5.9716
   16.380    6.0769
   16.395    5.8978
   16.410    6.1611
   16.425    6.1506
   16.440    6.0242
   16.455    5.7399
   16.470    5.7399
   16.485    5.8557
   16.500    6.1190
   16.515    6.2033
   16.530    6.1611
   16.545    6.1190
   16.560    6.0664
   16.575    6.4034
   16.590    6.1295
   16.605    6.2665
   16.620    6.2454
   16.635    5.8031
   16.650    5.5398
   16.665    6.0348
   16.680    6.1927
   16.695    6.2033
   16.710    5.7820
   16.725    5.7188
   16.740    5.6240
   16.755    5.4660
   16.770    5.4028
   16.785    5.9716
   16.800    5.8241
   16.815    5.7609
   16.830    6.0137
   16.845    6.1295
   16.860    6.0242
   16.875    5.9716
   16.890    6.0453
   16.905    5.8031
   16.920    5.8031
   16.935    5.9926
   16.950    5.5924
   16.965    5.9294
   16.980    6.0979
   16.995    6.2138
   17.010    5.7399
   17.025    6.0032
   17.040    5.9821
   17.055    5.9716
   17.070    5.9400
   17.085    6.1401
   17.100    5.8031
   17.115    5.7083
   17.130    6.0558
   17.145    6.1822
   17.160    6.2243
   17.175    6.0558
   17.190    6.0242
   17.205    5.7820
   17.220    6.0242
   17.235    6.1401
   17.250    6.1822
   17.265    5.8347
   17.280    5.7609
   17.295    5.5503
   17.310    5.8136
   17.325    6.3507
   17.340    6.3718
   17.355    6.1506
   17.370    5.8557
   17.385    5.9400
   17.400    6.4034
   17.415    6.0664
   17.430    5.9716
   17.445    5.7925
   17.460    5.6872
   17.475    5.3081
   17.490    6.0979
   17.505    5.8873
   17.520    6.3296
   17.535    6.4982
   17.550    5.9084
   17.565    5.8452
   17.580    5.8452
   17.595    5.9400
   17.610    5.9084
   17.625    6.0137
   17.640    6.1401
   17.655    6.1717
   17.670    5.9610
   17.685    5.9400
   17.700    6.0558
   17.715    5.6240
   17.730    5.6556
   17.745    5.9505
   17.760    6.1611
   17.775    6.1506
   17.790    6.0242
   17.805    6.2033
   17.820    6.2454
   17.835    6.0664
   17.850    5.8768
   17.865    5.4028
   17.880    5.9084
   17.895    6.0664
   17.910    6.0242
   17.925    5.7820
   17.940    5.6661
   17.955    6.1401
   17.970    6.0979
   17.985    6.1927
   18.000    5.8452
   18.015    5.5819
   18.030    5.7925
   18.045    5.9400
   18.060    5.7820
   18.075    5.8873
   18.090    5.7293
   18.105    5.8136
   18.120    6.1506
   18.135    5.8241
   18.150    5.9926
   18.165    5.9821
   18.180    5.8557
   18.195    5.9505
   18.210    6.2243
   18.225    5.9294
   18.240    5.5608
   18.255    6.1506
   18.270    6.3928
   18.285    6.5508
   18.300    5.8978
   18.315    6.0137
   18.330    5.9505
   18.345    6.1717
   18.360    5.8978
   18.375    5.8978
   18.390    6.3718
   18.405    6.3823
   18.420    6.1717
   18.435    6.0453
   18.450    5.8136
   18.465    5.8768
   18.480    6.4034
   18.495    5.8241
   18.510    6.1085
   18.525    6.0558
   18.540    5.8136
   18.555    5.9400
   18.570    5.9926
   18.585    5.9505
   18.600    6.0874
   18.615    5.8031
   18.630    5.9821
   18.645    6.1295
   18.660    6.3612
   18.675    6.1506
   18.690    6.0032
   18.705    6.0874
   18.720    6.2454
   18.735    6.0348
   18.750    6.2349
   18.765    6.2033
   18.780    5.6345
   18.795    6.0453
   18.810    6.2033
   18.825    6.0453
   18.840    6.0874
   18.855    5.7609
   18.870    5.7925
   18.885    5.9189
   18.900    6.4244
   18.915    6.2454
   18.930    6.4771
   18.945    6.3296
   18.960    6.0558
   18.975    6.5403
   18.990    6.2349
   19.005    6.3402
   19.020    6.4982
   19.035    5.9189
   19.050    6.2665
   19.065    6.2454
   19.080    6.4244
   19.095    6.6667
   19.110    6.1085
   19.125    6.2349
   19.140    6.1295
   19.155    6.2559
   19.170    6.4244
   19.185    6.0558
   19.200    5.9189
   19.215    6.2981
   19.230    5.9716
   19.245    6.4666
   19.260    6.4666
   19.275    6.2875
   19.290    6.2665
   19.305    6.0664
   19.320    6.0664
   19.335    5.9084
   19.350    5.9084
   19.365    6.4560
   19.380    6.4666
   19.395    6.4350
   19.410    6.1822
   19.425    6.2138
   19.440    6.1401
   19.455    6.3296
   19.470    6.3928
   19.485    6.4455
   19.500    6.2875
   19.515    6.4666
   19.530    6.3086
   19.545    6.4350
   19.560    6.1506
   19.575    6.3823
   19.590    6.4771
   19.605    6.3718
   19.620    6.3191
   19.635    6.2243
   19.650    6.0769
   19.665    6.2770
   19.680    6.0558
   19.695    6.4560
   19.710    6.2665
   19.725    6.0874
   19.740    6.2665
   19.755    6.6140
   19.770    6.3928
   19.785    6.2349
   19.800    6.0664
   19.815    6.6772
   19.830    6.0874
   19.845    6.1717
   19.860    6.1506
   19.875    6.0664
   19.890    6.3296
   19.905    6.1401
   19.920    6.0979
   19.935    6.2454
   19.950    6.3086
   19.965    6.1506
   19.980    6.5298
   19.995    6.2770
   20.010    6.2770
   20.025    6.3928
   20.040    6.2981
   20.055    6.3823
   20.070    6.4034
   20.085    6.1717
   20.100    6.2033
   20.115    6.6456
   20.130    6.4034
   20.145    6.4666
   20.160    6.4455
   20.175    6.2665
   20.190    6.4139
   20.205    6.2665
   20.220    6.0348
   20.235    6.3507
   20.250    6.5613
   20.265    6.2349
   20.280    6.2665
   20.295    6.0137
   20.310    6.5403
   20.325    6.6035
   20.340    6.2138
   20.355    6.2770
   20.370    6.4771
   20.385    6.5087
   20.400    6.4455
   20.415    6.2243
   20.430    6.0242
   20.445    6.2981
   20.460    6.5403
   20.475    6.2770
   20.490    6.5087
   20.505    6.5298
   20.520    6.4139
   20.535    6.6035
   20.550    6.3296
   20.565    6.5403
   20.580    6.5403
   20.595    6.3507
   20.610    6.6772
   20.625    6.4982
   20.640    6.7720
   20.655    6.7615
   20.670    6.4244
   20.685    6.4034
   20.700    6.2033
   20.715    6.1927
   20.730    6.1927
   20.745    6.0032
   20.760    6.0453
   20.775    6.2875
   20.790    6.2875
   20.805    6.3296
   20.820    5.9610
   20.835    6.3928
   20.850    6.3402
   20.865    6.3718
   20.880    6.4034
   20.895    6.5403
   20.910    6.1506
   20.925    6.1611
   20.940    6.0348
   20.955    6.5087
   20.970    6.3718
   20.985    6.1295
   21.000    6.1611
   21.015    6.3507
   21.030    6.1401
   21.045    6.3718
   21.060    6.5613
   21.075    6.6140
   21.090    6.8457
   21.105    6.5087
   21.120    6.3191
   21.135    6.1401
   21.150    6.1190
   21.165    6.3718
   21.180    6.3612
   21.195    6.1927
   21.210    6.7720
   21.225    6.3507
   21.240    6.1085
   21.255    6.3191
   21.270    6.1085
   21.285    6.3191
   21.300    5.9926
   21.315    6.3823
   21.330    6.6245
   21.345    6.5087
   21.360    6.2033
   21.375    6.0558
   21.390    6.4982
   21.405    6.4455
   21.420    6.4034
   21.435    6.3718
   21.450    6.0979
   21.465    5.9610
   21.480    6.3191
   21.495    6.7088
   21.510    6.0453
   21.525    6.1717
   21.540    6.4455
   21.555    6.5613
   21.570    6.2243
   21.585    6.4034
   21.600    6.1927
   21.615    6.2665
   21.630    6.6351
   21.645    6.1401
   21.660    6.2243
   21.675    6.4560
   21.690    6.2349
   21.705    6.4982
   21.720    6.6140
   21.735    6.1085
   21.750    6.0664
   21.765    6.1717
   21.780    6.3402
   21.795    6.5298
   21.810    6.4139
   21.825    6.3823
   21.840    6.7930
   21.855    6.3296
   21.870    6.1190
   21.885    6.4350
   21.900    6.8036
   21.915    6.8246
   21.930    6.6140
   21.945    6.3402
   21.960    6.5298
   21.975    6.5087
   21.990    6.9300
   22.005    6.3718
   22.020    6.6351
   22.035    6.4034
   22.050    6.3718
   22.065    6.2033
   22.080    6.5298
   22.095    6.4560
   22.110    6.3507
   22.125    6.4350
   22.140    6.5929
   22.155    6.6561
   22.170    6.6140
   22.185    6.5403
   22.200    6.4560
   22.215    6.6035
   22.230    6.4771
   22.245    6.7720
   22.260    6.8562
   22.275    6.4560
   22.290    6.2559
   22.305    6.4560
   22.320    6.3086
   22.335    6.5824
   22.350    6.5192
   22.365    6.9510
   22.380    6.8141
   22.395    6.7193
   22.410    6.7088
   22.425    6.3507
   22.440    6.3402
   22.455    6.5403
   22.470    6.4560
   22.485    6.6351
   22.500    6.5613
   22.515    6.4455
   22.530    6.6983
   22.545    6.7088
   22.560    6.7825
   22.575    6.2770
   22.590    6.2770
   22.605    6.5298
   22.620    6.3718
   22.635    6.4244
   22.650    6.3086
   22.665    6.4350
   22.680    6.7299
   22.695    6.7193
   22.710    6.4455
   22.725    6.7088
   22.740    6.6561
   22.755    6.0664
   22.770    6.4560
   22.785    6.5192
   22.800    6.1085
   22.815    6.1822
   22.830    6.5192
   22.845    6.5298
   22.860    6.5824
   22.875    6.5719
   22.890    6.7615
   22.905    6.5929
   22.920    6.4771
   22.935    6.2138
   22.950    6.2243
   22.965    6.5192
   22.980    6.6983
   22.995    6.2033
   23.010    6.4876
   23.025    6.9510
   23.040    6.7088
   23.055    6.2770
   23.070    6.4666
   23.085    6.7615
   23.100    6.7825
   23.115    6.4244
   23.130    6.4034
   23.145    6.7509
   23.160    6.5824
   23.175    6.5824
   23.190    6.1717
   23.205    6.2138
   23.220    6.2665
   23.235    6.3823
   23.250    6.1401
   23.265    6.4034
   23.280    6.2665
   23.295    6.1085
   23.310    6.0664
   23.325    6.1717
   23.340    6.3402
   23.355    6.2349
   23.370    6.3823
   23.385    6.5087
   23.400    6.3296
   23.415    6.4455
   23.430    6.5824
   23.445    6.1717
   23.460    6.3928
   23.475    6.3191
   23.490    6.2665
   23.505    6.3612
   23.520    6.1611
   23.535    6.1295
   23.550    6.1401
   23.565    6.2875
   23.580    6.5298
   23.595    6.1401
   23.610    5.9084
   23.625    6.4876
   23.640    6.3086
   23.655    6.2033
   23.670    6.1295
   23.685    6.4350
   23.700    5.8452
   23.715    6.2665
   23.730    6.0664
   23.745    6.2665
   23.760    6.1190
   23.775    5.9505
   23.790    5.6767
   23.805    6.0453
   23.820    6.1190
   23.835    6.0137
   23.850    6.0769
   23.865    5.8241
   23.880    6.0453
   23.895    6.1190
   23.910    5.8768
   23.925    5.8557
   23.940    6.1295
   23.955    6.1085
   23.970    6.1295
   23.985    5.8031
   24.000    6.1611
   24.015    6.3507
   24.030    5.8662
   24.045    5.6240
   24.060    5.9716
   24.075    6.0137
   24.090    6.0453
   24.105    6.3928
   24.120    6.0242
   24.135    6.1611
   24.150    6.3718
   24.165    6.1717
   24.180    5.7609
   24.195    6.1295
   24.210    5.7504
   24.225    5.9189
   24.240    5.9189
   24.255    5.8873
   24.270    5.8347
   24.285    6.0664
   24.300    6.0979
   24.315    6.0137
   24.330    6.4666
   24.345    5.8873
   24.360    6.0453
   24.375    5.9716
   24.390    6.4666
   24.405    6.1506
   24.420    6.4034
   24.435    6.1190
   24.450    6.2243
   24.465    6.1822
   24.480    5.9610
   24.495    5.8978
   24.510    5.8662
   24.525    6.1085
   24.540    5.7504
   24.555    6.2349
   24.570    6.3612
   24.585    6.3402
   24.600    5.9505
   24.615    5.6977
   24.630    6.2349
   24.645    6.4034
   24.660    6.2559
   24.675    6.2875
   24.690    6.2770
   24.705    5.9610
   24.720    5.8347
   24.735    5.9400
   24.750    6.2243
   24.765    5.8452
   24.780    5.5082
   24.795    5.7609
   24.810    5.9716
   24.825    6.1190
   24.840    5.8031
   24.855    6.2665
   24.870    6.0979
   24.885    5.9400
   24.900    5.7609
   24.915    5.7188
   24.930    6.0242
   24.945    6.1822
   24.960    5.9189
   24.975    5.6556
   24.990    6.0664
   25.005    5.9716
   25.020    6.0137
   25.035    6.2349
   25.050    6.0558
   25.065    6.2665
   25.080    5.9610
   25.095    6.0664
   25.110    6.1401
   25.125    5.9926
   25.140    5.9926
   25.155    6.3928
   25.170    6.3507
   25.185    6.3402
   25.200    6.2033
   25.215    6.2033
   25.230    6.0242
   25.245    5.7715
   25.260    5.7820
   25.275    6.2243
   25.290    5.7399
   25.305    5.6135
   25.320    6.2770
   25.335    5.8241
   25.350    5.9189
   25.365    5.8241
   25.380    6.4139
   25.395    6.0769
   25.410    6.0874
   25.425    5.7293
   25.440    5.8452
   25.455    5.8873
   25.470    5.7925
   25.485    5.9716
   25.500    5.8978
   25.515    5.4555
   25.530    6.0979
   25.545    5.6135
   25.560    5.8241
   25.575    6.2665
   25.590    5.9926
   25.605    5.7715
   25.620    5.7399
   25.635    5.8873
   25.650    6.0137
   25.665    5.7293
   25.680    5.7083
   25.695    5.9716
   25.710    5.9926
   25.725    5.4766
   25.740    5.8452
   25.755    5.8031
   25.770    6.1611
   25.785    5.7083
   25.800    5.7715
   25.815    5.7083
   25.830    5.7399
   25.845    5.8347
   25.860    5.5819
   25.875    5.9189
   25.890    6.2875
   25.905    5.8662
   25.920    5.9610
   25.935    5.9400
   25.950    5.6977
   25.965    6.3402
   25.980    5.8452
   25.995    5.5503
   26.010    5.9926
   26.025    5.9084
   26.040    5.9821
   26.055    5.8662
   26.070    5.9294
   26.085    5.9294
   26.100    6.0874
   26.115    5.9294
   26.130    5.7504
   26.145    5.8136
   26.160    5.7820
   26.175    5.5819
   26.190    5.5187
   26.205    5.6240
   26.220    5.7399
   26.235    5.6556
   26.250    5.6451
   26.265    5.8452
   26.280    5.5292
   26.295    5.5398
   26.310    5.4239
   26.325    5.4871
   26.340    5.4871
   26.355    5.7925
   26.370    5.4871
   26.385    5.5503
   26.400    5.5292
   26.415    5.4976
   26.430    5.3291
   26.445    5.2027
   26.460    5.7925
   26.475    5.8662
   26.490    5.1817
   26.505    5.5608
   26.520    5.7188
   26.535    5.4976
   26.550    5.5924
   26.565    5.6977
   26.580    5.7188
   26.595    5.6872
   26.610    5.9716
   26.625    5.8557
   26.640    5.9821
   26.655    5.7925
   26.670    5.9610
   26.685    5.5924
   26.700    5.9084
   26.715    5.7399
   26.730    5.5082
   26.745    5.4450
   26.760    5.7609
   26.775    5.8557
   26.790    5.4766
   26.805    5.6556
   26.820    5.6661
   26.835    5.3502
   26.850    5.6135
   26.865    5.6661
   26.880    5.6661
   26.895    5.5503
   26.910    5.7609
   26.925    5.6451
   26.940    5.5819
   26.955    5.5398
   26.970    5.6345
   26.985    5.4660
   27.000    5.4660
   27.015    5.2027
   27.030    5.0342
   27.045    5.7188
   27.060    5.4239
   27.075    5.1290
   27.090    5.4239
   27.105    5.1711
   27.120    5.6135
   27.135    5.5819
   27.150    5.4976
   27.165    5.4344
   27.180    5.4239
   27.195    5.8136
   27.210    5.7609
   27.225    5.6556
   27.240    5.4766
   27.255    5.5819
   27.270    5.4976
   27.285    5.3186
   27.300    5.2554
   27.315    4.9816
   27.330    5.1922
   27.345    5.7925
   27.360    5.5292
   27.375    5.6451
   27.390    5.2659
   27.405    5.5082
   27.420    5.6240
   27.435    5.4976
   27.450    5.3712
   27.465    5.2659
   27.480    5.8452
   27.495    5.6451
   27.510    5.6240
   27.525    5.7399
   27.540    5.2975
   27.555    5.4134
   27.570    5.6345
   27.585    5.5398
   27.600    5.4871
   27.615    5.2449
   27.630    5.4976
   27.645    5.5082
   27.660    5.3712
   27.675    5.6345
   27.690    5.5398
   27.705    5.6556
   27.720    5.4239
   27.735    5.3502
   27.750    5.3397
   27.765    5.4871
   27.780    5.2343
   27.795    5.4976
   27.810    5.3607
   27.825    5.8347
   27.840    5.4239
   27.855    5.4450
   27.870    5.7609
   27.885    5.3712
   27.900    5.5187
   27.915    5.5608
   27.930    5.6661
   27.945    5.6451
   27.960    5.4871
   27.975    5.4344
   27.990    5.6135
   28.005    6.0242
   28.020    5.4660
   28.035    5.4134
   28.050    5.1606
   28.065    5.5924
   28.080    5.4766
   28.095    5.5714
   28.110    5.6451
   28.125    5.5503
   28.140    5.6345
   28.155    5.3923
   28.170    5.4450
   28.185    5.4766
   28.200    5.5398
   28.215    5.6240
   28.230    5.4028
   28.245    5.3607
   28.260    5.4134
   28.275    5.5819
   28.290    5.4976
   28.305    5.4555
   28.320    5.1185
   28.335    5.6345
   28.350    5.6240
   28.365    5.8452
   28.380    5.7293
   28.395    5.6135
   28.410    5.3923
   28.425    5.3607
   28.440    5.0869
   28.455    5.2133
   28.470    5.2870
   28.485    5.5398
   28.500    5.6872
   28.515    5.5608
   28.530    5.2449
   28.545    5.4976
   28.560    5.1080
   28.575    4.9605
   28.590    5.5082
   28.605    5.7293
   28.620    5.5503
   28.635    5.3081
   28.650    5.4766
   28.665    5.6029
   28.680    5.7504
   28.695    5.5819
   28.710    5.4660
   28.725    5.2343
   28.740    5.7188
   28.755    5.7504
   28.770    5.2027
   28.785    5.2870
   28.800    5.2027
   28.815    5.3818
   28.830    5.3923
   28.845    5.4766
   28.860    5.1290
   28.875    5.4976
   28.890    5.8347
   28.905    5.8557
   28.920    5.1501
   28.935    5.3081
   28.950    5.2659
   28.965    5.1501
   28.980    5.2554
   28.995    5.0974
   29.010    5.6345
   29.025    5.5714
   29.040    5.5187
   29.055    5.0237
   29.070    5.0869
   29.085    5.2133
   29.100    5.0764
   29.115    5.5292
   29.130    5.3186
   29.145    5.1080
   29.160    5.3186
   29.175    5.4766
   29.190    5.4028
   29.205    5.2870
   29.220    5.3712
   29.235    5.6240
   29.250    5.3712
   29.265    5.3818
   29.280    5.3712
   29.295    5.1711
   29.310    5.6556
   29.325    5.4450
   29.340    5.2343
   29.355    5.4450
   29.370    5.2554
   29.385    5.1817
   29.400    5.4134
   29.415    5.1395
   29.430    5.4344
   29.445    5.2870
   29.460    5.1711
   29.475    5.0658
   29.490    5.4028
   29.505    4.9394
   29.520    5.5082
   29.535    5.0658
   29.550    5.1922
   29.565    5.2238
   29.580    5.0342
   29.595    5.1817
   29.610    5.1606
   29.625    5.2238
   29.640    5.2238
   29.655    5.1501
   29.670    5.0658
   29.685    5.0869
   29.700    5.3502
   29.715    5.1185
   29.730    5.5187
   29.745    5.3397
   29.760    5.4134
   29.775    5.3081
   29.790    5.4766
   29.805    5.3502
   29.820    5.1606
   29.835    5.2343
   29.850    5.2238
   29.865    5.2870
   29.880    5.1185
   29.895    5.0342
   29.910    5.5503
   29.925    5.2975
   29.940    5.2554
   29.955    5.1395
   29.970    4.9184
   29.985    5.3291
   30.000    5.0658
   30.015    5.3502
   30.030    5.0026
   30.045    5.2659
   30.060    5.4134
   30.075    5.2870
   30.090    5.3502
   30.105    4.8868
   30.120    4.7183
   30.135    4.9394
   30.150    5.3291
   30.165    5.1290
   30.180    5.1501
   30.195    5.0869
   30.210    5.0553
   30.225    5.1185
   30.240    4.9816
   30.255    4.9184
   30.270    5.3186
   30.285    5.2343
   30.300    4.9816
   30.315    5.2554
   30.330    5.0764
   30.345    5.3291
   30.360    5.3818
   30.375    5.2343
   30.390    5.2027
   30.405    5.2765
   30.420    4.9816
   30.435    4.9921
   30.450    5.3397
   30.465    5.1817
   30.480    4.6656
   30.495    5.0974
   30.510    4.8868
   30.525    5.1606
   30.540    5.1606
   30.555    5.1606
   30.570    5.3502
   30.585    4.9816
   30.600    5.2027
   30.615    5.4976
   30.630    5.1606
   30.645    5.1290
   30.660    5.3502
   30.675    5.4976
   30.690    5.5503
   30.705    5.0658
   30.720    4.9710
   30.735    4.7815
   30.750    4.9394
   30.765    5.1395
   30.780    5.3712
   30.795    5.2449
   30.810    5.5187
   30.825    5.5503
   30.840    5.2238
   30.855    5.1817
   30.870    5.1185
   30.885    5.0553
   30.900    4.8657
   30.915    5.2659
   30.930    5.2870
   30.945    5.2449
   30.960    4.9500
   30.975    5.0974
   30.990    5.0448
   31.005    5.5292
   31.020    4.8763
   31.035    4.7815
   31.050    4.9816
   31.065    5.1395
   31.080    5.4134
   31.095    5.1290
   31.110    5.2870
   31.125    5.0342
   31.140    5.2765
   31.155    5.2343
   31.170    5.1711
   31.185    5.1817
   31.200    5.0658
   31.215    5.2870
   31.230    5.1290
   31.245    5.2238
   31.260    5.1711
   31.275    5.1080
   31.290    5.2554
   31.305    4.9921
   31.320    5.0448
   31.335    5.0342
   31.350    4.6445
   31.365    5.3712
   31.380    5.2975
   31.395    5.2975
   31.410    5.2449
   31.425    5.1606
   31.440    4.9394
   31.455    5.0974
   31.470    5.3397
   31.485    5.2975
   31.500    5.0132
   31.515    5.0869
   31.530    5.1922
   31.545    5.4766
   31.560    5.1395
   31.575    5.2554
   31.590    5.4450
   31.605    5.0869
   31.620    5.2659
   31.635    5.4028
   31.650    5.4134
   31.665    5.2449
   31.680    5.1080
   31.695    5.0764
   31.710    4.9184
   31.725    4.9921
   31.740    5.2449
   31.755    5.3291
   31.770    5.4239
   31.785    5.4134
   31.800    5.4660
   31.815    5.2027
   31.830    5.2870
   31.845    5.4871
   31.860    5.7504
   31.875    5.1817
   31.890    5.1290
   31.905    5.0237
   31.920    5.2554
   31.935    5.2765
   31.950    5.0869
   31.965    4.9921
   31.980    5.2554
   31.995    5.5398
   32.010    5.4239
   32.025    5.3818
   32.040    5.5608
   32.055    5.6556
   32.070    5.6977
   32.085    5.4344
   32.100    5.3712
   32.115    5.4871
   32.130    5.2343
   32.145    5.2975
   32.160    5.2027
   32.175    5.3291
   32.190    5.2343
   32.205    5.3502
   32.220    5.1395
   32.235    5.0974
   32.250    5.0132
   32.265    4.8868
   32.280    5.3186
   32.295    5.3186
   32.310    5.2554
   32.325    5.0237
   32.340    4.7709
   32.355    5.0237
   32.370    5.1395
   32.385    5.0342
   32.400    4.6235
   32.415    5.1817
   32.430    4.9605
   32.445    4.7288
   32.460    4.9816
   32.475    4.7920
   32.490    4.7077
   32.505    4.6024
   32.520    4.7920
   32.535    4.6761
   32.550    4.7393
   32.565    4.5919
   32.580    5.1395
   32.595    4.8763
   32.610    5.2027
   32.625    4.9816
   32.640    4.8341
   32.655    5.3502
   32.670    4.8657
   32.685    5.0132
   32.700    5.2554
   32.715    5.0658
   32.730    4.9500
   32.745    4.8131
   32.760    4.9816
   32.775    4.8552
   32.790    4.5603
   32.805    4.9289
   32.820    4.7288
   32.835    4.9078
   32.850    4.6761
   32.865    5.2027
   32.880    5.1501
   32.895    5.0026
   32.910    4.8657
   32.925    4.7604
   32.940    4.8763
   32.955    4.9710
   32.970    5.0869
   32.985    5.0132
   33.000    4.5287
   33.015    4.6024
   33.030    4.6867
   33.045    5.0764
   33.060    5.2870
   33.075    5.1290
   33.090    4.9710
   33.105    4.7709
   33.120    4.8552
   33.135    4.8657
   33.150    4.8552
   33.165    4.8763
   33.180    4.9605
   33.195    4.6761
   33.210    4.7077
   33.225    4.8131
   33.240    4.5814
   33.255    5.0553
   33.270    4.6235
   33.285    5.1185
   33.300    4.8447
   33.315    5.0342
   33.330    4.7288
   33.345    4.8973
   33.360    5.0342
   33.375    4.8868
   33.390    4.8868
   33.405    5.2343
   33.420    4.8236
   33.435    4.8341
   33.450    4.6235
   33.465    4.6972
   33.480    4.6972
   33.495    4.5919
   33.510    4.9500
   33.525    4.7183
   33.540    4.5498
   33.555    4.3075
   33.570    4.9921
   33.585    5.0553
   33.600    4.9078
   33.615    4.7077
   33.630    4.8552
   33.645    5.0026
   33.660    4.7604
   33.675    4.8973
   33.690    4.9605
   33.705    4.9078
   33.720    4.9078
   33.735    4.8973
   33.750    4.6445
   33.765    4.8763
   33.780    5.1080
   33.795    4.5603
   33.810    4.7499
   33.825    4.7077
   33.840    4.8025
   33.855    4.7288
   33.870    4.9394
   33.885    5.0658
   33.900    4.7288
   33.915    4.8131
   33.930    5.0869
   33.945    4.8131
   33.960    5.0448
   33.975    4.8236
   33.990    4.6761
   34.005    4.6340
   34.020    4.5603
   34.035    4.7288
   34.050    4.6445
   34.065    4.5498
   34.080    4.6445
   34.095    4.6656
   34.110    4.5603
   34.125    4.6340
   34.140    4.6024
   34.155    4.5498
   34.170    4.5498
   34.185    4.7815
   34.200    4.7709
   34.215    4.4971
   34.230    4.5708
   34.245    4.6656
   34.260    4.7604
   34.275    4.7604
   34.290    4.6235
   34.305    4.9289
   34.320    4.4550
   34.335    4.4339
   34.350    4.5287
   34.365    4.6656
   34.380    4.5287
   34.395    4.2549
   34.410    4.3286
   34.425    4.6656
   34.440    4.7393
   34.455    4.6130
   34.470    4.6340
   34.485    4.7604
   34.500    4.6024
   34.515    4.7183
   34.530    4.6761
   34.545    4.8131
   34.560    4.6340
   34.575    4.6867
   34.590    4.5498
   34.605    4.2759
   34.620    4.3181
   34.635    4.6761
   34.650    4.7920
   34.665    4.6024
   34.680    4.2338
   34.695    4.6024
   34.710    4.6130
   34.725    4.6445
   34.740    4.8131
   34.755    4.6867
   34.770    4.4023
   34.785    4.4550
   34.800    4.4866
   34.815    4.5814
   34.830    4.4444
   34.845    4.3602
   34.860    4.7709
   34.875    4.5603
   34.890    4.6130
   34.905    4.6867
   34.920    4.7077
   34.935    4.6867
   34.950    4.5814
   34.965    4.5603
   34.980    4.3391
   34.995    4.4339
   35.010    4.2443
   35.025    4.2865
   35.040    4.6340
   35.055    4.7499
   35.070    5.0764
   35.085    4.5076
   35.100    4.3181
   35.115    4.6235
   35.130    4.3391
   35.145    4.5287
   35.160    4.6761
   35.175    4.4128
   35.190    4.3497
   35.205    4.5076
   35.220    4.6130
   35.235    4.4339
   35.250    4.5919
   35.265    4.4234
   35.280    4.6340
   35.295    4.6761
   35.310    4.8236
   35.325    5.0658
   35.340    4.6551
   35.355    4.6656
   35.370    4.5814
   35.385    4.4444
   35.400    4.8657
   35.415    4.3602
   35.430    4.8236
   35.445    4.4339
   35.460    4.3286
   35.475    4.3918
   35.490    4.6867
   35.505    4.5182
   35.520    4.4128
   35.535    4.6235
   35.550    4.4655
   35.565    4.4866
   35.580    4.2759
   35.595    4.5182
   35.610    4.4971
   35.625    4.2865
   35.640    4.3918
   35.655    4.3181
   35.670    4.5919
   35.685    4.6551
   35.700    4.1811
   35.715    4.2443
   35.730    4.6656
   35.745    4.3707
   35.760    4.3707
   35.775    4.4444
   35.790    4.5498
   35.805    4.5287
   35.820    5.0553
   35.835    4.5392
   35.850    4.3181
   35.865    4.6445
   35.880    4.5603
   35.895    4.4339
   35.910    4.4339
   35.925    4.4550
   35.940    4.3497
   35.955    4.2654
   35.970    4.7499
   35.985    4.8447
   36.000    4.5919
   36.015    4.5287
   36.030    4.2233
   36.045    4.3707
   36.060    4.3602
   36.075    4.7815
   36.090    4.4550
   36.105    4.6761
   36.120    4.6551
   36.135    4.6340
   36.150    4.3181
   36.165    4.4550
   36.180    4.4023
   36.195    4.2233
   36.210    4.4023
   36.225    4.2022
   36.240    4.3286
   36.255    4.2127
   36.270    4.1811
   36.285    4.3813
   36.300    4.4971
   36.315    4.5603
   36.330    4.5498
   36.345    4.5182
   36.360    4.1496
   36.375    4.5287
   36.390    4.2022
   36.405    4.3286
   36.420    4.4655
   36.435    4.2970
   36.450    4.4866
   36.465    4.5182
   36.480    4.2022
   36.495    4.5392
   36.510    4.2759
   36.525    4.6235
   36.540    4.3286
   36.555    4.3286
   36.570    4.4760
   36.585    4.6235
   36.600    4.4023
   36.615    4.1074
   36.630    4.4128
   36.645    4.2970
   36.660    4.2970
   36.675    4.3075
   36.690    4.4444
   36.705    4.3918
   36.720    4.2759
   36.735    4.2865
   36.750    4.3918
   36.765    4.4971
   36.780    4.2865
   36.795    4.4866
   36.810    4.3497
   36.825    4.3813
   36.840    4.3602
   36.855    4.2338
   36.870    4.4760
   36.885    4.6761
   36.900    4.6024
   36.915    4.5919
   36.930    4.3707
   36.945    4.5498
   36.960    4.1390
   36.975    4.2443
   36.990    4.3497
   37.005    4.3181
   37.020    4.3497
   37.035    4.6340
   37.050    5.0237
   37.065    4.4339
   37.080    4.2654
   37.095    4.4760
   37.110    4.4550
   37.125    4.4444
   37.140    4.4655
   37.155    4.2865
   37.170    4.3707
   37.185    4.6445
   37.200    4.5814
   37.215    4.6867
   37.230    4.4866
   37.245    4.2970
   37.260    4.2970
   37.275    4.5392
   37.290    4.4128
   37.305    4.2970
   37.320    4.5287
   37.335    4.6340
   37.350    3.9916
   37.365    4.2654
   37.380    4.0337
   37.395    4.3075
   37.410    4.2759
   37.425    4.5814
   37.440    4.6130
   37.455    4.1496
   37.470    4.4128
   37.485    4.0969
   37.500    4.4023
   37.515    4.5919
   37.530    4.3391
   37.545    4.2970
   37.560    4.2549
   37.575    4.2654
   37.590    4.3813
   37.605    4.2127
   37.620    4.1811
   37.635    4.1180
   37.650    4.3707
   37.665    4.3286
   37.680    3.9494
   37.695    4.2022
   37.710    4.1496
   37.725    4.2443
   37.740    4.2759
   37.755    3.9600
   37.770    4.4234
   37.785    4.4866
   37.800    4.3602
   37.815    4.3602
   37.830    4.2443
   37.845    4.0548
   37.860    4.2549
   37.875    4.6445
   37.890    4.3813
   37.905    4.3075
   37.920    4.0232
   37.935    4.5287
   37.950    4.3181
   37.965    4.2970
   37.980    4.6972
   37.995    4.3391
   38.010    4.2549
   38.025    4.2970
   38.040    4.3181
   38.055    4.2338
   38.070    4.1811
   38.085    4.1917
   38.100    4.3286
   38.115    4.4023
   38.130    4.3286
   38.145    4.3813
   38.160    4.3391
   38.175    4.2654
   38.190    4.2865
   38.205    4.5392
   38.220    4.2233
   38.235    4.0337
   38.250    4.2759
   38.265    4.1917
   38.280    4.3707
   38.295    4.2759
   38.310    4.4655
   38.325    4.5392
   38.340    4.0232
   38.355    3.9494
   38.370    4.3707
   38.385    4.3286
   38.400    4.1496
   38.415    3.9810
   38.430    4.3181
   38.445    4.4444
   38.460    4.4128
   38.475    4.1496
   38.490    4.4234
   38.505    4.1074
   38.520    4.1285
   38.535    4.5498
   38.550    4.2654
   38.565    4.4234
   38.580    4.3918
   38.595    4.3813
   38.610    4.3707
   38.625    4.1601
   38.640    4.2338
   38.655    4.1917
   38.670    4.1917
   38.685    4.4339
   38.700    4.3602
   38.715    4.3497
   38.730    4.5603
   38.745    4.5919
   38.760    4.3391
   38.775    4.1917
   38.790    4.7393
   38.805    4.5287
   38.820    4.2127
   38.835    4.1811
   38.850    4.1285
   38.865    4.0969
   38.880    4.2970
   38.895    4.5498
   38.910    4.4971
   38.925    4.4444
   38.940    4.5814
   38.955    4.2865
   38.970    4.2970
   38.985    4.4655
   39.000    4.1811
   39.015    4.4444
   39.030    4.6972
   39.045    4.4339
   39.060    4.1706
   39.075    4.1601
   39.090    4.0653
   39.105    4.4234
   39.120    4.5498
   39.135    4.1601
   39.150    4.6445
   39.165    4.6024
   39.180    4.7920
   39.195    4.7499
   39.210    4.6656
   39.225    4.6130
   39.240    4.3813
   39.255    4.3286
   39.270    4.0442
   39.285    4.0653
   39.300    4.4655
   39.315    4.5603
   39.330    4.4550
   39.345    4.2759
   39.360    4.5392
   39.375    4.4444
   39.390    4.1601
   39.405    4.2338
   39.420    4.5392
   39.435    4.4339
   39.450    4.3707
   39.465    4.4866
   39.480    4.4339
   39.495    4.1811
   39.510    4.2759
   39.525    4.3707
   39.540    4.4444
   39.555    4.1074
   39.570    4.1496
   39.585    4.3707
   39.600    4.3391
   39.615    4.5603
   39.630    4.3181
   39.645    4.2127
   39.660    4.1706
   39.675    4.3075
   39.690    4.5498
   39.705    4.4760
   39.720    4.1601
   39.735    4.4128
   39.750    4.5708
   39.765    4.3075
   39.780    4.0232
   39.795    4.4234
   39.810    4.1601
   39.825    4.4339
   39.840    4.2970
   39.855    4.0969
   39.870    4.3918
   39.885    4.2233
   39.900    4.1074
   39.915    4.0021
   39.930    4.4128
   39.945    4.4866
   39.960    4.1917
   39.975    4.3391
   39.990    4.1601
