    1.500   13.9547
    1.515   14.5340
    1.530   13.3579
    1.545   14.2005
    1.560   14.1127
    1.575   13.7616
    1.590   13.6388
    1.605   13.3755
    1.620   12.8313
    1.635   12.8138
    1.650   12.9366
    1.665   13.1122
    1.680   12.7260
    1.695   12.1116
    1.710   12.0590
    1.725   12.4978
    1.740   11.9888
    1.755   11.6904
    1.770   12.5856
    1.785   12.4100
    1.800   12.0941
    1.815   11.9888
    1.830   11.7781
    1.845   11.8659
    1.860   11.7430
    1.875   11.3042
    1.890   11.8483
    1.905   11.4446
    1.920   10.9707
    1.935   11.5148
    1.950   11.7079
    1.965   10.8654
    1.980   11.1813
    1.995   10.9005
    2.010   11.0058
    2.025   10.5670
    2.040   10.3563
    2.055   10.0053
    2.070   10.5670
    2.085   10.8478
    2.100   10.4616
    2.115   10.2159
    2.130   10.3563
    2.145    9.8122
    2.160    9.7771
    2.175   10.0579
    2.190   10.8127
    2.205   10.0228
    2.220    9.3382
    2.235    9.5313
    2.250   10.2510
    2.265    9.6542
    2.280    9.7420
    2.295   10.5143
    2.310    9.9526
    2.325    9.5664
    2.340    9.2154
    2.355    9.5664
    2.370    9.0574
    2.385    8.9696
    2.400    9.3031
    2.415    9.2329
    2.430    9.3031
    2.445    9.3558
    2.460    9.7420
    2.475    9.2329
    2.490    9.0925
    2.505    9.4436
    2.520    9.1452
    2.535    8.5659
    2.550    9.0223
    2.565    9.4787
    2.580    9.8122
    2.595    8.7414
    2.610    8.3202
    2.625    9.0574
    2.640    8.7765
    2.655    9.0047
    2.670    8.8292
    2.685    9.1276
    2.700    8.2500
    2.715    8.8292
    2.730    8.8643
    2.745    8.7941
    2.760    9.0398
    2.775    8.7590
    2.790    8.3202
    2.805    8.2149
    2.820    9.0574
    2.835    9.1101
    2.850    8.4430
    2.865    8.0569
    2.880    8.5133
    2.895    8.4255
    2.910    8.5659
    2.925    8.7590
    2.940    8.4781
    2.955    8.9170
    2.970    8.6712
    2.985    8.5308
    3.000    8.6010
    3.015    8.2500
    3.030    9.0223
    3.045    9.0223
    3.060    9.0925
    3.075    9.2329
    3.090    8.8994
    3.105    8.7590
    3.120    9.2505
    3.135    8.9345
    3.150    9.1978
    3.165    9.2154
    3.180    9.6367
    3.195    9.4260
    3.210    9.6718
    3.225    9.1627
    3.240    8.6712
    3.255    9.6718
    3.270    9.9351
    3.285   10.9005
    3.300   10.7600
    3.315   11.4271
    3.330   11.6026
    3.345   11.5850
    3.360   11.6553
    3.375   12.3574
    3.390   12.8840
    3.405   13.9372
    3.420   13.4457
    3.435   13.2350
    3.450   13.7967
    3.465   14.1654
    3.480   13.9196
    3.495   14.7797
    3.510   14.4813
    3.525   13.6914
    3.540   14.1127
    3.555   14.4286
    3.570   15.4994
    3.585   16.0260
    3.600   17.0792
    3.615   17.8164
    3.630   18.8871
    3.645   19.7297
    3.660   19.8174
    3.675   21.9238
    3.690   22.3100
    3.705   24.1355
    3.720   25.4871
    3.735   27.6988
    3.750   31.4025
    3.765   34.4216
    3.780   38.1078
    3.795   43.0402
    3.810   49.7455
    3.825   59.9965
    3.840   70.0895
    3.855   69.5980
    3.870   61.7694
    3.885   51.4832
    3.900   37.3354
    3.915   24.5041
    3.930   13.1122
    3.945   10.3914
    3.960    9.6718
    3.975    9.3382
    3.990    9.5489
    4.005    9.4436
    4.020    9.2505
    4.035    9.3734
    4.050    8.4079
    4.065    8.3728
    4.080    8.6888
    4.095    9.0047
    4.110    8.9696
    4.125    8.5659
    4.140    8.5659
    4.155    8.1797
    4.170    7.7936
    4.185    8.0744
    4.200    8.9872
    4.215    8.7239
    4.230    8.0920
    4.245    7.7234
    4.260    7.9867
    4.275    8.0569
    4.290    8.4430
    4.305    7.7585
    4.320    7.8813
    4.335    7.7234
    4.350    8.2324
    4.365    7.7585
    4.380    7.7409
    4.395    8.4255
    4.410    8.0218
    4.425    7.9867
    4.440    7.7058
    4.455    7.0915
    4.470    7.4601
    4.485    7.9691
    4.500    7.8989
    4.515    8.0744
    4.530    7.3196
    4.545    8.3553
    4.560    7.9867
    4.575    8.1797
    4.590    7.8813
    4.605    7.6707
    4.620    7.6707
    4.635    7.7409
    4.650    8.3202
    4.665    7.8989
    4.680    8.2675
    4.695    7.8287
    4.710    8.2324
    4.725    7.8287
    4.740    7.8462
    4.755    8.7063
    4.770    7.5127
    4.785    7.7409
    4.800    7.6532
    4.815    8.2851
    4.830    8.1973
    4.845    8.3377
    4.860    8.1973
    4.875    8.5659
    4.890    8.4781
    4.905    8.5308
    4.920    8.4079
    4.935    8.5659
    4.950    8.3904
    4.965    8.4255
    4.980    8.4255
    4.995    9.0750
    5.010    8.4957
    5.025    8.9521
    5.040    8.9872
    5.055    9.2154
    5.070    9.1452
    5.085    9.0047
    5.100    9.1452
    5.115    9.7244
    5.130    9.8297
    5.145    9.7244
    5.160   10.0228
    5.175   10.2861
    5.190   10.6547
    5.205   10.3914
    5.220   10.8829
    5.235   11.0058
    5.250   12.6207
    5.265   12.8840
    5.280   12.1292
    5.295   12.5680
    5.310   13.1473
    5.325   13.2350
    5.340   14.3058
    5.355   15.1483
    5.370   15.9031
    5.385   16.6052
    5.400   18.6589
    5.415   19.5542
    5.430   22.0116
    5.445   25.6100
    5.460   27.6461
    5.475   29.1030
    5.490   27.4530
    5.505   23.6089
    5.520   19.9228
    5.535   14.8324
    5.550   11.3920
    5.565   10.6723
    5.580   10.0579
    5.595   10.0755
    5.610   10.2686
    5.625   10.1106
    5.640    9.4260
    5.655   10.3388
    5.670    9.9175
    5.685   10.0579
    5.700   10.0579
    5.715   10.3037
    5.730    9.4085
    5.745    9.4085
    5.760    9.6367
    5.775    9.4260
    5.790    9.1276
    5.805    8.9345
    5.820    8.9345
    5.835    8.9521
    5.850    8.5484
    5.865    8.4430
    5.880    8.6186
    5.895    8.3026
    5.910    8.4957
    5.925    8.0393
    5.940    8.3026
    5.955    8.2851
    5.970    8.1446
    5.985    8.5133
    6.000    8.3377
    6.015    8.2324
    6.030    7.7936
    6.045    8.1797
    6.060    7.5478
    6.075    8.0218
    6.090    7.9164
    6.105    7.8813
    6.120    7.6005
    6.135    7.4074
    6.150    8.4430
    6.165    7.2143
    6.180    7.4250
    6.195    7.4952
    6.210    7.5829
    6.225    7.6180
    6.240    7.0388
    6.255    7.4776
    6.270    7.3196
    6.285    7.6532
    6.300    7.2319
    6.315    6.9861
    6.330    7.0563
    6.345    7.0563
    6.360    6.8282
    6.375    7.3723
    6.390    7.0563
    6.405    7.4250
    6.420    7.1792
    6.435    7.6180
    6.450    8.1446
    6.465    7.5829
    6.480    7.1617
    6.495    7.2143
    6.510    7.4776
    6.525    7.3021
    6.540    7.7058
    6.555    7.6180
    6.570    8.1622
    6.585    7.8813
    6.600    8.3728
    6.615    8.8468
    6.630    8.4079
    6.645    9.2856
    6.660    9.4962
    6.675    9.8122
    6.690   10.9005
    6.705   12.1643
    6.720   12.2872
    6.735   11.4797
    6.750   10.5845
    6.765    9.4962
    6.780    8.5659
    6.795    7.2319
    6.810    6.8457
    6.825    7.0037
    6.840    6.6877
    6.855    6.7053
    6.870    6.6000
    6.885    6.6702
    6.900    6.4595
    6.915    6.4595
    6.930    6.9335
    6.945    7.0212
    6.960    7.1090
    6.975    6.1436
    6.990    6.6175
    7.005    6.5473
    7.020    6.4771
    7.035    6.0383
    7.050    5.9505
    7.065    6.7404
    7.080    6.3893
    7.095    6.4069
    7.110    6.7228
    7.125    5.8803
    7.140    6.4420
    7.155    6.4420
    7.170    6.2313
    7.185    6.3191
    7.200    6.0558
    7.215    5.9154
    7.230    5.8803
    7.245    6.4946
    7.260    6.0032
    7.275    5.5117
    7.290    5.7223
    7.305    5.9154
    7.320    6.2665
    7.335    6.0734
    7.350    5.9154
    7.365    6.3016
    7.380    5.4766
    7.395    5.7399
    7.410    6.4069
    7.425    5.9329
    7.440    5.7574
    7.455    6.1260
    7.470    5.2484
    7.485    6.0734
    7.500    5.9505
    7.515    5.9505
    7.530    5.6521
    7.545    5.7048
    7.560    5.9154
    7.575    5.5819
    7.590    6.2138
    7.605    6.1962
    7.620    5.9681
    7.635    5.9856
    7.650    6.5824
    7.665    6.3016
    7.680    6.5122
    7.695    6.2138
    7.710    6.7755
    7.725    7.7760
    7.740    8.9696
    7.755    9.9175
    7.770   10.0228
    7.785    9.5489
    7.800    8.4957
    7.815    7.1968
    7.830    5.7925
    7.845    5.6697
    7.860    5.6697
    7.875    5.4941
    7.890    5.7750
    7.905    5.7750
    7.920    5.4064
    7.935    5.4766
    7.950    5.4415
    7.965    5.5643
    7.980    4.9851
    7.995    5.0377
    8.010    5.5117
    8.025    5.6170
    8.040    5.3537
    8.055    5.0728
    8.070    5.1957
    8.085    5.4766
    8.100    5.3010
    8.115    5.4415
    8.130    5.5819
    8.145    5.1782
    8.160    4.9324
    8.175    5.4941
    8.190    4.9851
    8.205    5.1957
    8.220    5.5643
    8.235    5.0904
    8.250    5.1606
    8.265    4.8095
    8.280    5.0553
    8.295    5.0728
    8.310    5.2659
    8.325    4.7744
    8.340    4.8447
    8.355    5.3010
    8.370    5.1080
    8.385    4.9851
    8.400    5.3186
    8.415    5.6345
    8.430    5.0904
    8.445    5.2484
    8.460    5.2484
    8.475    5.1431
    8.490    4.7744
    8.505    4.9149
    8.520    5.0377
    8.535    4.8973
    8.550    4.8622
    8.565    4.7218
    8.580    5.2659
    8.595    5.4064
    8.610    5.1957
    8.625    5.3712
    8.640    5.4415
    8.655    5.3361
    8.670    5.5994
    8.685    5.5643
    8.700    5.1255
    8.715    4.9675
    8.730    5.3888
    8.745    4.8973
    8.760    5.1431
    8.775    5.1255
    8.790    5.4064
    8.805    5.0202
    8.820    4.7569
    8.835    4.6691
    8.850    4.6165
    8.865    4.9675
    8.880    4.5463
    8.895    4.6867
    8.910    4.8447
    8.925    5.0553
    8.940    4.6691
    8.955    4.7920
    8.970    4.4936
    8.985    4.7042
    9.000    4.7569
    9.015    4.8798
    9.030    4.5463
    9.045    4.6867
    9.060    4.7042
    9.075    5.1957
    9.090    4.4234
    9.105    4.5638
    9.120    4.7042
    9.135    4.7218
    9.150    4.7569
    9.165    4.7042
    9.180    4.7218
    9.195    4.8447
    9.210    4.7920
    9.225    4.6516
    9.240    4.4936
    9.255    4.6165
    9.270    4.7569
    9.285    4.8095
    9.300    4.4760
    9.315    5.1080
    9.330    5.1606
    9.345    5.1606
    9.360    5.3010
    9.375    5.3186
    9.390    5.4766
    9.405    5.7048
    9.420    6.3893
    9.435    6.4420
    9.450    7.1090
    9.465    7.9340
    9.480    8.1973
    9.495    9.9702
    9.510   12.0765
    9.525   13.4457
    9.540   12.8840
    9.555   11.0058
    9.570    9.7069
    9.585    7.6532
    9.600    6.1611
    9.615    5.4415
    9.630    4.7393
    9.645    5.1080
    9.660    4.6867
    9.675    4.5111
    9.690    4.9324
    9.705    4.7042
    9.720    4.5287
    9.735    4.4585
    9.750    4.6165
    9.765    4.1952
    9.780    4.7218
    9.795    4.7218
    9.810    4.4234
    9.825    4.6516
    9.840    4.7393
    9.855    4.5287
    9.870    4.8447
    9.885    4.9149
    9.900    4.5111
    9.915    4.4585
    9.930    4.4585
    9.945    4.5638
    9.960    4.9851
    9.975    4.8447
    9.990    4.5989
   10.005    4.9149
   10.020    4.8973
   10.035    4.8095
   10.050    4.7393
   10.065    4.7569
   10.080    4.7218
   10.095    5.1255
   10.110    4.7569
   10.125    4.4058
   10.140    5.0553
   10.155    5.1080
   10.170    5.1606
   10.185    4.8095
   10.200    5.8978
   10.215    6.0032
   10.230    6.0909
   10.245    5.8276
   10.260    6.4595
   10.275    7.0212
   10.290    6.8457
   10.305    7.6005
   10.320    7.3021
   10.335    6.7930
   10.350    5.9505
   10.365    5.7399
   10.380    5.2133
   10.395    5.0026
   10.410    4.7920
   10.425    4.7920
   10.440    5.0026
   10.455    4.8973
   10.470    4.9149
   10.485    4.4409
   10.500    4.6340
   10.515    4.7042
   10.530    4.5463
   10.545    4.1601
   10.560    4.5638
   10.575    4.8095
   10.590    5.1080
   10.605    5.0026
   10.620    4.8095
   10.635    4.8798
   10.650    4.8973
   10.665    5.1782
   10.680    5.0553
   10.695    5.3010
   10.710    4.8271
   10.725    4.6867
   10.740    4.9500
   10.755    4.5463
   10.770    5.2133
   10.785    4.6691
   10.800    4.8973
   10.815    5.0728
   10.830    4.8271
   10.845    5.1606
   10.860    5.5994
   10.875    5.0377
   10.890    5.1255
   10.905    5.9329
   10.920    5.8101
   10.935    5.5117
   10.950    5.8978
   10.965    6.0032
   10.980    6.8106
   10.995    7.5478
   11.010    7.7234
   11.025    8.0920
   11.040    7.8111
   11.055    7.0037
   11.070    6.3718
   11.085    5.9505
   11.100    5.3186
   11.115    4.9851
   11.130    4.9675
   11.145    4.7569
   11.160    5.0904
   11.175    5.2133
   11.190    5.1957
   11.205    5.4415
   11.220    5.1080
   11.235    4.8622
   11.250    4.8447
   11.265    5.0026
   11.280    4.9675
   11.295    4.9675
   11.310    4.8447
   11.325    4.5989
   11.340    4.5287
   11.355    4.8973
   11.370    5.0904
   11.385    5.0904
   11.400    5.0377
   11.415    4.8798
   11.430    4.9149
   11.445    4.7393
   11.460    4.6340
   11.475    4.7042
   11.490    4.5111
   11.505    4.9851
   11.520    5.0026
   11.535    4.8095
   11.550    5.3186
   11.565    5.3888
   11.580    5.3010
   11.595    5.1431
   11.610    5.5643
   11.625    6.0032
   11.640    5.6697
   11.655    6.2489
   11.670    7.2670
   11.685    7.7585
   11.700    8.0393
   11.715    7.4074
   11.730    7.7234
   11.745    6.6526
   11.760    5.9681
   11.775    5.4766
   11.790    5.4590
   11.805    4.8447
   11.820    5.1255
   11.835    5.0728
   11.850    5.3361
   11.865    5.2308
   11.880    4.8447
   11.895    4.7569
   11.910    4.4409
   11.925    4.9500
   11.940    4.9500
   11.955    4.5463
   11.970    4.4585
   11.985    4.7393
   12.000    4.2303
   12.015    4.4058
   12.030    4.8095
   12.045    4.7042
   12.060    4.7569
   12.075    4.6867
   12.090    4.4585
   12.105    4.8271
   12.120    5.0026
   12.135    4.7218
   12.150    4.3707
   12.165    4.4760
   12.180    4.5111
   12.195    4.7042
   12.210    4.4936
   12.225    4.5989
   12.240    4.3005
   12.255    4.7744
   12.270    5.0026
   12.285    4.5638
   12.300    4.7218
   12.315    5.1255
   12.330    5.3010
   12.345    5.0026
   12.360    5.2133
   12.375    4.5989
   12.390    4.5638
   12.405    4.3181
   12.420    4.8447
   12.435    5.0377
   12.450    4.9675
   12.465    4.9324
   12.480    4.6516
   12.495    4.5814
   12.510    4.7042
   12.525    4.6867
   12.540    4.7569
   12.555    4.3883
   12.570    4.5638
   12.585    4.9675
   12.600    4.8973
   12.615    4.5287
   12.630    4.5814
   12.645    4.3883
   12.660    4.7218
   12.675    4.8095
   12.690    4.8271
   12.705    4.9500
   12.720    4.3181
   12.735    4.4234
   12.750    4.7920
   12.765    4.8447
   12.780    4.7569
   12.795    4.7042
   12.810    4.8973
   12.825    4.9851
   12.840    4.9675
   12.855    4.8095
   12.870    4.6340
   12.885    5.2484
   12.900    5.7574
   12.915    5.5643
   12.930    6.2840
   12.945    6.5122
   12.960    6.2138
   12.975    6.3718
   12.990    5.3186
   13.005    5.3010
   13.020    5.0377
   13.035    4.5814
   13.050    4.0723
   13.065    4.3181
   13.080    4.4409
   13.095    4.5463
   13.110    4.3883
   13.125    4.2654
   13.140    4.6165
   13.155    4.6340
   13.170    4.5989
   13.185    4.4234
   13.200    4.4760
   13.215    4.4058
   13.230    4.3532
   13.245    4.5989
   13.260    4.6340
   13.275    4.5287
   13.290    4.5287
   13.305    4.5463
   13.320    4.8622
   13.335    4.5287
   13.350    4.4409
   13.365    4.4409
   13.380    4.6516
   13.395    4.6691
   13.410    4.6165
   13.425    4.7393
   13.440    5.0026
   13.455    4.8095
   13.470    4.9675
   13.485    5.8101
   13.500    5.4766
   13.515    5.2308
   13.530    5.0904
   13.545    5.2835
   13.560    5.0377
   13.575    4.9500
   13.590    4.9149
   13.605    4.8798
   13.620    4.6691
   13.635    4.6165
   13.650    4.7744
   13.665    4.9324
   13.680    4.5638
   13.695    4.6691
   13.710    4.3356
   13.725    4.4058
   13.740    4.0372
   13.755    4.7042
   13.770    4.5638
   13.785    4.6867
   13.800    4.5814
   13.815    4.9675
   13.830    4.7218
   13.845    5.0026
   13.860    4.9324
   13.875    4.5989
   13.890    4.2830
   13.905    5.1255
   13.920    4.8973
   13.935    4.9149
   13.950    4.6340
   13.965    4.5463
   13.980    5.1606
   13.995    5.1431
   14.010    5.6697
   14.025    5.5643
   14.040    5.5994
   14.055    6.3367
   14.070    6.3893
   14.085    6.4771
   14.100    6.4244
   14.115    6.2840
   14.130    5.5819
   14.145    5.1431
   14.160    4.7744
   14.175    5.0026
   14.190    4.7744
   14.205    5.0728
   14.220    4.9675
   14.235    4.9149
   14.250    5.1080
   14.265    5.4415
   14.280    4.9851
   14.295    5.1606
   14.310    4.8271
   14.325    4.9675
   14.340    4.7744
   14.355    4.8271
   14.370    4.4409
   14.385    4.4585
   14.400    4.8973
   14.415    5.1255
   14.430    4.8798
   14.445    5.1255
   14.460    4.9149
   14.475    4.9675
   14.490    5.1255
   14.505    5.2133
   14.520    4.8973
   14.535    4.6867
   14.550    5.1431
   14.565    5.3888
   14.580    4.8447
   14.595    4.8622
   14.610    4.8622
   14.625    4.8095
   14.640    4.8798
   14.655    4.9149
   14.670    5.1782
   14.685    5.4064
   14.700    5.1255
   14.715    4.9149
   14.730    4.4936
   14.745    4.6867
   14.760    5.1080
   14.775    4.8798
   14.790    4.7218
   14.805    4.7042
   14.820    4.6516
   14.835    4.8271
   14.850    4.9324
   14.865    4.5989
   14.880    4.6516
   14.895    4.5989
   14.910    4.7393
   14.925    5.0728
   14.940    4.9149
   14.955    5.0728
   14.970    4.8095
   14.985    4.6165
   15.000    4.5287
   15.015    4.8798
   15.030    4.7218
   15.045    5.0026
   15.060    4.9675
   15.075    5.1957
   15.090    5.1431
   15.105    4.8095
   15.120    5.2484
   15.135    4.9149
   15.150    4.8622
   15.165    5.0904
   15.180    5.2484
   15.195    4.8798
   15.210    4.4234
   15.225    4.6691
   15.240    4.3356
   15.255    4.2303
   15.270    4.3883
   15.285    4.4234
   15.300    4.3356
   15.315    4.5814
   15.330    4.8622
   15.345    4.9500
   15.360    4.7569
   15.375    4.3883
   15.390    4.3532
   15.405    4.4585
   15.420    4.5287
   15.435    4.3181
   15.450    4.1776
   15.465    4.5638
   15.480    4.8095
   15.495    4.5287
   15.510    4.1776
   15.525    4.3883
   15.540    4.4409
   15.555    4.4234
   15.570    4.2127
   15.585    4.6516
   15.600    5.0026
   15.615    4.7920
   15.630    4.4409
   15.645    4.7569
   15.660    4.2303
   15.675    4.5287
   15.690    4.5989
   15.705    4.6691
   15.720    4.5111
   15.735    4.3005
   15.750    4.2303
   15.765    4.4234
   15.780    4.3356
   15.795    4.2830
   15.810    4.5814
   15.825    4.1776
   15.840    4.4760
   15.855    4.4585
   15.870    4.5638
   15.885    4.3532
   15.900    4.5638
   15.915    4.4936
   15.930    5.1255
   15.945    4.4936
   15.960    4.3005
   15.975    4.8095
   15.990    4.1074
   16.005    4.5111
   16.020    4.7042
   16.035    4.4936
   16.050    4.7744
   16.065    4.7042
   16.080    4.8973
   16.095    5.1957
   16.110    5.0026
   16.125    4.9851
   16.140    5.2308
   16.155    4.7744
   16.170    4.6867
   16.185    4.6867
   16.200    4.5989
   16.215    4.3181
   16.230    4.1425
   16.245    4.3005
   16.260    4.6165
   16.275    4.8798
   16.290    4.4409
   16.305    4.4936
   16.320    4.5638
   16.335    4.5463
   16.350    4.7042
   16.365    4.5287
   16.380    3.7739
   16.395    4.0021
   16.410    4.2654
   16.425    4.2654
   16.440    4.0372
   16.455    4.7569
   16.470    4.3356
   16.485    4.3181
   16.500    4.6516
   16.515    4.2127
   16.530    4.0723
   16.545    4.1776
   16.560    5.0904
   16.575    5.1606
   16.590    4.7569
   16.605    5.3186
   16.620    4.9500
   16.635    4.7569
   16.650    5.1957
   16.665    4.4936
   16.680    4.7218
   16.695    4.7393
   16.710    4.2127
   16.725    4.3532
   16.740    4.5638
   16.755    4.7744
   16.770    4.5111
   16.785    4.7744
   16.800    4.5638
   16.815    4.7569
   16.830    4.5287
   16.845    4.2303
   16.860    4.1425
   16.875    4.5287
   16.890    4.8973
   16.905    4.7569
   16.920    4.3005
   16.935    4.3532
   16.950    4.7218
   16.965    4.7920
   16.980    4.7744
   16.995    4.7218
   17.010    5.1782
   17.025    5.4415
   17.040    5.5994
   17.055    5.8803
   17.070    5.7048
   17.085    5.8452
   17.100    5.5117
   17.115    5.0553
   17.130    4.4936
   17.145    4.3181
   17.160    4.8447
   17.175    4.4058
   17.190    4.3883
   17.205    4.8798
   17.220    4.2830
   17.235    4.5463
   17.250    4.4585
   17.265    4.2127
   17.280    4.3532
   17.295    4.5463
   17.310    4.3707
   17.325    4.5463
   17.340    4.1952
   17.355    4.6867
   17.370    4.6867
   17.385    4.3707
   17.400    4.4409
   17.415    4.0548
   17.430    4.1952
   17.445    4.4058
   17.460    4.7218
   17.475    4.8447
   17.490    5.0904
   17.505    4.3356
   17.520    4.3356
   17.535    4.5814
   17.550    4.6691
   17.565    4.4936
   17.580    4.4585
   17.595    4.5287
   17.610    4.5287
   17.625    4.3356
   17.640    4.3181
   17.655    4.3532
   17.670    4.4058
   17.685    4.8271
   17.700    4.3707
   17.715    4.3356
   17.730    4.3356
   17.745    4.2303
   17.760    4.4936
   17.775    4.4936
   17.790    4.0723
   17.805    4.5287
   17.820    4.2654
   17.835    4.8622
   17.850    5.0553
   17.865    4.7569
   17.880    4.3356
   17.895    4.4058
   17.910    4.5287
   17.925    4.6165
   17.940    4.4058
   17.955    4.7218
   17.970    4.5814
   17.985    4.4760
   18.000    4.6340
   18.015    4.3356
   18.030    4.5814
   18.045    4.5463
   18.060    4.3005
   18.075    4.0899
   18.090    4.3005
   18.105    4.3532
   18.120    4.2127
   18.135    4.2830
   18.150    4.1601
   18.165    4.2654
   18.180    4.2654
   18.195    4.7744
   18.210    4.5638
   18.225    4.6867
   18.240    4.3181
   18.255    4.3356
   18.270    4.4585
   18.285    4.3181
   18.300    4.3181
   18.315    4.6165
   18.330    4.6340
   18.345    4.8447
   18.360    4.8095
   18.375    4.8095
   18.390    4.4936
   18.405    4.4409
   18.420    4.2303
   18.435    4.1952
   18.450    4.5111
   18.465    4.3532
   18.480    4.2303
   18.495    4.4936
   18.510    4.6867
   18.525    4.6867
   18.540    4.1601
   18.555    4.5814
   18.570    4.3181
   18.585    4.0899
   18.600    4.0899
   18.615    4.0548
   18.630    4.3707
   18.645    4.4936
   18.660    3.8792
   18.675    4.2478
   18.690    4.2478
   18.705    4.2830
   18.720    4.3883
   18.735    4.2654
   18.750    4.8271
   18.765    5.1606
   18.780    4.1952
   18.795    4.6516
   18.810    4.9675
   18.825    4.7393
   18.840    4.1250
   18.855    4.1776
   18.870    4.3532
   18.885    4.4234
   18.900    4.0899
   18.915    4.3181
   18.930    4.5814
   18.945    4.8447
   18.960    4.9500
   18.975    5.5117
   18.990    5.1255
   19.005    4.7569
   19.020    4.5638
   19.035    4.6867
   19.050    4.3181
   19.065    4.5989
   19.080    4.0548
   19.095    3.7213
   19.110    4.1250
   19.125    4.2303
   19.140    4.2654
   19.155    4.1601
   19.170    4.7042
   19.185    4.2654
   19.200    4.2478
   19.215    4.1425
   19.230    4.3532
   19.245    4.3005
   19.260    4.2830
   19.275    4.1776
   19.290    4.3532
   19.305    4.6165
   19.320    4.7569
   19.335    4.0021
   19.350    4.0021
   19.365    4.0021
   19.380    4.1952
   19.395    4.3005
   19.410    4.2303
   19.425    3.8792
   19.440    4.1074
   19.455    4.5287
   19.470    4.4058
   19.485    4.2478
   19.500    4.7042
   19.515    4.2478
   19.530    4.1952
   19.545    4.7042
   19.560    4.2127
   19.575    4.8973
   19.590    4.5111
   19.605    4.3356
   19.620    4.5814
   19.635    4.6340
   19.650    4.3356
   19.665    4.2303
   19.680    4.2654
   19.695    4.2303
   19.710    4.3005
   19.725    4.1952
   19.740    4.2303
   19.755    4.3707
   19.770    4.4936
   19.785    4.4760
   19.800    4.5814
   19.815    4.2654
   19.830    3.7739
   19.845    4.0723
   19.860    3.9846
   19.875    3.9670
   19.890    4.0197
   19.905    4.0723
   19.920    4.1952
   19.935    3.8266
   19.950    4.1250
   19.965    4.4058
   19.980    4.2830
   19.995    4.2303
   20.010    4.1601
   20.025    4.1074
   20.040    4.0548
   20.055    4.1776
   20.070    4.1952
   20.085    3.8968
   20.100    3.8090
   20.115    3.9670
   20.130    4.4585
   20.145    4.1425
   20.160    4.6165
   20.175    4.0021
   20.190    4.4585
   20.205    3.8792
   20.220    4.2830
   20.235    4.2127
   20.250    4.1425
   20.265    4.1425
   20.280    4.3356
   20.295    4.5989
   20.310    4.5814
   20.325    4.3883
   20.340    4.5638
   20.355    4.8973
   20.370    5.4941
   20.385    4.7569
   20.400    5.0377
   20.415    4.6516
   20.430    4.6516
   20.445    4.3181
   20.460    4.1250
   20.475    4.2303
   20.490    4.0197
   20.505    3.6686
   20.520    4.0021
   20.535    4.0899
   20.550    3.9143
   20.565    3.7739
   20.580    4.1952
   20.595    3.8266
   20.610    4.0723
   20.625    3.7915
   20.640    3.9143
   20.655    3.7915
   20.670    3.5633
   20.685    3.8968
   20.700    3.8266
   20.715    3.8090
   20.730    3.8441
   20.745    3.9846
   20.760    3.8266
   20.775    3.6335
   20.790    4.0021
   20.805    4.2654
   20.820    3.9494
   20.835    3.8792
   20.850    3.7388
   20.865    4.0021
   20.880    4.0021
   20.895    3.8968
   20.910    3.9670
   20.925    4.0723
   20.940    4.1074
   20.955    3.7915
   20.970    3.6159
   20.985    4.1952
   21.000    4.4760
   21.015    3.8617
   21.030    3.7388
   21.045    3.8617
   21.060    4.1250
   21.075    3.7915
   21.090    3.6510
   21.105    4.2478
   21.120    3.5457
   21.135    4.0372
   21.150    4.0899
   21.165    3.9494
   21.180    4.2830
   21.195    3.6686
   21.210    4.0372
   21.225    3.7037
   21.240    3.7388
   21.255    3.9143
   21.270    4.1776
   21.285    4.2127
   21.300    3.9143
   21.315    3.7915
   21.330    4.1952
   21.345    4.0197
   21.360    3.7388
   21.375    3.9494
   21.390    4.1074
   21.405    4.2654
   21.420    3.5106
   21.435    3.8792
   21.450    3.9670
   21.465    3.5457
   21.480    3.8968
   21.495    3.6510
   21.510    4.1425
   21.525    3.8090
   21.540    3.8266
   21.555    3.3175
   21.570    3.6335
   21.585    3.9494
   21.600    4.3707
   21.615    3.8617
   21.630    3.8968
   21.645    3.7739
   21.660    3.7739
   21.675    3.8617
   21.690    4.1074
   21.705    4.0372
   21.720    3.9494
   21.735    4.0723
   21.750    3.9143
   21.765    3.6510
   21.780    3.5808
   21.795    3.8968
   21.810    4.1074
   21.825    3.8792
   21.840    4.1776
   21.855    4.0899
   21.870    4.8798
   21.885    4.5638
   21.900    4.3181
   21.915    4.1074
   21.930    3.9670
   21.945    3.7739
   21.960    4.0723
   21.975    3.7564
   21.990    3.4755
   22.005    3.8441
   22.020    3.9846
   22.035    3.7388
   22.050    3.5633
   22.065    3.7739
   22.080    3.8090
   22.095    3.5106
   22.110    3.7564
   22.125    3.7037
   22.140    3.4404
   22.155    3.5984
   22.170    3.8266
   22.185    4.0723
   22.200    3.8792
   22.215    3.9494
   22.230    3.8266
   22.245    3.9319
   22.260    3.8441
   22.275    4.2303
   22.290    3.9670
   22.305    3.5984
   22.320    4.0899
   22.335    3.7915
   22.350    3.8792
   22.365    3.8090
   22.380    3.4931
   22.395    4.2303
   22.410    3.6686
   22.425    3.9494
   22.440    3.8266
   22.455    3.6862
   22.470    3.9143
   22.485    3.9319
   22.500    3.9494
   22.515    4.2654
   22.530    4.9500
   22.545    5.2308
   22.560    5.2484
   22.575    4.8447
   22.590    4.7218
   22.605    4.6867
   22.620    4.4936
   22.635    4.0197
   22.650    3.6686
   22.665    4.0021
   22.680    3.9319
   22.695    3.6159
   22.710    3.8441
   22.725    3.8792
   22.740    3.7564
   22.755    3.5984
   22.770    3.8441
   22.785    3.7564
   22.800    3.7213
   22.815    3.6159
   22.830    4.1074
   22.845    4.3883
   22.860    4.4936
   22.875    4.7569
   22.890    4.6691
   22.905    5.0026
   22.920    4.4234
   22.935    4.4234
   22.950    4.9851
   22.965    4.4058
   22.980    4.2303
   22.995    3.9670
   23.010    3.8968
   23.025    3.6335
   23.040    3.7915
   23.055    3.5457
   23.070    3.6686
   23.085    4.0197
   23.100    3.8090
   23.115    3.7739
   23.130    3.8968
   23.145    3.7388
   23.160    3.6686
   23.175    3.7388
   23.190    3.9846
   23.205    3.9846
   23.220    4.0021
   23.235    4.0723
   23.250    4.2830
   23.265    4.0899
   23.280    3.8090
   23.295    3.6862
   23.310    3.5984
   23.325    3.7037
   23.340    3.4580
   23.355    3.2649
   23.370    3.2298
   23.385    3.5457
   23.400    3.4229
   23.415    3.6686
   23.430    3.5282
   23.445    3.4580
   23.460    3.7915
   23.475    3.4755
   23.490    3.5808
   23.505    3.5282
   23.520    3.4053
   23.535    3.8617
   23.550    3.4931
   23.565    3.6686
   23.580    3.6159
   23.595    3.2649
   23.610    3.7213
   23.625    3.4755
   23.640    3.6159
   23.655    3.5808
   23.670    3.5106
   23.685    3.4931
   23.700    3.5633
   23.715    3.7037
   23.730    3.3526
   23.745    3.4931
   23.760    2.7558
   23.775    3.2824
   23.790    3.5282
   23.805    3.4404
   23.820    3.2473
   23.835    3.3000
   23.850    3.5633
   23.865    3.4931
   23.880    3.5457
   23.895    3.7213
   23.910    3.5808
   23.925    3.5633
   23.940    3.5106
   23.955    3.5808
   23.970    3.3351
   23.985    3.4755
   24.000    3.5457
   24.015    3.6686
   24.030    3.7564
   24.045    3.5808
   24.060    3.5106
   24.075    3.2824
   24.090    3.0893
   24.105    3.0542
   24.120    3.3702
   24.135    3.3526
   24.150    3.2298
   24.165    3.3526
   24.180    3.2122
   24.195    3.3526
   24.210    3.4053
   24.225    3.4580
   24.240    3.4755
   24.255    3.6862
   24.270    3.3702
   24.285    3.1245
   24.300    3.1245
   24.315    3.0893
   24.330    3.2298
   24.345    3.3702
   24.360    3.2298
   24.375    3.3000
   24.390    3.1947
   24.405    3.6510
   24.420    3.3175
   24.435    3.3702
   24.450    3.3175
   24.465    3.3526
   24.480    3.4755
   24.495    3.3702
   24.510    3.5808
   24.525    3.4580
   24.540    3.7037
   24.555    3.3000
   24.570    3.3526
   24.585    3.5457
   24.600    3.4404
   24.615    3.6686
   24.630    3.8090
   24.645    3.0542
   24.660    3.1420
   24.675    3.3877
   24.690    3.1771
   24.705    3.0542
   24.720    3.4053
   24.735    3.5106
   24.750    3.6159
   24.765    3.2649
   24.780    3.1069
   24.795    3.6686
   24.810    3.2122
   24.825    3.3877
   24.840    3.3175
   24.855    3.5106
   24.870    3.1069
   24.885    3.5282
   24.900    3.8792
   24.915    3.3000
   24.930    3.1771
   24.945    2.9314
   24.960    3.4931
   24.975    3.5457
   24.990    3.3702
   25.005    3.0542
   25.020    3.1596
   25.035    3.1771
   25.050    3.3175
   25.065    3.5282
   25.080    3.1420
   25.095    3.5633
   25.110    3.6159
   25.125    3.2122
   25.140    3.5106
   25.155    3.3877
   25.170    3.2649
   25.185    3.5457
   25.200    3.6159
   25.215    3.5984
   25.230    3.3351
   25.245    3.4404
   25.260    3.5808
   25.275    3.4404
   25.290    3.3702
   25.305    3.5282
   25.320    3.3351
   25.335    3.4404
   25.350    3.2824
   25.365    3.2649
   25.380    3.5808
   25.395    3.5633
   25.410    3.0893
   25.425    3.3175
   25.440    3.5984
   25.455    3.4755
   25.470    3.6862
   25.485    3.1771
   25.500    3.4580
   25.515    3.9143
   25.530    3.6862
   25.545    3.2122
   25.560    3.3175
   25.575    3.2824
   25.590    3.0016
   25.605    3.6510
   25.620    3.7564
   25.635    3.1596
   25.650    3.0191
   25.665    3.0893
   25.680    3.0718
   25.695    3.4931
   25.710    3.5106
   25.725    3.5808
   25.740    3.7739
   25.755    3.6510
   25.770    3.9846
   25.785    4.3532
   25.800    3.8792
   25.815    4.1952
   25.830    4.2830
   25.845    4.0899
   25.860    4.0197
   25.875    3.5282
   25.890    3.4229
   25.905    3.4404
   25.920    3.4931
   25.935    3.1420
   25.950    3.2122
   25.965    2.9314
   25.980    3.3526
   25.995    3.2649
   26.010    3.2649
   26.025    3.1069
   26.040    3.4931
   26.055    3.3351
   26.070    3.4580
   26.085    2.9489
   26.100    2.9138
   26.115    3.0016
   26.130    3.3877
   26.145    3.1245
   26.160    2.9489
   26.175    2.9138
   26.190    2.7909
   26.205    3.2122
   26.220    3.2298
   26.235    3.5808
   26.250    3.1596
   26.265    3.0016
   26.280    3.0542
   26.295    2.9665
   26.310    3.3526
   26.325    3.5808
   26.340    3.2473
   26.355    3.4580
   26.370    3.4404
   26.385    3.4053
   26.400    3.2298
   26.415    3.2824
   26.430    3.2298
   26.445    3.3877
   26.460    3.4931
   26.475    2.9665
   26.490    3.5808
   26.505    3.0016
   26.520    3.2122
   26.535    3.1245
   26.550    2.9138
   26.565    3.2473
   26.580    3.3000
   26.595    3.2824
   26.610    3.1947
   26.625    2.8612
   26.640    2.6856
   26.655    3.2473
   26.670    2.7734
   26.685    2.8436
   26.700    2.9489
   26.715    3.0191
   26.730    3.0893
   26.745    2.8436
   26.760    2.8787
   26.775    2.8260
   26.790    3.0016
   26.805    3.1420
   26.820    3.0367
   26.835    2.9840
   26.850    3.0016
   26.865    3.2473
   26.880    2.8436
   26.895    2.8612
   26.910    2.6330
   26.925    2.7909
   26.940    3.0542
   26.955    3.3175
   26.970    2.9665
   26.985    3.0016
   27.000    3.3702
   27.015    3.2824
   27.030    3.4580
   27.045    3.1947
   27.060    3.1596
   27.075    3.2298
   27.090    2.9489
   27.105    3.0893
   27.120    3.2824
   27.135    3.0893
   27.150    2.9138
   27.165    2.9138
   27.180    3.1947
   27.195    3.1245
   27.210    3.1245
   27.225    3.0367
   27.240    3.0718
   27.255    3.1420
   27.270    3.0893
   27.285    2.7734
   27.300    3.0016
   27.315    3.0718
   27.330    2.8436
   27.345    2.7909
   27.360    2.9665
   27.375    3.0542
   27.390    2.6330
   27.405    2.5628
   27.420    2.6330
   27.435    3.0542
   27.450    2.7383
   27.465    2.8436
   27.480    3.2473
   27.495    2.8260
   27.510    3.0542
   27.525    2.9840
   27.540    2.8787
   27.555    2.9489
   27.570    3.3526
   27.585    2.9489
   27.600    3.5633
   27.615    2.8963
   27.630    2.6681
   27.645    2.9138
   27.660    2.9138
   27.675    2.8612
   27.690    3.0191
   27.705    2.8085
   27.720    2.9665
   27.735    3.0718
   27.750    3.1245
   27.765    2.9138
   27.780    2.9314
   27.795    2.4925
   27.810    3.0016
   27.825    2.7909
   27.840    3.1596
   27.855    3.2473
   27.870    3.1420
   27.885    3.2473
   27.900    3.1069
   27.915    3.0893
   27.930    2.7032
   27.945    3.0016
   27.960    2.9665
   27.975    3.3526
   27.990    3.4755
   28.005    3.4053
   28.020    2.9665
   28.035    3.1245
   28.050    3.0191
   28.065    2.9314
   28.080    3.1420
   28.095    3.0016
   28.110    3.1069
   28.125    2.8085
   28.140    2.8963
   28.155    3.0542
   28.170    2.8963
   28.185    3.1771
   28.200    3.1947
   28.215    3.3526
   28.230    3.3175
   28.245    2.8963
   28.260    2.8260
   28.275    3.0016
   28.290    2.8436
   28.305    3.0542
   28.320    2.7558
   28.335    2.8963
   28.350    3.0016
   28.365    2.8085
   28.380    3.1420
   28.395    3.0191
   28.410    3.2122
   28.425    2.9840
   28.440    3.1771
   28.455    3.1420
   28.470    3.2824
   28.485    3.4755
   28.500    3.0718
   28.515    3.0016
   28.530    2.8612
   28.545    2.8787
   28.560    2.8085
   28.575    2.9840
   28.590    3.0542
   28.605    2.4399
   28.620    2.5803
   28.635    2.5803
   28.650    2.8787
   28.665    3.0893
   28.680    2.5979
   28.695    2.7909
   28.710    2.6856
   28.725    3.2298
   28.740    3.0191
   28.755    3.0191
   28.770    2.7909
   28.785    2.9665
   28.800    2.9840
   28.815    2.7032
   28.830    3.0893
   28.845    2.9489
   28.860    2.5979
   28.875    2.8085
   28.890    2.7909
   28.905    3.1947
   28.920    3.3526
   28.935    3.0016
   28.950    3.2298
   28.965    3.7739
   28.980    3.5106
   28.995    2.9665
   29.010    3.1596
   29.025    2.8436
   29.040    3.0893
   29.055    2.8612
   29.070    3.2298
   29.085    3.0191
   29.100    3.2298
   29.115    2.7207
   29.130    2.8963
   29.145    2.8260
   29.160    2.8085
   29.175    2.7558
   29.190    3.0016
   29.205    2.8612
   29.220    2.6856
   29.235    3.1596
   29.250    3.0367
   29.265    2.9665
   29.280    3.1947
   29.295    3.1245
   29.310    3.3175
   29.325    3.0542
   29.340    3.0191
   29.355    2.8963
   29.370    2.7558
   29.385    2.4750
   29.400    2.5101
   29.415    2.8963
   29.430    2.7558
   29.445    2.7032
   29.460    2.6856
   29.475    2.4048
   29.490    2.6154
   29.505    2.8963
   29.520    2.9138
   29.535    2.5979
   29.550    2.6505
   29.565    2.5628
   29.580    2.3872
   29.595    2.6856
   29.610    2.3872
   29.625    2.4925
   29.640    2.5276
   29.655    2.5101
   29.670    2.4399
   29.685    2.5803
   29.700    2.6505
   29.715    2.5276
   29.730    2.7383
   29.745    2.4574
   29.760    2.5101
   29.775    2.5803
   29.790    2.4574
   29.805    2.6330
   29.820    2.2995
   29.835    2.7734
   29.850    2.6154
   29.865    2.7207
   29.880    2.1590
   29.895    2.5979
   29.910    2.6154
   29.925    2.4048
   29.940    2.6505
   29.955    2.7207
   29.970    2.7032
   29.985    2.4399
   30.000    2.3697
   30.015    2.4750
   30.030    2.8787
   30.045    2.6330
   30.060    2.6856
   30.075    2.5101
   30.090    2.8436
   30.105    2.7207
   30.120    2.6505
   30.135    2.4399
   30.150    2.6154
   30.165    2.5628
   30.180    2.5276
   30.195    2.6330
   30.210    2.5452
   30.225    2.6681
   30.240    2.8260
   30.255    2.8085
   30.270    2.5803
   30.285    2.4574
   30.300    2.4399
   30.315    2.7032
   30.330    2.6330
   30.345    2.4574
   30.360    2.7383
   30.375    2.8260
   30.390    2.4574
   30.405    2.6154
   30.420    2.2468
   30.435    2.0888
   30.450    2.6154
   30.465    2.3697
   30.480    2.2643
   30.495    2.3521
   30.510    2.4048
   30.525    2.2117
   30.540    2.4750
   30.555    2.3170
   30.570    2.4750
   30.585    2.7032
   30.600    2.4925
   30.615    2.6154
   30.630    2.5452
   30.645    2.7909
   30.660    2.7383
   30.675    2.5452
   30.690    2.5101
   30.705    2.4399
   30.720    2.2643
   30.735    2.1415
   30.750    2.2819
   30.765    2.3872
   30.780    2.2643
   30.795    2.3170
   30.810    2.3697
   30.825    2.5979
   30.840    2.4223
   30.855    2.5101
   30.870    2.4925
   30.885    2.3697
   30.900    2.3521
   30.915    2.4399
   30.930    2.4048
   30.945    2.7734
   30.960    2.5276
   30.975    2.5628
   30.990    2.4399
   31.005    2.4925
   31.020    2.5101
   31.035    2.3170
   31.050    2.6681
   31.065    2.6154
   31.080    2.4574
   31.095    2.4223
   31.110    2.4048
   31.125    2.2995
   31.140    2.3521
   31.155    2.1415
   31.170    2.2995
   31.185    2.1415
   31.200    2.0537
   31.215    2.0362
   31.230    2.0537
   31.245    2.5452
   31.260    2.3697
   31.275    2.2643
   31.290    2.1590
   31.305    2.1766
   31.320    2.1590
   31.335    2.5979
   31.350    2.5628
   31.365    2.5452
   31.380    2.2819
   31.395    2.0362
   31.410    2.4750
   31.425    2.3872
   31.440    2.5101
   31.455    2.2468
   31.470    2.4048
   31.485    2.0888
   31.500    2.2468
   31.515    2.2292
   31.530    2.1590
   31.545    2.3170
   31.560    2.3346
   31.575    2.1415
   31.590    2.2117
   31.605    2.1239
   31.620    2.1239
   31.635    2.2643
   31.650    2.3521
   31.665    2.2117
   31.680    2.5452
   31.695    2.5628
   31.710    2.3521
   31.725    2.4399
   31.740    2.3170
   31.755    2.4223
   31.770    2.5979
   31.785    2.7032
   31.800    2.4925
   31.815    2.4574
   31.830    2.3521
   31.845    2.2468
   31.860    2.1766
   31.875    2.4048
   31.890    2.4048
   31.905    2.2995
   31.920    2.4048
   31.935    2.0186
   31.950    2.2117
   31.965    2.3346
   31.980    1.9308
   31.995    2.1941
   32.010    2.2995
   32.025    2.4048
   32.040    2.6330
   32.055    2.7383
   32.070    3.2122
   32.085    3.8090
   32.100    3.5457
   32.115    3.0191
   32.130    2.6681
   32.145    2.4750
   32.160    2.2117
   32.175    2.4048
   32.190    2.4399
   32.205    2.1239
   32.220    2.2468
   32.235    2.4750
   32.250    2.5452
   32.265    2.2819
   32.280    2.0713
   32.295    2.4574
   32.310    2.3697
   32.325    2.4925
   32.340    2.5276
   32.355    2.2292
   32.370    2.3170
   32.385    2.1941
   32.400    2.1941
   32.415    2.3697
   32.430    2.4048
   32.445    2.2292
   32.460    2.1239
   32.475    1.9659
   32.490    2.1766
   32.505    2.2643
   32.520    2.2643
   32.535    2.4399
   32.550    2.4048
   32.565    2.2819
   32.580    2.0537
   32.595    2.2292
   32.610    2.1239
   32.625    2.0537
   32.640    2.1415
   32.655    2.1766
   32.670    1.8782
   32.685    2.0186
   32.700    2.2643
   32.715    2.4048
   32.730    2.1415
   32.745    2.2643
   32.760    2.3346
   32.775    2.1239
   32.790    1.7553
   32.805    1.9484
   32.820    2.1766
   32.835    2.2643
   32.850    2.3346
   32.865    2.1941
   32.880    2.2468
   32.895    2.0537
   32.910    2.0537
   32.925    2.4223
   32.940    2.2643
   32.955    2.1415
   32.970    2.3346
   32.985    2.1590
   33.000    1.9133
   33.015    2.1415
   33.030    2.0537
   33.045    2.0362
   33.060    2.3697
   33.075    2.1766
   33.090    2.1239
   33.105    1.8782
   33.120    2.0186
   33.135    2.0888
   33.150    2.2292
   33.165    2.1766
   33.180    2.0011
   33.195    1.9659
   33.210    2.1766
   33.225    1.8080
   33.240    2.2292
   33.255    2.1415
   33.270    2.0888
   33.285    2.2643
   33.300    2.3697
   33.315    2.3697
   33.330    2.2995
   33.345    2.1415
   33.360    1.9835
   33.375    2.2468
   33.390    2.2292
   33.405    1.8255
   33.420    2.1766
   33.435    2.1415
   33.450    1.9133
   33.465    2.2468
   33.480    2.1590
   33.495    1.8782
   33.510    1.8255
   33.525    1.9133
   33.540    1.8431
   33.555    1.8957
   33.570    2.2995
   33.585    2.2643
   33.600    2.0186
   33.615    2.2819
   33.630    2.1590
   33.645    2.1766
   33.660    1.9133
   33.675    2.0888
   33.690    2.0011
   33.705    1.7729
   33.720    1.9484
   33.735    2.1941
   33.750    2.4048
   33.765    2.4925
   33.780    2.6856
   33.795    2.2995
   33.810    2.7909
   33.825    2.8260
   33.840    2.5276
   33.855    2.5979
   33.870    2.4223
   33.885    2.1239
   33.900    2.2468
   33.915    2.2117
   33.930    2.1064
   33.945    2.0888
   33.960    2.1064
   33.975    2.1766
   33.990    2.3872
   34.005    1.9835
   34.020    2.0011
   34.035    2.1415
   34.050    2.0713
   34.065    2.1415
   34.080    2.2117
   34.095    2.1590
   34.110    2.3697
   34.125    1.9835
   34.140    1.7202
   34.155    1.8255
   34.170    2.1590
   34.185    2.0888
   34.200    1.9133
   34.215    2.1239
   34.230    1.8255
   34.245    1.8957
   34.260    2.2995
   34.275    1.9484
   34.290    1.9835
   34.305    2.1415
   34.320    2.4399
   34.335    1.9308
   34.350    1.8957
   34.365    2.1766
   34.380    2.1239
   34.395    2.1415
   34.410    2.1239
   34.425    2.0186
   34.440    2.1415
   34.455    1.8606
   34.470    1.8080
   34.485    1.7729
   34.500    1.8957
   34.515    1.8431
   34.530    2.0713
   34.545    1.9659
   34.560    2.1064
   34.575    2.2117
   34.590    1.9835
   34.605    2.0537
   34.620    1.8431
   34.635    1.9133
   34.650    1.8606
   34.665    1.9659
   34.680    2.2643
   34.695    1.9133
   34.710    2.0011
   34.725    2.2468
   34.740    2.0186
   34.755    2.0362
   34.770    2.2995
   34.785    2.2643
   34.800    2.0186
   34.815    2.3697
   34.830    1.7729
   34.845    1.8431
   34.860    2.2995
   34.875    2.0362
   34.890    2.2995
   34.905    2.1415
   34.920    1.7027
   34.935    1.9484
   34.950    2.0362
   34.965    1.9484
   34.980    1.8080
   34.995    2.0186
   35.010    1.9133
   35.025    2.1064
   35.040    2.2643
   35.055    1.7553
   35.070    1.7729
   35.085    1.9308
   35.100    1.7027
   35.115    1.9659
   35.130    2.0537
   35.145    1.9133
   35.160    2.1239
   35.175    2.1064
   35.190    2.1064
   35.205    2.2117
   35.220    1.9133
   35.235    1.7378
   35.250    1.9659
   35.265    2.1415
   35.280    2.0011
   35.295    1.7904
   35.310    1.6675
   35.325    2.0537
   35.340    1.7553
   35.355    1.9484
   35.370    2.2643
   35.385    2.0011
   35.400    2.1766
   35.415    2.0186
   35.430    2.3170
   35.445    2.2292
   35.460    2.2117
   35.475    2.0186
   35.490    1.9308
   35.505    2.2292
   35.520    1.7553
   35.535    2.0011
   35.550    2.0011
   35.565    2.0888
   35.580    2.0186
   35.595    2.1239
   35.610    1.9133
   35.625    1.8255
   35.640    1.7904
   35.655    1.9484
   35.670    1.9659
   35.685    1.9133
   35.700    1.9308
   35.715    1.8255
   35.730    2.0362
   35.745    2.0362
   35.760    2.1239
   35.775    2.1064
   35.790    2.2643
   35.805    1.7378
   35.820    1.8255
   35.835    1.9308
   35.850    2.0186
   35.865    2.1064
   35.880    2.4399
   35.895    2.0888
   35.910    1.9484
   35.925    1.8255
   35.940    2.0362
   35.955    2.2643
   35.970    2.1064
   35.985    1.9308
   36.000    2.1941
   36.015    2.2292
   36.030    1.7729
   36.045    1.8431
   36.060    1.9308
   36.075    2.0713
   36.090    2.2117
   36.105    2.0888
   36.120    1.9835
   36.135    1.9484
   36.150    1.7553
   36.165    1.8782
   36.180    1.8255
   36.195    2.3170
   36.210    2.1239
   36.225    2.1415
   36.240    2.0186
   36.255    2.0186
   36.270    1.9308
   36.285    1.6324
   36.300    1.8606
   36.315    1.8782
   36.330    2.1941
   36.345    2.0186
   36.360    1.8782
   36.375    2.0537
   36.390    1.9835
   36.405    2.1239
   36.420    2.0362
   36.435    1.8255
   36.450    2.0888
   36.465    1.9484
   36.480    2.0186
   36.495    1.7729
   36.510    2.0537
   36.525    2.1239
   36.540    2.0186
   36.555    2.0537
   36.570    2.0011
   36.585    1.7904
   36.600    2.0537
   36.615    1.8080
   36.630    1.9133
   36.645    1.8080
   36.660    1.9308
   36.675    1.8606
   36.690    2.0888
   36.705    1.8431
   36.720    1.9835
   36.735    2.1941
   36.750    1.9835
   36.765    2.1064
   36.780    1.8782
   36.795    1.9484
   36.810    1.8255
   36.825    1.8606
   36.840    1.8606
   36.855    1.7729
   36.870    1.8606
   36.885    2.0713
   36.900    2.0713
   36.915    1.8431
   36.930    2.1064
   36.945    1.8606
   36.960    1.7904
   36.975    1.9133
   36.990    2.1064
   37.005    2.3170
   37.020    1.9659
   37.035    1.9484
   37.050    2.1239
   37.065    2.3697
   37.080    1.9835
   37.095    2.1590
   37.110    1.9484
   37.125    1.7904
   37.140    1.8782
   37.155    1.7553
   37.170    1.9484
   37.185    2.2292
   37.200    1.7904
   37.215    1.6851
   37.230    1.7904
   37.245    1.7904
   37.260    1.9133
   37.275    1.9133
   37.290    1.7904
   37.305    1.9659
   37.320    1.7904
   37.335    1.9133
   37.350    1.8957
   37.365    1.8255
   37.380    1.8255
   37.395    1.5622
   37.410    1.7378
   37.425    2.0713
   37.440    1.9659
   37.455    1.8782
   37.470    1.9308
   37.485    1.9835
   37.500    1.9659
   37.515    2.1590
   37.530    1.8431
   37.545    2.1239
   37.560    1.9835
   37.575    1.8606
   37.590    2.2117
   37.605    1.9659
   37.620    2.1415
   37.635    1.8782
   37.650    1.7904
   37.665    1.8782
   37.680    2.0537
   37.695    1.8606
   37.710    1.8957
   37.725    2.0713
   37.740    1.9835
   37.755    2.1064
   37.770    1.9308
   37.785    1.9484
   37.800    1.9659
   37.815    1.9835
   37.830    2.0362
   37.845    2.0713
   37.860    2.1239
   37.875    1.9133
   37.890    2.1239
   37.905    2.0362
   37.920    2.0537
   37.935    1.9835
   37.950    2.1239
   37.965    2.1941
   37.980    2.1064
   37.995    1.9835
   38.010    2.0362
   38.025    1.9659
   38.040    1.9308
   38.055    1.8080
   38.070    2.0537
   38.085    1.7202
   38.100    1.6851
   38.115    1.8957
   38.130    2.0186
   38.145    2.1239
   38.160    1.6324
   38.175    1.6500
   38.190    1.7553
   38.205    2.1941
   38.220    1.9308
   38.235    1.8782
   38.250    2.1064
   38.265    1.9308
   38.280    1.7729
   38.295    1.7553
   38.310    1.9133
   38.325    1.7202
   38.340    1.8782
   38.355    2.0011
   38.370    2.2468
   38.385    2.1766
   38.400    1.6675
   38.415    1.7202
   38.430    2.2117
   38.445    2.0713
   38.460    1.8431
   38.475    1.9133
   38.490    1.8080
   38.505    2.0713
   38.520    1.8255
   38.535    2.1415
   38.550    2.0186
   38.565    2.1766
   38.580    1.9308
   38.595    2.0713
   38.610    2.2995
   38.625    2.1415
   38.640    2.0011
   38.655    1.8255
   38.670    1.7378
   38.685    1.8957
   38.700    1.9133
   38.715    1.8431
   38.730    1.8080
   38.745    2.0888
   38.760    2.0362
   38.775    2.0362
   38.790    1.8606
   38.805    1.9835
   38.820    1.9659
   38.835    1.8431
   38.850    1.8957
   38.865    1.9308
   38.880    1.6149
   38.895    1.7378
   38.910    1.8606
   38.925    1.8255
   38.940    1.9308
   38.955    2.1064
   38.970    1.8080
   38.985    1.6675
   39.000    1.8606
   39.015    1.8957
   39.030    2.0011
   39.045    1.8080
   39.060    1.9133
   39.075    1.6324
   39.090    1.6324
   39.105    1.8957
   39.120    1.6675
   39.135    1.8255
   39.150    1.9835
   39.165    2.0713
   39.180    1.7729
   39.195    1.7904
   39.210    1.8080
   39.225    1.8606
   39.240    2.0537
   39.255    1.9659
   39.270    1.6324
   39.285    1.7378
   39.300    1.9659
   39.315    2.0888
   39.330    2.1590
   39.345    1.8606
   39.360    1.6500
   39.375    1.7378
   39.390    1.6675
   39.405    1.8080
   39.420    1.7027
   39.435    1.7378
   39.450    1.9133
   39.465    1.9484
   39.480    1.9835
   39.495    1.8431
   39.510    1.9308
   39.525    1.7904
   39.540    1.6675
   39.555    1.9835
   39.570    1.7202
   39.585    1.8080
   39.600    1.7378
   39.615    1.8431
   39.630    1.7027
   39.645    1.5973
   39.660    1.5447
   39.675    1.6324
   39.690    1.7027
   39.705    1.8431
   39.720    1.6851
   39.735    1.9484
   39.750    2.1766
   39.765    2.1415
   39.780    1.9659
   39.795    1.7202
   39.810    1.4042
   39.825    1.8080
   39.840    1.7729
   39.855    1.5622
   39.870    1.8255
   39.885    1.9659
   39.900    1.8080
   39.915    1.8957
   39.930    1.8431
   39.945    1.6500
   39.960    1.7729
   39.975    1.6324
   39.990    1.8080
