    1.500   10.0369
    1.515   10.2159
    1.530    9.8578
    1.545    9.6472
    1.560    9.4576
    1.575    9.6472
    1.590    9.2891
    1.605    9.3523
    1.620    9.3312
    1.635    9.3207
    1.650    8.8889
    1.665    8.6677
    1.680    8.9837
    1.695    8.6888
    1.710    8.3096
    1.725    8.4781
    1.740    8.6045
    1.755    7.9937
    1.770    8.2570
    1.785    8.3307
    1.800    8.1622
    1.815    8.2464
    1.830    7.4882
    1.845    7.5935
    1.860    7.1511
    1.875    7.5619
    1.890    7.5513
    1.905    7.8357
    1.920    7.3091
    1.935    7.2565
    1.950    7.4987
    1.965    6.8457
    1.980    7.1195
    1.995    7.0353
    2.010    6.8668
    2.025    6.8352
    2.040    6.8562
    2.055    6.4982
    2.070    7.1195
    2.085    7.1301
    2.100    7.0563
    2.115    6.9089
    2.130    6.7299
    2.145    6.6245
    2.160    6.5508
    2.175    6.7930
    2.190    6.9089
    2.205    6.4350
    2.220    6.2875
    2.235    6.1611
    2.250    6.3507
    2.265    5.9505
    2.280    6.2559
    2.295    6.1927
    2.310    6.2454
    2.325    6.4350
    2.340    6.4560
    2.355    6.3507
    2.370    6.0769
    2.385    5.8978
    2.400    5.9189
    2.415    6.0769
    2.430    5.9821
    2.445    5.7293
    2.460    5.9716
    2.475    5.4134
    2.490    5.7188
    2.505    5.6977
    2.520    5.8241
    2.535    5.8031
    2.550    5.9400
    2.565    5.8136
    2.580    5.9294
    2.595    5.7293
    2.610    6.0348
    2.625    5.7609
    2.640    5.5503
    2.655    5.4344
    2.670    5.2343
    2.685    5.2343
    2.700    5.4660
    2.715    5.4766
    2.730    5.3397
    2.745    6.0137
    2.760    5.7609
    2.775    5.1922
    2.790    5.2554
    2.805    5.2659
    2.820    5.6135
    2.835    5.4871
    2.850    5.5924
    2.865    5.5503
    2.880    5.6240
    2.895    5.4134
    2.910    5.1606
    2.925    5.3502
    2.940    5.4976
    2.955    5.1395
    2.970    5.1290
    2.985    5.3502
    3.000    5.2975
    3.015    5.4028
    3.030    5.3923
    3.045    5.3291
    3.060    5.4766
    3.075    5.7715
    3.090    5.2554
    3.105    5.2975
    3.120    5.7083
    3.135    5.3818
    3.150    5.1711
    3.165    5.3186
    3.180    5.4871
    3.195    5.3397
    3.210    5.6029
    3.225    5.4976
    3.240    5.5187
    3.255    5.4555
    3.270    5.2343
    3.285    5.1185
    3.300    5.6345
    3.315    5.1922
    3.330    5.6872
    3.345    5.3081
    3.360    5.2238
    3.375    4.9500
    3.390    4.7920
    3.405    4.9605
    3.420    4.9605
    3.435    4.9289
    3.450    5.2870
    3.465    5.3397
    3.480    5.1817
    3.495    5.0658
    3.510    5.6029
    3.525    5.4871
    3.540    5.0237
    3.555    5.2554
    3.570    4.9710
    3.585    4.6761
    3.600    4.9921
    3.615    4.9289
    3.630    5.2133
    3.645    4.9605
    3.660    5.2238
    3.675    5.0237
    3.690    4.8868
    3.705    4.9289
    3.720    5.0342
    3.735    5.1185
    3.750    5.1290
    3.765    5.2449
    3.780    5.2975
    3.795    5.0237
    3.810    5.0974
    3.825    4.9816
    3.840    5.1395
    3.855    4.8868
    3.870    4.9921
    3.885    5.1501
    3.900    5.0974
    3.915    5.1290
    3.930    5.1606
    3.945    4.9816
    3.960    4.9605
    3.975    5.2027
    3.990    5.2870
    4.005    5.3502
    4.020    5.1185
    4.035    5.0132
    4.050    5.2870
    4.065    5.2133
    4.080    5.1606
    4.095    5.0764
    4.110    5.2343
    4.125    5.4766
    4.140    5.0132
    4.155    4.7499
    4.170    4.6972
    4.185    4.8657
    4.200    4.9184
    4.215    5.1606
    4.230    5.0448
    4.245    4.8447
    4.260    4.5919
    4.275    4.9289
    4.290    5.1185
    4.305    5.1185
    4.320    5.1606
    4.335    5.0237
    4.350    5.2975
    4.365    5.1606
    4.380    5.0869
    4.395    5.1290
    4.410    5.5819
    4.425    5.4344
    4.440    5.0237
    4.455    4.8341
    4.470    4.8447
    4.485    5.1185
    4.500    5.2554
    4.515    5.1395
    4.530    4.9605
    4.545    4.9184
    4.560    5.2449
    4.575    5.0658
    4.590    4.9394
    4.605    5.3081
    4.620    5.3607
    4.635    4.9921
    4.650    5.3186
    4.665    5.0448
    4.680    4.8657
    4.695    5.1606
    4.710    5.3818
    4.725    4.9394
    4.740    5.3397
    4.755    5.2975
    4.770    4.9078
    4.785    5.0974
    4.800    5.3502
    4.815    5.3291
    4.830    5.0342
    4.845    5.1185
    4.860    4.9078
    4.875    4.8763
    4.890    4.7709
    4.905    4.7183
    4.920    4.9500
    4.935    5.1817
    4.950    5.1817
    4.965    5.1290
    4.980    4.9289
    4.995    4.7709
    5.010    4.8447
    5.025    5.0553
    5.040    4.8973
    5.055    5.0658
    5.070    5.2133
    5.085    5.2975
    5.100    5.3502
    5.115    4.9078
    5.130    5.0026
    5.145    4.6024
    5.160    4.8236
    5.175    5.1185
    5.190    5.0658
    5.205    4.6656
    5.220    4.8025
    5.235    5.0026
    5.250    4.9289
    5.265    4.9184
    5.280    4.9710
    5.295    5.0342
    5.310    5.0764
    5.325    5.0553
    5.340    5.0764
    5.355    5.3186
    5.370    4.8447
    5.385    4.8341
    5.400    4.8763
    5.415    4.7815
    5.430    5.1080
    5.445    5.0026
    5.460    4.9710
    5.475    5.2027
    5.490    5.0658
    5.505    4.6024
    5.520    4.9605
    5.535    5.0342
    5.550    5.1395
    5.565    4.7077
    5.580    4.8447
    5.595    4.8552
    5.610    4.9394
    5.625    5.2238
    5.640    4.9184
    5.655    4.7183
    5.670    4.8236
    5.685    5.2133
    5.700    5.0869
    5.715    4.7709
    5.730    4.6761
    5.745    4.8763
    5.760    5.1290
    5.775    4.9710
    5.790    5.0237
    5.805    5.1711
    5.820    4.5814
    5.835    4.7920
    5.850    5.1817
    5.865    5.0237
    5.880    5.0764
    5.895    5.1606
    5.910    4.9394
    5.925    4.5919
    5.940    4.8973
    5.955    4.9816
    5.970    4.9921
    5.985    5.4976
    6.000    5.2554
    6.015    4.9710
    6.030    5.1606
    6.045    4.9605
    6.060    4.9710
    6.075    4.5814
    6.090    4.7604
    6.105    5.1290
    6.120    4.9605
    6.135    4.9078
    6.150    4.8131
    6.165    5.0026
    6.180    4.9921
    6.195    5.0974
    6.210    5.2238
    6.225    5.0342
    6.240    4.6445
    6.255    5.0132
    6.270    4.7077
    6.285    4.4866
    6.300    5.0764
    6.315    4.9605
    6.330    4.8447
    6.345    4.8657
    6.360    5.0658
    6.375    4.9921
    6.390    5.0553
    6.405    4.8236
    6.420    4.8552
    6.435    4.8447
    6.450    4.6024
    6.465    4.5919
    6.480    4.9184
    6.495    5.0342
    6.510    4.8552
    6.525    4.6656
    6.540    4.8025
    6.555    4.9394
    6.570    4.9184
    6.585    5.2027
    6.600    4.7604
    6.615    4.8973
    6.630    5.2870
    6.645    5.2238
    6.660    4.9078
    6.675    4.6761
    6.690    4.5814
    6.705    4.9605
    6.720    4.8025
    6.735    5.1817
    6.750    4.8131
    6.765    4.8025
    6.780    5.0448
    6.795    4.9078
    6.810    4.9394
    6.825    5.3186
    6.840    4.9816
    6.855    5.0237
    6.870    5.0132
    6.885    5.2027
    6.900    4.9184
    6.915    5.2133
    6.930    5.0658
    6.945    5.1395
    6.960    4.9500
    6.975    5.2343
    6.990    4.8973
    7.005    4.9605
    7.020    5.2554
    7.035    5.0342
    7.050    4.6972
    7.065    4.8447
    7.080    5.0237
    7.095    5.1501
    7.110    4.8025
    7.125    4.8657
    7.140    4.8763
    7.155    4.8973
    7.170    5.0974
    7.185    5.1606
    7.200    4.8657
    7.215    4.8341
    7.230    4.8025
    7.245    4.9816
    7.260    5.1501
    7.275    5.1290
    7.290    4.8236
    7.305    5.0869
    7.320    5.3186
    7.335    5.1817
    7.350    4.8868
    7.365    4.9921
    7.380    5.2133
    7.395    5.1185
    7.410    5.2765
    7.425    4.7709
    7.440    5.2133
    7.455    4.8657
    7.470    4.8763
    7.485    4.9710
    7.500    4.9184
    7.515    5.4344
    7.530    5.3081
    7.545    5.0553
    7.560    5.0448
    7.575    5.0132
    7.590    5.2027
    7.605    5.1290
    7.620    5.0974
    7.635    4.9289
    7.650    4.8447
    7.665    5.2238
    7.680    5.3081
    7.695    5.2659
    7.710    5.3397
    7.725    4.9921
    7.740    5.2659
    7.755    5.1922
    7.770    5.2133
    7.785    5.3502
    7.800    5.2449
    7.815    5.3818
    7.830    5.1711
    7.845    5.0132
    7.860    5.5503
    7.875    5.3923
    7.890    5.2027
    7.905    5.1922
    7.920    5.5714
    7.935    5.4450
    7.950    4.9394
    7.965    5.1080
    7.980    5.3502
    7.995    5.4766
    8.010    5.0026
    8.025    4.9710
    8.040    5.1290
    8.055    5.1606
    8.070    5.2554
    8.085    4.9078
    8.100    4.6761
    8.115    5.2765
    8.130    5.0237
    8.145    5.2554
    8.160    5.1922
    8.175    5.3291
    8.190    4.9500
    8.205    5.1922
    8.220    5.1606
    8.235    5.1501
    8.250    5.1501
    8.265    5.1395
    8.280    5.3607
    8.295    5.0764
    8.310    4.8657
    8.325    5.0974
    8.340    5.2449
    8.355    5.1922
    8.370    5.0448
    8.385    5.3081
    8.400    5.2659
    8.415    5.3818
    8.430    5.3291
    8.445    5.4871
    8.460    5.3818
    8.475    5.4660
    8.490    4.9710
    8.505    5.3607
    8.520    5.3818
    8.535    5.1080
    8.550    5.3291
    8.565    5.2975
    8.580    5.2238
    8.595    5.3923
    8.610    5.2870
    8.625    4.8973
    8.640    5.0974
    8.655    5.3397
    8.670    5.1395
    8.685    5.1290
    8.700    5.3923
    8.715    5.5714
    8.730    5.2554
    8.745    5.0132
    8.760    5.1501
    8.775    4.9078
    8.790    5.2659
    8.805    5.1922
    8.820    5.5924
    8.835    5.1711
    8.850    5.1395
    8.865    5.2343
    8.880    5.1817
    8.895    5.0448
    8.910    5.1185
    8.925    5.2238
    8.940    5.3712
    8.955    5.2975
    8.970    5.1922
    8.985    5.0764
    9.000    5.1711
    9.015    5.0448
    9.030    4.8763
    9.045    5.2027
    9.060    5.4344
    9.075    5.2659
    9.090    4.9500
    9.105    4.9394
    9.120    4.6761
    9.135    5.3923
    9.150    5.0132
    9.165    5.1922
    9.180    5.2765
    9.195    5.1922
    9.210    5.2133
    9.225    5.3923
    9.240    4.8763
    9.255    4.8868
    9.270    5.4766
    9.285    5.0869
    9.300    5.1290
    9.315    5.4028
    9.330    5.6029
    9.345    5.3818
    9.360    5.2554
    9.375    5.2449
    9.390    5.2133
    9.405    4.8868
    9.420    5.0237
    9.435    4.9921
    9.450    5.3923
    9.465    5.1501
    9.480    5.0342
    9.495    5.0553
    9.510    4.9184
    9.525    5.1185
    9.540    5.1606
    9.555    5.2238
    9.570    5.5187
    9.585    5.3502
    9.600    4.7920
    9.615    4.9078
    9.630    5.0553
    9.645    5.2975
    9.660    5.3923
    9.675    4.7288
    9.690    5.2238
    9.705    5.0448
    9.720    4.8447
    9.735    4.9710
    9.750    5.4450
    9.765    5.3712
    9.780    5.2554
    9.795    5.3186
    9.810    5.0974
    9.825    4.9710
    9.840    5.2765
    9.855    5.1080
    9.870    4.9816
    9.885    4.6130
    9.900    5.2449
    9.915    5.3186
    9.930    5.4555
    9.945    5.0237
    9.960    5.1922
    9.975    5.2870
    9.990    5.1395
   10.005    5.3712
   10.020    5.3397
   10.035    5.0132
   10.050    4.9921
   10.065    5.1711
   10.080    5.0448
   10.095    5.1501
   10.110    5.3186
   10.125    4.9184
   10.140    4.8025
   10.155    4.9921
   10.170    5.2975
   10.185    4.7288
   10.200    5.1395
   10.215    4.8763
   10.230    4.9500
   10.245    5.1711
   10.260    4.8025
   10.275    5.2343
   10.290    5.5608
   10.305    5.2870
   10.320    5.0448
   10.335    5.0448
   10.350    5.2765
   10.365    5.2343
   10.380    5.2659
   10.395    5.1501
   10.410    5.1501
   10.425    5.1817
   10.440    4.9394
   10.455    5.2238
   10.470    5.2870
   10.485    4.8341
   10.500    5.0132
   10.515    5.0658
   10.530    5.1395
   10.545    5.1817
   10.560    5.2027
   10.575    4.8657
   10.590    5.0237
   10.605    5.0132
   10.620    5.2027
   10.635    5.0132
   10.650    4.9394
   10.665    5.1080
   10.680    5.1606
   10.695    5.0764
   10.710    4.9605
   10.725    4.9078
   10.740    4.8657
   10.755    5.1185
   10.770    5.2133
   10.785    5.1395
   10.800    5.1290
   10.815    4.9289
   10.830    4.8236
   10.845    5.0974
   10.860    5.1606
   10.875    5.1395
   10.890    4.9605
   10.905    5.5714
   10.920    4.8657
   10.935    4.9289
   10.950    4.7604
   10.965    4.9184
   10.980    4.9710
   10.995    4.7920
   11.010    4.5182
   11.025    4.8552
   11.040    4.8552
   11.055    5.1185
   11.070    5.2133
   11.085    5.0448
   11.100    4.6656
   11.115    4.9500
   11.130    5.0869
   11.145    5.0026
   11.160    4.5919
   11.175    4.7499
   11.190    5.1395
   11.205    5.0448
   11.220    5.0553
   11.235    4.8447
   11.250    5.0132
   11.265    5.2870
   11.280    5.1185
   11.295    4.7393
   11.310    4.9710
   11.325    5.0869
   11.340    4.8868
   11.355    4.8763
   11.370    5.0448
   11.385    4.7604
   11.400    4.9816
   11.415    5.0026
   11.430    4.6972
   11.445    4.7499
   11.460    4.8763
   11.475    4.9710
   11.490    4.7604
   11.505    4.9394
   11.520    5.0342
   11.535    4.7709
   11.550    5.0448
   11.565    4.8131
   11.580    4.7815
   11.595    5.1606
   11.610    5.1501
   11.625    4.9816
   11.640    4.9921
   11.655    5.1606
   11.670    4.9078
   11.685    5.2133
   11.700    5.0974
   11.715    4.9184
   11.730    5.0342
   11.745    4.9184
   11.760    4.9394
   11.775    4.6867
   11.790    5.1922
   11.805    4.7920
   11.820    4.8131
   11.835    4.9394
   11.850    4.8341
   11.865    4.9394
   11.880    5.1922
   11.895    4.9184
   11.910    4.8868
   11.925    5.0237
   11.940    4.5814
   11.955    4.8552
   11.970    5.1290
   11.985    4.9078
   12.000    4.8973
   12.015    4.6551
   12.030    5.0026
   12.045    4.8131
   12.060    5.0132
   12.075    4.6867
   12.090    4.5498
   12.105    4.9605
   12.120    4.6024
   12.135    4.8341
   12.150    4.6235
   12.165    4.6445
   12.180    4.5919
   12.195    4.7920
   12.210    4.8763
   12.225    4.8447
   12.240    4.9921
   12.255    4.4550
   12.270    4.8973
   12.285    5.0026
   12.300    4.8973
   12.315    4.2338
   12.330    4.6445
   12.345    4.7604
   12.360    4.4339
   12.375    4.4234
   12.390    4.4655
   12.405    4.5392
   12.420    4.4760
   12.435    4.6130
   12.450    4.5392
   12.465    4.5182
   12.480    4.6972
   12.495    4.7499
   12.510    4.6340
   12.525    4.6235
   12.540    4.8447
   12.555    4.6867
   12.570    4.6867
   12.585    4.5603
   12.600    4.5603
   12.615    4.3286
   12.630    4.5708
   12.645    4.8131
   12.660    4.6972
   12.675    4.7499
   12.690    4.3286
   12.705    4.6972
   12.720    4.6656
   12.735    5.0026
   12.750    4.3813
   12.765    4.2970
   12.780    4.3707
   12.795    4.7077
   12.810    4.6235
   12.825    4.6551
   12.840    4.6235
   12.855    4.5919
   12.870    4.6235
   12.885    4.9500
   12.900    4.4760
   12.915    4.7920
   12.930    4.8025
   12.945    4.6024
   12.960    4.6235
   12.975    4.7709
   12.990    4.6445
   13.005    4.5919
   13.020    4.5708
   13.035    4.6761
   13.050    4.8657
   13.065    4.7709
   13.080    4.9605
   13.095    4.7183
   13.110    4.5498
   13.125    4.8868
   13.140    4.3391
   13.155    4.6972
   13.170    4.7815
   13.185    4.5076
   13.200    4.5814
   13.215    4.4128
   13.230    4.4655
   13.245    4.7604
   13.260    4.9921
   13.275    5.2133
   13.290    4.8025
   13.305    4.7815
   13.320    4.6761
   13.335    4.9500
   13.350    4.5603
   13.365    4.8341
   13.380    4.8447
   13.395    4.3286
   13.410    4.4866
   13.425    4.7604
   13.440    4.5182
   13.455    4.5182
   13.470    4.7288
   13.485    4.8341
   13.500    4.7709
   13.515    4.6972
   13.530    4.8025
   13.545    4.8552
   13.560    4.9605
   13.575    4.5498
   13.590    4.4023
   13.605    4.4444
   13.620    4.2759
   13.635    4.7709
   13.650    4.5498
   13.665    4.4023
   13.680    4.6445
   13.695    4.6761
   13.710    4.7920
   13.725    4.6130
   13.740    4.5603
   13.755    4.5919
   13.770    4.7499
   13.785    4.6867
   13.800    4.7815
   13.815    4.5287
   13.830    4.5919
   13.845    4.6445
   13.860    4.6656
   13.875    5.0132
   13.890    4.4760
   13.905    4.5392
   13.920    4.6024
   13.935    4.4550
   13.950    4.7604
   13.965    4.6656
   13.980    4.5708
   13.995    4.6024
   14.010    4.6551
   14.025    4.6340
   14.040    4.4023
   14.055    4.7183
   14.070    4.7288
   14.085    4.5287
   14.100    4.6972
   14.115    4.8657
   14.130    4.6024
   14.145    4.6551
   14.160    4.8236
   14.175    4.7499
   14.190    4.4339
   14.205    4.5708
   14.220    4.8552
   14.235    4.3813
   14.250    4.5708
   14.265    4.8236
   14.280    4.8131
   14.295    4.5814
   14.310    4.3707
   14.325    4.4339
   14.340    4.4971
   14.355    4.6445
   14.370    4.5287
   14.385    4.4234
   14.400    4.5919
   14.415    5.0342
   14.430    4.6551
   14.445    4.8447
   14.460    4.5919
   14.475    4.4234
   14.490    4.7709
   14.505    4.5182
   14.520    4.4655
   14.535    4.7604
   14.550    4.8025
   14.565    4.4971
   14.580    4.7604
   14.595    4.7393
   14.610    4.7499
   14.625    4.7393
   14.640    4.6340
   14.655    4.5287
   14.670    4.6130
   14.685    4.6972
   14.700    4.5708
   14.715    4.5392
   14.730    4.6235
   14.745    4.8131
   14.760    4.5708
   14.775    4.8341
   14.790    4.6551
   14.805    4.5814
   14.820    4.4444
   14.835    4.3918
   14.850    4.7288
   14.865    4.5919
   14.880    4.5708
   14.895    4.3707
   14.910    4.5392
   14.925    4.8025
   14.940    4.5392
   14.955    4.8868
   14.970    4.7920
   14.985    4.4023
   15.000    4.4339
   15.015    4.6130
   15.030    4.7709
   15.045    4.6445
   15.060    4.7077
   15.075    4.9921
   15.090    4.5814
   15.105    4.4866
   15.120    4.2759
   15.135    4.5076
   15.150    4.7920
   15.165    4.5287
   15.180    4.8973
   15.195    4.8552
   15.210    4.4655
   15.225    4.5076
   15.240    4.4971
   15.255    5.0869
   15.270    4.9921
   15.285    4.9289
   15.300    4.3918
   15.315    4.3497
   15.330    4.7077
   15.345    4.3075
   15.360    4.5498
   15.375    4.6656
   15.390    4.4760
   15.405    4.9605
   15.420    4.6445
   15.435    4.3286
   15.450    4.4760
   15.465    4.6551
   15.480    4.6656
   15.495    4.1390
   15.510    4.7604
   15.525    4.8131
   15.540    4.6761
   15.555    4.7499
   15.570    4.5498
   15.585    4.5603
   15.600    4.8763
   15.615    4.9184
   15.630    4.8447
   15.645    4.6024
   15.660    4.4550
   15.675    4.5603
   15.690    4.8025
   15.705    4.6340
   15.720    4.4655
   15.735    4.3286
   15.750    4.4234
   15.765    4.6024
   15.780    4.6761
   15.795    4.7288
   15.810    4.7288
   15.825    4.7709
   15.840    4.7393
   15.855    4.6130
   15.870    4.7920
   15.885    4.7709
   15.900    4.6340
   15.915    4.7393
   15.930    4.5498
   15.945    4.6340
   15.960    4.8868
   15.975    4.6761
   15.990    4.7288
   16.005    4.6551
   16.020    4.8552
   16.035    4.6235
   16.050    4.7815
   16.065    4.7393
   16.080    4.5603
   16.095    4.8552
   16.110    4.9921
   16.125    4.6972
   16.140    4.5919
   16.155    4.5919
   16.170    4.7499
   16.185    4.7499
   16.200    4.7183
   16.215    4.8868
   16.230    4.8973
   16.245    4.6551
   16.260    4.7604
   16.275    4.6656
   16.290    4.6445
   16.305    4.6340
   16.320    4.6867
   16.335    4.8236
   16.350    4.9605
   16.365    5.0764
   16.380    4.5708
   16.395    4.7393
   16.410    4.6867
   16.425    4.6445
   16.440    4.5814
   16.455    4.3918
   16.470    4.4550
   16.485    4.5919
   16.500    4.7288
   16.515    4.6130
   16.530    4.7077
   16.545    4.7815
   16.560    4.6656
   16.575    4.5392
   16.590    4.6340
   16.605    4.8236
   16.620    4.7709
   16.635    4.6024
   16.650    4.6024
   16.665    4.7183
   16.680    4.6761
   16.695    4.6235
   16.710    4.8025
   16.725    4.7604
   16.740    4.8763
   16.755    4.3602
   16.770    4.2654
   16.785    4.7604
   16.800    4.6340
   16.815    4.8763
   16.830    4.8236
   16.845    4.6972
   16.860    4.7604
   16.875    4.4339
   16.890    4.5287
   16.905    4.6761
   16.920    4.5603
   16.935    4.2970
   16.950    4.3181
   16.965    4.8868
   16.980    5.0658
   16.995    4.7393
   17.010    4.8552
   17.025    4.9710
   17.040    4.7709
   17.055    5.0132
   17.070    4.6972
   17.085    4.7288
   17.100    4.6656
   17.115    4.9500
   17.130    4.6445
   17.145    4.5919
   17.160    4.8131
   17.175    4.7499
   17.190    4.6445
   17.205    4.3181
   17.220    4.6445
   17.235    4.5498
   17.250    4.6024
   17.265    4.6340
   17.280    4.3918
   17.295    4.6551
   17.310    4.6024
   17.325    4.5498
   17.340    4.5392
   17.355    4.8025
   17.370    5.0869
   17.385    4.7288
   17.400    4.6656
   17.415    4.7077
   17.430    4.8447
   17.445    4.8552
   17.460    4.9605
   17.475    4.7709
   17.490    4.9605
   17.505    4.5287
   17.520    4.7288
   17.535    4.8341
   17.550    4.5708
   17.565    4.8236
   17.580    4.8131
   17.595    4.6761
   17.610    4.7393
   17.625    4.8763
   17.640    4.7183
   17.655    4.3602
   17.670    4.8447
   17.685    4.7499
   17.700    5.1606
   17.715    4.8973
   17.730    4.5498
   17.745    5.1080
   17.760    4.8552
   17.775    4.8341
   17.790    4.8868
   17.805    4.7709
   17.820    5.0764
   17.835    4.9605
   17.850    5.0448
   17.865    5.0553
   17.880    4.9605
   17.895    5.0764
   17.910    4.8131
   17.925    4.9184
   17.940    5.1185
   17.955    5.4028
   17.970    5.1080
   17.985    5.0237
   18.000    4.7393
   18.015    5.1606
   18.030    4.8552
   18.045    5.0026
   18.060    4.8341
   18.075    4.6024
   18.090    4.8657
   18.105    5.2765
   18.120    4.9184
   18.135    4.9289
   18.150    4.7393
   18.165    4.8236
   18.180    5.2238
   18.195    5.3186
   18.210    5.2554
   18.225    5.0026
   18.240    4.5498
   18.255    4.6024
   18.270    4.8868
   18.285    4.8236
   18.300    4.7815
   18.315    4.8447
   18.330    4.9078
   18.345    4.6235
   18.360    4.5076
   18.375    4.8131
   18.390    4.7183
   18.405    4.7499
   18.420    4.6235
   18.435    4.8341
   18.450    5.1395
   18.465    4.8341
   18.480    4.7499
   18.495    4.7499
   18.510    4.8025
   18.525    4.8552
   18.540    4.9078
   18.555    4.8341
   18.570    5.0448
   18.585    4.7709
   18.600    4.8657
   18.615    4.8973
   18.630    4.5182
   18.645    4.9184
   18.660    4.5919
   18.675    4.6235
   18.690    4.7709
   18.705    4.6024
   18.720    4.9605
   18.735    5.1606
   18.750    4.9078
   18.765    4.8131
   18.780    4.8868
   18.795    4.9816
   18.810    4.9184
   18.825    4.9500
   18.840    4.8447
   18.855    5.1290
   18.870    4.5919
   18.885    4.5708
   18.900    4.4971
   18.915    4.9394
   18.930    5.1817
   18.945    5.2133
   18.960    5.4239
   18.975    5.5503
   18.990    5.3712
   19.005    5.0553
   19.020    4.9500
   19.035    4.9500
   19.050    5.4239
   19.065    5.0764
   19.080    5.2343
   19.095    4.8552
   19.110    4.5392
   19.125    4.7815
   19.140    4.6972
   19.155    4.3707
   19.170    4.5814
   19.185    4.5287
   19.200    4.5603
   19.215    5.0237
   19.230    5.0974
   19.245    4.6024
   19.260    4.7815
   19.275    5.0553
   19.290    4.8763
   19.305    4.7393
   19.320    4.8552
   19.335    4.7815
   19.350    4.6867
   19.365    4.9605
   19.380    5.0132
   19.395    5.0237
   19.410    5.0869
   19.425    5.0764
   19.440    4.6656
   19.455    4.9710
   19.470    4.8131
   19.485    4.9394
   19.500    4.9078
   19.515    5.0132
   19.530    4.8025
   19.545    4.8763
   19.560    5.2343
   19.575    5.0342
   19.590    5.1395
   19.605    4.9710
   19.620    4.8868
   19.635    5.0553
   19.650    5.1395
   19.665    4.8131
   19.680    5.0026
   19.695    5.0132
   19.710    4.7709
   19.725    5.0553
   19.740    5.1185
   19.755    4.8973
   19.770    5.4028
   19.785    4.8657
   19.800    4.6024
   19.815    4.6761
   19.830    4.7077
   19.845    4.7604
   19.860    4.7920
   19.875    5.0553
   19.890    4.4655
   19.905    4.9394
   19.920    4.9500
   19.935    4.8868
   19.950    5.0237
   19.965    4.8341
   19.980    4.7604
   19.995    4.8868
   20.010    4.8025
   20.025    4.9078
   20.040    4.7815
   20.055    4.9605
   20.070    4.7604
   20.085    4.4866
   20.100    4.7604
   20.115    4.6340
   20.130    4.7709
   20.145    5.0237
   20.160    4.9921
   20.175    4.9289
   20.190    5.0764
   20.205    4.7709
   20.220    4.5392
   20.235    4.4550
   20.250    5.0448
   20.265    5.2765
   20.280    4.8973
   20.295    4.8025
   20.310    4.8552
   20.325    4.8131
   20.340    4.8341
   20.355    4.9289
   20.370    5.0132
   20.385    4.6340
   20.400    5.1395
   20.415    4.8341
   20.430    4.8341
   20.445    4.8447
   20.460    4.9289
   20.475    5.0764
   20.490    4.9394
   20.505    4.5392
   20.520    4.8236
   20.535    4.8341
   20.550    4.9605
   20.565    5.1290
   20.580    5.0237
   20.595    5.0658
   20.610    4.6130
   20.625    4.9605
   20.640    4.5603
   20.655    4.8447
   20.670    4.7393
   20.685    4.7815
   20.700    4.9500
   20.715    4.9289
   20.730    4.7183
   20.745    5.0237
   20.760    4.8131
   20.775    4.4234
   20.790    4.8973
   20.805    4.9184
   20.820    4.8868
   20.835    4.8973
   20.850    4.7920
   20.865    4.6761
   20.880    4.9289
   20.895    4.9500
   20.910    4.7499
   20.925    4.9710
   20.940    4.8868
   20.955    5.1817
   20.970    4.9605
   20.985    5.1185
   21.000    5.0237
   21.015    4.5814
   21.030    4.4760
   21.045    4.9921
   21.060    4.8131
   21.075    4.9605
   21.090    4.9605
   21.105    4.7920
   21.120    4.6445
   21.135    5.0553
   21.150    4.6340
   21.165    4.8973
   21.180    4.6024
   21.195    5.0764
   21.210    5.2343
   21.225    4.7288
   21.240    5.0026
   21.255    5.3186
   21.270    4.6656
   21.285    4.9921
   21.300    5.1290
   21.315    4.8657
   21.330    4.7709
   21.345    4.8447
   21.360    4.7920
   21.375    5.0342
   21.390    4.8868
   21.405    4.7604
   21.420    4.6656
   21.435    5.1185
   21.450    5.0974
   21.465    4.9921
   21.480    5.1711
   21.495    5.0974
   21.510    5.3081
   21.525    5.0658
   21.540    4.9605
   21.555    4.8341
   21.570    4.5814
   21.585    4.7499
   21.600    4.8236
   21.615    4.6656
   21.630    5.0342
   21.645    4.8236
   21.660    4.7709
   21.675    4.5919
   21.690    4.9921
   21.705    5.0342
   21.720    4.9500
   21.735    4.8657
   21.750    4.8973
   21.765    4.7604
   21.780    4.7393
   21.795    4.5708
   21.810    4.9289
   21.825    4.8025
   21.840    4.9605
   21.855    5.1922
   21.870    4.8552
   21.885    4.8341
   21.900    5.0658
   21.915    4.8447
   21.930    5.0974
   21.945    5.1185
   21.960    5.2238
   21.975    4.9289
   21.990    4.9394
   22.005    4.9710
   22.020    4.9078
   22.035    5.1501
   22.050    4.5182
   22.065    4.8657
   22.080    4.5708
   22.095    4.6024
   22.110    4.5708
   22.125    4.8025
   22.140    4.9394
   22.155    5.0342
   22.170    5.1606
   22.185    5.0448
   22.200    4.9500
   22.215    4.9078
   22.230    4.9289
   22.245    4.6972
   22.260    4.9184
   22.275    4.9710
   22.290    5.3397
   22.305    5.2765
   22.320    5.0448
   22.335    4.7393
   22.350    4.9289
   22.365    5.0553
   22.380    5.1501
   22.395    5.3818
   22.410    5.1185
   22.425    4.8131
   22.440    4.9184
   22.455    5.1922
   22.470    4.8657
   22.485    5.2133
   22.500    5.1501
   22.515    4.7393
   22.530    4.7920
   22.545    4.8341
   22.560    4.8552
   22.575    5.0553
   22.590    5.2238
   22.605    5.0448
   22.620    5.1080
   22.635    4.8973
   22.650    4.5287
   22.665    4.8131
   22.680    4.8868
   22.695    4.5919
   22.710    4.9184
   22.725    4.7499
   22.740    4.9605
   22.755    4.8341
   22.770    4.8868
   22.785    4.9078
   22.800    5.1501
   22.815    5.0974
   22.830    4.7077
   22.845    4.9710
   22.860    4.9184
   22.875    4.8025
   22.890    5.0448
   22.905    4.9078
   22.920    5.0237
   22.935    5.2870
   22.950    4.6551
   22.965    4.8552
   22.980    4.6972
   22.995    4.8657
   23.010    4.8236
   23.025    5.1606
   23.040    5.1395
   23.055    5.2133
   23.070    4.8341
   23.085    4.6024
   23.100    5.0658
   23.115    5.0869
   23.130    5.0869
   23.145    5.1080
   23.160    4.6024
   23.175    5.1922
   23.190    5.2133
   23.205    5.2449
   23.220    4.9921
   23.235    4.6235
   23.250    4.8341
   23.265    4.9184
   23.280    4.6761
   23.295    4.7604
   23.310    4.8973
   23.325    4.6656
   23.340    4.8236
   23.355    5.4344
   23.370    5.1395
   23.385    5.1395
   23.400    5.0132
   23.415    4.7077
   23.430    4.5392
   23.445    4.7077
   23.460    4.9078
   23.475    4.9921
   23.490    5.2343
   23.505    4.7393
   23.520    5.1606
   23.535    5.1606
   23.550    4.8868
   23.565    4.7815
   23.580    4.8763
   23.595    4.5498
   23.610    5.1711
   23.625    4.7499
   23.640    4.4866
   23.655    4.7393
   23.670    4.8025
   23.685    5.0658
   23.700    4.8973
   23.715    4.8131
   23.730    4.6551
   23.745    4.9500
   23.760    4.6340
   23.775    4.6972
   23.790    4.8868
   23.805    5.2449
   23.820    5.0658
   23.835    4.6235
   23.850    4.8236
   23.865    4.7077
   23.880    4.8973
   23.895    4.9816
   23.910    4.6551
   23.925    4.8236
   23.940    5.1185
   23.955    5.0237
   23.970    5.0132
   23.985    4.7077
   24.000    4.8236
   24.015    4.7288
   24.030    4.7288
   24.045    4.7709
   24.060    4.8868
   24.075    4.7288
   24.090    4.9500
   24.105    4.8236
   24.120    4.9500
   24.135    4.7709
   24.150    4.5814
   24.165    4.7920
   24.180    4.8552
   24.195    4.8236
   24.210    4.9500
   24.225    4.8447
   24.240    4.5708
   24.255    4.5603
   24.270    5.0658
   24.285    4.6656
   24.300    4.6445
   24.315    4.5603
   24.330    4.4971
   24.345    4.6761
   24.360    4.6235
   24.375    4.6867
   24.390    4.7815
   24.405    4.5814
   24.420    4.8447
   24.435    4.8868
   24.450    4.4971
   24.465    4.9289
   24.480    5.2765
   24.495    4.6867
   24.510    4.5708
   24.525    4.6340
   24.540    4.3602
   24.555    4.5814
   24.570    4.8763
   24.585    4.5919
   24.600    4.1180
   24.615    4.4023
   24.630    4.8236
   24.645    4.7815
   24.660    4.9394
   24.675    4.7077
   24.690    5.0026
   24.705    4.6340
   24.720    4.5708
   24.735    4.9184
   24.750    4.8025
   24.765    4.7604
   24.780    4.6235
   24.795    4.3707
   24.810    4.6656
   24.825    4.7183
   24.840    4.5498
   24.855    4.9605
   24.870    4.9078
   24.885    4.8236
   24.900    4.7393
   24.915    4.6024
   24.930    4.7077
   24.945    4.4234
   24.960    4.5919
   24.975    4.6235
   24.990    4.6656
   25.005    4.7815
   25.020    4.8657
   25.035    4.5919
   25.050    4.5076
   25.065    4.7288
   25.080    4.6972
   25.095    4.6235
   25.110    4.5076
   25.125    4.7499
   25.140    4.6340
   25.155    4.9816
   25.170    4.8552
   25.185    4.6656
   25.200    4.6551
   25.215    4.5708
   25.230    4.6551
   25.245    4.6656
   25.260    4.3602
   25.275    4.5498
   25.290    4.6551
   25.305    4.8236
   25.320    4.9605
   25.335    4.9710
   25.350    4.6445
   25.365    4.7604
   25.380    4.7499
   25.395    4.2970
   25.410    4.4444
   25.425    4.6445
   25.440    4.6761
   25.455    4.6972
   25.470    4.5392
   25.485    4.7604
   25.500    4.5919
   25.515    4.7183
   25.530    4.6340
   25.545    4.4234
   25.560    4.7815
   25.575    4.4866
   25.590    4.2233
   25.605    4.3286
   25.620    4.2338
   25.635    4.8131
   25.650    5.1080
   25.665    4.4234
   25.680    4.7288
   25.695    4.7183
   25.710    4.8763
   25.725    4.8552
   25.740    4.6445
   25.755    4.6867
   25.770    4.4760
   25.785    4.5392
   25.800    4.5076
   25.815    4.8552
   25.830    4.2865
   25.845    4.4550
   25.860    4.7183
   25.875    4.4444
   25.890    4.6130
   25.905    4.3918
   25.920    4.3391
   25.935    4.6867
   25.950    4.3286
   25.965    4.6445
   25.980    4.3181
   25.995    4.4655
   26.010    4.7393
   26.025    4.6972
   26.040    4.4444
   26.055    4.5814
   26.070    4.5919
   26.085    4.5287
   26.100    4.7288
   26.115    4.5182
   26.130    4.6551
   26.145    4.5076
   26.160    4.4971
   26.175    4.5182
   26.190    4.2549
   26.205    4.6024
   26.220    4.5392
   26.235    4.2549
   26.250    4.3391
   26.265    4.2233
   26.280    4.5182
   26.295    4.4971
   26.310    4.2549
   26.325    4.5392
   26.340    4.2233
   26.355    4.5708
   26.370    4.4760
   26.385    4.2759
   26.400    4.6761
   26.415    4.2127
   26.430    4.1496
   26.445    4.8552
   26.460    4.6972
   26.475    4.4339
   26.490    4.5287
   26.505    4.6867
   26.520    4.5603
   26.535    4.2549
   26.550    4.7499
   26.565    4.7393
   26.580    4.7288
   26.595    4.6551
   26.610    4.5498
   26.625    4.4339
   26.640    4.3181
   26.655    4.3286
   26.670    4.6867
   26.685    4.4760
   26.700    4.4655
   26.715    4.5076
   26.730    4.8236
   26.745    4.4550
   26.760    4.2127
   26.775    4.6024
   26.790    4.5814
   26.805    4.5708
   26.820    4.5498
   26.835    4.4444
   26.850    4.2865
   26.865    4.7183
   26.880    4.6972
   26.895    4.4971
   26.910    4.6340
   26.925    4.3813
   26.940    4.3286
   26.955    4.5919
   26.970    4.4760
   26.985    4.2022
   27.000    4.6130
   27.015    4.3707
   27.030    4.2443
   27.045    4.7077
   27.060    4.5919
   27.075    4.6445
   27.090    4.3391
   27.105    4.4444
   27.120    4.4128
   27.135    4.3075
   27.150    4.2654
   27.165    4.5498
   27.180    4.3286
   27.195    4.1917
   27.210    4.3707
   27.225    4.5287
   27.240    4.4444
   27.255    4.7288
   27.270    4.5919
   27.285    4.6867
   27.300    4.6130
   27.315    4.1496
   27.330    4.2654
   27.345    4.5182
   27.360    4.3707
   27.375    4.3497
   27.390    4.2549
   27.405    4.5603
   27.420    4.4550
   27.435    4.2865
   27.450    4.2865
   27.465    4.2127
   27.480    4.2759
   27.495    4.2233
   27.510    4.3707
   27.525    4.3813
   27.540    4.4128
   27.555    4.6340
   27.570    4.4339
   27.585    4.2338
   27.600    4.6340
   27.615    4.6340
   27.630    4.2654
   27.645    4.5182
   27.660    4.4655
   27.675    4.1285
   27.690    4.3602
   27.705    4.4550
   27.720    4.3075
   27.735    4.2549
   27.750    4.0232
   27.765    4.4655
   27.780    4.6656
   27.795    4.6235
   27.810    4.3497
   27.825    4.4444
   27.840    4.1601
   27.855    4.5498
   27.870    4.5498
   27.885    4.1390
   27.900    4.3075
   27.915    4.7077
   27.930    4.6340
   27.945    4.4444
   27.960    4.7499
   27.975    4.5182
   27.990    4.5182
   28.005    4.4128
   28.020    4.2443
   28.035    4.2549
   28.050    4.4128
   28.065    4.6761
   28.080    4.5708
   28.095    4.2654
   28.110    4.4339
   28.125    4.4234
   28.140    4.2759
   28.155    4.5287
   28.170    4.3497
   28.185    4.2759
   28.200    4.3813
   28.215    4.5076
   28.230    4.3391
   28.245    4.4234
   28.260    4.5498
   28.275    4.2759
   28.290    4.0548
   28.305    4.2759
   28.320    4.4550
   28.335    4.2549
   28.350    4.3286
   28.365    4.2233
   28.380    4.4760
   28.395    4.4655
   28.410    4.6130
   28.425    4.5076
   28.440    3.9073
   28.455    4.0021
   28.470    4.0758
   28.485    4.3286
   28.500    4.2759
   28.515    4.2549
   28.530    4.3391
   28.545    4.0653
   28.560    4.2127
   28.575    4.1285
   28.590    4.3813
   28.605    4.3391
   28.620    4.3497
   28.635    4.4550
   28.650    4.0232
   28.665    3.9389
   28.680    4.0548
   28.695    4.5708
   28.710    4.3391
   28.725    4.2654
   28.740    4.3181
   28.755    4.0969
   28.770    4.0548
   28.785    4.0758
   28.800    4.3497
   28.815    4.3602
   28.830    4.2970
   28.845    4.1601
   28.860    4.5919
   28.875    4.5287
   28.890    4.5603
   28.905    4.3813
   28.920    4.4550
   28.935    4.5603
   28.950    4.4444
   28.965    4.4234
   28.980    4.7499
   28.995    4.5182
   29.010    4.2865
   29.025    4.5392
   29.040    4.3813
   29.055    4.0653
   29.070    3.8863
   29.085    4.2022
   29.100    4.2443
   29.115    4.2127
   29.130    4.0864
   29.145    4.0969
   29.160    3.8968
   29.175    4.0442
   29.190    3.9389
   29.205    4.0337
   29.220    4.1390
   29.235    4.1601
   29.250    4.2865
   29.265    4.2549
   29.280    4.5076
   29.295    4.0969
   29.310    4.0758
   29.325    4.2443
   29.340    4.3918
   29.355    4.5498
   29.370    4.1180
   29.385    3.8020
   29.400    3.8968
   29.415    4.0758
   29.430    4.1706
   29.445    4.0653
   29.460    4.1180
   29.475    4.2338
   29.490    4.5603
   29.505    4.2338
   29.520    4.1917
   29.535    4.0969
   29.550    3.9916
   29.565    3.8757
   29.580    4.2022
   29.595    4.0442
   29.610    4.2549
   29.625    4.1180
   29.640    3.9600
   29.655    4.3286
   29.670    4.1811
   29.685    3.9389
   29.700    3.8441
   29.715    3.7283
   29.730    4.0126
   29.745    4.0969
   29.760    4.0442
   29.775    4.0021
   29.790    3.7915
   29.805    4.0758
   29.820    3.7599
   29.835    4.1285
   29.850    4.1180
   29.865    4.3075
   29.880    4.1917
   29.895    4.2022
   29.910    4.1180
   29.925    4.2443
   29.940    4.0969
   29.955    4.0653
   29.970    3.9810
   29.985    4.0969
   30.000    4.0126
   30.015    3.8336
   30.030    4.0969
   30.045    4.1496
   30.060    4.0864
   30.075    4.1285
   30.090    4.1074
   30.105    4.0337
   30.120    3.9810
   30.135    3.9810
   30.150    4.0442
   30.165    4.0758
   30.180    4.2127
   30.195    4.0126
   30.210    4.0232
   30.225    4.2970
   30.240    4.0548
   30.255    3.7915
   30.270    3.9810
   30.285    3.9600
   30.300    3.9494
   30.315    3.9705
   30.330    3.9705
   30.345    3.7493
   30.360    4.2233
   30.375    4.2443
   30.390    3.8336
   30.405    4.0021
   30.420    4.0758
   30.435    4.1917
   30.450    4.0232
   30.465    4.2549
   30.480    4.0653
   30.495    4.1496
   30.510    4.0864
   30.525    4.0864
   30.540    3.6967
   30.555    3.9179
   30.570    4.0337
   30.585    3.9810
   30.600    3.8547
   30.615    3.8231
   30.630    4.1811
   30.645    3.9494
   30.660    4.0232
   30.675    4.2338
   30.690    3.9810
   30.705    3.4966
   30.720    3.8020
   30.735    3.9600
   30.750    3.9600
   30.765    4.0864
   30.780    4.0021
   30.795    3.5492
   30.810    4.1074
   30.825    3.8652
   30.840    3.7177
   30.855    4.2443
   30.870    4.1180
   30.885    4.0969
   30.900    3.9179
   30.915    3.9073
   30.930    4.0758
   30.945    4.0758
   30.960    3.9705
   30.975    3.8968
   30.990    3.6862
   31.005    3.9916
   31.020    3.9073
   31.035    3.8125
   31.050    3.8863
   31.065    4.0758
   31.080    4.0653
   31.095    3.6967
   31.110    3.8968
   31.125    3.9073
   31.140    3.9389
   31.155    3.9916
   31.170    4.2233
   31.185    4.0021
   31.200    3.9073
   31.215    4.2233
   31.230    4.2970
   31.245    4.0442
   31.260    3.9600
   31.275    3.8336
   31.290    3.8757
   31.305    3.7915
   31.320    4.1811
   31.335    3.7915
   31.350    3.8968
   31.365    3.8020
   31.380    3.9389
   31.395    3.8757
   31.410    3.7599
   31.425    4.0653
   31.440    3.9389
   31.455    3.9284
   31.470    4.0864
   31.485    4.1074
   31.500    4.1811
   31.515    3.9179
   31.530    3.6862
   31.545    3.8652
   31.560    4.0337
   31.575    3.9389
   31.590    3.9389
   31.605    3.8652
   31.620    3.6335
   31.635    3.7809
   31.650    3.6440
   31.665    3.7704
   31.680    3.9916
   31.695    3.6546
   31.710    3.8441
   31.725    3.7809
   31.740    3.9179
   31.755    4.2443
   31.770    4.1496
   31.785    3.9810
   31.800    4.2549
   31.815    3.8231
   31.830    3.9494
   31.845    3.8231
   31.860    3.8863
   31.875    3.8441
   31.890    3.5808
   31.905    3.8757
   31.920    3.8441
   31.935    3.6335
   31.950    3.7493
   31.965    3.7388
   31.980    4.2338
   31.995    4.1706
   32.010    4.1285
   32.025    3.8652
   32.040    3.9284
   32.055    4.3286
   32.070    4.2549
   32.085    4.5392
   32.100    4.3707
   32.115    4.3918
   32.130    4.2970
   32.145    4.2759
   32.160    4.2233
   32.175    4.5392
   32.190    3.9494
   32.205    3.9916
   32.220    3.9284
   32.235    3.8968
   32.250    3.5176
   32.265    3.6756
   32.280    3.5703
   32.295    3.6230
   32.310    3.4123
   32.325    3.5808
   32.340    3.7283
   32.355    3.8757
   32.370    3.5387
   32.385    3.3807
   32.400    3.5282
   32.415    4.0337
   32.430    3.5914
   32.445    3.6019
   32.460    3.6019
   32.475    3.4966
   32.490    3.7599
   32.505    3.5492
   32.520    3.4860
   32.535    3.9284
   32.550    3.6651
   32.565    3.6862
   32.580    3.6651
   32.595    3.8547
   32.610    3.9284
   32.625    3.6230
   32.640    3.7072
   32.655    3.5492
   32.670    3.8547
   32.685    3.5492
   32.700    3.4439
   32.715    3.4966
   32.730    3.6546
   32.745    3.6440
   32.760    3.7915
   32.775    3.9916
   32.790    3.7072
   32.805    3.3386
   32.820    3.6967
   32.835    3.8652
   32.850    3.6546
   32.865    3.4123
   32.880    3.5703
   32.895    3.6967
   32.910    3.8968
   32.925    3.7283
   32.940    3.6651
   32.955    3.4439
   32.970    3.5492
   32.985    3.6440
   33.000    3.4123
   33.015    3.5176
   33.030    3.8336
   33.045    3.9389
   33.060    3.6546
   33.075    3.5071
   33.090    3.9494
   33.105    3.7283
   33.120    3.4439
   33.135    3.6651
   33.150    3.9494
   33.165    3.8020
   33.180    3.6230
   33.195    3.5282
   33.210    3.3597
   33.225    3.6440
   33.240    3.5071
   33.255    3.3807
   33.270    3.4544
   33.285    3.8125
   33.300    3.8968
   33.315    3.6335
   33.330    3.4755
   33.345    3.4650
   33.360    3.3913
   33.375    3.5071
   33.390    3.4229
   33.405    3.6440
   33.420    3.4018
   33.435    3.5282
   33.450    3.6124
   33.465    3.5914
   33.480    3.6019
   33.495    3.7072
   33.510    3.6440
   33.525    3.4650
   33.540    3.5598
   33.555    3.7177
   33.570    3.5282
   33.585    3.7915
   33.600    3.6019
   33.615    3.4229
   33.630    3.5071
   33.645    3.4966
   33.660    3.6546
   33.675    3.6862
   33.690    3.4966
   33.705    3.6335
   33.720    3.7072
   33.735    3.6862
   33.750    3.6335
   33.765    3.8336
   33.780    3.6967
   33.795    3.5282
   33.810    3.7704
   33.825    4.0969
   33.840    3.8125
   33.855    3.3702
   33.870    3.4860
   33.885    3.7493
   33.900    3.9284
   33.915    3.6862
   33.930    3.5598
   33.945    3.2017
   33.960    3.5387
   33.975    3.7283
   33.990    3.7599
   34.005    3.4439
   34.020    3.4334
   34.035    3.2649
   34.050    3.2017
   34.065    3.5387
   34.080    3.3386
   34.095    3.5703
   34.110    3.5282
   34.125    3.4860
   34.140    3.5492
   34.155    3.4860
   34.170    3.3807
   34.185    3.4544
   34.200    3.4755
   34.215    3.3702
   34.230    3.6019
   34.245    3.3491
   34.260    3.1596
   34.275    3.4860
   34.290    3.3913
   34.305    3.4439
   34.320    3.5387
   34.335    3.4123
   34.350    3.4123
   34.365    3.2649
   34.380    3.3702
   34.395    3.4018
   34.410    3.5492
   34.425    3.5492
   34.440    3.2122
   34.455    3.2649
   34.470    3.2017
   34.485    3.2017
   34.500    3.5492
   34.515    3.4860
   34.530    3.6967
   34.545    3.2438
   34.560    3.6124
   34.575    3.7493
   34.590    3.2965
   34.605    3.4334
   34.620    3.3913
   34.635    3.4123
   34.650    3.6019
   34.665    3.3702
   34.680    3.3913
   34.695    3.5176
   34.710    3.3070
   34.725    3.4544
   34.740    3.4439
   34.755    3.2017
   34.770    3.1912
   34.785    3.3175
   34.800    3.7177
   34.815    3.4650
   34.830    3.5492
   34.845    3.2859
   34.860    3.5598
   34.875    3.4229
   34.890    3.2859
   34.905    3.4334
   34.920    3.2333
   34.935    3.2017
   34.950    3.3281
   34.965    3.3491
   34.980    3.2754
   34.995    3.2543
   35.010    3.3913
   35.025    3.3913
   35.040    3.4123
   35.055    3.0121
   35.070    3.4544
   35.085    3.2017
   35.100    3.0858
   35.115    3.4439
   35.130    3.4966
   35.145    3.4966
   35.160    3.5914
   35.175    3.5282
   35.190    3.6230
   35.205    3.5176
   35.220    2.9805
   35.235    3.1385
   35.250    3.2438
   35.265    3.2649
   35.280    3.1701
   35.295    3.4123
   35.310    3.3386
   35.325    3.2543
   35.340    3.3702
   35.355    3.3913
   35.370    3.3070
   35.385    3.5282
   35.400    3.2859
   35.415    3.3807
   35.430    3.5176
   35.445    3.4860
   35.460    3.2965
   35.475    3.2438
   35.490    3.2859
   35.505    3.3491
   35.520    3.2227
   35.535    3.1490
   35.550    3.3281
   35.565    3.7072
   35.580    3.5282
   35.595    3.0858
   35.610    3.2017
   35.625    3.1912
   35.640    3.2122
   35.655    3.4439
   35.670    3.6546
   35.685    3.4018
   35.700    3.1806
   35.715    3.3597
   35.730    3.3175
   35.745    3.3070
   35.760    3.3702
   35.775    3.2017
   35.790    3.2017
   35.805    2.9173
   35.820    3.3913
   35.835    3.2227
   35.850    3.2543
   35.865    3.4755
   35.880    3.4755
   35.895    3.3807
   35.910    3.0858
   35.925    3.3070
   35.940    3.3597
   35.955    3.2754
   35.970    3.4018
   35.985    3.4966
   36.000    3.2017
   36.015    3.4229
   36.030    3.3597
   36.045    3.3281
   36.060    3.1701
   36.075    3.2859
   36.090    3.2227
   36.105    3.0226
   36.120    3.2438
   36.135    3.4123
   36.150    3.2649
   36.165    2.9068
   36.180    3.2649
   36.195    3.3281
   36.210    3.2859
   36.225    3.3175
   36.240    3.0858
   36.255    3.1069
   36.270    3.3070
   36.285    3.2227
   36.300    3.3070
   36.315    3.3807
   36.330    3.3491
   36.345    3.1174
   36.360    3.3175
   36.375    3.2649
   36.390    3.2965
   36.405    3.0648
   36.420    3.0753
   36.435    3.3070
   36.450    3.4123
   36.465    2.9805
   36.480    2.9910
   36.495    3.0648
   36.510    3.2122
   36.525    3.2017
   36.540    3.0858
   36.555    3.1806
   36.570    3.4755
   36.585    3.1912
   36.600    2.9910
   36.615    3.1385
   36.630    3.1912
   36.645    3.2017
   36.660    3.1701
   36.675    3.0648
   36.690    3.1490
   36.705    3.0332
   36.720    3.0437
   36.735    3.1385
   36.750    3.2965
   36.765    3.0437
   36.780    3.1596
   36.795    3.0648
   36.810    3.2122
   36.825    3.0332
   36.840    3.0964
   36.855    3.3386
   36.870    3.3070
   36.885    3.2965
   36.900    3.4123
   36.915    3.4018
   36.930    3.2122
   36.945    3.3175
   36.960    3.4755
   36.975    3.1596
   36.990    3.0858
   37.005    3.3281
   37.020    3.3597
   37.035    3.2333
   37.050    3.1174
   37.065    3.1174
   37.080    3.3281
   37.095    3.2017
   37.110    3.3807
   37.125    3.4018
   37.140    3.2543
   37.155    3.1490
   37.170    3.2438
   37.185    3.1490
   37.200    3.2333
   37.215    3.0226
   37.230    3.1385
   37.245    3.3386
   37.260    3.1596
   37.275    3.2965
   37.290    3.3913
   37.305    2.9279
   37.320    3.2122
   37.335    3.1701
   37.350    3.3913
   37.365    3.0858
   37.380    3.0332
   37.395    3.0332
   37.410    3.2965
   37.425    3.0648
   37.440    3.3070
   37.455    3.2859
   37.470    3.4123
   37.485    3.2543
   37.500    3.4018
   37.515    3.2122
   37.530    3.1596
   37.545    3.1280
   37.560    3.1806
   37.575    3.0753
   37.590    3.1385
   37.605    3.2017
   37.620    3.3807
   37.635    3.1385
   37.650    3.2017
   37.665    3.1385
   37.680    3.2438
   37.695    3.1385
   37.710    3.1069
   37.725    3.1596
   37.740    3.1490
   37.755    3.2438
   37.770    3.2754
   37.785    3.1912
   37.800    3.1280
   37.815    3.4439
   37.830    2.8857
   37.845    3.0226
   37.860    3.0016
   37.875    3.1069
   37.890    3.3913
   37.905    3.0437
   37.920    2.9279
   37.935    2.9279
   37.950    3.2227
   37.965    3.3281
   37.980    3.2333
   37.995    3.4966
   38.010    3.1912
   38.025    3.1280
   38.040    2.9595
   38.055    2.9910
   38.070    3.0964
   38.085    3.1701
   38.100    3.3491
   38.115    2.9910
   38.130    2.9279
   38.145    2.9279
   38.160    2.8752
   38.175    3.0542
   38.190    3.1490
   38.205    3.1280
   38.220    3.0016
   38.235    3.0542
   38.250    2.9910
   38.265    2.8647
   38.280    3.0121
   38.295    3.3281
   38.310    3.1912
   38.325    3.0648
   38.340    3.0437
   38.355    2.8752
   38.370    3.0648
   38.385    3.1490
   38.400    3.2754
   38.415    3.0964
   38.430    3.1174
   38.445    3.2649
   38.460    3.1174
   38.475    3.3491
   38.490    3.2017
   38.505    3.3702
   38.520    3.2017
   38.535    3.3702
   38.550    3.1701
   38.565    3.0753
   38.580    3.1701
   38.595    2.9805
   38.610    3.1806
   38.625    3.4123
   38.640    3.2227
   38.655    3.3913
   38.670    3.1490
   38.685    3.0648
   38.700    2.8752
   38.715    3.2017
   38.730    3.2543
   38.745    3.1385
   38.760    3.2017
   38.775    3.2227
   38.790    3.3913
   38.805    2.9805
   38.820    3.0648
   38.835    3.4650
   38.850    3.2122
   38.865    3.1596
   38.880    2.8120
   38.895    2.9384
   38.910    3.2754
   38.925    3.0121
   38.940    3.0016
   38.955    2.8752
   38.970    3.2543
   38.985    3.1280
   39.000    3.1701
   39.015    3.1280
   39.030    3.2122
   39.045    2.9700
   39.060    3.1174
   39.075    3.0226
   39.090    3.2543
   39.105    3.0332
   39.120    3.0753
   39.135    3.1596
   39.150    2.9805
   39.165    2.8015
   39.180    2.9279
   39.195    2.9595
   39.210    3.0437
   39.225    2.9805
   39.240    3.1280
   39.255    3.0437
   39.270    3.0648
   39.285    3.0542
   39.300    3.0753
   39.315    3.3281
   39.330    3.0016
   39.345    2.8541
   39.360    3.0226
   39.375    3.2017
   39.390    3.4018
   39.405    3.2438
   39.420    3.4544
   39.435    3.3281
   39.450    3.2438
   39.465    3.2438
   39.480    3.4123
   39.495    3.2333
   39.510    3.0016
   39.525    2.9910
   39.540    3.2965
   39.555    3.0964
   39.570    3.0332
   39.585    3.3070
   39.600    2.8541
   39.615    2.8225
   39.630    3.0648
   39.645    3.1596
   39.660    2.9805
   39.675    2.8752
   39.690    2.7909
   39.705    3.1069
   39.720    3.0542
   39.735    2.9700
   39.750    3.0437
   39.765    3.1069
   39.780    2.7067
   39.795    2.8647
   39.810    3.1806
   39.825    3.3175
   39.840    3.3807
   39.855    3.3070
   39.870    2.8857
   39.885    3.0753
   39.900    3.0332
   39.915    3.0648
   39.930    3.1596
   39.945    3.0437
   39.960    2.9910
   39.975    3.1701
   39.990    3.3175
