    1.500   42.8541
    1.515   42.6856
    1.530   43.0121
    1.545   42.5066
    1.560   41.4745
    1.575   41.1164
    1.590   40.5477
    1.605   39.5893
    1.620   39.8526
    1.635   39.3049
    1.650   39.2838
    1.665   38.4939
    1.680   38.0305
    1.695   38.3465
    1.710   37.9042
    1.725   37.7146
    1.740   37.4302
    1.755   36.1348
    1.770   35.5766
    1.785   35.6503
    1.800   35.5134
    1.815   34.3865
    1.830   34.7235
    1.845   34.2812
    1.860   34.6077
    1.875   35.2185
    1.890   33.9547
    1.905   33.1859
    1.920   33.0806
    1.935   32.4381
    1.950   32.3960
    1.965   32.3328
    1.980   33.1648
    1.995   33.3228
    2.010   33.2175
    2.025   32.7225
    2.040   31.9326
    2.055   31.6904
    2.070   32.6488
    2.085   31.9537
    2.100   31.8167
    2.115   31.7957
    2.130   31.3428
    2.145   31.5429
    2.160   31.4797
    2.175   31.5745
    2.190   32.4803
    2.205   31.8905
    2.220   32.3223
    2.235   31.9115
    2.250   30.8583
    2.265   31.2270
    2.280   32.6804
    2.295   31.9010
    2.310   32.4908
    2.325   32.4171
    2.340   32.0484
    2.355   31.8799
    2.370   32.5434
    2.385   31.9326
    2.400   32.5118
    2.415   33.3333
    2.430   33.4702
    2.445   34.2707
    2.460   33.7020
    2.475   32.9858
    2.490   34.7867
    2.505   34.3549
    2.520   34.6288
    2.535   34.8499
    2.550   36.0190
    2.565   35.1869
    2.580   35.9136
    2.595   37.5461
    2.610   36.5982
    2.625   37.7778
    2.640   38.3676
    2.655   38.4939
    2.670   38.8415
    2.685   39.3365
    2.700   40.0316
    2.715   40.6846
    2.730   41.3797
    2.745   41.9800
    2.760   43.2859
    2.775   43.6651
    2.790   44.2759
    2.805   44.7077
    2.820   44.7077
    2.835   46.9616
    2.850   47.3618
    2.865   47.1090
    2.880   48.5308
    2.895   49.5629
    2.910   51.7957
    2.925   53.1122
    2.940   54.4813
    2.955   55.6819
    2.970   56.4297
    2.985   57.6303
    3.000   59.6419
    3.015   61.8641
    3.030   64.1285
    3.045   65.8978
    3.060   66.3191
    3.075   68.3412
    3.090   70.5424
    3.105   73.2596
    3.120   76.0611
    3.135   79.1680
    3.150   81.4007
    3.165   83.9600
    3.180   86.9194
    3.195   89.4471
    3.210   93.0911
    3.225   97.1353
    3.240  102.0537
    3.255  104.4023
    3.270  111.3639
    3.285  116.4297
    3.300  123.0964
    3.315  127.5935
    3.330  134.1548
    3.345  141.5693
    3.360  151.5956
    3.375  161.6746
    3.390  171.1532
    3.405  182.6962
    3.420  194.9447
    3.435  205.3818
    3.450  213.3649
    3.465  216.7562
    3.480  212.3223
    3.495  203.2017
    3.510  185.1712
    3.525  162.7172
    3.540  139.9684
    3.555  119.8526
    3.570  104.2338
    3.585   91.0163
    3.600   82.6751
    3.615   77.0511
    3.630   71.3428
    3.645   68.7941
    3.660   67.6988
    3.675   66.0558
    3.690   64.0864
    3.705   65.2238
    3.720   65.4450
    3.735   65.4450
    3.750   66.4034
    3.765   67.1933
    3.780   68.1622
    3.795   70.2791
    3.810   70.7425
    3.825   71.3112
    3.840   74.0495
    3.855   75.6609
    3.870   77.4934
    3.885   77.8304
    3.900   80.2633
    3.915   82.9173
    3.930   85.5187
    3.945   86.5087
    3.960   88.4044
    3.975   89.2259
    3.990   90.2475
    4.005   90.3423
    4.020   93.3965
    4.035   90.9215
    4.050   89.0469
    4.065   87.6883
    4.080   87.1301
    4.095   86.1506
    4.110   83.8968
    4.125   82.1064
    4.140   78.7888
    4.155   75.4292
    4.170   72.9331
    4.185   68.9942
    4.200   65.1290
    4.215   61.8957
    4.230   58.1359
    4.245   54.2285
    4.260   51.3849
    4.275   46.1717
    4.290   43.4966
    4.305   41.3691
    4.320   38.8204
    4.335   36.0821
    4.350   33.1016
    4.365   31.1638
    4.380   30.3633
    4.395   28.1306
    4.410   26.0979
    4.425   24.8763
    4.440   24.0021
    4.455   22.1801
    4.470   20.5582
    4.485   20.7583
    4.500   19.6525
    4.515   19.1153
    4.530   18.0621
    4.545   17.5145
    4.560   16.8826
    4.575   16.2296
    4.590   15.7451
    4.605   15.3660
    4.620   15.1764
    4.635   14.8499
    4.650   14.2707
    4.665   14.2391
    4.680   14.6603
    4.695   13.7651
    4.710   13.5756
    4.725   13.3017
    4.740   13.3017
    4.755   13.1754
    4.770   12.5856
    4.785   12.7646
    4.800   12.4803
    4.815   12.6804
    4.830   11.4692
    4.845   12.2170
    4.860   12.5856
    4.875   11.7852
    4.890   12.3433
    4.905   11.7852
    4.920   11.6798
    4.935   11.5534
    4.950   11.1532
    4.965   10.9637
    4.980   10.7214
    4.995   11.5745
    5.010   11.0479
    5.025   10.5424
    5.040   10.8583
    5.055   10.7214
    5.070   10.5529
    5.085   10.8478
    5.100   10.6266
    5.115   10.8478
    5.130   10.6582
    5.145   10.7741
    5.160   10.2054
    5.175   10.6898
    5.190   10.1948
    5.205    9.5735
    5.220    9.6472
    5.235    9.7209
    5.250    9.9421
    5.265    9.6367
    5.280    9.3523
    5.295    9.4576
    5.310    9.5945
    5.325    9.5208
    5.340    9.8789
    5.355    9.9631
    5.370    9.5945
    5.385    9.4892
    5.400    9.5419
    5.415    9.6788
    5.430    9.1101
    5.445    9.9105
    5.460   10.0579
    5.475    9.1943
    5.490    9.7104
    5.505    9.6367
    5.520    9.2364
    5.535    8.7309
    5.550    8.7520
    5.565    9.2364
    5.580    9.4155
    5.595    9.2575
    5.610    9.1943
    5.625    9.0574
    5.640    9.2680
    5.655    9.3944
    5.670    9.0047
    5.685    9.2470
    5.700    9.1311
    5.715    8.6467
    5.730    9.0679
    5.745    8.6783
    5.760    8.4255
    5.775    8.8678
    5.790    9.0785
    5.805    8.9731
    5.820    8.6677
    5.835    9.0047
    5.850    8.7730
    5.865    8.4466
    5.880    8.6151
    5.895    8.9100
    5.910    8.9205
    5.925    8.8152
    5.940    8.7836
    5.955    8.5308
    5.970    8.5413
    5.985    8.4466
    6.000    8.5203
    6.015    8.5413
    6.030    9.0047
    6.045    8.5203
    6.060    8.8257
    6.075    9.0574
    6.090    8.9310
    6.105    8.8889
    6.120    8.9310
    6.135    9.2048
    6.150    9.1311
    6.165    9.0785
    6.180    9.1838
    6.195    8.7836
    6.210    8.7625
    6.225    9.2575
    6.240    8.9415
    6.255    8.6783
    6.270    9.2786
    6.285    9.1522
    6.300    9.0785
    6.315    9.2891
    6.330    8.8784
    6.345    9.2996
    6.360    9.2048
    6.375    9.1732
    6.390    9.4260
    6.405    9.4050
    6.420    8.5729
    6.435    9.4050
    6.450   10.0369
    6.465    9.7420
    6.480    9.6893
    6.495   10.1316
    6.510   10.3633
    6.525   10.8162
    6.540   11.0795
    6.555   10.7636
    6.570   10.5213
    6.585   10.9110
    6.600   11.1111
    6.615   11.5745
    6.630   11.7536
    6.645   11.9431
    6.660   12.0274
    6.675   12.5434
    6.690   12.8383
    6.705   14.2075
    6.720   13.5650
    6.735   13.7967
    6.750   14.0179
    6.765   14.7973
    6.780   15.5872
    6.795   16.4192
    6.810   16.6614
    6.825   17.4724
    6.840   18.2201
    6.855   20.2317
    6.870   20.4423
    6.885   21.7904
    6.900   23.1596
    6.915   23.2333
    6.930   25.5819
    6.945   25.8873
    6.960   27.3512
    6.975   27.7409
    6.990   27.1090
    7.005   25.3713
    7.020   23.7388
    7.035   20.6003
    7.050   18.9152
    7.065   17.3881
    7.080   15.3449
    7.095   14.4813
    7.110   13.4492
    7.125   12.5118
    7.140   11.9115
    7.155   11.4060
    7.170   11.7114
    7.185   10.8899
    7.200   10.2370
    7.215   10.1843
    7.230   10.1843
    7.245   10.4055
    7.260    9.6893
    7.275   10.5529
    7.290    9.9105
    7.305    9.9526
    7.320   10.1106
    7.335    9.9315
    7.350    9.8473
    7.365   10.1738
    7.380   10.2475
    7.395    9.8999
    7.410    9.5945
    7.425    9.4471
    7.440    9.5208
    7.455    9.7841
    7.470   10.1738
    7.485    9.8473
    7.500    9.9737
    7.515    9.6156
    7.530    9.9421
    7.545    9.7946
    7.560   10.1422
    7.575   10.1738
    7.590   10.1527
    7.605   10.6161
    7.620   10.7636
    7.635   10.7320
    7.650   10.7109
    7.665   10.9005
    7.680   11.0900
    7.695   10.8268
    7.710   10.6477
    7.725   11.0374
    7.740   10.8057
    7.755   11.1848
    7.770   11.1954
    7.785   12.2275
    7.800   12.3644
    7.815   11.6482
    7.830   11.7536
    7.845   12.1643
    7.860   12.0590
    7.875   12.3855
    7.890   12.5540
    7.905   12.9753
    7.920   12.7225
    7.935   13.1438
    7.950   13.1754
    7.965   13.4492
    7.980   12.9963
    7.995   13.6177
    8.010   13.3860
    8.025   13.5545
    8.040   13.6072
    8.055   13.2807
    8.070   14.0179
    8.085   13.8599
    8.100   13.8705
    8.115   14.6288
    8.130   14.2285
    8.145   14.4497
    8.160   14.2601
    8.175   14.6182
    8.190   14.5656
    8.205   14.2180
    8.220   14.2707
    8.235   14.3549
    8.250   13.7862
    8.265   14.5656
    8.280   14.2601
    8.295   13.7441
    8.310   13.8073
    8.325   13.8599
    8.340   13.5966
    8.355   13.1332
    8.370   12.9331
    8.385   13.0490
    8.400   12.7014
    8.415   12.5434
    8.430   12.4592
    8.445   12.2486
    8.460   11.8799
    8.475   12.6488
    8.490   12.6804
    8.505   12.6277
    8.520   12.2591
    8.535   11.7746
    8.550   11.8167
    8.565   11.2902
    8.580   11.5324
    8.595   12.0169
    8.610   11.5429
    8.625   10.9215
    8.640   11.0374
    8.655   10.5108
    8.670   10.0790
    8.685   10.0158
    8.700   10.4371
    8.715   10.2054
    8.730   10.0895
    8.745    9.8473
    8.760    9.6577
    8.775    9.6156
    8.790    9.3207
    8.805    8.9205
    8.820    9.0574
    8.835    9.3207
    8.850    8.9942
    8.865    9.3102
    8.880    8.9942
    8.895    8.7941
    8.910    8.7836
    8.925    8.7309
    8.940    9.4576
    8.955    8.8152
    8.970    8.0885
    8.985    8.6045
    9.000    8.9626
    9.015    8.2149
    9.030    7.9621
    9.045    8.2359
    9.060    8.3096
    9.075    8.2886
    9.090    8.5097
    9.105    8.1411
    9.120    8.5519
    9.135    8.2675
    9.150    8.0463
    9.165    8.4150
    9.180    8.2675
    9.195    8.1517
    9.210    8.1727
    9.225    7.9621
    9.240    7.8568
    9.255    8.0885
    9.270    7.6356
    9.285    8.0779
    9.300    8.1622
    9.315    8.4255
    9.330    8.1517
    9.345    8.4781
    9.360    7.6883
    9.375    8.1833
    9.390    8.3939
    9.405    8.3096
    9.420    7.8357
    9.435    8.0463
    9.450    8.1727
    9.465    7.8041
    9.480    7.6251
    9.495    7.9726
    9.510    8.0885
    9.525    7.8673
    9.540    8.0463
    9.555    7.8462
    9.570    8.0463
    9.585    8.0885
    9.600    7.9621
    9.615    7.9410
    9.630    7.5408
    9.645    7.6777
    9.660    7.3618
    9.675    8.0779
    9.690    8.1517
    9.705    8.2780
    9.720    7.8673
    9.735    7.7093
    9.750    7.7304
    9.765    7.8357
    9.780    8.2254
    9.795    8.1938
    9.810    7.7093
    9.825    8.0042
    9.840    8.0463
    9.855    7.9621
    9.870    7.7199
    9.885    7.1090
    9.900    7.6461
    9.915    7.5619
    9.930    7.6040
    9.945    7.7936
    9.960    7.2354
    9.975    8.0358
    9.990    7.8778
   10.005    7.8462
   10.020    8.0990
   10.035    8.1201
   10.050    7.6461
   10.065    7.8252
   10.080    7.8884
   10.095    8.1727
   10.110    8.0463
   10.125    7.8778
   10.140    8.0253
   10.155    7.9200
   10.170    7.5092
   10.185    8.0463
   10.200    8.0042
   10.215    7.7409
   10.230    8.0042
   10.245    8.2254
   10.260    8.3202
   10.275    8.4466
   10.290    8.0253
   10.305    8.2464
   10.320    8.6151
   10.335    8.2675
   10.350    8.2464
   10.365    8.3728
   10.380    8.6467
   10.395    8.3834
   10.410    8.7309
   10.425    8.8362
   10.440    8.6467
   10.455    8.9100
   10.470    9.0995
   10.485    9.4681
   10.500    8.9310
   10.515    9.1311
   10.530    8.9100
   10.545    9.3102
   10.560    9.0258
   10.575    8.8994
   10.590    8.5940
   10.605    7.9200
   10.620    8.5097
   10.635    7.9831
   10.650    8.4887
   10.665    8.3834
   10.680    8.2780
   10.695    8.1201
   10.710    8.0358
   10.725    7.9410
   10.740    7.5197
   10.755    8.0358
   10.770    7.9621
   10.785    7.8673
   10.800    7.5829
   10.815    7.6040
   10.830    7.4987
   10.845    7.5829
   10.860    7.5619
   10.875    7.7936
   10.890    7.8357
   10.905    7.6777
   10.920    7.9094
   10.935    7.6567
   10.950    7.5197
   10.965    7.5724
   10.980    7.5935
   10.995    7.6461
   11.010    7.8989
   11.025    7.4566
   11.040    7.9305
   11.055    7.8146
   11.070    7.6040
   11.085    7.1933
   11.100    7.6567
   11.115    7.5303
   11.130    7.6777
   11.145    7.7093
   11.160    7.3407
   11.175    7.7514
   11.190    7.8041
   11.205    7.7409
   11.220    7.6883
   11.235    7.8146
   11.250    7.5619
   11.265    7.2038
   11.280    7.3828
   11.295    7.2775
   11.310    7.9200
   11.325    8.2780
   11.340    7.6251
   11.355    7.3934
   11.370    8.1411
   11.385    7.6251
   11.400    7.5724
   11.415    7.8357
   11.430    7.7936
   11.445    7.8673
   11.460    7.9621
   11.475    7.5513
   11.490    7.7409
   11.505    8.1938
   11.520    7.8252
   11.535    7.7514
   11.550    7.3618
   11.565    7.3196
   11.580    7.6145
   11.595    7.8357
   11.610    7.7304
   11.625    7.5197
   11.640    7.5935
   11.655    7.9621
   11.670    7.5513
   11.685    7.6567
   11.700    7.7093
   11.715    7.8357
   11.730    8.0674
   11.745    8.0779
   11.760    8.3623
   11.775    8.6151
   11.790    8.3518
   11.805    8.1411
   11.820    7.8357
   11.835    7.8778
   11.850    8.5729
   11.865    8.3202
   11.880    7.8357
   11.895    8.1938
   11.910    8.2464
   11.925    8.4255
   11.940    8.0990
   11.955    8.0253
   11.970    8.2570
   11.985    7.8357
   12.000    8.4360
   12.015    8.7309
   12.030    8.6045
   12.045    8.1833
   12.060    8.5413
   12.075    8.0569
   12.090    8.1727
   12.105    8.6993
   12.120    8.0674
   12.135    7.9831
   12.150    8.0674
   12.165    8.2043
   12.180    8.6783
   12.195    8.4044
   12.210    8.7098
   12.225    8.2886
   12.240    8.5413
   12.255    8.5835
   12.270    8.2359
   12.285    8.3307
   12.300    8.5308
   12.315    8.1727
   12.330    8.4992
   12.345    8.2149
   12.360    8.1201
   12.375    8.6045
   12.390    8.8362
   12.405    8.3728
   12.420    8.5624
   12.435    8.7309
   12.450    8.9626
   12.465    8.3834
   12.480    8.6256
   12.495    8.6045
   12.510    8.3939
   12.525    8.0569
   12.540    8.1517
   12.555    8.0463
   12.570    8.1622
   12.585    8.4255
   12.600    8.8046
   12.615    8.5519
   12.630    8.0885
   12.645    8.7414
   12.660    8.7309
   12.675    8.5624
   12.690    8.3834
   12.705    8.5624
   12.720    8.5835
   12.735    8.1306
   12.750    8.3518
   12.765    8.4466
   12.780    8.6151
   12.795    8.7204
   12.810    7.7830
   12.825    8.1622
   12.840    8.4360
   12.855    8.1727
   12.870    8.3623
   12.885    8.3518
   12.900    8.0042
   12.915    8.1938
   12.930    8.0463
   12.945    8.1938
   12.960    8.3202
   12.975    7.8357
   12.990    7.8778
   13.005    7.7409
   13.020    8.0990
   13.035    8.0253
   13.050    8.6783
   13.065    8.2675
   13.080    7.6567
   13.095    7.7830
   13.110    8.1938
   13.125    8.3307
   13.140    8.1411
   13.155    8.0990
   13.170    7.8778
   13.185    7.7304
   13.200    8.0779
   13.215    8.1095
   13.230    7.8884
   13.245    8.2570
   13.260    8.4044
   13.275    7.8252
   13.290    7.6356
   13.305    8.0147
   13.320    8.0674
   13.335    8.0042
   13.350    8.1095
   13.365    8.2149
   13.380    8.2043
   13.395    8.1517
   13.410    7.7830
   13.425    7.7514
   13.440    7.9410
   13.455    7.9410
   13.470    8.0569
   13.485    7.8989
   13.500    7.9094
   13.515    7.6672
   13.530    7.7725
   13.545    8.4781
   13.560    8.3202
   13.575    8.2464
   13.590    7.6883
   13.605    7.7199
   13.620    7.9831
   13.635    7.6145
   13.650    7.8462
   13.665    8.2043
   13.680    8.1622
   13.695    8.1622
   13.710    7.8884
   13.725    8.4044
   13.740    8.5413
   13.755    7.9726
   13.770    7.4671
   13.785    8.0042
   13.800    7.9094
   13.815    7.6145
   13.830    7.5197
   13.845    7.5724
   13.860    7.8252
   13.875    7.9516
   13.890    7.7830
   13.905    7.7093
   13.920    7.6040
   13.935    7.6777
   13.950    7.7199
   13.965    7.6567
   13.980    7.7093
   13.995    8.2043
   14.010    7.5303
   14.025    7.7199
   14.040    7.6251
   14.055    7.6988
   14.070    7.7199
   14.085    7.4460
   14.100    7.3828
   14.115    7.4776
   14.130    7.1090
   14.145    7.4144
   14.160    7.8568
   14.175    7.4460
   14.190    7.9621
   14.205    7.6883
   14.220    8.0674
   14.235    7.6145
   14.250    8.1201
   14.265    7.8778
   14.280    7.7936
   14.295    7.6883
   14.310    7.6356
   14.325    8.0147
   14.340    7.4250
   14.355    7.6988
   14.370    7.9621
   14.385    7.4039
   14.400    7.3407
   14.415    7.1511
   14.430    7.2670
   14.445    7.6145
   14.460    7.3302
   14.475    7.3828
   14.490    7.4776
   14.505    7.4355
   14.520    7.1722
   14.535    7.4250
   14.550    7.6567
   14.565    7.8252
   14.580    7.2038
   14.595    7.4776
   14.610    7.4882
   14.625    7.3828
   14.640    7.7093
   14.655    7.5935
   14.670    7.5303
   14.685    7.2354
   14.700    7.8041
   14.715    7.4671
   14.730    7.1301
   14.745    7.4144
   14.760    7.2459
   14.775    7.6461
   14.790    7.4987
   14.805    7.2775
   14.820    7.5619
   14.835    7.0985
   14.850    7.6988
   14.865    7.4671
   14.880    7.4460
   14.895    7.5408
   14.910    7.3723
   14.925    7.4355
   14.940    8.0358
   14.955    7.4987
   14.970    7.1722
   14.985    7.2354
   15.000    7.1933
   15.015    7.5724
   15.030    7.3828
   15.045    7.5724
   15.060    7.2143
   15.075    7.2986
   15.090    7.7514
   15.105    7.4987
   15.120    7.3302
   15.135    7.2459
   15.150    7.2565
   15.165    7.6672
   15.180    7.5619
   15.195    7.4355
   15.210    7.7304
   15.225    7.4039
   15.240    6.9300
   15.255    7.4566
   15.270    7.4460
   15.285    7.7199
   15.300    7.5092
   15.315    7.1090
   15.330    7.7514
   15.345    7.5303
   15.360    7.5303
   15.375    7.0879
   15.390    7.5303
   15.405    7.1617
   15.420    6.9826
   15.435    7.0142
   15.450    7.3407
   15.465    7.2038
   15.480    7.4460
   15.495    7.9200
   15.510    7.5408
   15.525    6.9932
   15.540    7.3091
   15.555    7.4355
   15.570    7.6251
   15.585    7.5935
   15.600    7.6356
   15.615    7.5619
   15.630    7.8568
   15.645    7.5935
   15.660    7.2354
   15.675    7.4776
   15.690    7.3828
   15.705    7.4355
   15.720    7.7409
   15.735    7.9094
   15.750    7.5408
   15.765    7.6251
   15.780    7.7514
   15.795    7.4039
   15.810    7.9410
   15.825    7.7304
   15.840    8.1095
   15.855    7.6883
   15.870    7.5408
   15.885    7.6356
   15.900    7.9200
   15.915    7.2986
   15.930    7.3723
   15.945    7.7725
   15.960    7.7199
   15.975    7.9937
   15.990    7.3091
   16.005    6.9826
   16.020    7.4355
   16.035    7.6988
   16.050    7.2775
   16.065    7.6461
   16.080    7.4250
   16.095    7.8673
   16.110    7.6988
   16.125    7.6040
   16.140    7.6145
   16.155    8.0042
   16.170    7.5303
   16.185    7.4566
   16.200    7.2565
   16.215    7.2880
   16.230    7.1933
   16.245    7.4566
   16.260    7.4987
   16.275    7.7093
   16.290    7.4882
   16.305    7.7409
   16.320    7.6356
   16.335    7.4671
   16.350    7.0985
   16.365    7.4566
   16.380    7.5303
   16.395    7.4987
   16.410    7.4882
   16.425    7.3407
   16.440    6.8457
   16.455    7.3934
   16.470    7.9305
   16.485    7.4144
   16.500    7.6672
   16.515    7.9726
   16.530    7.7199
   16.545    7.8146
   16.560    7.2670
   16.575    7.1511
   16.590    7.2775
   16.605    7.3934
   16.620    7.2354
   16.635    7.3828
   16.650    7.5829
   16.665    7.5303
   16.680    7.2986
   16.695    7.0353
   16.710    7.5829
   16.725    7.3091
   16.740    7.7304
   16.755    7.1090
   16.770    7.1195
   16.785    6.9932
   16.800    7.0669
   16.815    7.2880
   16.830    7.4250
   16.845    7.6777
   16.860    7.7830
   16.875    7.5619
   16.890    7.3618
   16.905    7.4566
   16.920    7.5513
   16.935    7.6883
   16.950    7.2459
   16.965    7.4671
   16.980    7.6461
   16.995    7.0037
   17.010    7.6356
   17.025    7.4566
   17.040    7.3091
   17.055    6.9300
   17.070    7.2459
   17.085    7.2143
   17.100    7.1617
   17.115    7.3723
   17.130    7.1722
   17.145    7.5092
   17.160    7.1195
   17.175    7.1617
   17.190    7.1933
   17.205    7.5197
   17.220    8.0569
   17.235    7.4671
   17.250    7.6567
   17.265    7.3828
   17.280    7.1617
   17.295    7.1827
   17.310    7.3512
   17.325    7.2670
   17.340    7.3512
   17.355    7.3091
   17.370    7.3407
   17.385    7.2670
   17.400    7.2354
   17.415    7.1195
   17.430    7.6988
   17.445    7.1722
   17.460    7.5197
   17.475    7.4039
   17.490    7.6672
   17.505    7.6883
   17.520    7.3723
   17.535    7.4987
   17.550    7.6883
   17.565    7.1301
   17.580    7.3618
   17.595    7.2986
   17.610    7.1722
   17.625    7.4460
   17.640    7.5513
   17.655    7.3512
   17.670    7.6883
   17.685    7.3618
   17.700    7.3091
   17.715    7.6883
   17.730    7.1511
   17.745    7.2249
   17.760    7.2880
   17.775    7.4882
   17.790    7.5619
   17.805    7.1406
   17.820    7.2459
   17.835    7.0037
   17.850    7.3196
   17.865    7.2775
   17.880    7.4566
   17.895    7.6883
   17.910    7.7830
   17.925    7.6356
   17.940    7.4987
   17.955    7.5513
   17.970    7.5408
   17.985    7.1722
   18.000    7.2354
   18.015    7.7199
   18.030    7.0458
   18.045    7.5829
   18.060    7.5197
   18.075    7.6883
   18.090    7.9621
   18.105    7.3618
   18.120    7.3934
   18.135    7.7199
   18.150    7.3723
   18.165    7.2775
   18.180    7.2670
   18.195    7.2670
   18.210    7.4460
   18.225    7.5197
   18.240    7.3091
   18.255    7.6883
   18.270    7.7620
   18.285    8.0463
   18.300    7.4882
   18.315    7.6040
   18.330    7.2565
   18.345    7.3407
   18.360    7.0879
   18.375    7.3828
   18.390    7.8357
   18.405    7.3618
   18.420    7.9094
   18.435    7.8462
   18.450    7.7514
   18.465    7.8252
   18.480    7.5092
   18.495    7.3618
   18.510    7.6145
   18.525    7.6251
   18.540    7.7304
   18.555    7.6251
   18.570    7.5197
   18.585    8.1938
   18.600    7.4776
   18.615    7.2880
   18.630    7.2670
   18.645    7.4144
   18.660    7.3407
   18.675    7.3828
   18.690    7.5303
   18.705    7.3934
   18.720    6.8457
   18.735    7.3091
   18.750    7.5829
   18.765    7.6777
   18.780    7.6672
   18.795    7.6461
   18.810    7.1933
   18.825    7.3091
   18.840    7.7725
   18.855    7.7514
   18.870    7.2986
   18.885    7.4144
   18.900    7.6251
   18.915    7.6461
   18.930    7.5303
   18.945    7.6461
   18.960    7.9094
   18.975    7.2459
   18.990    7.4776
   19.005    7.5303
   19.020    7.5829
   19.035    7.3196
   19.050    7.4039
   19.065    7.5619
   19.080    7.6040
   19.095    7.5408
   19.110    7.4671
   19.125    7.4250
   19.140    7.5408
   19.155    7.6251
   19.170    7.5935
   19.185    7.6356
   19.200    7.9726
   19.215    7.8989
   19.230    7.4882
   19.245    7.3196
   19.260    7.4671
   19.275    7.7199
   19.290    7.4144
   19.305    7.4250
   19.320    7.9726
   19.335    7.5935
   19.350    7.6883
   19.365    8.1938
   19.380    8.0253
   19.395    7.9305
   19.410    7.7725
   19.425    7.6672
   19.440    8.1095
   19.455    8.1938
   19.470    8.5940
   19.485    7.7093
   19.500    8.1727
   19.515    7.9200
   19.530    7.9305
   19.545    8.0358
   19.560    7.9831
   19.575    7.8252
   19.590    7.9094
   19.605    7.8778
   19.620    8.1833
   19.635    8.4150
   19.650    8.5519
   19.665    8.4571
   19.680    7.8673
   19.695    7.8146
   19.710    8.0358
   19.725    8.0042
   19.740    8.1306
   19.755    8.2991
   19.770    8.5835
   19.785    8.3728
   19.800    8.2570
   19.815    8.1095
   19.830    8.1727
   19.845    8.0885
   19.860    8.2991
   19.875    8.1727
   19.890    8.3623
   19.905    8.1938
   19.920    8.3412
   19.935    8.1833
   19.950    8.5097
   19.965    8.2675
   19.980    8.2043
   19.995    8.2780
   20.010    8.0147
   20.025    8.1938
   20.040    8.3623
   20.055    7.8989
   20.070    7.9410
   20.085    7.9831
   20.100    8.3728
   20.115    8.2675
   20.130    8.4676
   20.145    7.9200
   20.160    7.8884
   20.175    8.4044
   20.190    8.2254
   20.205    8.2991
   20.220    8.4992
   20.235    8.1833
   20.250    8.5624
   20.265    8.7520
   20.280    8.2780
   20.295    8.3096
   20.310    8.4781
   20.325    8.5940
   20.340    8.1727
   20.355    8.8046
   20.370    8.8784
   20.385    8.5203
   20.400    8.3939
   20.415    8.4044
   20.430    8.3412
   20.445    8.0990
   20.460    7.7409
   20.475    8.0042
   20.490    8.4781
   20.505    8.1622
   20.520    8.3307
   20.535    8.4255
   20.550    8.2780
   20.565    8.1411
   20.580    8.2359
   20.595    8.3202
   20.610    8.1411
   20.625    8.4992
   20.640    8.5835
   20.655    8.5940
   20.670    8.2043
   20.685    8.4676
   20.700    8.0358
   20.715    7.8989
   20.730    8.5729
   20.745    8.1938
   20.760    8.3518
   20.775    8.1938
   20.790    8.3096
   20.805    8.0463
   20.820    8.3307
   20.835    8.5413
   20.850    8.3307
   20.865    7.8252
   20.880    8.4466
   20.895    8.0253
   20.910    7.8252
   20.925    8.1517
   20.940    8.4360
   20.955    8.4676
   20.970    8.1306
   20.985    8.0463
   21.000    8.4360
   21.015    8.4676
   21.030    8.7941
   21.045    8.7625
   21.060    8.2149
   21.075    8.2149
   21.090    8.0885
   21.105    8.0885
   21.120    8.8362
   21.135    8.9100
   21.150    8.3623
   21.165    8.3202
   21.180    8.2359
   21.195    7.8252
   21.210    8.3834
   21.225    8.8046
   21.240    8.3728
   21.255    8.0990
   21.270    8.0147
   21.285    8.2254
   21.300    8.3623
   21.315    8.6572
   21.330    8.3518
   21.345    8.2464
   21.360    8.3728
   21.375    8.3834
   21.390    8.2464
   21.405    8.2991
   21.420    8.4255
   21.435    8.4150
   21.450    8.4044
   21.465    8.4044
   21.480    8.1095
   21.495    8.7309
   21.510    8.8257
   21.525    8.8573
   21.540    8.4044
   21.555    7.8568
   21.570    8.0147
   21.585    8.2886
   21.600    8.3096
   21.615    8.2254
   21.630    8.5097
   21.645    8.2991
   21.660    8.4466
   21.675    8.4992
   21.690    8.5835
   21.705    8.3307
   21.720    8.5624
   21.735    8.5097
   21.750    8.3096
   21.765    8.5308
   21.780    8.5835
   21.795    8.2570
   21.810    8.5308
   21.825    8.3518
   21.840    8.0253
   21.855    8.1938
   21.870    8.7204
   21.885    8.4044
   21.900    7.9410
   21.915    8.2149
   21.930    7.9621
   21.945    8.1306
   21.960    8.0779
   21.975    8.0147
   21.990    8.2886
   22.005    8.0358
   22.020    8.2043
   22.035    8.2675
   22.050    8.1622
   22.065    8.1833
   22.080    8.1517
   22.095    8.1727
   22.110    8.2886
   22.125    7.9621
   22.140    8.1517
   22.155    8.3939
   22.170    8.2991
   22.185    8.4992
   22.200    8.5729
   22.215    8.1095
   22.230    8.0674
   22.245    8.4360
   22.260    8.3728
   22.275    8.2359
   22.290    7.8041
   22.305    8.4676
   22.320    8.8889
   22.335    8.5308
   22.350    8.5835
   22.365    8.4150
   22.380    7.9621
   22.395    8.2254
   22.410    8.1411
   22.425    8.0990
   22.440    8.2149
   22.455    8.4044
   22.470    8.2780
   22.485    8.4255
   22.500    8.2886
   22.515    8.5203
   22.530    8.3096
   22.545    8.0042
   22.560    7.9937
   22.575    8.0569
   22.590    8.3202
   22.605    8.5940
   22.620    8.5624
   22.635    8.0990
   22.650    8.2570
   22.665    8.6045
   22.680    8.4887
   22.695    7.8884
   22.710    8.4466
   22.725    8.3307
   22.740    8.1727
   22.755    7.7093
   22.770    8.0147
   22.785    7.6251
   22.800    8.0253
   22.815    8.3202
   22.830    8.1201
   22.845    8.4781
   22.860    7.9937
   22.875    7.8462
   22.890    7.8357
   22.905    7.8252
   22.920    8.1938
   22.935    7.9305
   22.950    7.6777
   22.965    8.4360
   22.980    8.3834
   22.995    8.1095
   23.010    7.8673
   23.025    8.0463
   23.040    8.1938
   23.055    8.0885
   23.070    8.0569
   23.085    7.9937
   23.100    8.3728
   23.115    8.2991
   23.130    8.1095
   23.145    8.5308
   23.160    8.3834
   23.175    8.0569
   23.190    7.9516
   23.205    7.6777
   23.220    7.6461
   23.235    7.8041
   23.250    7.8568
   23.265    7.6251
   23.280    7.6777
   23.295    8.0779
   23.310    7.7725
   23.325    7.6883
   23.340    8.1095
   23.355    7.8673
   23.370    7.7830
   23.385    8.0253
   23.400    7.6461
   23.415    8.2570
   23.430    7.9305
   23.445    8.1517
   23.460    7.7514
   23.475    7.8357
   23.490    7.6567
   23.505    7.7725
   23.520    7.6461
   23.535    7.6988
   23.550    7.5303
   23.565    8.2464
   23.580    7.5935
   23.595    7.9726
   23.610    7.7409
   23.625    7.9200
   23.640    7.8568
   23.655    8.0253
   23.670    8.4044
   23.685    7.9094
   23.700    7.4776
   23.715    7.7514
   23.730    7.7093
   23.745    7.9305
   23.760    7.6461
   23.775    7.6251
   23.790    7.8884
   23.805    7.8989
   23.820    8.0147
   23.835    7.9305
   23.850    7.7304
   23.865    7.8778
   23.880    7.5724
   23.895    7.4776
   23.910    7.8884
   23.925    8.0463
   23.940    7.6251
   23.955    7.6145
   23.970    7.7830
   23.985    7.7199
   24.000    7.5935
   24.015    7.8778
   24.030    7.6883
   24.045    7.5935
   24.060    7.3512
   24.075    8.1938
   24.090    7.9305
   24.105    7.5724
   24.120    7.4987
   24.135    7.7304
   24.150    7.9200
   24.165    7.8884
   24.180    8.0674
   24.195    7.5408
   24.210    7.7409
   24.225    8.1306
   24.240    7.4987
   24.255    7.7093
   24.270    7.5092
   24.285    7.8673
   24.300    7.4882
   24.315    7.7830
   24.330    7.7514
   24.345    7.7304
   24.360    7.4355
   24.375    7.6356
   24.390    8.2149
   24.405    8.0885
   24.420    7.8989
   24.435    7.6988
   24.450    7.5303
   24.465    7.6567
   24.480    7.7409
   24.495    7.7093
   24.510    8.2675
   24.525    7.8146
   24.540    7.7725
   24.555    7.3407
   24.570    7.7199
   24.585    7.7936
   24.600    7.9200
   24.615    7.7514
   24.630    7.6988
   24.645    8.2886
   24.660    8.1622
   24.675    7.5408
   24.690    7.7304
   24.705    7.6251
   24.720    7.7409
   24.735    7.5724
   24.750    7.9937
   24.765    7.8041
   24.780    7.8778
   24.795    8.0990
   24.810    7.1195
   24.825    7.6567
   24.840    7.7620
   24.855    7.5092
   24.870    7.4144
   24.885    7.4987
   24.900    7.4355
   24.915    7.5829
   24.930    7.1827
   24.945    7.4355
   24.960    7.5513
   24.975    7.6145
   24.990    7.2880
   25.005    7.2459
   25.020    7.3512
   25.035    7.4355
   25.050    7.5092
   25.065    7.1195
   25.080    7.7093
   25.095    7.3512
   25.110    7.0669
   25.125    7.7936
   25.140    7.6883
   25.155    7.4671
   25.170    7.0669
   25.185    7.5513
   25.200    7.6145
   25.215    7.3934
   25.230    7.4250
   25.245    7.1827
   25.260    7.2038
   25.275    7.2038
   25.290    7.1406
   25.305    7.5303
   25.320    7.5513
   25.335    7.0879
   25.350    7.4460
   25.365    7.2880
   25.380    7.2880
   25.395    6.9616
   25.410    7.0142
   25.425    7.4039
   25.440    7.7093
   25.455    7.5619
   25.470    7.4987
   25.485    7.4987
   25.500    7.2670
   25.515    7.1617
   25.530    7.0142
   25.545    7.1195
   25.560    7.3196
   25.575    7.3828
   25.590    7.4671
   25.605    7.4671
   25.620    7.3512
   25.635    7.4566
   25.650    7.2775
   25.665    7.1827
   25.680    7.0879
   25.695    7.2986
   25.710    7.1090
   25.725    7.5303
   25.740    7.4987
   25.755    7.6777
   25.770    7.3723
   25.785    7.3302
   25.800    7.3091
   25.815    7.0669
   25.830    7.6145
   25.845    7.5935
   25.860    7.2143
   25.875    6.9089
   25.890    7.2143
   25.905    7.3091
   25.920    7.4671
   25.935    7.2354
   25.950    7.1722
   25.965    7.7725
   25.980    7.7725
   25.995    6.7615
   26.010    6.9932
   26.025    7.0879
   26.040    7.0458
   26.055    7.1722
   26.070    6.6035
   26.085    7.4144
   26.100    7.1617
   26.115    7.0669
   26.130    6.7615
   26.145    7.2880
   26.160    7.4039
   26.175    6.8984
   26.190    6.9616
   26.205    7.1090
   26.220    6.7088
   26.235    7.0563
   26.250    7.2249
   26.265    6.9826
   26.280    7.2143
   26.295    7.0669
   26.310    6.8878
   26.325    6.3612
   26.340    6.7404
   26.355    6.8352
   26.370    6.7404
   26.385    7.1406
   26.400    6.9300
   26.415    7.0985
   26.430    7.0774
   26.445    6.8984
   26.460    7.1722
   26.475    6.8246
   26.490    7.1511
   26.505    7.3618
   26.520    7.3407
   26.535    7.1511
   26.550    6.9826
   26.565    7.3618
   26.580    6.6035
   26.595    6.6983
   26.610    7.1827
   26.625    6.8984
   26.640    7.1933
   26.655    6.5508
   26.670    6.9932
   26.685    6.6140
   26.700    6.6877
   26.715    7.0458
   26.730    6.8562
   26.745    7.0774
   26.760    6.9826
   26.775    6.8984
   26.790    7.0563
   26.805    6.9721
   26.820    6.6245
   26.835    6.8668
   26.850    6.5508
   26.865    6.9089
   26.880    6.9616
   26.895    6.6561
   26.910    6.9510
   26.925    6.8984
   26.940    6.9826
   26.955    6.8984
   26.970    6.9826
   26.985    7.2775
   27.000    7.1827
   27.015    7.2880
   27.030    6.9932
   27.045    6.8141
   27.060    6.8457
   27.075    6.6245
   27.090    6.8246
   27.105    6.6140
   27.120    6.9194
   27.135    6.9616
   27.150    7.2038
   27.165    6.9721
   27.180    6.7404
   27.195    7.1617
   27.210    6.8457
   27.225    6.8246
   27.240    6.4666
   27.255    7.0142
   27.270    7.0879
   27.285    7.0037
   27.300    6.9616
   27.315    6.8562
   27.330    6.6877
   27.345    6.4982
   27.360    6.7404
   27.375    6.8141
   27.390    7.2670
   27.405    6.5719
   27.420    7.2038
   27.435    6.8246
   27.450    6.9932
   27.465    6.8668
   27.480    6.7825
   27.495    6.4350
   27.510    6.9826
   27.525    6.7404
   27.540    6.9194
   27.555    6.3928
   27.570    6.6772
   27.585    6.7930
   27.600    6.7615
   27.615    6.8878
   27.630    6.7615
   27.645    6.9300
   27.660    6.7299
   27.675    6.8984
   27.690    7.0248
   27.705    7.4039
   27.720    7.1827
   27.735    6.9721
   27.750    6.6456
   27.765    7.0037
   27.780    7.1090
   27.795    6.9510
   27.810    6.8668
   27.825    6.8984
   27.840    7.0248
   27.855    6.7930
   27.870    7.0142
   27.885    7.2459
   27.900    7.0669
   27.915    6.6877
   27.930    6.6561
   27.945    7.0037
   27.960    7.1301
   27.975    7.1406
   27.990    6.9510
   28.005    7.2354
   28.020    6.8984
   28.035    7.2249
   28.050    6.9405
   28.065    6.7088
   28.080    6.9194
   28.095    6.7720
   28.110    7.1195
   28.125    6.7509
   28.140    7.2565
   28.155    6.9826
   28.170    7.1090
   28.185    7.1511
   28.200    7.1090
   28.215    7.8568
   28.230    7.6040
   28.245    7.1933
   28.260    7.4355
   28.275    6.9194
   28.290    7.1090
   28.305    7.5724
   28.320    6.9721
   28.335    6.8984
   28.350    6.7720
   28.365    6.9300
   28.380    6.8352
   28.395    6.7930
   28.410    6.8562
   28.425    6.4982
   28.440    7.0248
   28.455    7.0037
   28.470    6.8141
   28.485    6.7825
   28.500    6.4876
   28.515    6.7615
   28.530    6.9300
   28.545    6.9194
   28.560    6.6351
   28.575    6.8984
   28.590    6.7404
   28.605    7.0248
   28.620    6.8457
   28.635    7.0669
   28.650    6.9510
   28.665    6.7088
   28.680    7.1406
   28.695    6.9932
   28.710    7.3407
   28.725    6.7088
   28.740    6.7615
   28.755    6.9405
   28.770    6.8457
   28.785    6.6667
   28.800    6.8036
   28.815    6.9932
   28.830    7.0353
   28.845    6.7615
   28.860    6.2349
   28.875    6.9616
   28.890    6.9089
   28.905    6.7299
   28.920    6.6456
   28.935    6.4350
   28.950    6.8668
   28.965    6.4350
   28.980    6.3191
   28.995    6.5403
   29.010    6.8984
   29.025    6.8773
   29.040    6.4982
   29.055    6.7299
   29.070    7.1933
   29.085    7.0669
   29.100    7.0985
   29.115    6.7720
   29.130    6.7720
   29.145    6.7404
   29.160    6.9721
   29.175    7.0142
   29.190    6.9510
   29.205    6.7720
   29.220    7.1090
   29.235    6.6456
   29.250    6.5929
   29.265    6.8562
   29.280    6.6667
   29.295    6.7509
   29.310    6.5508
   29.325    6.8036
   29.340    6.6667
   29.355    6.5403
   29.370    6.9826
   29.385    6.7088
   29.400    6.8246
   29.415    6.5403
   29.430    6.8352
   29.445    6.5508
   29.460    6.9932
   29.475    7.0774
   29.490    6.7299
   29.505    6.6351
   29.520    6.5192
   29.535    6.7088
   29.550    6.7509
   29.565    6.6983
   29.580    6.6877
   29.595    6.4244
   29.610    6.4982
   29.625    6.3296
   29.640    6.6877
   29.655    6.6667
   29.670    6.4244
   29.685    6.5403
   29.700    6.4560
   29.715    6.7404
   29.730    6.9194
   29.745    6.6140
   29.760    6.6035
   29.775    6.5613
   29.790    6.3507
   29.805    6.5298
   29.820    6.7404
   29.835    6.7193
   29.850    6.8036
   29.865    6.7720
   29.880    6.6456
   29.895    6.9089
   29.910    6.6456
   29.925    6.7299
   29.940    6.5508
   29.955    6.5929
   29.970    6.7825
   29.985    6.7825
   30.000    6.7299
   30.015    6.5403
   30.030    6.4666
   30.045    6.5719
   30.060    6.6667
   30.075    6.6351
   30.090    6.4244
   30.105    6.6877
   30.120    6.6456
   30.135    6.3402
   30.150    6.4982
   30.165    6.6561
   30.180    6.8562
   30.195    6.3823
   30.210    6.4666
   30.225    6.4350
   30.240    6.4771
   30.255    6.4560
   30.270    6.6561
   30.285    6.6351
   30.300    6.2770
   30.315    6.2981
   30.330    6.0664
   30.345    6.3928
   30.360    6.7404
   30.375    6.8562
   30.390    6.8141
   30.405    6.7720
   30.420    6.5613
   30.435    6.5824
   30.450    6.5508
   30.465    6.4455
   30.480    6.6877
   30.495    7.1617
   30.510    6.5403
   30.525    6.5824
   30.540    6.4350
   30.555    6.6245
   30.570    6.2243
   30.585    6.1927
   30.600    6.4244
   30.615    6.2454
   30.630    6.6983
   30.645    6.8984
   30.660    6.6140
   30.675    6.1927
   30.690    6.4666
   30.705    6.4982
   30.720    6.7615
   30.735    6.6667
   30.750    6.3507
   30.765    6.4876
   30.780    6.1611
   30.795    6.3402
   30.810    6.5508
   30.825    6.5087
   30.840    6.5613
   30.855    6.5087
   30.870    6.5824
   30.885    6.4771
   30.900    6.3507
   30.915    6.4982
   30.930    6.5719
   30.945    6.4876
   30.960    6.5298
   30.975    6.4244
   30.990    6.6877
   31.005    6.6667
   31.020    6.3296
   31.035    6.6351
   31.050    6.1822
   31.065    6.2559
   31.080    6.6140
   31.095    6.4139
   31.110    6.8878
   31.125    6.6140
   31.140    6.2559
   31.155    6.6245
   31.170    6.2770
   31.185    6.2770
   31.200    6.3402
   31.215    6.4771
   31.230    6.5824
   31.245    6.4034
   31.260    5.9926
   31.275    6.0664
   31.290    6.4455
   31.305    6.6140
   31.320    6.6456
   31.335    6.5403
   31.350    6.2665
   31.365    6.2138
   31.380    6.1927
   31.395    6.3402
   31.410    6.4244
   31.425    6.3507
   31.440    6.5929
   31.455    6.3928
   31.470    6.7825
   31.485    5.8557
   31.500    6.2770
   31.515    6.1822
   31.530    6.2875
   31.545    6.3086
   31.560    6.2243
   31.575    6.3718
   31.590    6.4139
   31.605    6.7509
   31.620    6.3823
   31.635    6.6561
   31.650    6.5613
   31.665    6.0032
   31.680    6.4350
   31.695    6.3928
   31.710    6.5087
   31.725    6.6877
   31.740    6.4244
   31.755    6.4455
   31.770    6.7088
   31.785    6.7930
   31.800    6.8352
   31.815    6.6456
   31.830    6.6561
   31.845    6.7509
   31.860    6.6140
   31.875    6.7930
   31.890    6.3823
   31.905    6.5403
   31.920    6.5824
   31.935    6.9089
   31.950    6.2665
   31.965    6.7088
   31.980    6.8878
   31.995    6.3086
   32.010    6.2665
   32.025    6.5719
   32.040    6.5192
   32.055    6.6561
   32.070    6.6456
   32.085    6.4244
   32.100    6.3823
   32.115    6.4982
   32.130    6.3296
   32.145    6.7299
   32.160    6.5719
   32.175    6.4876
   32.190    6.2454
   32.205    6.3191
   32.220    6.4455
   32.235    6.4982
   32.250    6.2981
   32.265    6.1927
   32.280    6.5403
   32.295    6.2559
   32.310    6.5508
   32.325    6.5298
   32.340    6.2454
   32.355    6.4034
   32.370    6.4876
   32.385    6.1822
   32.400    6.2454
   32.415    6.2349
   32.430    6.5403
   32.445    6.2243
   32.460    6.1506
   32.475    6.1927
   32.490    6.5719
   32.505    6.2138
   32.520    6.3718
   32.535    6.2875
   32.550    6.4034
   32.565    6.3086
   32.580    6.1822
   32.595    6.2033
   32.610    6.5719
   32.625    6.3296
   32.640    6.1927
   32.655    6.1506
   32.670    6.0664
   32.685    6.2875
   32.700    6.3086
   32.715    6.1611
   32.730    5.9400
   32.745    6.0137
   32.760    6.2559
   32.775    6.1295
   32.790    6.2559
   32.805    6.4771
   32.820    6.5087
   32.835    6.0348
   32.850    5.6240
   32.865    6.1295
   32.880    6.0769
   32.895    6.2243
   32.910    6.3402
   32.925    6.3086
   32.940    6.4034
   32.955    6.2243
   32.970    6.1295
   32.985    6.0032
   33.000    6.1506
   33.015    6.2770
   33.030    6.3507
   33.045    5.7293
   33.060    5.7820
   33.075    6.1401
   33.090    6.0242
   33.105    6.0137
   33.120    6.1717
   33.135    6.3823
   33.150    6.4455
   33.165    5.9821
   33.180    6.0242
   33.195    6.5403
   33.210    6.6035
   33.225    6.3718
   33.240    6.2243
   33.255    6.2243
   33.270    6.1822
   33.285    6.1822
   33.300    5.9821
   33.315    6.4455
   33.330    6.2138
   33.345    6.2665
   33.360    6.1506
   33.375    6.0979
   33.390    6.1190
   33.405    6.1822
   33.420    6.0874
   33.435    6.2349
   33.450    6.2243
   33.465    6.2349
   33.480    5.9716
   33.495    6.2559
   33.510    6.1295
   33.525    5.9505
   33.540    6.1927
   33.555    5.8873
   33.570    6.1927
   33.585    6.2665
   33.600    5.9400
   33.615    6.3191
   33.630    6.5403
   33.645    6.6035
   33.660    6.5087
   33.675    6.4666
   33.690    6.1927
   33.705    6.1190
   33.720    6.4560
   33.735    6.4771
   33.750    5.9610
   33.765    6.1295
   33.780    6.0979
   33.795    5.9926
   33.810    6.1717
   33.825    6.1717
   33.840    6.2559
   33.855    6.3507
   33.870    6.2559
   33.885    6.1822
   33.900    5.6135
   33.915    5.8031
   33.930    6.2349
   33.945    6.0032
   33.960    6.0137
   33.975    6.3086
   33.990    5.8662
   34.005    5.8557
   34.020    6.0242
   34.035    5.8768
   34.050    6.0769
   34.065    6.3823
   34.080    6.3402
   34.095    6.2665
   34.110    5.9716
   34.125    6.1295
   34.140    6.6140
   34.155    6.4455
   34.170    6.3507
   34.185    5.8136
   34.200    5.9505
   34.215    5.7188
   34.230    6.2559
   34.245    6.2665
   34.260    6.1190
   34.275    5.8873
   34.290    5.8452
   34.305    5.9821
   34.320    5.9821
   34.335    6.0979
   34.350    6.1822
   34.365    5.8241
   34.380    5.5398
   34.395    6.2033
   34.410    6.1085
   34.425    6.0769
   34.440    6.0242
   34.455    6.3928
   34.470    6.4350
   34.485    6.2559
   34.500    6.1927
   34.515    6.0137
   34.530    6.0348
   34.545    5.9400
   34.560    6.0979
   34.575    5.9505
   34.590    5.6029
   34.605    5.8873
   34.620    6.3191
   34.635    6.0032
   34.650    5.9821
   34.665    6.1190
   34.680    6.3086
   34.695    6.2033
   34.710    6.1611
   34.725    5.9400
   34.740    6.1927
   34.755    5.8873
   34.770    6.1295
   34.785    5.6977
   34.800    5.5924
   34.815    5.8347
   34.830    6.0453
   34.845    5.7925
   34.860    5.9294
   34.875    6.0558
   34.890    5.9084
   34.905    5.9716
   34.920    6.0453
   34.935    6.1401
   34.950    6.0242
   34.965    6.0348
   34.980    6.1401
   34.995    5.9821
   35.010    5.9400
   35.025    5.9926
   35.040    6.1822
   35.055    5.9821
   35.070    6.0874
   35.085    5.8031
   35.100    5.8873
   35.115    5.9084
   35.130    5.8978
   35.145    5.8452
   35.160    6.0558
   35.175    6.1295
   35.190    6.2875
   35.205    5.8768
   35.220    5.8978
   35.235    6.1717
   35.250    6.2559
   35.265    5.7399
   35.280    5.9189
   35.295    6.1190
   35.310    5.9294
   35.325    5.9505
   35.340    5.9716
   35.355    6.1506
   35.370    6.0453
   35.385    5.9716
   35.400    6.0348
   35.415    5.9505
   35.430    6.1927
   35.445    6.0242
   35.460    5.9505
   35.475    5.9294
   35.490    6.0348
   35.505    6.3612
   35.520    5.7293
   35.535    5.9926
   35.550    5.7609
   35.565    5.5924
   35.580    5.7083
   35.595    5.9084
   35.610    6.0348
   35.625    5.9400
   35.640    5.9716
   35.655    5.6977
   35.670    5.7083
   35.685    5.7399
   35.700    6.3402
   35.715    6.2243
   35.730    5.8031
   35.745    6.0769
   35.760    6.0242
   35.775    6.2033
   35.790    5.7715
   35.805    5.8768
   35.820    5.6977
   35.835    5.8557
   35.850    5.9400
   35.865    6.2770
   35.880    6.3928
   35.895    6.4666
   35.910    6.1190
   35.925    5.9716
   35.940    5.7399
   35.955    5.8241
   35.970    6.0874
   35.985    6.1295
   36.000    5.7188
   36.015    6.0348
   36.030    5.6767
   36.045    5.7715
   36.060    5.9505
   36.075    6.1295
   36.090    6.0453
   36.105    5.5819
   36.120    5.7188
   36.135    5.8452
   36.150    5.6135
   36.165    5.9716
   36.180    5.6240
   36.195    5.7188
   36.210    5.5608
   36.225    5.8557
   36.240    5.7399
   36.255    5.7083
   36.270    5.7715
   36.285    6.1717
   36.300    5.9610
   36.315    6.0874
   36.330    6.0453
   36.345    5.9716
   36.360    5.9505
   36.375    6.0453
   36.390    5.8452
   36.405    5.5924
   36.420    5.7925
   36.435    6.0137
   36.450    5.8241
   36.465    5.6767
   36.480    5.6345
   36.495    6.0979
   36.510    6.1295
   36.525    6.0979
   36.540    5.8136
   36.555    6.3191
   36.570    6.0032
   36.585    5.7820
   36.600    5.8978
   36.615    5.5082
   36.630    5.8557
   36.645    5.8452
   36.660    5.7925
   36.675    5.6872
   36.690    6.0137
   36.705    6.0348
   36.720    5.7399
   36.735    5.7188
   36.750    6.0137
   36.765    5.9610
   36.780    6.1190
   36.795    5.9926
   36.810    5.7925
   36.825    5.6556
   36.840    5.6977
   36.855    5.6451
   36.870    5.4871
   36.885    5.6029
   36.900    5.5503
   36.915    5.7715
   36.930    6.0137
   36.945    6.0348
   36.960    5.7715
   36.975    5.6556
   36.990    5.7504
   37.005    5.7293
   37.020    5.6451
   37.035    5.7188
   37.050    5.6556
   37.065    5.5398
   37.080    5.8557
   37.095    5.5714
   37.110    5.4555
   37.125    5.7820
   37.140    5.7609
   37.155    5.5503
   37.170    5.7820
   37.185    5.9926
   37.200    5.7715
   37.215    5.8347
   37.230    5.8241
   37.245    5.9400
   37.260    5.8978
   37.275    5.6240
   37.290    5.7083
   37.305    5.6135
   37.320    5.7609
   37.335    5.3712
   37.350    5.7715
   37.365    5.9926
   37.380    6.0769
   37.395    5.7504
   37.410    5.4239
   37.425    5.4134
   37.440    5.6345
   37.455    5.9084
   37.470    6.1190
   37.485    5.8662
   37.500    5.3712
   37.515    5.6345
   37.530    5.6029
   37.545    5.8662
   37.560    5.6135
   37.575    5.6556
   37.590    5.8557
   37.605    5.5714
   37.620    5.7504
   37.635    5.7609
   37.650    5.4871
   37.665    5.4555
   37.680    5.5187
   37.695    6.0769
   37.710    5.8978
   37.725    6.0558
   37.740    5.5819
   37.755    5.4344
   37.770    5.7293
   37.785    5.5398
   37.800    5.7820
   37.815    6.0242
   37.830    5.8241
   37.845    5.9294
   37.860    5.5924
   37.875    5.5292
   37.890    5.5187
   37.905    5.6661
   37.920    5.7399
   37.935    5.6767
   37.950    5.6556
   37.965    5.6451
   37.980    5.4660
   37.995    5.6029
   38.010    5.7293
   38.025    5.7609
   38.040    5.7715
   38.055    5.5292
   38.070    5.6135
   38.085    5.6872
   38.100    5.7504
   38.115    5.5082
   38.130    5.4766
   38.145    5.4239
   38.160    5.6135
   38.175    5.7609
   38.190    5.8662
   38.205    5.8873
   38.220    6.0874
   38.235    5.9189
   38.250    5.8452
   38.265    5.6345
   38.280    5.6135
   38.295    5.7504
   38.310    5.7609
   38.325    5.6872
   38.340    5.8768
   38.355    5.6240
   38.370    5.5187
   38.385    6.2033
   38.400    5.9610
   38.415    5.8768
   38.430    5.8241
   38.445    6.0137
   38.460    5.8978
   38.475    5.5082
   38.490    5.6872
   38.505    5.7925
   38.520    5.8452
   38.535    5.8347
   38.550    5.7820
   38.565    5.5819
   38.580    5.7083
   38.595    6.1611
   38.610    5.8978
   38.625    5.7399
   38.640    5.6029
   38.655    5.8241
   38.670    5.8978
   38.685    5.5924
   38.700    5.6240
   38.715    5.9294
   38.730    5.6029
   38.745    5.9084
   38.760    6.1822
   38.775    5.7188
   38.790    5.9400
   38.805    5.6872
   38.820    5.6872
   38.835    5.5714
   38.850    5.6872
   38.865    5.6451
   38.880    5.4660
   38.895    5.7399
   38.910    6.0032
   38.925    5.6767
   38.940    5.4660
   38.955    5.5608
   38.970    5.8452
   38.985    5.6872
   39.000    5.6240
   39.015    5.6872
   39.030    5.6029
   39.045    5.6977
   39.060    5.6135
   39.075    5.7083
   39.090    5.6029
   39.105    5.6135
   39.120    5.8452
   39.135    5.8662
   39.150    6.0137
   39.165    5.5924
   39.180    5.5819
   39.195    5.6767
   39.210    5.5187
   39.225    5.9084
   39.240    5.9610
   39.255    5.4134
   39.270    5.4871
   39.285    6.0242
   39.300    5.6135
   39.315    5.6135
   39.330    5.8662
   39.345    6.0032
   39.360    5.8873
   39.375    5.7399
   39.390    6.0664
   39.405    5.8136
   39.420    5.6767
   39.435    5.7188
   39.450    5.7609
   39.465    5.4660
   39.480    5.5819
   39.495    5.5187
   39.510    5.5398
   39.525    5.7083
   39.540    5.8347
   39.555    6.0664
   39.570    5.9610
   39.585    5.5608
   39.600    5.2449
   39.615    5.6661
   39.630    5.8557
   39.645    5.7715
   39.660    5.1606
   39.675    5.6872
   39.690    5.9400
   39.705    5.6977
   39.720    5.6977
   39.735    5.8557
   39.750    5.8347
   39.765    5.6556
   39.780    5.1817
   39.795    5.6345
   39.810    5.7504
   39.825    5.4871
   39.840    5.7399
   39.855    5.8031
   39.870    5.5187
   39.885    5.7188
   39.900    5.5187
   39.915    5.4344
   39.930    5.2554
   39.945    5.5503
   39.960    5.7293
   39.975    5.8452
   39.990    5.9084
