    1.500   29.8999
    1.515   30.7952
    1.530   29.0153
    1.545   28.8678
    1.560   28.7730
    1.575   27.5619
    1.590   27.4566
    1.605   27.2143
    1.620   26.2138
    1.635   25.8452
    1.650   24.5708
    1.665   25.1080
    1.680   24.3391
    1.695   23.6651
    1.710   23.3491
    1.725   23.1174
    1.740   23.1490
    1.755   23.0858
    1.770   23.0437
    1.785   21.9800
    1.800   21.3060
    1.815   21.0427
    1.830   21.9379
    1.845   20.9163
    1.860   20.5055
    1.875   20.6003
    1.890   20.7478
    1.905   19.9368
    1.920   19.1575
    1.935   19.4313
    1.950   19.6103
    1.965   19.6419
    1.980   19.6525
    1.995   19.1575
    2.010   18.3570
    2.025   18.3570
    2.040   18.8731
    2.055   17.9674
    2.070   18.1359
    2.085   17.6935
    2.100   17.6725
    2.115   17.8199
    2.130   17.5987
    2.145   16.9142
    2.160   17.1037
    2.175   16.9774
    2.190   16.8088
    2.205   16.8615
    2.220   16.0506
    2.235   16.2085
    2.250   17.3144
    2.265   16.2717
    2.280   15.3660
    2.295   16.0506
    2.310   15.8189
    2.325   15.6082
    2.340   15.5661
    2.355   15.9452
    2.370   15.6609
    2.385   15.4292
    2.400   14.6919
    2.415   15.8715
    2.430   16.2401
    2.445   16.0927
    2.460   15.2080
    2.475   15.2396
    2.490   15.2185
    2.505   15.8610
    2.520   15.7451
    2.535   15.6503
    2.550   15.5450
    2.565   15.7346
    2.580   15.8083
    2.595   15.9452
    2.610   15.6293
    2.625   15.7241
    2.640   15.7030
    2.655   15.1659
    2.670   15.9347
    2.685   15.5450
    2.700   16.1348
    2.715   16.0190
    2.730   15.5345
    2.745   15.7557
    2.760   15.9452
    2.775   16.3560
    2.790   16.8404
    2.805   17.3565
    2.820   16.7562
    2.835   17.0300
    2.850   16.7246
    2.865   17.3881
    2.880   17.0511
    2.895   17.3038
    2.910   17.0511
    2.925   17.5250
    2.940   17.7778
    2.955   18.1253
    2.970   18.0832
    2.985   18.0621
    3.000   18.7151
    3.015   18.4202
    3.030   19.0732
    3.045   19.1996
    3.060   19.5050
    3.075   19.6314
    3.090   20.4739
    3.105   21.4639
    3.120   21.3270
    3.135   22.1485
    3.150   22.8752
    3.165   23.4123
    3.180   23.7704
    3.195   24.2759
    3.210   24.3602
    3.225   25.1080
    3.240   25.9189
    3.255   27.6988
    3.270   28.3518
    3.285   28.8573
    3.300   30.5424
    3.315   31.4481
    3.330   32.8805
    3.345   34.0600
    3.360   34.6919
    3.375   36.6825
    3.390   38.3886
    3.405   40.7794
    3.420   42.7909
    3.435   43.2649
    3.450   43.7599
    3.465   44.3707
    3.480   43.2965
    3.495   42.0642
    3.510   39.5050
    3.525   36.1243
    3.540   32.6698
    3.555   29.7736
    3.570   28.2675
    3.585   26.2243
    3.600   25.6767
    3.615   25.1080
    3.630   24.8341
    3.645   25.2659
    3.660   24.7920
    3.675   24.9500
    3.690   24.5708
    3.705   24.7183
    3.720   25.8557
    3.735   27.7620
    3.750   28.2991
    3.765   28.5097
    3.780   30.6477
    3.795   31.8062
    3.810   34.2285
    3.825   37.4724
    3.840   40.5161
    3.855   42.8331
    3.870   43.8441
    3.885   43.1806
    3.900   40.3581
    3.915   33.2491
    3.930   27.4355
    3.945   23.5492
    3.960   21.3902
    3.975   21.2533
    3.990   21.7378
    4.005   21.0005
    4.020   20.3265
    4.035   19.7051
    4.050   20.0211
    4.065   19.9579
    4.080   19.6840
    4.095   19.1575
    4.110   18.2622
    4.125   17.8515
    4.140   17.7778
    4.155   16.5666
    4.170   16.5034
    4.185   15.4924
    4.200   15.1659
    4.215   14.8920
    4.230   14.1969
    4.245   13.6809
    4.260   13.5545
    4.275   13.2385
    4.290   12.4908
    4.305   12.2591
    4.320   11.7641
    4.335   11.4481
    4.350   11.5113
    4.365   11.1743
    4.380   10.6688
    4.395   10.5108
    4.410   10.7636
    4.425   10.9847
    4.440   10.2580
    4.455   10.0474
    4.470    9.8999
    4.485    9.5208
    4.500    9.3312
    4.515    9.1311
    4.530    8.9100
    4.545    9.2996
    4.560    8.5624
    4.575    8.4781
    4.590    8.9205
    4.605    9.0258
    4.620    8.6467
    4.635    8.7414
    4.650    9.0890
    4.665    9.1732
    4.680    8.3096
    4.695    8.7520
    4.710    8.4781
    4.725    9.0153
    4.740    8.3728
    4.755    8.6677
    4.770    8.7941
    4.785    8.1833
    4.800    8.0358
    4.815    8.2780
    4.830    8.7309
    4.845    8.2570
    4.860    7.8041
    4.875    8.0990
    4.890    8.5835
    4.905    8.2359
    4.920    8.4255
    4.935    8.5413
    4.950    7.7304
    4.965    8.2359
    4.980    8.5940
    4.995    8.5308
    5.010    8.0885
    5.025    8.4255
    5.040    8.0779
    5.055    7.6251
    5.070    8.4255
    5.085    7.9937
    5.100    7.8884
    5.115    8.5308
    5.130    8.4887
    5.145    8.3412
    5.160    7.9937
    5.175    8.7520
    5.190    8.6045
    5.205    8.4150
    5.220    9.1732
    5.235    8.9626
    5.250    8.5519
    5.265    8.3834
    5.280    8.8046
    5.295    8.7836
    5.310    8.7204
    5.325    9.4155
    5.340    9.7630
    5.355    9.5524
    5.370    9.4576
    5.385   10.0895
    5.400   10.3844
    5.415   10.7846
    5.430   11.0269
    5.445   12.0274
    5.460   13.1543
    5.475   13.7546
    5.490   15.1553
    5.505   13.9126
    5.520   12.7646
    5.535   11.2691
    5.550    9.0258
    5.565    8.4466
    5.580    8.3412
    5.595    7.4250
    5.610    7.5935
    5.625    7.6988
    5.640    7.5197
    5.655    7.4144
    5.670    7.4882
    5.685    7.4355
    5.700    7.5303
    5.715    7.2880
    5.730    7.4250
    5.745    7.8041
    5.760    7.4776
    5.775    7.6567
    5.790    6.9405
    5.805    7.0037
    5.820    6.9826
    5.835    7.2354
    5.850    7.5935
    5.865    7.4144
    5.880    7.6988
    5.895    7.7936
    5.910    7.2143
    5.925    7.3618
    5.940    7.6988
    5.955    7.1617
    5.970    7.4144
    5.985    7.3196
    6.000    7.6040
    6.015    7.1617
    6.030    7.0563
    6.045    7.0563
    6.060    7.3196
    6.075    7.6145
    6.090    7.5829
    6.105    7.6356
    6.120    7.5829
    6.135    7.4882
    6.150    7.5619
    6.165    7.1617
    6.180    7.2038
    6.195    7.4566
    6.210    7.1090
    6.225    7.2880
    6.240    7.3091
    6.255    7.1511
    6.270    7.2249
    6.285    7.6461
    6.300    7.9726
    6.315    7.9410
    6.330    7.6356
    6.345    7.4144
    6.360    7.4039
    6.375    7.3407
    6.390    7.3196
    6.405    8.0885
    6.420    7.9831
    6.435    7.7199
    6.450    7.5935
    6.465    7.8884
    6.480    8.0990
    6.495    8.2780
    6.510    8.0042
    6.525    8.1411
    6.540    7.7409
    6.555    8.0042
    6.570    8.2254
    6.585    8.3096
    6.600    8.3939
    6.615    8.5624
    6.630    8.6677
    6.645    8.8573
    6.660    9.1627
    6.675    8.9731
    6.690    9.2259
    6.705   10.0369
    6.720    9.9526
    6.735   10.2264
    6.750    9.8262
    6.765    9.6156
    6.780    9.4681
    6.795    9.0363
    6.810    8.6888
    6.825    9.1311
    6.840    8.9415
    6.855    9.4260
    6.870    9.4681
    6.885    9.9737
    6.900   10.4265
    6.915   10.5951
    6.930   10.2896
    6.945   10.2475
    6.960   10.5740
    6.975   10.2791
    6.990   10.2264
    7.005    9.8368
    7.020   10.0474
    7.035    9.4681
    7.050    8.5519
    7.065    8.4044
    7.080    8.7098
    7.095    8.8257
    7.110    8.4992
    7.125    8.3202
    7.140    7.8778
    7.155    7.8041
    7.170    7.7409
    7.185    7.8673
    7.200    7.7304
    7.215    7.4355
    7.230    7.8778
    7.245    7.6461
    7.260    7.9937
    7.275    7.8673
    7.290    7.7725
    7.305    8.1095
    7.320    7.8884
    7.335    7.6672
    7.350    7.8778
    7.365    8.5097
    7.380    7.6461
    7.395    7.6777
    7.410    7.7620
    7.425    7.6461
    7.440    7.8252
    7.455    8.0569
    7.470    7.9726
    7.485    7.5092
    7.500    7.9621
    7.515    8.2780
    7.530    8.0253
    7.545    7.7936
    7.560    7.9831
    7.575    8.3834
    7.590    8.1517
    7.605    8.0885
    7.620    8.0463
    7.635    8.0147
    7.650    8.0569
    7.665    8.8468
    7.680    8.6677
    7.695    8.8889
    7.710    8.7941
    7.725    8.5729
    7.740    9.1943
    7.755    9.1943
    7.770    9.1627
    7.785    9.5419
    7.800    9.4260
    7.815    9.0574
    7.830    9.2259
    7.845    8.8678
    7.860    8.3728
    7.875    8.2886
    7.890    8.5940
    7.905    8.6572
    7.920    8.3412
    7.935    8.0569
    7.950    8.3096
    7.965    8.4571
    7.980    8.4887
    7.995    8.4466
    8.010    8.1833
    8.025    8.6045
    8.040    8.6045
    8.055    8.2886
    8.070    8.2991
    8.085    8.4255
    8.100    8.0147
    8.115    8.3412
    8.130    8.5203
    8.145    8.5519
    8.160    8.3518
    8.175    8.2780
    8.190    8.6677
    8.205    8.5729
    8.220    8.5624
    8.235    8.5835
    8.250    8.2464
    8.265    8.4255
    8.280    8.6677
    8.295    8.1201
    8.310    7.8884
    8.325    7.8673
    8.340    7.9410
    8.355    8.1622
    8.370    8.4255
    8.385    8.2570
    8.400    8.3834
    8.415    8.2675
    8.430    8.0463
    8.445    8.1938
    8.460    7.7725
    8.475    8.1517
    8.490    8.6888
    8.505    8.3834
    8.520    7.5935
    8.535    7.4882
    8.550    7.8357
    8.565    7.9200
    8.580    7.7514
    8.595    7.5829
    8.610    7.6777
    8.625    7.6777
    8.640    7.8884
    8.655    8.1201
    8.670    8.2359
    8.685    8.2149
    8.700    8.2991
    8.715    8.0147
    8.730    8.0253
    8.745    8.0463
    8.760    7.4987
    8.775    7.9200
    8.790    7.6988
    8.805    7.3723
    8.820    7.7199
    8.835    7.9410
    8.850    7.6145
    8.865    7.6883
    8.880    7.5303
    8.895    7.6461
    8.910    7.9516
    8.925    7.9094
    8.940    8.1622
    8.955    7.8673
    8.970    7.3407
    8.985    7.4460
    9.000    7.5408
    9.015    7.7199
    9.030    7.6777
    9.045    7.5303
    9.060    7.5619
    9.075    7.4987
    9.090    7.7620
    9.105    7.8041
    9.120    7.7725
    9.135    7.7409
    9.150    7.5935
    9.165    7.7514
    9.180    7.8462
    9.195    7.6883
    9.210    7.6356
    9.225    7.1090
    9.240    7.5935
    9.255    7.7199
    9.270    7.3828
    9.285    7.5197
    9.300    7.4882
    9.315    7.7093
    9.330    7.8462
    9.345    7.4460
    9.360    7.5408
    9.375    7.7514
    9.390    7.7725
    9.405    7.7093
    9.420    8.4781
    9.435    8.0885
    9.450    8.3728
    9.465    8.6993
    9.480    8.7520
    9.495    8.8362
    9.510    9.4471
    9.525    9.8262
    9.540    9.6893
    9.555    9.9315
    9.570   10.0579
    9.585    9.1206
    9.600    8.4150
    9.615    8.3202
    9.630    7.9305
    9.645    7.4039
    9.660    7.4671
    9.675    7.0248
    9.690    7.6145
    9.705    7.4987
    9.720    7.1722
    9.735    7.6672
    9.750    7.8989
    9.765    7.2459
    9.780    7.4250
    9.795    7.5724
    9.810    7.5197
    9.825    7.4460
    9.840    7.1511
    9.855    7.2775
    9.870    7.2143
    9.885    7.6145
    9.900    7.6567
    9.915    7.4250
    9.930    7.4460
    9.945    7.6356
    9.960    7.9094
    9.975    7.8462
    9.990    7.3302
   10.005    7.3302
   10.020    7.2143
   10.035    7.5619
   10.050    7.6777
   10.065    7.4250
   10.080    7.3407
   10.095    8.0463
   10.110    7.4144
   10.125    7.2038
   10.140    7.4460
   10.155    7.6251
   10.170    8.0990
   10.185    7.5935
   10.200    7.8673
   10.215    7.8673
   10.230    7.8778
   10.245    8.0358
   10.260    7.7620
   10.275    8.0885
   10.290    8.1833
   10.305    8.4571
   10.320    8.5413
   10.335    8.2570
   10.350    8.4571
   10.365    7.9410
   10.380    7.7409
   10.395    7.8462
   10.410    8.0147
   10.425    7.5197
   10.440    7.9200
   10.455    7.6567
   10.470    7.7620
   10.485    7.5408
   10.500    7.2143
   10.515    7.6567
   10.530    7.7725
   10.545    7.5092
   10.560    7.4671
   10.575    7.3091
   10.590    7.7093
   10.605    7.4882
   10.620    7.3302
   10.635    6.9932
   10.650    6.8984
   10.665    7.2670
   10.680    7.3828
   10.695    7.6356
   10.710    6.9194
   10.725    7.4250
   10.740    7.0458
   10.755    7.5408
   10.770    7.8673
   10.785    7.7093
   10.800    7.1827
   10.815    7.1933
   10.830    7.3618
   10.845    7.1617
   10.860    7.6040
   10.875    7.1617
   10.890    7.2775
   10.905    7.2459
   10.920    7.0669
   10.935    7.4776
   10.950    7.8146
   10.965    8.1201
   10.980    7.8041
   10.995    8.1201
   11.010    8.0674
   11.025    8.0463
   11.040    7.8989
   11.055    7.8884
   11.070    7.9726
   11.085    7.8252
   11.100    7.3723
   11.115    7.2565
   11.130    7.6777
   11.145    7.8778
   11.160    7.8252
   11.175    7.1827
   11.190    7.4144
   11.205    7.6251
   11.220    7.2775
   11.235    7.5513
   11.250    7.5197
   11.265    7.2249
   11.280    7.5829
   11.295    7.2143
   11.310    7.4039
   11.325    7.4355
   11.340    7.1617
   11.355    7.2249
   11.370    7.4250
   11.385    7.1933
   11.400    7.3723
   11.415    7.3091
   11.430    7.2565
   11.445    6.6351
   11.460    7.2565
   11.475    7.5092
   11.490    6.8773
   11.505    7.3196
   11.520    7.3091
   11.535    7.4671
   11.550    7.6040
   11.565    7.1511
   11.580    7.1511
   11.595    7.2565
   11.610    7.2459
   11.625    7.3302
   11.640    7.2775
   11.655    7.0879
   11.670    7.7304
   11.685    8.2464
   11.700    8.2675
   11.715    8.0358
   11.730    7.7620
   11.745    8.2149
   11.760    7.9305
   11.775    7.8357
   11.790    7.4250
   11.805    7.0985
   11.820    6.9721
   11.835    6.9194
   11.850    6.7299
   11.865    7.2775
   11.880    7.5724
   11.895    7.1090
   11.910    7.0774
   11.925    7.1617
   11.940    7.3302
   11.955    7.4144
   11.970    7.2565
   11.985    7.4776
   12.000    7.3302
   12.015    6.8668
   12.030    7.0142
   12.045    7.2459
   12.060    7.4250
   12.075    7.0037
   12.090    6.9826
   12.105    7.0142
   12.120    7.0879
   12.135    7.5197
   12.150    7.3512
   12.165    7.6567
   12.180    7.2670
   12.195    7.1406
   12.210    7.4039
   12.225    7.0037
   12.240    7.4355
   12.255    6.9510
   12.270    7.1933
   12.285    7.2038
   12.300    7.2775
   12.315    7.2986
   12.330    7.2354
   12.345    7.3618
   12.360    7.5829
   12.375    7.3302
   12.390    7.0248
   12.405    7.0774
   12.420    6.7720
   12.435    6.8352
   12.450    6.8562
   12.465    7.4987
   12.480    7.2143
   12.495    7.3302
   12.510    7.3196
   12.525    6.7509
   12.540    7.3091
   12.555    7.0669
   12.570    7.2459
   12.585    7.2143
   12.600    7.1722
   12.615    7.1722
   12.630    7.3934
   12.645    6.9405
   12.660    7.2986
   12.675    7.0037
   12.690    6.6877
   12.705    7.1301
   12.720    7.2670
   12.735    7.1406
   12.750    7.1933
   12.765    7.0879
   12.780    7.1301
   12.795    7.4355
   12.810    7.5619
   12.825    7.2354
   12.840    7.2038
   12.855    7.0563
   12.870    7.2354
   12.885    7.3828
   12.900    7.5092
   12.915    7.3723
   12.930    7.8041
   12.945    7.7936
   12.960    7.5092
   12.975    7.3512
   12.990    7.4460
   13.005    7.3828
   13.020    7.4250
   13.035    7.0037
   13.050    6.8036
   13.065    6.8984
   13.080    7.1090
   13.095    6.9616
   13.110    7.2565
   13.125    7.2880
   13.140    7.2249
   13.155    7.0142
   13.170    7.5619
   13.185    7.1090
   13.200    6.9300
   13.215    6.6245
   13.230    7.2143
   13.245    7.3828
   13.260    7.0669
   13.275    6.8036
   13.290    7.2986
   13.305    7.3407
   13.320    7.4355
   13.335    7.0985
   13.350    6.7299
   13.365    6.7615
   13.380    6.7825
   13.395    6.4560
   13.410    6.8984
   13.425    6.9826
   13.440    7.0669
   13.455    6.9932
   13.470    7.1301
   13.485    7.2565
   13.500    7.2565
   13.515    7.2775
   13.530    6.8668
   13.545    6.7825
   13.560    6.7930
   13.575    7.3196
   13.590    7.1090
   13.605    7.6988
   13.620    7.1722
   13.635    6.8773
   13.650    6.6140
   13.665    6.9194
   13.680    6.7509
   13.695    6.5298
   13.710    7.1511
   13.725    7.3302
   13.740    6.8562
   13.755    6.8878
   13.770    6.7404
   13.785    7.0458
   13.800    7.4355
   13.815    7.4882
   13.830    6.7509
   13.845    7.0879
   13.860    7.1195
   13.875    7.0248
   13.890    6.9826
   13.905    7.0248
   13.920    6.9510
   13.935    6.9300
   13.950    7.2143
   13.965    6.9932
   13.980    6.8878
   13.995    7.2249
   14.010    7.2249
   14.025    7.3618
   14.040    7.5408
   14.055    7.4144
   14.070    7.4566
   14.085    7.2986
   14.100    7.3091
   14.115    7.3828
   14.130    7.3407
   14.145    6.9300
   14.160    6.9300
   14.175    6.7088
   14.190    6.6456
   14.205    6.8878
   14.220    7.2670
   14.235    7.0985
   14.250    6.8352
   14.265    6.8562
   14.280    6.9194
   14.295    7.1090
   14.310    6.8036
   14.325    6.6983
   14.340    7.0353
   14.355    6.9616
   14.370    6.6456
   14.385    6.9405
   14.400    6.5403
   14.415    7.1090
   14.430    7.0774
   14.445    6.7193
   14.460    7.1406
   14.475    6.8773
   14.490    6.6667
   14.505    6.8668
   14.520    6.5719
   14.535    6.8668
   14.550    7.3723
   14.565    7.1933
   14.580    6.9932
   14.595    7.0985
   14.610    6.6351
   14.625    6.5508
   14.640    6.8773
   14.655    6.7930
   14.670    7.0985
   14.685    6.9826
   14.700    7.1090
   14.715    6.7088
   14.730    7.3512
   14.745    6.7720
   14.760    6.9089
   14.775    6.6772
   14.790    6.5298
   14.805    6.5719
   14.820    6.8878
   14.835    6.9089
   14.850    7.0563
   14.865    6.9932
   14.880    6.9932
   14.895    6.5929
   14.910    7.0142
   14.925    7.1301
   14.940    7.2986
   14.955    6.7088
   14.970    6.6351
   14.985    7.0353
   15.000    6.9300
   15.015    7.0037
   15.030    6.6772
   15.045    7.0037
   15.060    6.7404
   15.075    6.7193
   15.090    6.7088
   15.105    6.7088
   15.120    6.7615
   15.135    6.9826
   15.150    7.1090
   15.165    6.8141
   15.180    7.2249
   15.195    7.0458
   15.210    6.3928
   15.225    6.9089
   15.240    7.1195
   15.255    6.7930
   15.270    6.9405
   15.285    6.8773
   15.300    7.1827
   15.315    6.9826
   15.330    6.5613
   15.345    6.7930
   15.360    7.1933
   15.375    6.7615
   15.390    6.9932
   15.405    6.8352
   15.420    6.9405
   15.435    6.8668
   15.450    6.8352
   15.465    6.9405
   15.480    6.9510
   15.495    6.6772
   15.510    6.9721
   15.525    7.0774
   15.540    7.0563
   15.555    6.9300
   15.570    6.4876
   15.585    6.8984
   15.600    7.0563
   15.615    6.8036
   15.630    6.7193
   15.645    7.3618
   15.660    6.9510
   15.675    7.1406
   15.690    7.1301
   15.705    6.9721
   15.720    7.1722
   15.735    7.2670
   15.750    7.0563
   15.765    6.9932
   15.780    6.6877
   15.795    7.0774
   15.810    7.0985
   15.825    6.7404
   15.840    7.0458
   15.855    7.0563
   15.870    7.2249
   15.885    6.9721
   15.900    7.1722
   15.915    7.5724
   15.930    7.6145
   15.945    7.4250
   15.960    7.4776
   15.975    7.3302
   15.990    7.4355
   16.005    7.4355
   16.020    7.7409
   16.035    7.4882
   16.050    7.3618
   16.065    7.4987
   16.080    7.9831
   16.095    8.0674
   16.110    7.8462
   16.125    8.0253
   16.140    8.2886
   16.155    8.0885
   16.170    7.3302
   16.185    7.2249
   16.200    7.5513
   16.215    7.2670
   16.230    7.4566
   16.245    7.3934
   16.260    7.3302
   16.275    7.0774
   16.290    7.1827
   16.305    7.4144
   16.320    7.3512
   16.335    7.4776
   16.350    7.3723
   16.365    7.0879
   16.380    6.7930
   16.395    7.0142
   16.410    7.1933
   16.425    7.2775
   16.440    7.3302
   16.455    7.6145
   16.470    7.1406
   16.485    6.7404
   16.500    6.8773
   16.515    7.3512
   16.530    6.8984
   16.545    6.8246
   16.560    7.0353
   16.575    6.7615
   16.590    6.8457
   16.605    7.1617
   16.620    7.0248
   16.635    6.8878
   16.650    7.2249
   16.665    7.2670
   16.680    6.9932
   16.695    6.8036
   16.710    7.0563
   16.725    7.3618
   16.740    6.9932
   16.755    6.7825
   16.770    7.0458
   16.785    6.7930
   16.800    6.6983
   16.815    6.7088
   16.830    7.0879
   16.845    7.1617
   16.860    6.8457
   16.875    6.8141
   16.890    7.1511
   16.905    6.8984
   16.920    7.1406
   16.935    7.2354
   16.950    7.4460
   16.965    6.6877
   16.980    7.0879
   16.995    7.2354
   17.010    6.9721
   17.025    6.8878
   17.040    6.9826
   17.055    7.0879
   17.070    7.5197
   17.085    7.2143
   17.100    7.1933
   17.115    7.5092
   17.130    7.1301
   17.145    6.9826
   17.160    7.0142
   17.175    6.7930
   17.190    6.9932
   17.205    6.7930
   17.220    7.0563
   17.235    7.3512
   17.250    6.9932
   17.265    6.7615
   17.280    6.4666
   17.295    6.9616
   17.310    7.1722
   17.325    7.0248
   17.340    7.0985
   17.355    7.0037
   17.370    6.7299
   17.385    7.2038
   17.400    7.1722
   17.415    7.0563
   17.430    7.2459
   17.445    6.9510
   17.460    6.9721
   17.475    6.8457
   17.490    6.6140
   17.505    6.9405
   17.520    6.8668
   17.535    7.3091
   17.550    7.1722
   17.565    6.5929
   17.580    6.6456
   17.595    7.2354
   17.610    7.0774
   17.625    7.0037
   17.640    6.9194
   17.655    6.4244
   17.670    6.5929
   17.685    6.9405
   17.700    6.8773
   17.715    6.4982
   17.730    6.9194
   17.745    7.0985
   17.760    7.1195
   17.775    6.9616
   17.790    7.0037
   17.805    6.9721
   17.820    7.0353
   17.835    6.9721
   17.850    6.9721
   17.865    6.9194
   17.880    7.1090
   17.895    7.3828
   17.910    7.0669
   17.925    6.9932
   17.940    7.1722
   17.955    6.9616
   17.970    6.7825
   17.985    7.0985
   18.000    6.8562
   18.015    6.6456
   18.030    7.0563
   18.045    7.0563
   18.060    6.7299
   18.075    7.0669
   18.090    7.1090
   18.105    6.6561
   18.120    6.8773
   18.135    7.0142
   18.150    7.0985
   18.165    6.6140
   18.180    6.7404
   18.195    6.6245
   18.210    6.8773
   18.225    6.8562
   18.240    6.6983
   18.255    6.8773
   18.270    6.9510
   18.285    6.9300
   18.300    6.8141
   18.315    6.5403
   18.330    6.8773
   18.345    7.0458
   18.360    6.2454
   18.375    6.9510
   18.390    6.7404
   18.405    6.5087
   18.420    6.7299
   18.435    6.8668
   18.450    7.0985
   18.465    6.3718
   18.480    6.5508
   18.495    7.3302
   18.510    6.8141
   18.525    6.7088
   18.540    6.7930
   18.555    6.7299
   18.570    7.4355
   18.585    7.1827
   18.600    6.7193
   18.615    6.8984
   18.630    7.2038
   18.645    6.7404
   18.660    6.8141
   18.675    6.9510
   18.690    7.2354
   18.705    7.2249
   18.720    7.0142
   18.735    6.8878
   18.750    6.8878
   18.765    6.9194
   18.780    7.1195
   18.795    6.8457
   18.810    7.0669
   18.825    6.8246
   18.840    6.7825
   18.855    6.7509
   18.870    7.2038
   18.885    7.1090
   18.900    7.2249
   18.915    7.3302
   18.930    6.9616
   18.945    7.0985
   18.960    7.4671
   18.975    7.4039
   18.990    7.4671
   19.005    7.5408
   19.020    7.5724
   19.035    7.4250
   19.050    7.5513
   19.065    7.0669
   19.080    7.1301
   19.095    6.7299
   19.110    6.8457
   19.125    7.1090
   19.140    7.1301
   19.155    6.9826
   19.170    6.9089
   19.185    6.8457
   19.200    7.0248
   19.215    7.0985
   19.230    7.2038
   19.245    7.2565
   19.260    6.8668
   19.275    6.5403
   19.290    6.7509
   19.305    7.0669
   19.320    7.2143
   19.335    6.7299
   19.350    6.7825
   19.365    6.7404
   19.380    7.3512
   19.395    7.2143
   19.410    7.1722
   19.425    7.0458
   19.440    6.6667
   19.455    6.7615
   19.470    7.4250
   19.485    6.9826
   19.500    6.8457
   19.515    7.1617
   19.530    6.7299
   19.545    6.9616
   19.560    6.7825
   19.575    6.8984
   19.590    6.9932
   19.605    6.7825
   19.620    6.9932
   19.635    7.3828
   19.650    7.1933
   19.665    7.1301
   19.680    6.7720
   19.695    6.9405
   19.710    6.9826
   19.725    6.8984
   19.740    7.2880
   19.755    6.8457
   19.770    6.9510
   19.785    6.9510
   19.800    6.9405
   19.815    6.6561
   19.830    6.8036
   19.845    6.7404
   19.860    7.0879
   19.875    7.1090
   19.890    7.1195
   19.905    7.1933
   19.920    7.0563
   19.935    7.0142
   19.950    7.2459
   19.965    7.3723
   19.980    7.7936
   19.995    7.2354
   20.010    7.1406
   20.025    7.2143
   20.040    7.0142
   20.055    7.0563
   20.070    7.1090
   20.085    6.7930
   20.100    7.0248
   20.115    6.9405
   20.130    7.1090
   20.145    7.3512
   20.160    6.6983
   20.175    6.8246
   20.190    6.5719
   20.205    6.7930
   20.220    7.2775
   20.235    6.8246
   20.250    7.0879
   20.265    7.3302
   20.280    7.0774
   20.295    7.3302
   20.310    7.0563
   20.325    7.1722
   20.340    7.6251
   20.355    7.0458
   20.370    7.1195
   20.385    7.3091
   20.400    7.2038
   20.415    7.2986
   20.430    7.4776
   20.445    7.1301
   20.460    6.9194
   20.475    6.9300
   20.490    7.2459
   20.505    6.8878
   20.520    7.0879
   20.535    7.0353
   20.550    6.9300
   20.565    6.9194
   20.580    7.2880
   20.595    7.0985
   20.610    7.3196
   20.625    7.5408
   20.640    6.9405
   20.655    7.0353
   20.670    7.2880
   20.685    7.1933
   20.700    7.5935
   20.715    7.0563
   20.730    7.0669
   20.745    7.3091
   20.760    7.0669
   20.775    7.2670
   20.790    7.1406
   20.805    7.3407
   20.820    7.0037
   20.835    6.7615
   20.850    7.6777
   20.865    7.4776
   20.880    7.6251
   20.895    6.7930
   20.910    6.8878
   20.925    7.2143
   20.940    7.1511
   20.955    6.9826
   20.970    6.9932
   20.985    7.3302
   21.000    6.8457
   21.015    7.1722
   21.030    7.2459
   21.045    7.1933
   21.060    7.4776
   21.075    7.1195
   21.090    7.3407
   21.105    6.5719
   21.120    7.0037
   21.135    7.0563
   21.150    7.1827
   21.165    6.7825
   21.180    6.6561
   21.195    6.9300
   21.210    7.0774
   21.225    7.2775
   21.240    7.2459
   21.255    7.3512
   21.270    7.0563
   21.285    6.7404
   21.300    6.8036
   21.315    7.1195
   21.330    7.5303
   21.345    7.5829
   21.360    7.1301
   21.375    6.9089
   21.390    7.4566
   21.405    7.3302
   21.420    7.2249
   21.435    7.1301
   21.450    7.0142
   21.465    7.0985
   21.480    7.3512
   21.495    7.2459
   21.510    7.2670
   21.525    7.2670
   21.540    7.4566
   21.555    7.0563
   21.570    7.2038
   21.585    7.0142
   21.600    7.2143
   21.615    7.2565
   21.630    6.8246
   21.645    7.0669
   21.660    6.7720
   21.675    7.2459
   21.690    7.0353
   21.705    7.3196
   21.720    7.3828
   21.735    7.5408
   21.750    7.5303
   21.765    7.0248
   21.780    7.1301
   21.795    7.0142
   21.810    7.1090
   21.825    7.3723
   21.840    7.3512
   21.855    7.5408
   21.870    7.1511
   21.885    7.1827
   21.900    6.9721
   21.915    7.3196
   21.930    6.9932
   21.945    7.3512
   21.960    7.3091
   21.975    7.3618
   21.990    7.1090
   22.005    7.2986
   22.020    7.0248
   22.035    6.8668
   22.050    7.3618
   22.065    7.2775
   22.080    7.0458
   22.095    6.8036
   22.110    6.8773
   22.125    7.2143
   22.140    6.9300
   22.155    6.7615
   22.170    7.3512
   22.185    7.1933
   22.200    6.8773
   22.215    7.2459
   22.230    6.9826
   22.245    7.1406
   22.260    7.3828
   22.275    7.3091
   22.290    7.3828
   22.305    6.9510
   22.320    6.8562
   22.335    7.2775
   22.350    6.9194
   22.365    7.1301
   22.380    7.0774
   22.395    6.8141
   22.410    6.6351
   22.425    7.1090
   22.440    7.2880
   22.455    7.2565
   22.470    7.3196
   22.485    7.1722
   22.500    7.4987
   22.515    7.0037
   22.530    7.0248
   22.545    7.4776
   22.560    8.0358
   22.575    7.4671
   22.590    7.0458
   22.605    7.2354
   22.620    7.1827
   22.635    7.3196
   22.650    7.1933
   22.665    7.2143
   22.680    6.9616
   22.695    7.0142
   22.710    7.0142
   22.725    7.0774
   22.740    7.1617
   22.755    7.3091
   22.770    7.0669
   22.785    6.9932
   22.800    7.2354
   22.815    7.5829
   22.830    7.4039
   22.845    7.5303
   22.860    7.0669
   22.875    7.1301
   22.890    7.5513
   22.905    7.8462
   22.920    7.9410
   22.935    7.7199
   22.950    7.2459
   22.965    7.2986
   22.980    7.3828
   22.995    7.0879
   23.010    7.0879
   23.025    7.0142
   23.040    7.5829
   23.055    7.5724
   23.070    7.4250
   23.085    6.8036
   23.100    7.1090
   23.115    7.2249
   23.130    7.0563
   23.145    7.1933
   23.160    7.4039
   23.175    7.0669
   23.190    7.0669
   23.205    7.3618
   23.220    7.4776
   23.235    7.6567
   23.250    7.4987
   23.265    6.9721
   23.280    6.9721
   23.295    7.3934
   23.310    7.2038
   23.325    7.0037
   23.340    7.5829
   23.355    7.0669
   23.370    7.1933
   23.385    7.0142
   23.400    7.1617
   23.415    6.5929
   23.430    7.1617
   23.445    7.1195
   23.460    7.1090
   23.475    7.3302
   23.490    7.4566
   23.505    7.0669
   23.520    7.0142
   23.535    6.7404
   23.550    7.1617
   23.565    7.1617
   23.580    6.5613
   23.595    6.8562
   23.610    7.2038
   23.625    7.4671
   23.640    7.6461
   23.655    7.6040
   23.670    7.1933
   23.685    7.1617
   23.700    6.9300
   23.715    7.0563
   23.730    7.0142
   23.745    7.0879
   23.760    7.0563
   23.775    6.9194
   23.790    6.8457
   23.805    6.8352
   23.820    7.3618
   23.835    7.4250
   23.850    6.8668
   23.865    7.2249
   23.880    7.0142
   23.895    6.9510
   23.910    6.8878
   23.925    7.0985
   23.940    7.2670
   23.955    7.3196
   23.970    7.2249
   23.985    7.0879
   24.000    7.1827
   24.015    6.7930
   24.030    6.9510
   24.045    7.1933
   24.060    7.1722
   24.075    6.9194
   24.090    7.4460
   24.105    7.2880
   24.120    7.0563
   24.135    6.9089
   24.150    7.3196
   24.165    7.0774
   24.180    6.8246
   24.195    6.8036
   24.210    7.0142
   24.225    7.2670
   24.240    7.1511
   24.255    7.1617
   24.270    6.7193
   24.285    6.9405
   24.300    6.8457
   24.315    6.8141
   24.330    6.9089
   24.345    6.7299
   24.360    6.7088
   24.375    7.0142
   24.390    6.6351
   24.405    6.6456
   24.420    6.9932
   24.435    6.9616
   24.450    7.2670
   24.465    7.0353
   24.480    6.6772
   24.495    7.0879
   24.510    6.6772
   24.525    6.7193
   24.540    6.9300
   24.555    6.9721
   24.570    6.9826
   24.585    7.1511
   24.600    7.1511
   24.615    7.2038
   24.630    6.9616
   24.645    6.9300
   24.660    6.9932
   24.675    6.6561
   24.690    6.8562
   24.705    7.3407
   24.720    7.1090
   24.735    6.8773
   24.750    6.8246
   24.765    6.8668
   24.780    6.9300
   24.795    6.9932
   24.810    7.3196
   24.825    6.9300
   24.840    6.9616
   24.855    6.7088
   24.870    7.4460
   24.885    7.1617
   24.900    7.1090
   24.915    6.8141
   24.930    6.8562
   24.945    6.6351
   24.960    6.6877
   24.975    7.1827
   24.990    7.0879
   25.005    7.0353
   25.020    6.8036
   25.035    6.8773
   25.050    6.8246
   25.065    7.0142
   25.080    7.0669
   25.095    6.6983
   25.110    7.1195
   25.125    6.9089
   25.140    6.8036
   25.155    7.0037
   25.170    7.1090
   25.185    6.9616
   25.200    7.0037
   25.215    7.0037
   25.230    7.0563
   25.245    7.3723
   25.260    6.8036
   25.275    6.7509
   25.290    7.0248
   25.305    6.8773
   25.320    7.4460
   25.335    6.6667
   25.350    6.7193
   25.365    7.2775
   25.380    6.7720
   25.395    6.8984
   25.410    6.8246
   25.425    6.9616
   25.440    6.8141
   25.455    7.0037
   25.470    7.1722
   25.485    7.2038
   25.500    6.9510
   25.515    6.8984
   25.530    6.9826
   25.545    6.5508
   25.560    6.4982
   25.575    6.6245
   25.590    6.9194
   25.605    6.6667
   25.620    6.0874
   25.635    6.8878
   25.650    6.6877
   25.665    6.6035
   25.680    6.7615
   25.695    7.0248
   25.710    7.0458
   25.725    7.0458
   25.740    6.5508
   25.755    6.8878
   25.770    6.6140
   25.785    7.2775
   25.800    7.1722
   25.815    6.8352
   25.830    6.6667
   25.845    7.0563
   25.860    6.8773
   25.875    6.9300
   25.890    6.9510
   25.905    6.8878
   25.920    7.0353
   25.935    6.8352
   25.950    6.7825
   25.965    6.5298
   25.980    6.8457
   25.995    7.0142
   26.010    6.7825
   26.025    6.5087
   26.040    6.8352
   26.055    6.9721
   26.070    6.6561
   26.085    6.4982
   26.100    6.3086
   26.115    6.7825
   26.130    6.7720
   26.145    6.8457
   26.160    6.7299
   26.175    6.7299
   26.190    6.9721
   26.205    6.8457
   26.220    6.4455
   26.235    6.4139
   26.250    6.4244
   26.265    6.5403
   26.280    6.6456
   26.295    6.8141
   26.310    6.5403
   26.325    6.6772
   26.340    6.8773
   26.355    6.7720
   26.370    6.2243
   26.385    6.6140
   26.400    6.7509
   26.415    6.6561
   26.430    6.6561
   26.445    6.6351
   26.460    6.7299
   26.475    6.9405
   26.490    6.7615
   26.505    7.1617
   26.520    6.5403
   26.535    6.6561
   26.550    6.7720
   26.565    6.5929
   26.580    6.0348
   26.595    6.5613
   26.610    6.8562
   26.625    6.6561
   26.640    6.8036
   26.655    6.7299
   26.670    6.4034
   26.685    6.3086
   26.700    6.6772
   26.715    6.2454
   26.730    6.6772
   26.745    6.7088
   26.760    6.6140
   26.775    6.6667
   26.790    6.3823
   26.805    6.4666
   26.820    6.7299
   26.835    6.6456
   26.850    6.6140
   26.865    6.3612
   26.880    6.6351
   26.895    6.4876
   26.910    6.6561
   26.925    6.6035
   26.940    6.5929
   26.955    6.5824
   26.970    6.9300
   26.985    7.2670
   27.000    7.2670
   27.015    6.5403
   27.030    6.3296
   27.045    6.7404
   27.060    7.0669
   27.075    6.4560
   27.090    6.3928
   27.105    6.4560
   27.120    6.3928
   27.135    6.4350
   27.150    6.5192
   27.165    6.5613
   27.180    6.8036
   27.195    6.3928
   27.210    6.0558
   27.225    6.2981
   27.240    6.6245
   27.255    6.4982
   27.270    6.3191
   27.285    6.3086
   27.300    6.2243
   27.315    6.7299
   27.330    6.7299
   27.345    6.6561
   27.360    6.5613
   27.375    6.3928
   27.390    6.5298
   27.405    6.6667
   27.420    6.5824
   27.435    6.7615
   27.450    7.0669
   27.465    6.4139
   27.480    6.5508
   27.495    6.8668
   27.510    6.3928
   27.525    6.3296
   27.540    6.2665
   27.555    6.5192
   27.570    6.9405
   27.585    6.3612
   27.600    6.5192
   27.615    6.5508
   27.630    6.5613
   27.645    6.9300
   27.660    6.5929
   27.675    6.8773
   27.690    6.7825
   27.705    6.8036
   27.720    6.6351
   27.735    6.4876
   27.750    6.3928
   27.765    6.6035
   27.780    7.1827
   27.795    6.7193
   27.810    6.6983
   27.825    6.3718
   27.840    6.5929
   27.855    6.4876
   27.870    6.2770
   27.885    6.6351
   27.900    6.4771
   27.915    6.9932
   27.930    6.8246
   27.945    7.0879
   27.960    6.7825
   27.975    6.8562
   27.990    7.1933
   28.005    6.9194
   28.020    6.4876
   28.035    6.8352
   28.050    7.1301
   28.065    6.8352
   28.080    6.8141
   28.095    6.8878
   28.110    7.1722
   28.125    6.8878
   28.140    6.8562
   28.155    6.5613
   28.170    6.6140
   28.185    6.6140
   28.200    6.6456
   28.215    6.9089
   28.230    6.8141
   28.245    6.4771
   28.260    6.6456
   28.275    6.8878
   28.290    6.7825
   28.305    6.3612
   28.320    6.2349
   28.335    6.6245
   28.350    6.6772
   28.365    6.4560
   28.380    6.6245
   28.395    6.3718
   28.410    6.2981
   28.425    6.6561
   28.440    6.7825
   28.455    6.2981
   28.470    6.0032
   28.485    6.3086
   28.500    6.4666
   28.515    6.6351
   28.530    6.7930
   28.545    6.2665
   28.560    6.2770
   28.575    6.3612
   28.590    6.5824
   28.605    6.4350
   28.620    6.4139
   28.635    6.6877
   28.650    6.7193
   28.665    6.3823
   28.680    6.3086
   28.695    6.4350
   28.710    6.4455
   28.725    6.2875
   28.740    6.1085
   28.755    6.6456
   28.770    6.7299
   28.785    6.1190
   28.800    6.3296
   28.815    6.8984
   28.830    6.8878
   28.845    6.3402
   28.860    6.4244
   28.875    6.2559
   28.890    6.2981
   28.905    6.6140
   28.920    6.1927
   28.935    6.0874
   28.950    6.6245
   28.965    6.9300
   28.980    6.7615
   28.995    6.5929
   29.010    6.8141
   29.025    6.5824
   29.040    6.7404
   29.055    6.8352
   29.070    6.3612
   29.085    6.3823
   29.100    6.7825
   29.115    6.5613
   29.130    6.6772
   29.145    6.4244
   29.160    6.5824
   29.175    6.4771
   29.190    6.5192
   29.205    6.0769
   29.220    6.3823
   29.235    6.5929
   29.250    6.3402
   29.265    6.5298
   29.280    6.5824
   29.295    6.3928
   29.310    6.3402
   29.325    6.3718
   29.340    6.2665
   29.355    6.9194
   29.370    6.2138
   29.385    6.7088
   29.400    6.6245
   29.415    6.0032
   29.430    6.2981
   29.445    6.2138
   29.460    6.2454
   29.475    6.0137
   29.490    6.1927
   29.505    6.3296
   29.520    6.6351
   29.535    6.2243
   29.550    6.4139
   29.565    6.5298
   29.580    6.2770
   29.595    6.1717
   29.610    6.1717
   29.625    6.0979
   29.640    6.2770
   29.655    6.3507
   29.670    6.4350
   29.685    6.6772
   29.700    6.6351
   29.715    6.4034
   29.730    6.4876
   29.745    6.6667
   29.760    6.1927
   29.775    5.9084
   29.790    6.1401
   29.805    6.7088
   29.820    6.6772
   29.835    6.5192
   29.850    6.3507
   29.865    6.1506
   29.880    6.1401
   29.895    6.4139
   29.910    6.4350
   29.925    6.2033
   29.940    5.9084
   29.955    6.3718
   29.970    6.7193
   29.985    6.1295
   30.000    6.2243
   30.015    6.3402
   30.030    6.2875
   30.045    6.2349
   30.060    6.1085
   30.075    6.2454
   30.090    6.6772
   30.105    6.2138
   30.120    6.0769
   30.135    6.3718
   30.150    6.4771
   30.165    6.4244
   30.180    6.5298
   30.195    6.3507
   30.210    6.3507
   30.225    6.3507
   30.240    6.1190
   30.255    6.3086
   30.270    6.3191
   30.285    6.0769
   30.300    5.8241
   30.315    6.2033
   30.330    6.0137
   30.345    6.2559
   30.360    6.3823
   30.375    6.0137
   30.390    6.4876
   30.405    6.1717
   30.420    6.5192
   30.435    6.2875
   30.450    5.9716
   30.465    6.2875
   30.480    6.3718
   30.495    6.2559
   30.510    6.1611
   30.525    6.2665
   30.540    6.2875
   30.555    6.4771
   30.570    6.2875
   30.585    6.2454
   30.600    6.2559
   30.615    6.3086
   30.630    6.2349
   30.645    6.3823
   30.660    6.4455
   30.675    6.0664
   30.690    6.3402
   30.705    6.5719
   30.720    6.4455
   30.735    6.4034
   30.750    6.5824
   30.765    6.1401
   30.780    6.0032
   30.795    5.9505
   30.810    6.3191
   30.825    6.3612
   30.840    5.9821
   30.855    5.8978
   30.870    6.0453
   30.885    6.4244
   30.900    6.1611
   30.915    6.5087
   30.930    6.5824
   30.945    6.0769
   30.960    6.2349
   30.975    6.1401
   30.990    6.2349
   31.005    6.0137
   31.020    6.7088
   31.035    6.1717
   31.050    6.3718
   31.065    6.2559
   31.080    6.2559
   31.095    6.2559
   31.110    6.0348
   31.125    6.2349
   31.140    5.7925
   31.155    6.3296
   31.170    6.3718
   31.185    6.6140
   31.200    6.4666
   31.215    6.3296
   31.230    6.5298
   31.245    6.1190
   31.260    6.1611
   31.275    6.3402
   31.290    6.3507
   31.305    5.9294
   31.320    6.0979
   31.335    6.2981
   31.350    6.2243
   31.365    6.4034
   31.380    5.9821
   31.395    6.2454
   31.410    6.5403
   31.425    6.5508
   31.440    6.2349
   31.455    6.3718
   31.470    6.2454
   31.485    6.2559
   31.500    6.5929
   31.515    6.5508
   31.530    6.3296
   31.545    6.2875
   31.560    6.0348
   31.575    6.4455
   31.590    6.4139
   31.605    6.4560
   31.620    6.0348
   31.635    6.2559
   31.650    6.5719
   31.665    6.7299
   31.680    6.8246
   31.695    6.5613
   31.710    6.5824
   31.725    6.7193
   31.740    6.1611
   31.755    6.6351
   31.770    6.3823
   31.785    6.1611
   31.800    6.9405
   31.815    6.3402
   31.830    6.0874
   31.845    6.4560
   31.860    6.3928
   31.875    6.8457
   31.890    6.6140
   31.905    6.8562
   31.920    6.8036
   31.935    6.4982
   31.950    6.4982
   31.965    6.3612
   31.980    6.4666
   31.995    6.8668
   32.010    7.1722
   32.025    7.0669
   32.040    6.9194
   32.055    7.2459
   32.070    7.1195
   32.085    7.4250
   32.100    7.5724
   32.115    7.2354
   32.130    6.9826
   32.145    7.0774
   32.160    6.8352
   32.175    6.4982
   32.190    6.8141
   32.205    6.2665
   32.220    6.2454
   32.235    6.6983
   32.250    6.6667
   32.265    6.1295
   32.280    6.3823
   32.295    6.2875
   32.310    6.5613
   32.325    6.2454
   32.340    6.1506
   32.355    6.1401
   32.370    5.8978
   32.385    6.0558
   32.400    6.3928
   32.415    6.2349
   32.430    6.1611
   32.445    6.0664
   32.460    6.5508
   32.475    6.1822
   32.490    6.3191
   32.505    6.2559
   32.520    5.9716
   32.535    5.9189
   32.550    6.4034
   32.565    6.3507
   32.580    5.8136
   32.595    5.7504
   32.610    5.9926
   32.625    5.8662
   32.640    5.7083
   32.655    6.1506
   32.670    5.7293
   32.685    5.8031
   32.700    5.6556
   32.715    6.1927
   32.730    6.4455
   32.745    5.9821
   32.760    6.1190
   32.775    5.8662
   32.790    5.8873
   32.805    5.8662
   32.820    6.3507
   32.835    6.1506
   32.850    6.2770
   32.865    6.1085
   32.880    6.0032
   32.895    5.7504
   32.910    6.4350
   32.925    6.2349
   32.940    6.0874
   32.955    6.0032
   32.970    5.9294
   32.985    6.1401
   33.000    6.0242
   33.015    5.9610
   33.030    5.8662
   33.045    5.6556
   33.060    6.1611
   33.075    5.9189
   33.090    6.0769
   33.105    6.4139
   33.120    6.3928
   33.135    6.0348
   33.150    5.6872
   33.165    5.6767
   33.180    6.0769
   33.195    5.9821
   33.210    5.7609
   33.225    6.0769
   33.240    6.0453
   33.255    5.9716
   33.270    5.7188
   33.285    5.9084
   33.300    6.0242
   33.315    5.7293
   33.330    5.7083
   33.345    5.6240
   33.360    5.9400
   33.375    6.1295
   33.390    5.7820
   33.405    6.1295
   33.420    6.0979
   33.435    6.3086
   33.450    5.9084
   33.465    6.0242
   33.480    6.0874
   33.495    6.1190
   33.510    6.2665
   33.525    6.1190
   33.540    5.8662
   33.555    5.6872
   33.570    6.0453
   33.585    6.1295
   33.600    5.5714
   33.615    5.9294
   33.630    5.7083
   33.645    5.8768
   33.660    5.9926
   33.675    6.0137
   33.690    6.3718
   33.705    6.0664
   33.720    5.5924
   33.735    5.6451
   33.750    6.0453
   33.765    6.1822
   33.780    6.0137
   33.795    5.9610
   33.810    6.3191
   33.825    6.1506
   33.840    6.5719
   33.855    6.2981
   33.870    6.1085
   33.885    6.2138
   33.900    5.6661
   33.915    6.2454
   33.930    6.4034
   33.945    6.0769
   33.960    5.9610
   33.975    5.7925
   33.990    6.1717
   34.005    6.0032
   34.020    5.8978
   34.035    6.2138
   34.050    5.7820
   34.065    5.4239
   34.080    5.5819
   34.095    5.6661
   34.110    5.6767
   34.125    6.0137
   34.140    5.6977
   34.155    5.8241
   34.170    6.0032
   34.185    6.1401
   34.200    6.0032
   34.215    5.8031
   34.230    5.9926
   34.245    5.7399
   34.260    5.5398
   34.275    5.7820
   34.290    5.6029
   34.305    5.9926
   34.320    5.8347
   34.335    5.8768
   34.350    5.8452
   34.365    5.9505
   34.380    5.8662
   34.395    5.7609
   34.410    5.7399
   34.425    5.9716
   34.440    5.9400
   34.455    5.5608
   34.470    5.5503
   34.485    5.8031
   34.500    5.7609
   34.515    5.5503
   34.530    5.8978
   34.545    5.7188
   34.560    5.8873
   34.575    6.0348
   34.590    5.8662
   34.605    5.5503
   34.620    5.7188
   34.635    5.6135
   34.650    5.5819
   34.665    5.6240
   34.680    5.4239
   34.695    5.5714
   34.710    5.8136
   34.725    5.7293
   34.740    5.9294
   34.755    5.6135
   34.770    5.6135
   34.785    5.4134
   34.800    5.5503
   34.815    5.7504
   34.830    5.7925
   34.845    5.5608
   34.860    5.4344
   34.875    5.6345
   34.890    5.6240
   34.905    5.6345
   34.920    5.5398
   34.935    5.7820
   34.950    6.1822
   34.965    5.7083
   34.980    5.7399
   34.995    5.6240
   35.010    5.6135
   35.025    5.6767
   35.040    5.9400
   35.055    5.8873
   35.070    5.8768
   35.085    5.6029
   35.100    5.3712
   35.115    5.5187
   35.130    5.6977
   35.145    5.7083
   35.160    5.6661
   35.175    5.7715
   35.190    5.8452
   35.205    5.6977
   35.220    5.6135
   35.235    5.3397
   35.250    5.6135
   35.265    5.5819
   35.280    5.8031
   35.295    5.9294
   35.310    5.5924
   35.325    5.8241
   35.340    5.9084
   35.355    5.8241
   35.370    5.9294
   35.385    6.0242
   35.400    5.8031
   35.415    5.5503
   35.430    5.4976
   35.445    5.2133
   35.460    5.0974
   35.475    5.7609
   35.490    5.7083
   35.505    5.4555
   35.520    5.4450
   35.535    5.3818
   35.550    5.5714
   35.565    5.3712
   35.580    5.4976
   35.595    5.7504
   35.610    5.4766
   35.625    5.6661
   35.640    5.5924
   35.655    5.5398
   35.670    5.5187
   35.685    5.5608
   35.700    5.4871
   35.715    5.7820
   35.730    5.6451
   35.745    5.7715
   35.760    5.5714
   35.775    6.0242
   35.790    5.9294
   35.805    5.6556
   35.820    5.3081
   35.835    5.6661
   35.850    5.6661
   35.865    5.6345
   35.880    5.6135
   35.895    5.4134
   35.910    5.2554
   35.925    5.8031
   35.940    5.4976
   35.955    5.4976
   35.970    5.4766
   35.985    5.4766
   36.000    5.3186
   36.015    5.8136
   36.030    5.7504
   36.045    5.6661
   36.060    5.6135
   36.075    5.5924
   36.090    5.7504
   36.105    5.9505
   36.120    5.9189
   36.135    5.7925
   36.150    5.5292
   36.165    5.5082
   36.180    5.4555
   36.195    5.4976
   36.210    5.6240
   36.225    5.6240
   36.240    5.8241
   36.255    5.6345
   36.270    5.5608
   36.285    5.4871
   36.300    5.7188
   36.315    5.7188
   36.330    5.4976
   36.345    5.6345
   36.360    5.6029
   36.375    5.2659
   36.390    5.4555
   36.405    5.6135
   36.420    5.6345
   36.435    5.7083
   36.450    5.6135
   36.465    6.0874
   36.480    5.5082
   36.495    5.8452
   36.510    5.5398
   36.525    5.4450
   36.540    5.7083
   36.555    5.5292
   36.570    5.6556
   36.585    5.3502
   36.600    5.5819
   36.615    5.7504
   36.630    5.4766
   36.645    5.7820
   36.660    5.5187
   36.675    5.6029
   36.690    5.6556
   36.705    5.2449
   36.720    5.5292
   36.735    5.5714
   36.750    5.5398
   36.765    5.4871
   36.780    5.7609
   36.795    5.8557
   36.810    5.4660
   36.825    5.6135
   36.840    5.6345
   36.855    5.7083
   36.870    5.8557
   36.885    5.8241
   36.900    6.0032
   36.915    5.5503
   36.930    5.5819
   36.945    5.8662
   36.960    5.5714
   36.975    5.3923
   36.990    5.2449
   37.005    5.4976
   37.020    5.6240
   37.035    6.1611
   37.050    5.7609
   37.065    5.2238
   37.080    5.7609
   37.095    5.8347
   37.110    5.6451
   37.125    5.6345
   37.140    5.6029
   37.155    5.7504
   37.170    5.4660
   37.185    5.6135
   37.200    5.4134
   37.215    5.5714
   37.230    5.5187
   37.245    5.6872
   37.260    5.7188
   37.275    6.0453
   37.290    5.9926
   37.305    5.7399
   37.320    5.7820
   37.335    5.7925
   37.350    5.5924
   37.365    5.4134
   37.380    5.4134
   37.395    5.6345
   37.410    5.6872
   37.425    5.7504
   37.440    5.5398
   37.455    5.2659
   37.470    5.5819
   37.485    5.8031
   37.500    5.4344
   37.515    5.4134
   37.530    5.2975
   37.545    5.6977
   37.560    5.6135
   37.575    5.4028
   37.590    5.2765
   37.605    5.6135
   37.620    5.7925
   37.635    5.6451
   37.650    5.6872
   37.665    5.5819
   37.680    5.5608
   37.695    5.5924
   37.710    5.2554
   37.725    5.7504
   37.740    5.6240
   37.755    5.9084
   37.770    5.5924
   37.785    5.8768
   37.800    5.5819
   37.815    5.6029
   37.830    5.9400
   37.845    5.4555
   37.860    5.6345
   37.875    5.3712
   37.890    5.3502
   37.905    5.6240
   37.920    5.7609
   37.935    5.5082
   37.950    5.3186
   37.965    5.4555
   37.980    5.8978
   37.995    5.6135
   38.010    5.3818
   38.025    5.6872
   38.040    5.3502
   38.055    5.4450
   38.070    5.3818
   38.085    5.7609
   38.100    5.4450
   38.115    5.4239
   38.130    5.6556
   38.145    5.5292
   38.160    5.4239
   38.175    5.8662
   38.190    5.6240
   38.205    5.3923
   38.220    6.0137
   38.235    5.8136
   38.250    5.6135
   38.265    5.5819
   38.280    5.6345
   38.295    5.3291
   38.310    5.5503
   38.325    5.9189
   38.340    5.4871
   38.355    5.6240
   38.370    5.3607
   38.385    5.4450
   38.400    5.4555
   38.415    5.8241
   38.430    5.5924
   38.445    5.7820
   38.460    5.4134
   38.475    5.6661
   38.490    5.7609
   38.505    5.8768
   38.520    6.1822
   38.535    5.5819
   38.550    5.7399
   38.565    5.5398
   38.580    5.7609
   38.595    5.5503
   38.610    5.3291
   38.625    5.6451
   38.640    6.0558
   38.655    6.0032
   38.670    6.0348
   38.685    6.0137
   38.700    5.4976
   38.715    5.7925
   38.730    5.4976
   38.745    5.4344
   38.760    5.6977
   38.775    5.6240
   38.790    5.6767
   38.805    5.8031
   38.820    5.8136
   38.835    5.6345
   38.850    5.8557
   38.865    5.8347
   38.880    5.8557
   38.895    5.9926
   38.910    5.7925
   38.925    5.7293
   38.940    6.3823
   38.955    5.8031
   38.970    5.6135
   38.985    5.5714
   39.000    5.6977
   39.015    6.0979
   39.030    5.9400
   39.045    6.1190
   39.060    5.9189
   39.075    5.9821
   39.090    6.3507
   39.105    5.9294
   39.120    5.6767
   39.135    5.9084
   39.150    5.8873
   39.165    6.0664
   39.180    5.8557
   39.195    6.0453
   39.210    6.1190
   39.225    6.0769
   39.240    5.9189
   39.255    5.9610
   39.270    5.9189
   39.285    5.9294
   39.300    5.6135
   39.315    5.5924
   39.330    5.5924
   39.345    5.6661
   39.360    5.8557
   39.375    6.2243
   39.390    5.8031
   39.405    5.8031
   39.420    6.0137
   39.435    5.4134
   39.450    5.7925
   39.465    5.8557
   39.480    5.9821
   39.495    5.6872
   39.510    5.4239
   39.525    5.5714
   39.540    6.0242
   39.555    5.6135
   39.570    5.4766
   39.585    5.2870
   39.600    5.3081
   39.615    5.5187
   39.630    5.3186
   39.645    5.5187
   39.660    5.8873
   39.675    5.6345
   39.690    5.3712
   39.705    5.4134
   39.720    5.4239
   39.735    5.4344
   39.750    5.5082
   39.765    5.4344
   39.780    5.3818
   39.795    5.5714
   39.810    5.5398
   39.825    5.4450
   39.840    5.6135
   39.855    5.8136
   39.870    5.4871
   39.885    5.1501
   39.900    5.5503
   39.915    5.4134
   39.930    5.6345
   39.945    5.5187
   39.960    5.3397
   39.975    5.6135
   39.990    5.6451
