    1.500    7.4039
    1.515    7.5619
    1.530    7.2565
    1.545    7.3828
    1.560    7.2775
    1.575    7.2249
    1.590    7.0458
    1.605    7.1722
    1.620    7.0985
    1.635    7.1827
    1.650    7.1827
    1.665    7.0774
    1.680    7.0248
    1.695    7.2459
    1.710    6.7825
    1.725    6.4982
    1.740    7.0142
    1.755    7.0669
    1.770    6.4771
    1.785    6.5192
    1.800    6.7825
    1.815    6.2138
    1.830    6.4034
    1.845    6.3086
    1.860    6.1611
    1.875    6.5403
    1.890    6.5719
    1.905    6.1717
    1.920    6.0769
    1.935    5.8031
    1.950    6.1822
    1.965    6.2454
    1.980    5.8768
    1.995    6.1717
    2.010    6.1401
    2.025    6.0769
    2.040    6.1085
    2.055    5.9294
    2.070    6.0874
    2.085    5.7715
    2.100    5.6345
    2.115    5.8768
    2.130    5.6872
    2.145    6.0558
    2.160    6.0348
    2.175    5.9610
    2.190    5.6451
    2.205    5.9084
    2.220    5.9505
    2.235    5.3818
    2.250    5.5398
    2.265    5.4028
    2.280    5.2343
    2.295    5.4028
    2.310    5.4976
    2.325    5.6451
    2.340    5.7083
    2.355    5.4239
    2.370    5.7188
    2.385    5.6977
    2.400    5.4028
    2.415    5.7188
    2.430    5.5924
    2.445    5.3923
    2.460    6.0032
    2.475    5.4239
    2.490    5.4871
    2.505    5.0974
    2.520    5.1185
    2.535    5.4555
    2.550    5.1395
    2.565    5.4450
    2.580    5.4028
    2.595    5.1080
    2.610    5.3923
    2.625    5.0658
    2.640    5.2870
    2.655    5.2449
    2.670    5.5924
    2.685    5.2343
    2.700    5.1922
    2.715    5.2554
    2.730    5.0869
    2.745    5.3081
    2.760    5.3081
    2.775    5.0658
    2.790    5.0448
    2.805    4.8657
    2.820    5.2343
    2.835    5.3081
    2.850    4.8868
    2.865    5.0237
    2.880    4.8025
    2.895    4.8763
    2.910    4.9816
    2.925    5.1501
    2.940    5.2449
    2.955    4.9921
    2.970    5.1395
    2.985    5.0342
    3.000    5.2659
    3.015    5.0342
    3.030    5.0342
    3.045    4.7709
    3.060    5.1185
    3.075    4.9184
    3.090    4.8657
    3.105    4.7709
    3.120    4.9184
    3.135    4.7393
    3.150    4.7183
    3.165    5.2027
    3.180    4.7920
    3.195    4.8025
    3.210    4.6235
    3.225    4.6445
    3.240    4.8552
    3.255    4.9605
    3.270    4.7815
    3.285    5.0448
    3.300    4.7393
    3.315    5.0448
    3.330    5.0658
    3.345    4.9816
    3.360    4.8973
    3.375    4.8236
    3.390    4.9921
    3.405    4.7920
    3.420    5.2554
    3.435    5.1185
    3.450    4.7183
    3.465    5.1922
    3.480    4.8868
    3.495    4.7815
    3.510    4.9078
    3.525    4.8552
    3.540    5.0448
    3.555    4.6867
    3.570    4.6972
    3.585    4.7920
    3.600    4.7077
    3.615    4.8868
    3.630    5.1501
    3.645    5.2027
    3.660    4.7709
    3.675    5.0342
    3.690    4.8763
    3.705    4.7815
    3.720    4.5708
    3.735    4.7288
    3.750    4.9394
    3.765    4.9289
    3.780    4.6761
    3.795    4.7077
    3.810    4.8236
    3.825    4.7393
    3.840    4.9921
    3.855    5.0132
    3.870    5.1606
    3.885    4.9184
    3.900    5.0974
    3.915    4.9184
    3.930    4.5392
    3.945    4.8657
    3.960    5.0342
    3.975    4.7709
    3.990    4.8868
    4.005    5.0132
    4.020    4.8868
    4.035    4.7499
    4.050    4.8973
    4.065    5.0658
    4.080    4.6761
    4.095    4.7815
    4.110    4.9921
    4.125    4.9710
    4.140    4.7499
    4.155    4.8657
    4.170    4.8447
    4.185    4.8868
    4.200    4.8657
    4.215    4.7393
    4.230    4.8973
    4.245    4.7604
    4.260    4.9816
    4.275    5.0658
    4.290    4.8868
    4.305    4.8341
    4.320    4.8868
    4.335    4.7709
    4.350    4.7499
    4.365    4.9605
    4.380    5.1185
    4.395    4.8131
    4.410    4.9500
    4.425    4.9921
    4.440    5.0869
    4.455    5.0553
    4.470    5.4344
    4.485    5.1817
    4.500    5.2343
    4.515    5.1395
    4.530    5.1290
    4.545    4.9500
    4.560    5.0026
    4.575    5.0237
    4.590    5.2238
    4.605    5.1922
    4.620    4.8552
    4.635    4.4023
    4.650    5.0448
    4.665    4.9184
    4.680    4.8236
    4.695    5.2133
    4.710    5.3818
    4.725    5.4134
    4.740    5.2554
    4.755    5.2343
    4.770    5.1606
    4.785    5.2133
    4.800    4.9394
    4.815    5.0869
    4.830    5.3186
    4.845    5.3291
    4.860    5.0026
    4.875    5.1185
    4.890    5.2449
    4.905    4.8973
    4.920    5.2659
    4.935    5.7188
    4.950    5.4239
    4.965    5.6556
    4.980    5.5082
    4.995    5.4028
    5.010    5.6556
    5.025    5.9821
    5.040    5.8978
    5.055    5.7820
    5.070    5.9610
    5.085    5.9084
    5.100    5.5187
    5.115    5.8347
    5.130    5.6451
    5.145    6.0242
    5.160    5.9610
    5.175    6.0874
    5.190    5.9716
    5.205    5.7399
    5.220    6.1506
    5.235    5.9926
    5.250    6.2665
    5.265    6.4455
    5.280    6.2770
    5.295    6.3612
    5.310    6.3402
    5.325    6.5824
    5.340    6.5929
    5.355    6.4455
    5.370    6.6140
    5.385    6.7404
    5.400    7.0563
    5.415    6.8141
    5.430    6.6561
    5.445    7.2670
    5.460    7.2249
    5.475    7.1090
    5.490    6.6351
    5.505    6.6456
    5.520    6.9616
    5.535    6.9405
    5.550    6.8878
    5.565    7.1195
    5.580    7.0879
    5.595    7.0248
    5.610    6.6667
    5.625    6.8457
    5.640    6.4350
    5.655    6.8562
    5.670    6.7404
    5.685    6.5192
    5.700    6.7615
    5.715    6.6351
    5.730    6.4771
    5.745    6.2138
    5.760    5.9716
    5.775    5.9400
    5.790    5.8768
    5.805    6.1085
    5.820    6.3718
    5.835    6.0558
    5.850    5.8662
    5.865    5.8241
    5.880    6.2770
    5.895    6.1822
    5.910    5.8136
    5.925    5.4555
    5.940    5.2133
    5.955    5.5608
    5.970    5.5398
    5.985    5.4660
    6.000    5.4134
    6.015    5.2133
    6.030    5.3712
    6.045    5.4028
    6.060    5.5714
    6.075    5.4555
    6.090    5.2449
    6.105    5.2975
    6.120    4.9184
    6.135    4.9289
    6.150    5.1711
    6.165    5.2449
    6.180    5.4660
    6.195    4.9710
    6.210    5.1922
    6.225    5.0237
    6.240    5.0237
    6.255    5.0869
    6.270    5.1501
    6.285    4.8973
    6.300    5.0553
    6.315    4.8236
    6.330    4.6656
    6.345    4.8973
    6.360    4.8447
    6.375    4.7183
    6.390    4.8131
    6.405    4.8341
    6.420    4.7393
    6.435    4.7288
    6.450    4.6551
    6.465    4.6972
    6.480    4.4550
    6.495    4.3707
    6.510    4.8868
    6.525    4.6761
    6.540    4.4760
    6.555    4.4234
    6.570    4.1180
    6.585    4.3918
    6.600    4.4444
    6.615    4.2654
    6.630    4.8973
    6.645    4.3813
    6.660    4.4971
    6.675    4.5287
    6.690    4.5603
    6.705    4.3286
    6.720    4.3918
    6.735    4.5076
    6.750    4.4234
    6.765    4.2233
    6.780    4.3497
    6.795    4.2233
    6.810    4.3075
    6.825    4.3813
    6.840    4.1285
    6.855    4.2127
    6.870    4.1706
    6.885    4.0337
    6.900    4.4023
    6.915    4.2338
    6.930    4.2759
    6.945    3.8757
    6.960    4.0442
    6.975    4.0653
    6.990    4.4023
    7.005    4.2759
    7.020    4.0758
    7.035    4.2654
    7.050    4.3918
    7.065    4.3391
    7.080    3.6967
    7.095    3.7177
    7.110    4.1074
    7.125    3.9916
    7.140    3.8863
    7.155    4.0021
    7.170    4.2127
    7.185    4.0653
    7.200    3.9810
    7.215    3.9810
    7.230    3.8020
    7.245    3.8863
    7.260    4.0548
    7.275    3.9073
    7.290    3.8757
    7.305    3.8547
    7.320    3.6651
    7.335    3.5492
    7.350    3.7283
    7.365    3.7809
    7.380    3.7072
    7.395    3.6651
    7.410    3.6546
    7.425    3.5598
    7.440    3.4544
    7.455    3.3807
    7.470    3.5703
    7.485    3.6967
    7.500    3.4334
    7.515    3.2649
    7.530    3.5387
    7.545    3.7915
    7.560    3.5703
    7.575    3.7177
    7.590    3.6546
    7.605    3.5598
    7.620    3.4018
    7.635    3.4650
    7.650    3.5282
    7.665    3.2017
    7.680    3.5914
    7.695    3.4334
    7.710    3.4755
    7.725    3.3913
    7.740    3.5071
    7.755    3.5282
    7.770    3.4650
    7.785    3.2543
    7.800    3.3386
    7.815    3.4334
    7.830    3.5282
    7.845    3.5598
    7.860    3.3070
    7.875    3.2965
    7.890    3.4544
    7.905    3.4755
    7.920    3.3491
    7.935    3.5492
    7.950    3.5071
    7.965    3.3070
    7.980    3.1174
    7.995    3.3386
    8.010    3.2965
    8.025    3.7704
    8.040    3.1490
    8.055    3.2438
    8.070    3.1069
    8.085    3.1385
    8.100    3.1912
    8.115    3.2122
    8.130    3.4755
    8.145    3.2017
    8.160    3.3175
    8.175    2.7383
    8.190    3.0332
    8.205    3.1174
    8.220    3.0858
    8.235    2.9700
    8.250    3.2649
    8.265    3.2965
    8.280    3.1701
    8.295    2.8647
    8.310    3.0753
    8.325    3.2859
    8.340    3.0964
    8.355    3.2017
    8.370    3.1174
    8.385    2.9489
    8.400    3.0753
    8.415    3.2227
    8.430    3.0648
    8.445    3.1174
    8.460    3.2122
    8.475    2.8331
    8.490    2.9489
    8.505    3.0437
    8.520    2.7909
    8.535    2.8752
    8.550    3.1280
    8.565    3.0016
    8.580    2.9279
    8.595    2.9279
    8.610    2.8963
    8.625    2.8541
    8.640    3.0016
    8.655    2.9384
    8.670    2.9700
    8.685    3.2017
    8.700    2.9384
    8.715    3.0016
    8.730    2.8857
    8.745    2.9595
    8.760    3.1069
    8.775    2.8120
    8.790    2.7067
    8.805    2.8647
    8.820    2.9173
    8.835    3.0753
    8.850    2.8963
    8.865    2.8331
    8.880    2.8015
    8.895    2.7909
    8.910    3.1596
    8.925    3.1385
    8.940    2.9384
    8.955    2.7804
    8.970    2.8331
    8.985    2.9910
    9.000    3.1701
    9.015    2.9279
    9.030    3.1385
    9.045    2.9700
    9.060    2.8647
    9.075    2.5487
    9.090    2.8857
    9.105    3.0332
    9.120    2.9805
    9.135    2.9805
    9.150    2.9068
    9.165    3.1385
    9.180    2.7067
    9.195    2.9068
    9.210    2.8331
    9.225    3.0016
    9.240    2.9068
    9.255    3.2754
    9.270    2.7593
    9.285    2.7909
    9.300    2.8120
    9.315    2.8647
    9.330    2.7593
    9.345    2.6014
    9.360    2.8647
    9.375    2.8647
    9.390    2.6646
    9.405    2.6435
    9.420    3.0332
    9.435    2.9700
    9.450    2.8541
    9.465    2.7383
    9.480    2.7488
    9.495    2.6435
    9.510    2.6962
    9.525    2.6856
    9.540    2.9068
    9.555    2.6540
    9.570    2.6224
    9.585    2.8120
    9.600    2.6330
    9.615    2.7593
    9.630    2.8120
    9.645    2.7488
    9.660    2.8541
    9.675    2.8225
    9.690    2.7699
    9.705    2.7488
    9.720    2.8120
    9.735    3.0016
    9.750    2.9805
    9.765    2.8963
    9.780    2.7699
    9.795    2.8752
    9.810    2.8752
    9.825    2.6119
    9.840    2.8225
    9.855    2.8120
    9.870    3.0437
    9.885    3.0332
    9.900    2.6751
    9.915    2.8647
    9.930    2.9384
    9.945    2.8120
    9.960    2.8857
    9.975    2.7383
    9.990    2.7699
   10.005    2.7699
   10.020    2.8225
   10.035    2.8436
   10.050    2.6962
   10.065    2.9173
   10.080    2.6856
   10.095    3.0648
   10.110    2.8225
   10.125    2.7699
   10.140    3.0121
   10.155    2.6224
   10.170    2.9068
   10.185    2.9595
   10.200    3.0437
   10.215    2.9700
   10.230    3.1912
   10.245    2.7909
   10.260    2.9489
   10.275    2.9595
   10.290    2.9700
   10.305    3.0753
   10.320    3.1912
   10.335    3.0121
   10.350    2.9805
   10.365    3.1701
   10.380    2.8857
   10.395    2.8120
   10.410    2.7172
   10.425    2.8120
   10.440    2.9489
   10.455    2.7593
   10.470    2.7909
   10.485    3.0016
   10.500    3.2227
   10.515    2.9910
   10.530    3.1806
   10.545    2.9595
   10.560    2.9595
   10.575    3.1385
   10.590    3.0753
   10.605    3.0753
   10.620    2.8647
   10.635    2.8541
   10.650    2.8752
   10.665    3.0542
   10.680    3.2017
   10.695    3.2543
   10.710    3.1490
   10.725    3.2965
   10.740    3.1385
   10.755    2.9173
   10.770    3.0964
   10.785    3.1385
   10.800    3.0332
   10.815    3.2017
   10.830    3.1701
   10.845    3.0648
   10.860    3.3070
   10.875    3.0964
   10.890    3.0542
   10.905    2.9279
   10.920    3.1069
   10.935    3.2754
   10.950    3.3491
   10.965    3.0016
   10.980    2.8647
   10.995    2.9489
   11.010    3.3386
   11.025    3.0542
   11.040    3.1385
   11.055    3.0542
   11.070    3.3175
   11.085    3.1701
   11.100    3.0016
   11.115    3.0226
   11.130    2.9805
   11.145    3.1596
   11.160    3.4755
   11.175    3.1596
   11.190    3.1385
   11.205    3.2438
   11.220    3.0332
   11.235    3.0648
   11.250    3.1174
   11.265    3.2438
   11.280    3.2333
   11.295    3.1174
   11.310    2.8541
   11.325    3.0226
   11.340    3.0964
   11.355    3.2543
   11.370    3.3281
   11.385    3.2965
   11.400    3.0542
   11.415    3.1174
   11.430    3.1912
   11.445    3.0016
   11.460    3.0542
   11.475    3.2122
   11.490    3.1280
   11.505    3.1385
   11.520    3.1596
   11.535    3.0121
   11.550    3.0964
   11.565    2.8857
   11.580    3.0648
   11.595    2.6962
   11.610    2.8963
   11.625    2.9700
   11.640    3.1490
   11.655    3.1596
   11.670    3.0121
   11.685    2.8541
   11.700    2.8541
   11.715    2.8436
   11.730    2.9595
   11.745    2.9068
   11.760    3.0332
   11.775    2.9489
   11.790    3.0964
   11.805    3.1912
   11.820    2.7593
   11.835    2.8541
   11.850    2.9489
   11.865    3.2333
   11.880    3.1069
   11.895    3.1385
   11.910    3.0332
   11.925    2.9279
   11.940    2.7067
   11.955    3.1174
   11.970    3.0964
   11.985    2.9173
   12.000    2.7804
   12.015    2.8752
   12.030    2.9595
   12.045    3.0332
   12.060    3.1280
   12.075    3.0964
   12.090    2.8752
   12.105    3.0437
   12.120    3.1490
   12.135    2.9173
   12.150    2.8647
   12.165    3.0016
   12.180    3.2543
   12.195    3.0964
   12.210    2.7804
   12.225    2.8963
   12.240    2.8963
   12.255    3.0016
   12.270    3.1069
   12.285    3.3070
   12.300    3.1385
   12.315    2.9489
   12.330    2.8120
   12.345    2.7383
   12.360    2.8647
   12.375    2.9595
   12.390    2.9805
   12.405    2.9068
   12.420    2.8331
   12.435    2.8963
   12.450    2.6962
   12.465    3.2017
   12.480    3.0016
   12.495    2.9384
   12.510    2.7909
   12.525    2.8436
   12.540    3.0016
   12.555    2.9279
   12.570    2.9700
   12.585    3.0542
   12.600    2.7488
   12.615    2.7383
   12.630    2.6330
   12.645    2.7909
   12.660    2.8225
   12.675    2.4539
   12.690    2.7383
   12.705    2.7383
   12.720    2.8857
   12.735    2.7699
   12.750    2.7593
   12.765    2.6646
   12.780    2.7593
   12.795    2.5487
   12.810    2.7488
   12.825    2.9595
   12.840    2.7593
   12.855    2.8331
   12.870    2.8857
   12.885    2.8963
   12.900    2.9068
   12.915    2.8015
   12.930    2.7804
   12.945    2.6962
   12.960    3.0121
   12.975    2.8963
   12.990    2.8647
   13.005    2.7488
   13.020    2.4645
   13.035    2.8015
   13.050    2.7804
   13.065    2.9279
   13.080    2.9595
   13.095    2.6962
   13.110    2.5698
   13.125    2.7172
   13.140    2.7383
   13.155    2.8963
   13.170    2.8647
   13.185    3.0121
   13.200    3.0858
   13.215    2.9700
   13.230    2.7804
   13.245    2.7488
   13.260    3.0016
   13.275    2.7699
   13.290    2.6224
   13.305    2.8225
   13.320    2.9279
   13.335    2.8963
   13.350    2.8331
   13.365    3.0226
   13.380    2.9279
   13.395    3.1806
   13.410    3.2333
   13.425    2.9805
   13.440    2.8015
   13.455    2.9700
   13.470    3.0016
   13.485    2.9173
   13.500    2.7804
   13.515    2.9910
   13.530    2.7699
   13.545    3.0437
   13.560    2.8541
   13.575    2.9700
   13.590    2.7383
   13.605    2.6224
   13.620    2.7383
   13.635    2.8015
   13.650    2.6435
   13.665    2.7909
   13.680    3.0753
   13.695    2.8752
   13.710    2.8120
   13.725    2.9384
   13.740    2.8752
   13.755    2.9910
   13.770    2.9489
   13.785    2.8541
   13.800    2.9805
   13.815    3.1385
   13.830    2.8436
   13.845    2.7593
   13.860    2.9805
   13.875    3.0964
   13.890    3.0753
   13.905    2.8752
   13.920    2.8120
   13.935    2.9805
   13.950    2.9595
   13.965    3.1385
   13.980    3.0016
   13.995    2.9279
   14.010    3.0016
   14.025    2.7172
   14.040    2.9489
   14.055    3.1385
   14.070    2.8120
   14.085    2.9173
   14.100    3.0016
   14.115    3.1069
   14.130    2.8436
   14.145    3.1385
   14.160    2.9279
   14.175    3.1174
   14.190    3.0542
   14.205    2.8120
   14.220    3.1174
   14.235    2.8647
   14.250    3.1490
   14.265    3.2333
   14.280    2.9068
   14.295    3.1912
   14.310    3.4544
   14.325    3.4439
   14.340    3.1701
   14.355    3.2438
   14.370    3.1385
   14.385    3.2965
   14.400    3.1174
   14.415    3.2649
   14.430    3.0226
   14.445    3.0753
   14.460    3.1806
   14.475    3.2754
   14.490    3.0542
   14.505    3.2965
   14.520    3.2227
   14.535    3.2438
   14.550    3.2227
   14.565    2.9700
   14.580    3.1385
   14.595    3.1912
   14.610    3.1912
   14.625    3.0542
   14.640    3.0858
   14.655    2.7909
   14.670    3.0753
   14.685    2.9805
   14.700    3.0226
   14.715    3.0332
   14.730    3.1069
   14.745    3.2227
   14.760    2.9384
   14.775    3.0016
   14.790    3.0121
   14.805    3.1174
   14.820    3.1174
   14.835    2.9910
   14.850    2.9489
   14.865    2.8541
   14.880    3.0121
   14.895    3.0753
   14.910    2.9595
   14.925    3.1912
   14.940    3.0332
   14.955    2.9384
   14.970    2.9068
   14.985    3.0542
   15.000    3.0332
   15.015    3.1490
   15.030    2.9805
   15.045    2.8120
   15.060    2.7804
   15.075    2.8963
   15.090    3.0016
   15.105    2.7488
   15.120    2.9173
   15.135    2.7909
   15.150    2.7067
   15.165    2.7804
   15.180    2.8225
   15.195    2.8541
   15.210    2.7804
   15.225    2.9384
   15.240    2.8436
   15.255    2.8015
   15.270    2.8541
   15.285    2.7804
   15.300    3.0016
   15.315    2.7699
   15.330    2.7383
   15.345    2.7804
   15.360    2.7383
   15.375    2.6646
   15.390    2.9173
   15.405    3.0964
   15.420    3.0016
   15.435    2.9173
   15.450    2.9700
   15.465    2.9279
   15.480    2.8225
   15.495    2.6119
   15.510    2.7172
   15.525    2.9384
   15.540    2.7383
   15.555    2.5171
   15.570    2.4855
   15.585    2.7699
   15.600    2.7488
   15.615    2.9489
   15.630    2.9173
   15.645    2.8857
   15.660    2.6751
   15.675    2.7909
   15.690    3.0121
   15.705    2.7909
   15.720    2.6435
   15.735    2.7804
   15.750    2.7699
   15.765    2.6435
   15.780    2.7383
   15.795    2.7909
   15.810    2.9700
   15.825    2.7699
   15.840    2.5276
   15.855    2.8015
   15.870    2.7804
   15.885    2.7593
   15.900    2.7278
   15.915    2.7593
   15.930    2.9700
   15.945    2.8120
   15.960    2.8541
   15.975    2.9805
   15.990    3.0648
   16.005    2.9173
   16.020    2.8015
   16.035    2.9173
   16.050    2.6856
   16.065    2.8015
   16.080    2.6014
   16.095    2.6014
   16.110    3.0542
   16.125    2.9700
   16.140    3.1596
   16.155    2.8331
   16.170    2.7909
   16.185    2.9279
   16.200    2.8225
   16.215    2.7909
   16.230    2.6224
   16.245    2.6540
   16.260    2.9279
   16.275    2.9173
   16.290    2.8752
   16.305    2.8963
   16.320    2.8752
   16.335    2.9279
   16.350    2.6119
   16.365    2.6435
   16.380    2.7804
   16.395    2.8120
   16.410    2.6962
   16.425    2.7699
   16.440    2.5698
   16.455    2.5487
   16.470    2.9595
   16.485    2.8541
   16.500    2.9700
   16.515    2.8752
   16.530    2.7488
   16.545    2.7067
   16.560    2.8857
   16.575    2.8331
   16.590    2.8331
   16.605    2.7172
   16.620    2.3591
   16.635    2.7804
   16.650    3.0437
   16.665    2.8541
   16.680    2.6330
   16.695    2.6119
   16.710    2.5698
   16.725    2.5276
   16.740    2.8647
   16.755    2.9068
   16.770    2.7593
   16.785    2.5276
   16.800    2.7593
   16.815    2.7699
   16.830    2.9384
   16.845    2.5171
   16.860    2.8120
   16.875    2.7067
   16.890    2.7278
   16.905    2.7804
   16.920    2.9805
   16.935    2.8331
   16.950    3.0437
   16.965    2.6856
   16.980    2.6330
   16.995    2.6962
   17.010    3.0753
   17.025    2.5698
   17.040    2.5276
   17.055    2.6646
   17.070    3.0542
   17.085    2.8331
   17.100    2.9068
   17.115    2.8015
   17.130    2.8120
   17.145    2.9068
   17.160    2.7909
   17.175    2.7383
   17.190    2.9700
   17.205    2.8857
   17.220    2.6330
   17.235    2.8015
   17.250    2.6856
   17.265    2.6119
   17.280    2.7488
   17.295    2.6856
   17.310    2.7172
   17.325    2.7804
   17.340    2.6330
   17.355    2.8225
   17.370    2.7804
   17.385    2.7383
   17.400    2.7067
   17.415    2.9805
   17.430    2.8752
   17.445    2.8857
   17.460    2.6646
   17.475    2.7804
   17.490    3.0753
   17.505    3.0648
   17.520    3.1806
   17.535    3.0121
   17.550    2.7172
   17.565    2.7278
   17.580    2.8436
   17.595    2.7699
   17.610    2.8120
   17.625    2.8120
   17.640    2.4645
   17.655    2.6856
   17.670    2.7804
   17.685    2.8647
   17.700    3.0121
   17.715    2.7278
   17.730    2.7909
   17.745    3.0753
   17.760    2.8436
   17.775    2.6435
   17.790    2.9279
   17.805    2.9489
   17.820    3.0542
   17.835    2.9384
   17.850    3.0226
   17.865    3.1069
   17.880    2.8436
   17.895    2.9173
   17.910    3.0332
   17.925    3.1385
   17.940    3.1490
   17.955    3.0648
   17.970    3.1701
   17.985    2.9595
   18.000    3.0858
   18.015    3.3070
   18.030    3.1701
   18.045    3.1912
   18.060    3.3597
   18.075    3.1490
   18.090    2.9805
   18.105    2.8015
   18.120    3.0332
   18.135    3.1596
   18.150    3.0121
   18.165    2.8752
   18.180    2.8963
   18.195    2.6856
   18.210    2.5908
   18.225    2.7804
   18.240    3.0858
   18.255    2.9279
   18.270    2.9384
   18.285    2.7699
   18.300    2.6330
   18.315    2.8120
   18.330    2.7699
   18.345    2.7067
   18.360    2.3697
   18.375    2.4750
   18.390    2.8225
   18.405    2.6224
   18.420    2.6856
   18.435    2.8963
   18.450    2.5276
   18.465    2.5592
   18.480    2.7699
   18.495    2.7593
   18.510    2.7699
   18.525    2.7383
   18.540    2.8225
   18.555    2.6014
   18.570    2.8225
   18.585    3.0226
   18.600    2.6751
   18.615    2.8331
   18.630    3.0121
   18.645    2.7593
   18.660    2.4539
   18.675    2.8225
   18.690    2.6119
   18.705    2.7067
   18.720    2.8541
   18.735    2.9068
   18.750    2.9384
   18.765    2.8541
   18.780    2.6856
   18.795    2.7278
   18.810    2.6014
   18.825    2.7909
   18.840    2.8857
   18.855    2.6962
   18.870    2.8120
   18.885    2.9068
   18.900    2.9279
   18.915    2.9700
   18.930    3.4544
   18.945    3.7177
   18.960    4.1285
   18.975    4.5182
   18.990    4.6551
   19.005    4.8868
   19.020    4.0864
   19.035    3.2438
   19.050    2.9489
   19.065    2.9173
   19.080    2.7488
   19.095    2.6540
   19.110    2.6962
   19.125    2.3591
   19.140    2.4013
   19.155    2.5592
   19.170    2.6751
   19.185    2.6330
   19.200    2.6751
   19.215    2.6224
   19.230    2.6119
   19.245    2.4961
   19.260    2.6224
   19.275    2.7172
   19.290    2.5276
   19.305    2.6224
   19.320    2.7172
   19.335    2.6435
   19.350    2.5803
   19.365    2.7172
   19.380    2.6435
   19.395    2.5698
   19.410    2.4329
   19.425    2.6224
   19.440    2.3381
   19.455    2.5803
   19.470    2.5592
   19.485    2.6014
   19.500    2.4645
   19.515    2.4961
   19.530    2.8647
   19.545    2.6856
   19.560    2.7488
   19.575    2.8436
   19.590    2.7593
   19.605    2.3802
   19.620    2.4645
   19.635    2.6014
   19.650    2.3486
   19.665    2.3275
   19.680    2.4329
   19.695    2.3170
   19.710    2.7172
   19.725    2.6119
   19.740    2.6119
   19.755    2.3486
   19.770    2.5382
   19.785    2.8331
   19.800    2.5803
   19.815    2.5592
   19.830    2.4118
   19.845    2.5908
   19.860    2.4961
   19.875    2.4118
   19.890    2.4750
   19.905    2.6751
   19.920    2.6962
   19.935    2.3697
   19.950    2.2643
   19.965    2.4855
   19.980    2.4750
   19.995    2.3802
   20.010    2.2749
   20.025    2.5171
   20.040    2.5698
   20.055    2.2749
   20.070    2.4013
   20.085    2.4434
   20.100    2.7067
   20.115    2.4329
   20.130    2.2959
   20.145    2.3065
   20.160    2.5592
   20.175    2.5066
   20.190    2.4855
   20.205    2.6751
   20.220    2.5171
   20.235    2.2959
   20.250    2.4013
   20.265    2.3381
   20.280    2.3486
   20.295    2.1906
   20.310    2.2433
   20.325    2.7172
   20.340    2.5276
   20.355    2.5382
   20.370    2.5803
   20.385    2.1064
   20.400    2.2959
   20.415    2.5171
   20.430    2.4539
   20.445    2.4961
   20.460    2.5066
   20.475    2.4329
   20.490    2.4329
   20.505    2.2538
   20.520    2.3591
   20.535    2.1590
   20.550    2.3802
   20.565    2.5171
   20.580    2.5066
   20.595    2.4434
   20.610    2.2117
   20.625    2.3697
   20.640    2.5487
   20.655    2.5382
   20.670    2.5698
   20.685    2.4750
   20.700    2.4855
   20.715    2.3697
   20.730    2.4013
   20.745    2.4118
   20.760    2.4118
   20.775    2.6540
   20.790    2.5382
   20.805    2.3591
   20.820    2.5171
   20.835    2.1696
   20.850    2.2117
   20.865    2.2117
   20.880    2.5171
   20.895    2.3802
   20.910    2.4539
   20.925    2.6646
   20.940    2.4539
   20.955    2.3486
   20.970    2.4961
   20.985    2.4329
   21.000    2.6751
   21.015    2.4855
   21.030    2.5066
   21.045    2.3697
   21.060    2.4539
   21.075    2.3170
   21.090    2.3697
   21.105    2.3486
   21.120    2.2959
   21.135    2.2538
   21.150    2.4434
   21.165    2.4855
   21.180    2.2854
   21.195    2.2959
   21.210    2.5592
   21.225    2.3486
   21.240    1.9484
   21.255    2.2433
   21.270    2.3486
   21.285    2.5908
   21.300    2.4013
   21.315    2.5698
   21.330    2.4223
   21.345    2.0537
   21.360    2.4750
   21.375    2.5171
   21.390    2.2854
   21.405    2.3170
   21.420    2.4118
   21.435    2.4013
   21.450    2.5487
   21.465    2.5171
   21.480    2.3591
   21.495    2.5698
   21.510    2.3381
   21.525    2.3591
   21.540    2.5908
   21.555    2.4118
   21.570    2.5382
   21.585    2.4013
   21.600    2.3381
   21.615    2.1590
   21.630    2.5066
   21.645    2.2433
   21.660    1.8747
   21.675    2.3170
   21.690    2.3381
   21.705    2.3486
   21.720    2.5382
   21.735    2.2643
   21.750    2.3170
   21.765    2.5382
   21.780    2.6646
   21.795    2.5382
   21.810    2.4855
   21.825    2.4434
   21.840    2.4329
   21.855    2.4118
   21.870    2.2643
   21.885    2.5487
   21.900    2.4750
   21.915    2.4013
   21.930    2.1801
   21.945    2.1906
   21.960    2.5276
   21.975    2.5171
   21.990    2.3697
   22.005    1.9905
   22.020    2.2012
   22.035    2.1380
   22.050    1.9273
   22.065    2.0642
   22.080    2.2433
   22.095    2.3802
   22.110    2.2433
   22.125    1.9800
   22.140    2.1485
   22.155    2.2117
   22.170    2.2012
   22.185    2.2433
   22.200    2.3065
   22.215    2.3802
   22.230    2.2328
   22.245    2.1380
   22.260    2.1590
   22.275    2.4223
   22.290    2.1380
   22.305    2.0748
   22.320    2.2117
   22.335    2.2538
   22.350    2.3065
   22.365    2.3381
   22.380    2.1906
   22.395    2.0326
   22.410    2.1274
   22.425    2.1801
   22.440    2.3486
   22.455    2.2749
   22.470    2.1169
   22.485    2.0748
   22.500    2.2959
   22.515    2.2643
   22.530    2.3275
   22.545    2.6540
   22.560    2.5487
   22.575    2.5698
   22.590    2.8331
   22.605    2.8120
   22.620    2.4961
   22.635    2.2959
   22.650    2.1906
   22.665    2.4118
   22.680    2.1590
   22.695    2.0853
   22.710    2.2854
   22.725    1.9379
   22.740    2.0748
   22.755    2.1380
   22.770    2.3170
   22.785    2.1485
   22.800    2.1696
   22.815    2.1274
   22.830    2.2749
   22.845    2.2854
   22.860    2.3065
   22.875    2.2854
   22.890    2.2749
   22.905    2.2328
   22.920    2.3697
   22.935    2.2328
   22.950    2.1485
   22.965    2.1696
   22.980    2.0432
   22.995    2.2117
   23.010    2.2538
   23.025    2.2959
   23.040    2.2643
   23.055    2.4645
   23.070    2.5066
   23.085    2.5592
   23.100    2.8541
   23.115    2.7383
   23.130    2.9279
   23.145    2.4013
   23.160    2.2959
   23.175    2.0642
   23.190    1.9905
   23.205    2.2749
   23.220    2.3170
   23.235    2.5066
   23.250    2.2222
   23.265    1.9905
   23.280    1.9905
   23.295    2.1696
   23.310    2.0326
   23.325    2.0537
   23.340    2.0748
   23.355    2.0116
   23.370    1.9695
   23.385    1.7799
   23.400    1.8957
   23.415    2.1485
   23.430    2.1696
   23.445    2.2012
   23.460    2.0748
   23.475    2.0853
   23.490    2.1064
   23.505    2.4013
   23.520    2.2749
   23.535    2.3697
   23.550    2.5487
   23.565    2.5908
   23.580    2.5803
   23.595    2.4013
   23.610    2.4434
   23.625    2.1274
   23.640    2.2749
   23.655    2.2328
   23.670    2.0958
   23.685    1.8431
   23.700    2.0011
   23.715    1.9484
   23.730    1.9379
   23.745    2.0748
   23.760    1.9379
   23.775    2.0432
   23.790    1.8641
   23.805    1.6746
   23.820    1.8536
   23.835    2.0221
   23.850    1.9800
   23.865    2.2117
   23.880    2.0116
   23.895    1.9273
   23.910    2.2117
   23.925    2.0326
   23.940    1.9379
   23.955    2.0748
   23.970    2.1169
   23.985    2.0958
   24.000    1.8957
   24.015    1.7588
   24.030    2.1696
   24.045    2.2854
   24.060    2.1169
   24.075    1.9905
   24.090    1.9800
   24.105    1.9905
   24.120    2.1590
   24.135    2.0853
   24.150    2.1169
   24.165    2.0642
   24.180    2.0642
   24.195    1.9589
   24.210    2.0748
   24.225    1.9800
   24.240    1.8325
   24.255    1.9695
   24.270    1.9273
   24.285    1.9273
   24.300    1.9800
   24.315    2.1590
   24.330    1.8747
   24.345    1.9484
   24.360    1.7272
   24.375    1.7799
   24.390    2.1064
   24.405    2.1380
   24.420    2.0011
   24.435    1.8431
   24.450    2.0116
   24.465    1.9695
   24.480    1.9800
   24.495    1.8536
   24.510    2.1590
   24.525    2.1485
   24.540    1.8536
   24.555    2.1169
   24.570    2.0642
   24.585    1.8747
   24.600    1.8957
   24.615    1.7483
   24.630    1.8747
   24.645    1.9695
   24.660    1.9905
   24.675    1.7588
   24.690    1.8009
   24.705    1.9273
   24.720    1.9695
   24.735    1.8957
   24.750    1.8325
   24.765    2.0958
   24.780    1.8852
   24.795    1.8747
   24.810    1.8115
   24.825    1.8852
   24.840    1.8641
   24.855    1.9168
   24.870    1.6535
   24.885    2.0011
   24.900    1.9379
   24.915    1.9905
   24.930    1.9168
   24.945    1.8431
   24.960    1.9695
   24.975    1.9905
   24.990    1.8325
   25.005    1.7694
   25.020    1.8115
   25.035    1.7167
   25.050    2.1064
   25.065    2.0748
   25.080    2.0116
   25.095    1.7904
   25.110    1.9063
   25.125    1.8220
   25.140    1.8325
   25.155    1.8536
   25.170    1.7904
   25.185    1.8325
   25.200    1.7483
   25.215    1.8957
   25.230    1.8009
   25.245    1.6956
   25.260    1.8747
   25.275    1.7799
   25.290    1.9063
   25.305    2.0958
   25.320    1.8009
   25.335    1.7694
   25.350    2.0748
   25.365    1.9695
   25.380    2.0221
   25.395    1.8957
   25.410    1.8641
   25.425    2.1380
   25.440    2.0748
   25.455    2.2117
   25.470    2.2854
   25.485    2.2117
   25.500    2.3591
   25.515    2.6435
   25.530    2.5276
   25.545    2.3802
   25.560    2.1274
   25.575    2.0432
   25.590    2.0116
   25.605    1.7167
   25.620    1.7062
   25.635    1.6640
   25.650    1.8852
   25.665    2.0116
   25.680    1.9273
   25.695    1.8957
   25.710    1.9905
   25.725    1.8220
   25.740    1.8220
   25.755    1.7167
   25.770    1.6219
   25.785    1.5903
   25.800    1.7904
   25.815    1.9589
   25.830    1.8220
   25.845    1.8115
   25.860    1.7904
   25.875    1.7904
   25.890    1.8009
   25.905    1.7904
   25.920    1.7694
   25.935    2.0748
   25.950    1.7694
   25.965    1.8536
   25.980    1.8325
   25.995    1.8536
   26.010    1.9168
   26.025    1.8747
   26.040    1.9063
   26.055    1.8747
   26.070    1.7378
   26.085    1.7694
   26.100    1.8009
   26.115    1.9695
   26.130    1.5377
   26.145    1.8641
   26.160    1.8536
   26.175    1.9379
   26.190    1.8536
   26.205    1.7483
   26.220    1.5798
   26.235    1.6008
   26.250    1.8536
   26.265    1.8009
   26.280    1.8852
   26.295    2.1064
   26.310    1.8009
   26.325    1.7272
   26.340    1.6008
   26.355    1.7272
   26.370    1.9168
   26.385    1.5587
   26.400    1.8536
   26.415    1.8536
   26.430    1.7483
   26.445    1.6746
   26.460    1.8115
   26.475    1.7272
   26.490    1.8431
   26.505    1.7588
   26.520    1.8747
   26.535    1.7588
   26.550    1.6956
   26.565    1.6851
   26.580    1.7799
   26.595    1.7378
   26.610    1.8536
   26.625    1.8536
   26.640    1.9168
   26.655    1.5377
   26.670    1.5798
   26.685    1.6430
   26.700    1.6430
   26.715    1.5061
   26.730    1.8115
   26.745    1.7694
   26.760    1.8852
   26.775    1.6956
   26.790    1.7272
   26.805    1.7483
   26.820    1.8220
   26.835    1.7483
   26.850    1.7588
   26.865    1.8536
   26.880    1.6640
   26.895    1.7694
   26.910    1.7694
   26.925    1.6324
   26.940    1.9273
   26.955    1.7588
   26.970    1.7272
   26.985    1.6956
   27.000    1.7694
   27.015    1.7378
   27.030    1.8852
   27.045    1.7272
   27.060    1.4113
   27.075    1.6430
   27.090    1.7378
   27.105    1.7483
   27.120    1.6114
   27.135    1.7483
   27.150    1.7904
   27.165    1.8431
   27.180    1.5587
   27.195    1.5903
   27.210    1.5798
   27.225    1.6324
   27.240    1.6535
   27.255    1.5903
   27.270    1.6640
   27.285    1.4850
   27.300    1.5798
   27.315    1.8536
   27.330    1.6640
   27.345    1.8115
   27.360    1.7799
   27.375    1.7799
   27.390    1.7588
   27.405    1.6746
   27.420    1.4850
   27.435    1.6851
   27.450    1.6535
   27.465    1.9905
   27.480    1.7694
   27.495    1.6640
   27.510    1.7694
   27.525    1.5587
   27.540    1.4955
   27.555    1.5798
   27.570    1.7588
   27.585    1.4745
   27.600    1.8009
   27.615    1.5692
   27.630    1.5798
   27.645    1.5166
   27.660    1.6535
   27.675    1.6430
   27.690    1.5798
   27.705    1.4218
   27.720    1.6114
   27.735    1.5061
   27.750    1.6219
   27.765    1.5482
   27.780    1.5271
   27.795    1.3691
   27.810    1.3375
   27.825    1.5482
   27.840    1.6535
   27.855    1.4323
   27.870    1.5798
   27.885    1.8747
   27.900    1.9168
   27.915    2.0011
   27.930    2.0853
   27.945    2.5698
   27.960    3.2649
   27.975    3.5808
   27.990    3.8652
   28.005    3.6967
   28.020    3.2227
   28.035    2.5171
   28.050    2.0853
   28.065    1.8009
   28.080    1.5587
   28.095    1.4218
   28.110    1.5587
   28.125    1.8115
   28.140    1.8220
   28.155    1.6746
   28.170    1.6114
   28.185    1.6324
   28.200    1.7483
   28.215    1.5061
   28.230    1.4850
   28.245    1.3270
   28.260    1.4323
   28.275    1.5482
   28.290    1.5587
   28.305    1.3797
   28.320    1.6219
   28.335    1.4218
   28.350    1.4850
   28.365    1.3691
   28.380    1.6008
   28.395    1.8115
   28.410    1.4218
   28.425    1.1901
   28.440    1.4745
   28.455    1.4639
   28.470    1.5166
   28.485    1.5798
   28.500    1.5798
   28.515    1.5587
   28.530    1.6324
   28.545    1.7799
   28.560    1.6640
   28.575    1.6640
   28.590    1.7378
   28.605    1.7483
   28.620    1.4955
   28.635    1.4323
   28.650    1.5587
   28.665    1.8431
   28.680    1.6640
   28.695    1.2638
   28.710    1.4113
   28.725    1.5482
   28.740    1.5061
   28.755    1.5377
   28.770    1.7272
   28.785    1.3691
   28.800    1.6114
   28.815    1.6851
   28.830    1.5061
   28.845    1.4113
   28.860    1.6956
   28.875    1.7272
   28.890    2.0958
   28.905    2.8331
   28.920    3.2438
   28.935    4.0021
   28.950    4.0758
   28.965    4.0126
   28.980    3.7599
   28.995    2.9068
   29.010    1.8325
   29.025    1.4429
   29.040    1.5587
   29.055    1.5482
   29.070    1.6219
   29.085    1.5587
   29.100    1.5903
   29.115    1.5692
   29.130    1.6114
   29.145    1.5377
   29.160    1.4850
   29.175    1.5377
   29.190    1.5271
   29.205    1.4218
   29.220    1.5377
   29.235    1.4113
   29.250    1.4218
   29.265    1.3270
   29.280    1.4007
   29.295    1.4955
   29.310    1.4429
   29.325    1.5482
   29.340    1.3797
   29.355    1.1690
   29.370    1.2533
   29.385    1.3165
   29.400    1.3691
   29.415    1.2849
   29.430    1.3375
   29.445    1.4218
   29.460    1.2849
   29.475    1.3165
   29.490    1.3691
   29.505    1.3902
   29.520    1.4323
   29.535    1.4323
   29.550    1.3060
   29.565    1.4007
   29.580    1.4007
   29.595    1.5798
   29.610    1.4955
   29.625    1.4639
   29.640    1.3797
   29.655    1.5587
   29.670    1.3797
   29.685    1.2428
   29.700    1.2638
   29.715    1.2428
   29.730    1.2322
   29.745    1.4113
   29.760    1.3586
   29.775    1.2954
   29.790    1.3060
   29.805    1.2954
   29.820    1.4745
   29.835    1.2954
   29.850    1.3902
   29.865    1.4007
   29.880    1.3797
   29.895    1.3165
   29.910    1.4639
   29.925    1.2112
   29.940    1.2322
   29.955    1.2638
   29.970    1.3902
   29.985    1.4323
   30.000    1.4113
   30.015    1.2322
   30.030    1.3165
   30.045    1.4113
   30.060    1.3375
   30.075    1.3165
   30.090    1.2006
   30.105    1.3586
   30.120    1.3586
   30.135    1.2428
   30.150    1.3060
   30.165    1.2954
   30.180    1.5166
   30.195    1.3481
   30.210    1.2849
   30.225    1.4218
   30.240    1.3270
   30.255    1.2533
   30.270    1.4323
   30.285    1.1690
   30.300    1.2217
   30.315    1.4323
   30.330    1.4429
   30.345    1.4639
   30.360    1.2954
   30.375    1.2638
   30.390    1.2428
   30.405    1.0953
   30.420    1.0427
   30.435    1.3060
   30.450    1.3586
   30.465    1.3481
   30.480    1.2638
   30.495    1.4534
   30.510    1.3586
   30.525    1.2428
   30.540    1.2217
   30.555    1.1374
   30.570    1.1164
   30.585    1.2006
   30.600    1.4745
   30.615    1.2849
   30.630    1.1901
   30.645    1.1374
   30.660    1.1585
   30.675    1.3481
   30.690    1.3797
   30.705    1.2322
   30.720    1.2428
   30.735    1.3060
   30.750    1.1480
   30.765    1.2849
   30.780    1.1585
   30.795    1.1269
   30.810    1.1690
   30.825    1.2322
   30.840    1.2954
   30.855    1.2954
   30.870    1.1585
   30.885    1.2112
   30.900    1.1480
   30.915    1.2428
   30.930    1.2428
   30.945    1.2744
   30.960    1.2533
   30.975    1.2533
   30.990    1.2638
   31.005    1.2217
   31.020    1.3270
   31.035    1.0953
   31.050    1.2428
   31.065    1.1374
   31.080    1.2638
   31.095    1.2744
   31.110    1.0742
   31.125    1.0427
   31.140    1.1690
   31.155    1.1269
   31.170    1.1901
   31.185    1.0742
   31.200    1.0111
   31.215    1.0321
   31.230    1.4534
   31.245    1.2744
   31.260    1.1480
   31.275    1.0848
   31.290    1.2112
   31.305    1.1480
   31.320    1.1585
   31.335    1.1585
   31.350    1.0216
   31.365    1.0848
   31.380    1.1690
   31.395    1.0637
   31.410    1.1796
   31.425    1.2006
   31.440    1.2638
   31.455    1.3902
   31.470    1.2638
   31.485    1.1164
   31.500    1.0532
   31.515    1.1690
   31.530    1.2744
   31.545    1.1901
   31.560    1.2428
   31.575    0.9795
   31.590    1.0953
   31.605    1.2954
   31.620    1.1374
   31.635    1.3902
   31.650    1.3270
   31.665    1.4955
   31.680    1.4113
   31.695    1.2322
   31.710    1.4745
   31.725    1.7799
   31.740    2.0748
   31.755    2.4961
   31.770    2.4539
   31.785    2.8436
   31.800    2.7909
   31.815    2.2117
   31.830    2.0326
   31.845    1.7062
   31.860    1.5692
   31.875    1.4113
   31.890    1.4113
   31.905    1.3165
   31.920    1.3060
   31.935    1.2428
   31.950    1.2849
   31.965    1.2428
   31.980    1.2428
   31.995    1.5377
   32.010    2.3381
   32.025    3.1596
   32.040    4.0969
   32.055    5.3712
   32.070    5.7715
   32.085    6.0348
   32.100    5.6872
   32.115    4.4760
   32.130    3.1174
   32.145    2.1064
   32.160    1.6219
   32.175    1.4323
   32.190    1.0953
   32.205    1.3060
   32.220    1.1269
   32.235    1.2533
   32.250    1.0953
   32.265    1.1164
   32.280    1.1058
   32.295    1.0216
   32.310    1.0848
   32.325    1.2006
   32.340    1.1374
   32.355    1.1058
   32.370    1.0427
   32.385    1.1269
   32.400    1.0216
   32.415    1.0953
   32.430    1.1058
   32.445    1.0111
   32.460    0.8847
   32.475    1.0111
   32.490    1.0637
   32.505    1.0742
   32.520    1.0532
   32.535    1.1058
   32.550    0.9268
   32.565    0.9479
   32.580    1.1796
   32.595    1.0321
   32.610    1.0216
   32.625    1.0637
   32.640    1.1058
   32.655    0.9689
   32.670    1.0427
   32.685    0.9584
   32.700    1.1269
   32.715    1.2112
   32.730    1.0953
   32.745    1.0216
   32.760    0.9373
   32.775    0.9900
   32.790    0.8847
   32.805    1.2849
   32.820    0.9795
   32.835    1.0637
   32.850    1.0321
   32.865    0.8847
   32.880    0.9163
   32.895    1.1164
   32.910    0.9057
   32.925    1.0848
   32.940    1.0532
   32.955    0.8425
   32.970    0.9479
   32.985    1.0005
   33.000    1.0005
   33.015    1.0005
   33.030    1.0321
   33.045    1.1901
   33.060    1.0427
   33.075    1.0742
   33.090    0.9373
   33.105    0.9163
   33.120    0.8847
   33.135    0.9373
   33.150    0.9479
   33.165    0.9900
   33.180    1.0005
   33.195    1.0637
   33.210    1.1585
   33.225    1.0742
   33.240    1.0637
   33.255    1.0216
   33.270    0.8741
   33.285    0.9163
   33.300    0.9584
   33.315    1.1374
   33.330    1.0005
   33.345    0.9584
   33.360    0.9584
   33.375    0.9900
   33.390    0.9479
   33.405    1.0321
   33.420    1.1269
   33.435    0.9268
   33.450    0.9163
   33.465    1.0532
   33.480    1.0111
   33.495    0.9373
   33.510    1.0427
   33.525    1.0321
   33.540    0.9268
   33.555    0.9795
   33.570    0.8741
   33.585    0.9479
   33.600    0.9373
   33.615    1.0321
   33.630    1.0216
   33.645    1.0216
   33.660    1.1585
   33.675    1.0427
   33.690    1.0848
   33.705    1.0953
   33.720    0.9795
   33.735    1.2638
   33.750    1.5166
   33.765    1.9168
   33.780    2.2538
   33.795    2.3381
   33.810    2.2433
   33.825    2.2749
   33.840    1.7904
   33.855    1.4534
   33.870    1.3060
   33.885    1.2322
   33.900    1.2744
   33.915    1.4850
   33.930    1.6114
   33.945    1.6956
   33.960    1.7167
   33.975    1.3691
   33.990    1.3481
   34.005    1.1690
   34.020    1.2533
   34.035    1.1480
   34.050    1.2638
   34.065    0.9795
   34.080    0.9163
   34.095    1.0111
   34.110    0.8741
   34.125    1.0216
   34.140    0.9584
   34.155    0.8531
   34.170    0.8847
   34.185    0.9900
   34.200    0.9584
   34.215    0.8636
   34.230    1.0111
   34.245    1.0005
   34.260    1.0321
   34.275    1.0953
   34.290    0.9268
   34.305    0.9795
   34.320    0.9689
   34.335    0.8847
   34.350    0.8847
   34.365    1.0111
   34.380    0.8531
   34.395    0.9479
   34.410    0.9057
   34.425    0.9689
   34.440    0.9373
   34.455    1.0216
   34.470    1.0742
   34.485    0.9795
   34.500    0.9900
   34.515    1.0532
   34.530    0.8531
   34.545    0.9479
   34.560    0.8847
   34.575    1.0005
   34.590    1.0637
   34.605    0.9689
   34.620    0.8320
   34.635    0.7688
   34.650    0.7583
   34.665    0.7056
   34.680    0.8847
   34.695    0.8425
   34.710    1.0111
   34.725    1.0005
   34.740    0.8425
   34.755    0.8531
   34.770    0.9268
   34.785    0.7794
   34.800    0.8215
   34.815    0.7794
   34.830    1.0742
   34.845    0.8531
   34.860    0.9373
   34.875    0.8636
   34.890    0.9373
   34.905    1.0005
   34.920    0.9584
   34.935    0.9057
   34.950    0.8320
   34.965    0.9584
   34.980    0.9479
   34.995    1.0848
   35.010    0.9163
   35.025    0.7899
   35.040    0.8636
   35.055    0.9057
   35.070    0.9373
   35.085    0.9689
   35.100    0.8636
   35.115    0.8636
   35.130    0.9268
   35.145    1.0637
   35.160    0.9900
   35.175    0.9900
   35.190    0.9268
   35.205    0.8741
   35.220    0.9479
   35.235    0.8531
   35.250    0.7688
   35.265    0.9900
   35.280    0.9795
   35.295    0.8531
   35.310    0.9057
   35.325    1.0742
   35.340    0.9900
   35.355    0.8425
   35.370    0.8636
   35.385    0.8847
   35.400    0.9795
   35.415    0.9795
   35.430    1.0427
   35.445    1.0427
   35.460    0.8215
   35.475    0.8741
   35.490    0.9584
   35.505    0.9268
   35.520    0.9163
   35.535    0.9479
   35.550    1.0427
   35.565    0.9479
   35.580    0.9795
   35.595    1.0532
   35.610    0.9479
   35.625    1.0111
   35.640    1.1164
   35.655    1.0005
   35.670    0.9163
   35.685    0.7478
   35.700    0.9373
   35.715    1.0216
   35.730    1.0216
   35.745    1.1164
   35.760    1.0216
   35.775    1.0321
   35.790    1.0216
   35.805    0.9163
   35.820    0.8110
   35.835    0.9268
   35.850    0.8004
   35.865    1.0742
   35.880    0.9057
   35.895    1.0427
   35.910    0.9795
   35.925    1.0005
   35.940    0.9268
   35.955    0.8531
   35.970    0.9689
   35.985    0.9689
   36.000    0.8952
   36.015    0.9057
   36.030    1.0321
   36.045    1.0742
   36.060    0.9373
   36.075    0.8952
   36.090    0.8320
   36.105    0.9689
   36.120    0.9479
   36.135    0.9584
   36.150    1.0005
   36.165    1.0848
   36.180    1.0742
   36.195    0.8847
   36.210    0.8741
   36.225    0.9163
   36.240    0.9163
   36.255    0.8215
   36.270    0.9163
   36.285    0.9795
   36.300    0.9689
   36.315    1.0532
   36.330    0.8952
   36.345    0.8741
   36.360    0.8636
   36.375    0.8004
   36.390    0.8636
   36.405    0.8425
   36.420    0.8952
   36.435    0.9795
   36.450    1.0742
   36.465    1.1164
   36.480    1.0216
   36.495    1.0848
   36.510    0.9689
   36.525    0.9268
   36.540    0.9584
   36.555    1.0427
   36.570    0.9479
   36.585    0.9584
   36.600    0.9268
   36.615    1.0216
   36.630    0.9795
   36.645    1.0111
   36.660    0.9163
   36.675    0.8952
   36.690    0.9057
   36.705    0.9900
   36.720    1.0111
   36.735    0.9163
   36.750    0.9057
   36.765    0.8110
   36.780    0.8741
   36.795    0.9373
   36.810    1.0848
   36.825    0.8741
   36.840    0.8320
   36.855    0.8531
   36.870    0.9795
   36.885    1.0005
   36.900    0.9057
   36.915    0.9795
   36.930    0.9795
   36.945    1.0005
   36.960    1.1269
   36.975    0.9795
   36.990    0.8636
   37.005    0.8741
   37.020    1.0953
   37.035    0.9795
   37.050    0.8952
   37.065    0.9900
   37.080    0.8425
   37.095    0.8320
   37.110    1.0111
   37.125    0.9584
   37.140    0.8531
   37.155    0.8636
   37.170    0.9373
   37.185    0.8425
   37.200    0.7688
   37.215    0.8636
   37.230    1.0637
   37.245    1.0532
   37.260    1.1058
   37.275    1.0427
   37.290    0.9584
   37.305    0.8425
   37.320    0.9373
   37.335    0.7899
   37.350    0.9268
   37.365    1.0321
   37.380    1.0637
   37.395    0.9584
   37.410    0.7899
   37.425    0.7372
   37.440    0.9057
   37.455    0.9584
   37.470    0.8215
   37.485    0.8215
   37.500    0.9689
   37.515    0.8952
   37.530    0.9268
   37.545    0.8320
   37.560    0.9373
   37.575    1.0216
   37.590    0.9795
   37.605    0.9584
   37.620    0.8952
   37.635    1.0005
   37.650    0.9900
   37.665    0.9795
   37.680    0.8425
   37.695    0.8952
   37.710    1.0111
   37.725    1.0321
   37.740    1.2638
   37.755    1.0953
   37.770    1.2428
   37.785    1.1585
   37.800    1.1901
   37.815    0.9795
   37.830    0.8531
   37.845    0.9795
   37.860    0.9373
   37.875    0.9057
   37.890    0.9057
   37.905    0.9163
   37.920    0.9479
   37.935    0.9057
   37.950    0.9373
   37.965    0.8320
   37.980    0.8531
   37.995    0.8636
   38.010    0.9373
   38.025    0.8531
   38.040    0.9268
   38.055    1.0111
   38.070    0.7372
   38.085    0.7478
   38.100    0.7372
   38.115    0.7899
   38.130    0.8425
   38.145    0.9268
   38.160    0.9479
   38.175    0.8847
   38.190    0.7688
   38.205    0.6846
   38.220    0.7056
   38.235    0.9373
   38.250    0.9163
   38.265    0.9057
   38.280    0.9163
   38.295    0.9584
   38.310    1.0532
   38.325    1.0532
   38.340    0.9689
   38.355    0.9689
   38.370    0.8636
   38.385    0.8320
   38.400    0.9163
   38.415    0.7688
   38.430    0.9057
   38.445    0.9373
   38.460    0.9057
   38.475    0.9163
   38.490    0.9163
   38.505    1.0111
   38.520    1.2217
   38.535    1.2744
   38.550    1.6535
   38.565    1.6324
   38.580    1.6114
   38.595    1.4429
   38.610    1.4534
   38.625    1.1480
   38.640    1.0005
   38.655    0.8952
   38.670    0.8110
   38.685    0.8741
   38.700    0.8847
   38.715    0.9900
   38.730    0.8425
   38.745    0.8215
   38.760    0.8110
   38.775    0.8215
   38.790    0.8110
   38.805    0.7372
   38.820    0.8110
   38.835    0.8531
   38.850    0.9057
   38.865    0.8636
   38.880    0.8531
   38.895    0.8952
   38.910    0.8320
   38.925    0.7688
   38.940    0.7899
   38.955    0.9163
   38.970    0.9268
   38.985    0.9373
   39.000    0.9584
   39.015    0.9057
   39.030    0.8847
   39.045    0.7899
   39.060    0.6846
   39.075    0.8425
   39.090    0.8320
   39.105    0.9689
   39.120    0.8741
   39.135    0.7267
   39.150    0.7899
   39.165    0.7794
   39.180    0.7899
   39.195    0.8531
   39.210    0.8320
   39.225    0.6740
   39.240    0.7688
   39.255    0.8531
   39.270    0.8531
   39.285    0.7056
   39.300    0.7794
   39.315    0.8952
   39.330    0.7899
   39.345    0.6424
   39.360    0.7267
   39.375    0.8741
   39.390    0.8952
   39.405    0.8636
   39.420    0.8425
   39.435    0.9373
   39.450    0.9057
   39.465    0.8531
   39.480    0.8847
   39.495    0.8952
   39.510    0.7583
   39.525    0.7899
   39.540    0.7162
   39.555    0.8215
   39.570    0.8636
   39.585    0.8952
   39.600    0.8425
   39.615    0.7583
   39.630    0.8110
   39.645    0.9268
   39.660    0.8215
   39.675    0.8320
   39.690    0.7583
   39.705    0.7056
   39.720    0.7688
   39.735    0.8320
   39.750    0.6846
   39.765    0.6951
   39.780    0.7478
   39.795    0.8425
   39.810    0.7056
   39.825    0.7372
   39.840    0.7478
   39.855    0.7899
   39.870    0.8215
   39.885    0.7688
   39.900    0.8952
   39.915    0.7056
   39.930    0.7162
   39.945    0.7688
   39.960    0.7794
   39.975    0.9373
   39.990    0.8110
