    1.500   15.3941
    1.515   15.6749
    1.530   15.1132
    1.545   14.9552
    1.560   15.6398
    1.575   15.1483
    1.590   14.9728
    1.605   14.3233
    1.620   13.7792
    1.635   13.3579
    1.650   13.7090
    1.665   13.7792
    1.680   13.5334
    1.695   13.2175
    1.710   13.4808
    1.725   13.1648
    1.740   12.4978
    1.755   13.2877
    1.770   13.4106
    1.785   13.1122
    1.800   12.9015
    1.815   12.8489
    1.830   12.1994
    1.845   11.6026
    1.860   12.3749
    1.875   11.8483
    1.890   12.2521
    1.905   12.0765
    1.920   11.7255
    1.935   11.3744
    1.950   11.3042
    1.965   11.3569
    1.980   12.0590
    1.995   11.4973
    2.010   11.4095
    2.025   11.5148
    2.040   11.6728
    2.055   10.8829
    2.070   10.8127
    2.085   10.0755
    2.100    9.8999
    2.115   10.5319
    2.130   10.7776
    2.145   10.3037
    2.160   10.8478
    2.175   11.4271
    2.190   11.0233
    2.205   10.9707
    2.220   10.2686
    2.235   10.8303
    2.250   10.5319
    2.265   10.8654
    2.280   10.4968
    2.295   10.9356
    2.310   11.2691
    2.325   10.9882
    2.340   10.8478
    2.355   10.4441
    2.370   10.1808
    2.385   10.6021
    2.400   10.5670
    2.415    9.8473
    2.430   10.2686
    2.445   10.6196
    2.460   10.3563
    2.475   11.3042
    2.490   10.4792
    2.505    9.9526
    2.520   10.6021
    2.535   10.7776
    2.550   10.9531
    2.565   11.0936
    2.580   10.1457
    2.595   11.1287
    2.610   10.8829
    2.625   11.3744
    2.640   11.2691
    2.655   10.8303
    2.670   11.4622
    2.685   11.9186
    2.700   11.7606
    2.715   12.3925
    2.730   11.9888
    2.745   11.8834
    2.760   12.0941
    2.775   12.9717
    2.790   12.5154
    2.805   11.9712
    2.820   12.5856
    2.835   12.9366
    2.850   12.4627
    2.865   13.2350
    2.880   12.9717
    2.895   13.7441
    2.910   13.5861
    2.925   13.4632
    2.940   13.5334
    2.955   13.0595
    2.970   14.0600
    2.985   13.9547
    3.000   13.9898
    3.015   14.9377
    3.030   15.3414
    3.045   15.2712
    3.060   15.9558
    3.075   15.4994
    3.090   16.7632
    3.105   16.5526
    3.120   16.5526
    3.135   16.6930
    3.150   17.2547
    3.165   17.5180
    3.180   18.8345
    3.195   18.7467
    3.210   18.6238
    3.225   19.1855
    3.240   19.6068
    3.255   21.0637
    3.270   21.5377
    3.285   21.9063
    3.300   22.0467
    3.315   22.3100
    3.330   23.1350
    3.345   24.3110
    3.360   24.7148
    3.375   24.9254
    3.390   25.3993
    3.405   26.4701
    3.420   28.2605
    3.435   30.3844
    3.450   28.8046
    3.465   30.0685
    3.480   31.1567
    3.495   31.8062
    3.510   34.5796
    3.525   37.1775
    3.540   37.5812
    3.555   39.4945
    3.570   42.0572
    3.585   44.3742
    3.600   45.2343
    3.615   47.7795
    3.630   50.5880
    3.645   52.9226
    3.660   55.3449
    3.675   59.2944
    3.690   62.8050
    3.705   68.9310
    3.720   72.9682
    3.735   79.0065
    3.750   84.4831
    3.765   93.4878
    3.780  106.1085
    3.795  121.3095
    3.810  138.4062
    3.825  158.3816
    3.840  167.3512
    3.855  158.2938
    3.870  135.0711
    3.885  102.8085
    3.900   67.2459
    3.915   38.1780
    3.930   21.6430
    3.945   14.4286
    3.960   11.4797
    3.975    9.3031
    3.990    8.5659
    4.005    8.2851
    4.020    7.8287
    4.035    7.2494
    4.050    7.3723
    4.065    7.1441
    4.080    7.0915
    4.095    7.0739
    4.110    6.9159
    4.125    6.8106
    4.140    6.6000
    4.155    7.5654
    4.170    6.9335
    4.185    6.7228
    4.200    6.8106
    4.215    6.6526
    4.230    6.2489
    4.245    6.0383
    4.260    6.1436
    4.275    6.4771
    4.290    6.3191
    4.305    6.3191
    4.320    6.5649
    4.335    6.0032
    4.350    6.1611
    4.365    6.5473
    4.380    6.3893
    4.395    6.2665
    4.410    6.4069
    4.425    6.7228
    4.440    6.4069
    4.455    6.1436
    4.470    6.7404
    4.485    6.8282
    4.500    6.8984
    4.515    6.2489
    4.530    6.4244
    4.545    6.8457
    4.560    6.3542
    4.575    6.5824
    4.590    7.1617
    4.605    6.9510
    4.620    6.8457
    4.635    6.8808
    4.650    6.8633
    4.665    7.0915
    4.680    7.1090
    4.695    6.7579
    4.710    7.2845
    4.725    7.1441
    4.740    7.4250
    4.755    7.4425
    4.770    7.4425
    4.785    7.4250
    4.800    7.7234
    4.815    7.7585
    4.830    7.7409
    4.845    7.9340
    4.860    7.9691
    4.875    8.1095
    4.890    8.1622
    4.905    8.3202
    4.920    8.6712
    4.935    9.5664
    4.950    9.1276
    4.965    9.3558
    4.980    9.0574
    4.995    9.4611
    5.010    9.4787
    5.025   10.1457
    5.040   10.2861
    5.055   10.1983
    5.070   11.4446
    5.085   10.4968
    5.100   11.8483
    5.115   12.3925
    5.130   12.8840
    5.145   13.3755
    5.160   13.9196
    5.175   14.8499
    5.190   15.4994
    5.205   15.4116
    5.220   16.4121
    5.235   17.6584
    5.250   18.1148
    5.265   19.0276
    5.280   20.8004
    5.295   21.3972
    5.310   23.5914
    5.325   24.6270
    5.340   25.7153
    5.355   28.4360
    5.370   30.4897
    5.385   33.4738
    5.400   37.4583
    5.415   41.9344
    5.430   48.5519
    5.445   57.6619
    5.460   61.8922
    5.475   60.1720
    5.490   51.6939
    5.505   42.5487
    5.520   29.8929
    5.535   19.4313
    5.550   12.3223
    5.565    8.8292
    5.580    7.5829
    5.595    6.9159
    5.610    6.0558
    5.625    6.1611
    5.640    6.0032
    5.655    5.9505
    5.670    5.7399
    5.685    5.7750
    5.700    5.4415
    5.715    5.6345
    5.730    5.8627
    5.745    5.8101
    5.760    5.4590
    5.775    5.8101
    5.790    5.8101
    5.805    5.1431
    5.820    4.9324
    5.835    5.3712
    5.850    5.5994
    5.865    5.5819
    5.880    5.3537
    5.895    6.1611
    5.910    5.7223
    5.925    5.8276
    5.940    5.3537
    5.955    4.8095
    5.970    5.3537
    5.985    5.7399
    6.000    5.6345
    6.015    5.6697
    6.030    5.9856
    6.045    5.4590
    6.060    5.9505
    6.075    5.8803
    6.090    5.5994
    6.105    6.1436
    6.120    6.0383
    6.135    5.5292
    6.150    5.6345
    6.165    5.9154
    6.180    5.7925
    6.195    5.7574
    6.210    6.0909
    6.225    6.0207
    6.240    5.6697
    6.255    6.1260
    6.270    5.8276
    6.285    6.0383
    6.300    6.6526
    6.315    6.5298
    6.330    6.4420
    6.345    6.4420
    6.360    6.9335
    6.375    6.7930
    6.390    6.5122
    6.405    6.3542
    6.420    6.6526
    6.435    6.8808
    6.450    6.7755
    6.465    7.4074
    6.480    8.0920
    6.495    8.2500
    6.510    8.8292
    6.525    9.1101
    6.540    9.3382
    6.555    8.8819
    6.570    9.1276
    6.585    9.8473
    6.600   10.2861
    6.615   11.4446
    6.630   12.6207
    6.645   13.4281
    6.660   15.2712
    6.675   16.9212
    6.690   19.0276
    6.705   21.0813
    6.720   20.2738
    6.735   17.9568
    6.750   15.5872
    6.765   11.9361
    6.780    9.0398
    6.795    7.8989
    6.810    6.8984
    6.825    5.7223
    6.840    5.7925
    6.855    5.5117
    6.870    5.4766
    6.885    5.6872
    6.900    5.0026
    6.915    5.3010
    6.930    5.3010
    6.945    4.9149
    6.960    5.0202
    6.975    4.8973
    6.990    5.0904
    7.005    5.4415
    7.020    5.6872
    7.035    5.5117
    7.050    5.2835
    7.065    5.2133
    7.080    5.4064
    7.095    4.4760
    7.110    4.6340
    7.125    5.6345
    7.140    5.4064
    7.155    5.0377
    7.170    4.7042
    7.185    4.7744
    7.200    5.3010
    7.215    5.3888
    7.230    5.3010
    7.245    5.3712
    7.260    5.4766
    7.275    5.2835
    7.290    4.9500
    7.305    5.5994
    7.320    5.5819
    7.335    5.4415
    7.350    5.4239
    7.365    5.3186
    7.380    5.0553
    7.395    5.4064
    7.410    5.8803
    7.425    5.7574
    7.440    5.8803
    7.455    6.1611
    7.470    6.3542
    7.485    6.2840
    7.500    6.1611
    7.515    6.1436
    7.530    6.4244
    7.545    6.8808
    7.560    7.6707
    7.575    7.3021
    7.590    6.7930
    7.605    7.9691
    7.620    7.9340
    7.635    8.1622
    7.650    8.1797
    7.665    9.1276
    7.680    9.5840
    7.695   10.0579
    7.710   11.0936
    7.725   12.0590
    7.740   13.3052
    7.755   15.1834
    7.770   15.6574
    7.785   13.9372
    7.800   11.9537
    7.815    9.9702
    7.830    7.8462
    7.845    6.7755
    7.860    5.7223
    7.875    4.8271
    7.890    5.1606
    7.905    5.1782
    7.920    4.9149
    7.935    4.7218
    7.950    5.0904
    7.965    4.8973
    7.980    5.3361
    7.995    5.3537
    8.010    5.1431
    8.025    5.2308
    8.040    5.2659
    8.055    5.4064
    8.070    5.1080
    8.085    4.7569
    8.100    4.7920
    8.115    4.8271
    8.130    5.1255
    8.145    5.1782
    8.160    5.0904
    8.175    5.0202
    8.190    5.2835
    8.205    5.0728
    8.220    5.0377
    8.235    4.6691
    8.250    4.9500
    8.265    5.2659
    8.280    5.1431
    8.295    4.8973
    8.310    5.0904
    8.325    5.0553
    8.340    4.8095
    8.355    5.0026
    8.370    5.1957
    8.385    4.8973
    8.400    4.8447
    8.415    4.8973
    8.430    4.9149
    8.445    4.9675
    8.460    4.9324
    8.475    4.6165
    8.490    5.2659
    8.505    5.4239
    8.520    4.8798
    8.535    5.3537
    8.550    5.8452
    8.565    5.7048
    8.580    5.3010
    8.595    5.5643
    8.610    5.4766
    8.625    5.7750
    8.640    6.0383
    8.655    6.1436
    8.670    6.3367
    8.685    6.8106
    8.700    6.4946
    8.715    6.1436
    8.730    6.0207
    8.745    5.4415
    8.760    5.7048
    8.775    5.5117
    8.790    5.3010
    8.805    5.1957
    8.820    4.7218
    8.835    4.7042
    8.850    4.6516
    8.865    4.7042
    8.880    4.7218
    8.895    5.0202
    8.910    4.8622
    8.925    4.8973
    8.940    5.3010
    8.955    5.2484
    8.970    5.3186
    8.985    5.0728
    9.000    5.3888
    9.015    4.7920
    9.030    4.6867
    9.045    5.3186
    9.060    5.2308
    9.075    5.2133
    9.090    5.4239
    9.105    5.3888
    9.120    5.9329
    9.135    5.5819
    9.150    5.1606
    9.165    5.7925
    9.180    6.1611
    9.195    6.2489
    9.210    6.0734
    9.225    6.3893
    9.240    6.6702
    9.255    6.6877
    9.270    6.6351
    9.285    7.0915
    9.300    7.6707
    9.315    7.7760
    9.330    8.2149
    9.345    8.2500
    9.360    8.7063
    9.375    9.5138
    9.390   10.5319
    9.405   10.9707
    9.420   11.5148
    9.435   12.7435
    9.450   14.5691
    9.465   15.8329
    9.480   18.6589
    9.495   22.2222
    9.510   26.3648
    9.525   26.2770
    9.540   26.1366
    9.555   22.8190
    9.570   19.1855
    9.585   14.1478
    9.600   10.4265
    9.615    7.8989
    9.630    6.4946
    9.645    5.8803
    9.660    5.0377
    9.675    4.8271
    9.690    5.1782
    9.705    5.0026
    9.720    5.2308
    9.735    4.9149
    9.750    4.9675
    9.765    4.8447
    9.780    4.8622
    9.795    4.6691
    9.810    4.9324
    9.825    5.2659
    9.840    5.0904
    9.855    4.6165
    9.870    4.5463
    9.885    4.8798
    9.900    5.0904
    9.915    5.1080
    9.930    4.9500
    9.945    4.8973
    9.960    5.1255
    9.975    5.0553
    9.990    4.9675
   10.005    5.2659
   10.020    5.3361
   10.035    5.7048
   10.050    5.2133
   10.065    5.3537
   10.080    5.4064
   10.095    5.7750
   10.110    5.8803
   10.125    6.1611
   10.140    6.5473
   10.155    6.2665
   10.170    6.5298
   10.185    6.8457
   10.200    7.2845
   10.215    7.9691
   10.230    8.3553
   10.245    9.5840
   10.260    9.9351
   10.275   11.8659
   10.290   12.5154
   10.305   12.2872
   10.320   12.0590
   10.335   10.8127
   10.350    8.6888
   10.365    7.6707
   10.380    6.4244
   10.395    5.7574
   10.410    5.1255
   10.425    4.9675
   10.440    4.9324
   10.455    4.5638
   10.470    4.6516
   10.485    4.7042
   10.500    4.3181
   10.515    4.8973
   10.530    4.6340
   10.545    4.7744
   10.560    4.9675
   10.575    4.9149
   10.590    4.8095
   10.605    4.8095
   10.620    4.6867
   10.635    4.6340
   10.650    4.9500
   10.665    5.2835
   10.680    4.8622
   10.695    4.7920
   10.710    5.0553
   10.725    4.7393
   10.740    5.0026
   10.755    4.7393
   10.770    5.0553
   10.785    4.9500
   10.800    5.4239
   10.815    5.3712
   10.830    5.4064
   10.845    5.6697
   10.860    5.4766
   10.875    5.6345
   10.890    6.1260
   10.905    5.4064
   10.920    6.4595
   10.935    6.6702
   10.950    7.0037
   10.965    8.0920
   10.980    8.8819
   10.995    9.1803
   11.010   10.2159
   11.025   10.1808
   11.040    9.5840
   11.055    9.1452
   11.070    7.5829
   11.085    6.0558
   11.100    5.4766
   11.115    4.8798
   11.130    4.8798
   11.145    4.8271
   11.160    4.9500
   11.175    4.8095
   11.190    4.6867
   11.205    4.8798
   11.220    4.7920
   11.235    4.5638
   11.250    4.7218
   11.265    5.0377
   11.280    5.3712
   11.295    4.4409
   11.310    4.4058
   11.325    5.1080
   11.340    4.8271
   11.355    4.7218
   11.370    4.8447
   11.385    4.8973
   11.400    4.9500
   11.415    4.7920
   11.430    5.0904
   11.445    5.3712
   11.460    4.7744
   11.475    4.5111
   11.490    5.1431
   11.505    5.7750
   11.520    5.7399
   11.535    5.5994
   11.550    5.8276
   11.565    6.4595
   11.580    6.3016
   11.595    6.5298
   11.610    7.1266
   11.625    7.9340
   11.640    8.1095
   11.655    9.7244
   11.670   10.3914
   11.685   10.3739
   11.700   10.9005
   11.715   10.5319
   11.730    9.4787
   11.745    8.0218
   11.760    6.6526
   11.775    5.6170
   11.790    4.8798
   11.805    4.1601
   11.820    4.2303
   11.835    4.7569
   11.850    4.5814
   11.865    4.3356
   11.880    4.9324
   11.895    4.4058
   11.910    4.6165
   11.925    4.6516
   11.940    4.7920
   11.955    4.5638
   11.970    4.4760
   11.985    4.5287
   12.000    4.5463
   12.015    4.1601
   12.030    4.4585
   12.045    4.7393
   12.060    4.4409
   12.075    4.3883
   12.090    5.1080
   12.105    4.6165
   12.120    4.7218
   12.135    4.3005
   12.150    4.4058
   12.165    4.5814
   12.180    4.7218
   12.195    4.8973
   12.210    4.4936
   12.225    5.0377
   12.240    4.8622
   12.255    4.9500
   12.270    5.0728
   12.285    5.4064
   12.300    5.5117
   12.315    5.3361
   12.330    5.4415
   12.345    5.6345
   12.360    5.4766
   12.375    5.2659
   12.390    4.7920
   12.405    4.5814
   12.420    4.9324
   12.435    4.6516
   12.450    4.7920
   12.465    4.6340
   12.480    4.5287
   12.495    4.7042
   12.510    4.2303
   12.525    5.0553
   12.540    4.3883
   12.555    4.8798
   12.570    4.2478
   12.585    4.3707
   12.600    4.5463
   12.615    4.6340
   12.630    4.4058
   12.645    4.4585
   12.660    4.5638
   12.675    4.6516
   12.690    4.7393
   12.705    5.0553
   12.720    4.9500
   12.735    5.2659
   12.750    5.0377
   12.765    5.1431
   12.780    4.7744
   12.795    5.0026
   12.810    4.9851
   12.825    5.2484
   12.840    6.0383
   12.855    6.1085
   12.870    5.8276
   12.885    7.0739
   12.900    7.5303
   12.915    7.5829
   12.930    8.2675
   12.945    7.7760
   12.960    8.6537
   12.975    7.9691
   12.990    6.7053
   13.005    6.0909
   13.020    5.3888
   13.035    4.6340
   13.050    4.7744
   13.065    4.6165
   13.080    4.6165
   13.095    4.3181
   13.110    4.3707
   13.125    4.5463
   13.140    4.7569
   13.155    4.5111
   13.170    4.5989
   13.185    4.4936
   13.200    4.7393
   13.215    4.4409
   13.230    4.1074
   13.245    4.4234
   13.260    4.3005
   13.275    4.5814
   13.290    4.4409
   13.305    4.7744
   13.320    4.4760
   13.335    4.2830
   13.350    4.3181
   13.365    4.7744
   13.380    4.7042
   13.395    4.8447
   13.410    4.9500
   13.425    4.4936
   13.440    4.9324
   13.455    5.0026
   13.470    5.8452
   13.485    5.9856
   13.500    5.9681
   13.515    5.8627
   13.530    6.0032
   13.545    6.1085
   13.560    5.6345
   13.575    5.2133
   13.590    5.0202
   13.605    4.5463
   13.620    4.4234
   13.635    4.2654
   13.650    4.8447
   13.665    4.6165
   13.680    4.6691
   13.695    4.8447
   13.710    4.5287
   13.725    4.0899
   13.740    4.5638
   13.755    4.3181
   13.770    4.7393
   13.785    4.9675
   13.800    4.1776
   13.815    4.7920
   13.830    5.0026
   13.845    5.0202
   13.860    4.6340
   13.875    5.0728
   13.890    5.2484
   13.905    4.6516
   13.920    4.6340
   13.935    4.9851
   13.950    5.3712
   13.965    5.3010
   13.980    5.8452
   13.995    5.8627
   14.010    5.8627
   14.025    6.8808
   14.040    6.8808
   14.055    7.7409
   14.070    8.3904
   14.085    8.2149
   14.100    8.0744
   14.115    7.8813
   14.130    6.9335
   14.145    5.8803
   14.160    5.3888
   14.175    5.4239
   14.190    5.1606
   14.205    4.6340
   14.220    4.5111
   14.235    4.3883
   14.250    4.5463
   14.265    4.1250
   14.280    4.2654
   14.295    4.2478
   14.310    4.1425
   14.325    4.1074
   14.340    4.3532
   14.355    4.1601
   14.370    4.2654
   14.385    4.0899
   14.400    4.2654
   14.415    4.1601
   14.430    4.5989
   14.445    4.3707
   14.460    4.2830
   14.475    4.5638
   14.490    4.1952
   14.505    3.9670
   14.520    3.7388
   14.535    4.1425
   14.550    4.0197
   14.565    4.0899
   14.580    4.2830
   14.595    4.1601
   14.610    4.0723
   14.625    3.8441
   14.640    3.9846
   14.655    4.1776
   14.670    4.4234
   14.685    4.4409
   14.700    3.9494
   14.715    3.8617
   14.730    4.1601
   14.745    4.3707
   14.760    4.4760
   14.775    4.0197
   14.790    4.0197
   14.805    4.7393
   14.820    4.4936
   14.835    4.5814
   14.850    4.2127
   14.865    3.8441
   14.880    4.0548
   14.895    4.1952
   14.910    4.2830
   14.925    4.5111
   14.940    4.0372
   14.955    4.6165
   14.970    4.6165
   14.985    4.2303
   15.000    4.4234
   15.015    4.3356
   15.030    4.4936
   15.045    4.5111
   15.060    4.3532
   15.075    4.4760
   15.090    4.5287
   15.105    4.7920
   15.120    4.6165
   15.135    4.5814
   15.150    4.6867
   15.165    4.7218
   15.180    4.3356
   15.195    4.2303
   15.210    4.4234
   15.225    4.2478
   15.240    4.3005
   15.255    4.1952
   15.270    4.1425
   15.285    4.1074
   15.300    4.4760
   15.315    4.3181
   15.330    4.1250
   15.345    4.0197
   15.360    4.1425
   15.375    4.4058
   15.390    4.1952
   15.405    3.8617
   15.420    4.0723
   15.435    4.0372
   15.450    4.0548
   15.465    4.1250
   15.480    4.1776
   15.495    4.3005
   15.510    4.3532
   15.525    4.1250
   15.540    4.1601
   15.555    4.4058
   15.570    4.3883
   15.585    4.3181
   15.600    4.1776
   15.615    4.1250
   15.630    3.9846
   15.645    4.3883
   15.660    4.1952
   15.675    4.0899
   15.690    4.0548
   15.705    4.0197
   15.720    4.2830
   15.735    4.5814
   15.750    4.3532
   15.765    4.3181
   15.780    4.5111
   15.795    4.7393
   15.810    4.3707
   15.825    4.3883
   15.840    4.2303
   15.855    4.1601
   15.870    4.3532
   15.885    4.2654
   15.900    4.2478
   15.915    4.0548
   15.930    4.0548
   15.945    4.4409
   15.960    4.5989
   15.975    4.4585
   15.990    4.9324
   16.005    4.5287
   16.020    4.5989
   16.035    4.2654
   16.050    4.4234
   16.065    4.9149
   16.080    4.9675
   16.095    5.0728
   16.110    4.8798
   16.125    4.6691
   16.140    5.0377
   16.155    4.8622
   16.170    4.9149
   16.185    5.0377
   16.200    4.2303
   16.215    4.0899
   16.230    4.5111
   16.245    4.3356
   16.260    4.4409
   16.275    4.4760
   16.290    4.4585
   16.305    4.1074
   16.320    4.2478
   16.335    4.0723
   16.350    4.2127
   16.365    4.0197
   16.380    4.1952
   16.395    4.3181
   16.410    4.4585
   16.425    4.3883
   16.440    4.4585
   16.455    4.6867
   16.470    4.3707
   16.485    4.4409
   16.500    4.3883
   16.515    4.4936
   16.530    4.5814
   16.545    4.4760
   16.560    4.9675
   16.575    4.8447
   16.590    4.7569
   16.605    5.3712
   16.620    5.2835
   16.635    4.9149
   16.650    5.0728
   16.665    4.5463
   16.680    4.2830
   16.695    4.0372
   16.710    4.5111
   16.725    4.6165
   16.740    4.3356
   16.755    3.7213
   16.770    4.1776
   16.785    4.4585
   16.800    4.5638
   16.815    4.2830
   16.830    4.4936
   16.845    4.6516
   16.860    4.2303
   16.875    4.9149
   16.890    4.3883
   16.905    4.3532
   16.920    4.4234
   16.935    4.4585
   16.950    5.2835
   16.965    5.4590
   16.980    6.2138
   16.995    5.7750
   17.010    6.3893
   17.025    7.1441
   17.040    7.5127
   17.055    7.9164
   17.070    7.0037
   17.085    6.4069
   17.100    6.0207
   17.115    6.2313
   17.130    5.7048
   17.145    4.9324
   17.160    4.6691
   17.175    4.1601
   17.190    4.1601
   17.205    4.4760
   17.220    4.3883
   17.235    4.5287
   17.250    4.1952
   17.265    4.2303
   17.280    4.8447
   17.295    4.1601
   17.310    4.3005
   17.325    4.2127
   17.340    4.1425
   17.355    4.5638
   17.370    4.6340
   17.385    4.2303
   17.400    4.3532
   17.415    4.9500
   17.430    4.8798
   17.445    4.5814
   17.460    4.7393
   17.475    5.0202
   17.490    4.7569
   17.505    5.2484
   17.520    4.8798
   17.535    4.8798
   17.550    4.5814
   17.565    4.7218
   17.580    4.4409
   17.595    4.2303
   17.610    3.9846
   17.625    4.1952
   17.640    4.1074
   17.655    4.1250
   17.670    4.0021
   17.685    4.0548
   17.700    4.1601
   17.715    3.9846
   17.730    4.1601
   17.745    4.2303
   17.760    4.1952
   17.775    3.7739
   17.790    4.3883
   17.805    4.6165
   17.820    4.3532
   17.835    4.2127
   17.850    4.5287
   17.865    4.5111
   17.880    4.6691
   17.895    4.6691
   17.910    4.7744
   17.925    4.8798
   17.940    4.7218
   17.955    4.7042
   17.970    4.5989
   17.985    4.5111
   18.000    5.1431
   18.015    4.7042
   18.030    4.5111
   18.045    4.7569
   18.060    4.2830
   18.075    4.2478
   18.090    4.3005
   18.105    4.2127
   18.120    4.1425
   18.135    4.3883
   18.150    4.1952
   18.165    4.1074
   18.180    4.0899
   18.195    4.3181
   18.210    4.5638
   18.225    4.2303
   18.240    3.8090
   18.255    4.5989
   18.270    4.4058
   18.285    4.4585
   18.300    4.4409
   18.315    4.5111
   18.330    4.9500
   18.345    5.1255
   18.360    4.9500
   18.375    4.6516
   18.390    4.5814
   18.405    4.5989
   18.420    5.2659
   18.435    4.6867
   18.450    4.7920
   18.465    4.1250
   18.480    4.3532
   18.495    4.1250
   18.510    4.0899
   18.525    4.4058
   18.540    4.2303
   18.555    4.3707
   18.570    4.4409
   18.585    4.1425
   18.600    4.6340
   18.615    4.4760
   18.630    4.3356
   18.645    4.4585
   18.660    4.0372
   18.675    4.2654
   18.690    3.9846
   18.705    4.2127
   18.720    4.5814
   18.735    3.9143
   18.750    4.2127
   18.765    4.3883
   18.780    5.0202
   18.795    4.7920
   18.810    4.5638
   18.825    4.4234
   18.840    4.3532
   18.855    4.7393
   18.870    4.3181
   18.885    4.6516
   18.900    3.9846
   18.915    3.7564
   18.930    4.2303
   18.945    4.4585
   18.960    4.6691
   18.975    4.2127
   18.990    4.1952
   19.005    3.9494
   19.020    4.0899
   19.035    4.3005
   19.050    4.0548
   19.065    4.4234
   19.080    4.7393
   19.095    4.5111
   19.110    4.2654
   19.125    3.8090
   19.140    3.9670
   19.155    4.1074
   19.170    3.9670
   19.185    4.1952
   19.200    4.1952
   19.215    4.3883
   19.230    4.3356
   19.245    3.9143
   19.260    4.2830
   19.275    4.0197
   19.290    4.3356
   19.305    4.0899
   19.320    4.1425
   19.335    3.9494
   19.350    3.9670
   19.365    4.1074
   19.380    4.4585
   19.395    4.5111
   19.410    4.6867
   19.425    4.3532
   19.440    4.3883
   19.455    4.6165
   19.470    4.4760
   19.485    4.2478
   19.500    4.3356
   19.515    4.6165
   19.530    4.7569
   19.545    4.6867
   19.560    5.5819
   19.575    5.2835
   19.590    5.2133
   19.605    5.4415
   19.620    5.5643
   19.635    5.1606
   19.650    4.9851
   19.665    4.3707
   19.680    4.5111
   19.695    4.3883
   19.710    4.3181
   19.725    4.3532
   19.740    4.3707
   19.755    4.2303
   19.770    3.9319
   19.785    4.4409
   19.800    4.5814
   19.815    4.5111
   19.830    4.4936
   19.845    4.7744
   19.860    4.4585
   19.875    4.3181
   19.890    4.1074
   19.905    3.8266
   19.920    4.3181
   19.935    4.5814
   19.950    3.8792
   19.965    4.3181
   19.980    4.7218
   19.995    4.7920
   20.010    4.5989
   20.025    4.2654
   20.040    4.1601
   20.055    4.4936
   20.070    4.0372
   20.085    4.3532
   20.100    4.4760
   20.115    4.3005
   20.130    4.3005
   20.145    4.3707
   20.160    4.6165
   20.175    4.7218
   20.190    4.5287
   20.205    4.2127
   20.220    4.8973
   20.235    4.3356
   20.250    4.8095
   20.265    4.4234
   20.280    4.4058
   20.295    5.1431
   20.310    5.2308
   20.325    5.7574
   20.340    5.7223
   20.355    6.2489
   20.370    6.3718
   20.385    6.4420
   20.400    6.4595
   20.415    6.2665
   20.430    6.2489
   20.445    5.1606
   20.460    4.8271
   20.475    4.5111
   20.490    4.5814
   20.505    4.5287
   20.520    4.5111
   20.535    4.3005
   20.550    4.6516
   20.565    4.2654
   20.580    4.4936
   20.595    4.2830
   20.610    4.2830
   20.625    4.4760
   20.640    4.0899
   20.655    4.1425
   20.670    4.3005
   20.685    4.4585
   20.700    4.2654
   20.715    4.3707
   20.730    4.1250
   20.745    4.1425
   20.760    4.1425
   20.775    4.6340
   20.790    4.5463
   20.805    4.1601
   20.820    4.0899
   20.835    4.1776
   20.850    3.9670
   20.865    4.4760
   20.880    4.3005
   20.895    4.0372
   20.910    4.0723
   20.925    3.9319
   20.940    4.0899
   20.955    4.1776
   20.970    4.4409
   20.985    4.7218
   21.000    4.7569
   21.015    4.3356
   21.030    4.0197
   21.045    4.2654
   21.060    4.4234
   21.075    4.2654
   21.090    4.6516
   21.105    4.5287
   21.120    4.4585
   21.135    4.3005
   21.150    4.2478
   21.165    4.5111
   21.180    4.1601
   21.195    4.2127
   21.210    4.1952
   21.225    4.2127
   21.240    4.4058
   21.255    4.4234
   21.270    4.3181
   21.285    4.1952
   21.300    4.1074
   21.315    4.3356
   21.330    4.4936
   21.345    4.1250
   21.360    4.1250
   21.375    4.2478
   21.390    4.3532
   21.405    4.0021
   21.420    4.1425
   21.435    4.2127
   21.450    4.2127
   21.465    4.1425
   21.480    4.2127
   21.495    4.4058
   21.510    4.2303
   21.525    4.4760
   21.540    4.3356
   21.555    4.5287
   21.570    4.4409
   21.585    4.2654
   21.600    4.2654
   21.615    4.4234
   21.630    3.9670
   21.645    4.2654
   21.660    4.3005
   21.675    4.0723
   21.690    4.1776
   21.705    4.4760
   21.720    4.3883
   21.735    4.0197
   21.750    4.3883
   21.765    4.4409
   21.780    4.3181
   21.795    4.8798
   21.810    4.9149
   21.825    5.1431
   21.840    5.5292
   21.855    5.2484
   21.870    5.7048
   21.885    5.2484
   21.900    5.2659
   21.915    4.7393
   21.930    4.5287
   21.945    4.3181
   21.960    4.1952
   21.975    4.5814
   21.990    4.6516
   22.005    4.7218
   22.020    4.4409
   22.035    4.3005
   22.050    4.5111
   22.065    4.3181
   22.080    4.7218
   22.095    4.7920
   22.110    4.9675
   22.125    4.6691
   22.140    4.5463
   22.155    4.6867
   22.170    5.2659
   22.185    5.0904
   22.200    5.2133
   22.215    5.0202
   22.230    4.7744
   22.245    4.5638
   22.260    4.7042
   22.275    4.5638
   22.290    4.7920
   22.305    4.7042
   22.320    4.6867
   22.335    4.3707
   22.350    4.7569
   22.365    4.7569
   22.380    4.9500
   22.395    4.8447
   22.410    4.7393
   22.425    4.5638
   22.440    4.5814
   22.455    4.7393
   22.470    5.4941
   22.485    5.5292
   22.500    5.7574
   22.515    5.7223
   22.530    6.6702
   22.545    7.3547
   22.560    6.7755
   22.575    6.7755
   22.590    6.6526
   22.605    6.8457
   22.620    6.3718
   22.635    5.4590
   22.650    5.2659
   22.665    4.8622
   22.680    4.4058
   22.695    4.8271
   22.710    4.4936
   22.725    4.4058
   22.740    4.3532
   22.755    4.4760
   22.770    4.7569
   22.785    4.6867
   22.800    4.7920
   22.815    5.1957
   22.830    5.4064
   22.845    5.2308
   22.860    5.8101
   22.875    6.7404
   22.890    6.6526
   22.905    6.7930
   22.920    6.7579
   22.935    6.6877
   22.950    6.5473
   22.965    6.0909
   22.980    5.9505
   22.995    5.2659
   23.010    5.0377
   23.025    4.7393
   23.040    4.5111
   23.055    3.9846
   23.070    4.2654
   23.085    4.3356
   23.100    4.4058
   23.115    4.3181
   23.130    4.3883
   23.145    4.6516
   23.160    5.0026
   23.175    5.0026
   23.190    5.0026
   23.205    5.1606
   23.220    5.0026
   23.235    4.9324
   23.250    5.2133
   23.265    5.4941
   23.280    5.1080
   23.295    4.8447
   23.310    4.9500
   23.325    5.3010
   23.340    4.8798
   23.355    4.2127
   23.370    4.1074
   23.385    3.9670
   23.400    3.9494
   23.415    4.2830
   23.430    4.3005
   23.445    4.5111
   23.460    4.3181
   23.475    4.4058
   23.490    4.4760
   23.505    4.5638
   23.520    4.1952
   23.535    4.5111
   23.550    4.9324
   23.565    4.5463
   23.580    4.4760
   23.595    4.6165
   23.610    4.0899
   23.625    4.3356
   23.640    4.4760
   23.655    4.7569
   23.670    4.3883
   23.685    4.3005
   23.700    4.0021
   23.715    4.4234
   23.730    4.3356
   23.745    3.9319
   23.760    4.4409
   23.775    4.3005
   23.790    4.3005
   23.805    4.2127
   23.820    4.1250
   23.835    5.0377
   23.850    4.7569
   23.865    4.5287
   23.880    5.1431
   23.895    4.7042
   23.910    5.1431
   23.925    4.9675
   23.940    4.6165
   23.955    4.5638
   23.970    4.7569
   23.985    4.5111
   24.000    4.3707
   24.015    4.6691
   24.030    3.9143
   24.045    4.4936
   24.060    4.5287
   24.075    4.0197
   24.090    4.0372
   24.105    4.1952
   24.120    4.8622
   24.135    4.4058
   24.150    4.2478
   24.165    4.4058
   24.180    4.2830
   24.195    4.4585
   24.210    4.2654
   24.225    4.4585
   24.240    4.6165
   24.255    4.4936
   24.270    4.0723
   24.285    4.2830
   24.300    4.3005
   24.315    4.6340
   24.330    4.4936
   24.345    3.9319
   24.360    4.1952
   24.375    4.2303
   24.390    4.5111
   24.405    3.9846
   24.420    4.2830
   24.435    4.2127
   24.450    4.2654
   24.465    4.0197
   24.480    4.0372
   24.495    3.9319
   24.510    4.2478
   24.525    4.0899
   24.540    4.2654
   24.555    4.7744
   24.570    4.4058
   24.585    4.4234
   24.600    4.6867
   24.615    4.0548
   24.630    4.4409
   24.645    4.4409
   24.660    3.9143
   24.675    3.7037
   24.690    4.5287
   24.705    4.5111
   24.720    4.0372
   24.735    4.0197
   24.750    4.4936
   24.765    4.7744
   24.780    3.9670
   24.795    4.1776
   24.810    4.0723
   24.825    4.3532
   24.840    4.3883
   24.855    4.2830
   24.870    4.2127
   24.885    4.5638
   24.900    4.8447
   24.915    4.6516
   24.930    4.2127
   24.945    4.1776
   24.960    4.0197
   24.975    4.1776
   24.990    4.2478
   25.005    4.4058
   25.020    4.4234
   25.035    4.0899
   25.050    4.0548
   25.065    3.8792
   25.080    4.0021
   25.095    4.4409
   25.110    4.1250
   25.125    4.4760
   25.140    4.3532
   25.155    4.5111
   25.170    4.8095
   25.185    4.8447
   25.200    4.9149
   25.215    4.7218
   25.230    5.0904
   25.245    4.8447
   25.260    4.5287
   25.275    4.0899
   25.290    4.5463
   25.305    4.3883
   25.320    4.1074
   25.335    4.0899
   25.350    4.3181
   25.365    4.2127
   25.380    4.1250
   25.395    4.1425
   25.410    4.3707
   25.425    4.4409
   25.440    4.3005
   25.455    4.6340
   25.470    4.6516
   25.485    4.4409
   25.500    4.5638
   25.515    4.6867
   25.530    4.6516
   25.545    4.3181
   25.560    4.2654
   25.575    4.1601
   25.590    4.4585
   25.605    4.5638
   25.620    4.3005
   25.635    4.5463
   25.650    4.7218
   25.665    3.9143
   25.680    4.1952
   25.695    4.2303
   25.710    4.4760
   25.725    4.7569
   25.740    5.0202
   25.755    5.1957
   25.770    5.4064
   25.785    5.7399
   25.800    5.7750
   25.815    6.0032
   25.830    6.4595
   25.845    6.4244
   25.860    5.8627
   25.875    5.6345
   25.890    5.1957
   25.905    4.9324
   25.920    4.7042
   25.935    4.3707
   25.950    4.5111
   25.965    4.2830
   25.980    4.1952
   25.995    4.4585
   26.010    4.1601
   26.025    4.3883
   26.040    4.3181
   26.055    4.1952
   26.070    4.0899
   26.085    4.1776
   26.100    4.3356
   26.115    4.1601
   26.130    3.8617
   26.145    4.3532
   26.160    4.3883
   26.175    3.7739
   26.190    4.3356
   26.205    4.1250
   26.220    4.3883
   26.235    4.1425
   26.250    4.3707
   26.265    4.2303
   26.280    4.2478
   26.295    4.1776
   26.310    3.9319
   26.325    4.3532
   26.340    4.2478
   26.355    4.5814
   26.370    4.3532
   26.385    4.3707
   26.400    4.8447
   26.415    5.1957
   26.430    4.8973
   26.445    4.7920
   26.460    4.8271
   26.475    4.5463
   26.490    4.5287
   26.505    4.1776
   26.520    4.4585
   26.535    4.2127
   26.550    4.0899
   26.565    3.5282
   26.580    3.9494
   26.595    3.9670
   26.610    3.8441
   26.625    3.6510
   26.640    3.5984
   26.655    4.2830
   26.670    4.0723
   26.685    3.9494
   26.700    4.1425
   26.715    4.3883
   26.730    4.0372
   26.745    4.3181
   26.760    4.5989
   26.775    4.1425
   26.790    4.0372
   26.805    4.3356
   26.820    4.3181
   26.835    3.8792
   26.850    3.7564
   26.865    3.9670
   26.880    3.7739
   26.895    4.1074
   26.910    4.1074
   26.925    4.2654
   26.940    4.2127
   26.955    4.9149
   26.970    4.2478
   26.985    4.5287
   27.000    5.0377
   27.015    4.8095
   27.030    4.8095
   27.045    5.0202
   27.060    4.9324
   27.075    4.7393
   27.090    4.3532
   27.105    4.8095
   27.120    4.3532
   27.135    4.2127
   27.150    4.1074
   27.165    3.9143
   27.180    3.9494
   27.195    3.8617
   27.210    3.8617
   27.225    4.1250
   27.240    4.0899
   27.255    4.3532
   27.270    3.9846
   27.285    4.2830
   27.300    3.7213
   27.315    4.1074
   27.330    3.8968
   27.345    4.1952
   27.360    4.2478
   27.375    4.2303
   27.390    4.1250
   27.405    4.3356
   27.420    4.0197
   27.435    4.0723
   27.450    4.3181
   27.465    3.9670
   27.480    4.0021
   27.495    3.8266
   27.510    3.9319
   27.525    3.9143
   27.540    4.1425
   27.555    4.1074
   27.570    4.1250
   27.585    4.3707
   27.600    4.7569
   27.615    4.6691
   27.630    4.6165
   27.645    4.5287
   27.660    4.5814
   27.675    4.1074
   27.690    3.9670
   27.705    4.3707
   27.720    3.9846
   27.735    3.6335
   27.750    3.6510
   27.765    3.8617
   27.780    3.7037
   27.795    4.2303
   27.810    4.0197
   27.825    4.1425
   27.840    4.1425
   27.855    3.8617
   27.870    4.2654
   27.885    4.0197
   27.900    4.3356
   27.915    4.0723
   27.930    4.2654
   27.945    4.8447
   27.960    4.1250
   27.975    4.1425
   27.990    4.1074
   28.005    4.1776
   28.020    4.0372
   28.035    3.9670
   28.050    3.7213
   28.065    3.9319
   28.080    4.0021
   28.095    4.1250
   28.110    4.1776
   28.125    4.4936
   28.140    4.6340
   28.155    4.6516
   28.170    5.1255
   28.185    5.1957
   28.200    4.9675
   28.215    4.3005
   28.230    4.5638
   28.245    4.5463
   28.260    4.8271
   28.275    4.5638
   28.290    4.2478
   28.305    4.0723
   28.320    4.0548
   28.335    4.1952
   28.350    3.8968
   28.365    4.1250
   28.380    4.6516
   28.395    4.8271
   28.410    4.7042
   28.425    4.5287
   28.440    4.6867
   28.455    4.6516
   28.470    4.5814
   28.485    4.6516
   28.500    4.3181
   28.515    4.1601
   28.530    4.2830
   28.545    4.4058
   28.560    4.4058
   28.575    4.1425
   28.590    3.6686
   28.605    4.0021
   28.620    3.7739
   28.635    4.0372
   28.650    3.5984
   28.665    3.6862
   28.680    3.4404
   28.695    3.7213
   28.710    3.9670
   28.725    4.1425
   28.740    3.8617
   28.755    4.2303
   28.770    3.7388
   28.785    3.9319
   28.800    3.8266
   28.815    3.8617
   28.830    3.6862
   28.845    3.8266
   28.860    3.9670
   28.875    3.7564
   28.890    3.8617
   28.905    4.0899
   28.920    3.6335
   28.935    3.6862
   28.950    3.6335
   28.965    4.1952
   28.980    3.9670
   28.995    4.2654
   29.010    4.2127
   29.025    3.5984
   29.040    3.7564
   29.055    3.7388
   29.070    3.7037
   29.085    4.0372
   29.100    4.1601
   29.115    4.3005
   29.130    4.0197
   29.145    3.6862
   29.160    3.3175
   29.175    3.9670
   29.190    4.1250
   29.205    4.2303
   29.220    3.8266
   29.235    4.4234
   29.250    4.2303
   29.265    4.5287
   29.280    4.3883
   29.295    4.5989
   29.310    4.5989
   29.325    4.4585
   29.340    4.2830
   29.355    4.2830
   29.370    4.1952
   29.385    4.0899
   29.400    3.9846
   29.415    3.7564
   29.430    3.8266
   29.445    3.8441
   29.460    3.9494
   29.475    3.7037
   29.490    3.6335
   29.505    3.6510
   29.520    3.7915
   29.535    3.8441
   29.550    4.1952
   29.565    3.7739
   29.580    3.7213
   29.595    3.6686
   29.610    3.6335
   29.625    3.6335
   29.640    3.7388
   29.655    3.7739
   29.670    3.9670
   29.685    3.7739
   29.700    3.6510
   29.715    3.8792
   29.730    4.2478
   29.745    4.1776
   29.760    4.2127
   29.775    3.4931
   29.790    4.0723
   29.805    3.9670
   29.820    3.9670
   29.835    3.9846
   29.850    4.0021
   29.865    4.1776
   29.880    3.8441
   29.895    4.1425
   29.910    3.5457
   29.925    3.6159
   29.940    3.8441
   29.955    3.6510
   29.970    3.4580
   29.985    3.6510
   30.000    3.5984
   30.015    3.7739
   30.030    3.9319
   30.045    4.0372
   30.060    3.9494
   30.075    3.7739
   30.090    3.8617
   30.105    3.8617
   30.120    3.8441
   30.135    4.0372
   30.150    4.0372
   30.165    3.8090
   30.180    3.5457
   30.195    3.9670
   30.210    3.8090
   30.225    3.6686
   30.240    3.4580
   30.255    3.8441
   30.270    3.6686
   30.285    3.4755
   30.300    4.1074
   30.315    3.6686
   30.330    3.3175
   30.345    3.8968
   30.360    3.5984
   30.375    3.7388
   30.390    4.2478
   30.405    3.8968
   30.420    4.1952
   30.435    4.1074
   30.450    4.0372
   30.465    4.2127
   30.480    3.6862
   30.495    4.1250
   30.510    3.5984
   30.525    3.2824
   30.540    3.8090
   30.555    3.6510
   30.570    3.5984
   30.585    3.6686
   30.600    3.8792
   30.615    4.0723
   30.630    4.0021
   30.645    4.0723
   30.660    4.0723
   30.675    3.7564
   30.690    3.8441
   30.705    3.7739
   30.720    3.8792
   30.735    3.9846
   30.750    4.1425
   30.765    3.5984
   30.780    3.7915
   30.795    3.7388
   30.810    3.3526
   30.825    3.3526
   30.840    3.2298
   30.855    3.4755
   30.870    4.0548
   30.885    3.7564
   30.900    3.6159
   30.915    3.6159
   30.930    3.8266
   30.945    3.7915
   30.960    3.5984
   30.975    3.4580
   30.990    3.7037
   31.005    3.6862
   31.020    3.6510
   31.035    3.8090
   31.050    3.1947
   31.065    3.5984
   31.080    3.4931
   31.095    3.2298
   31.110    3.2473
   31.125    3.5457
   31.140    3.5282
   31.155    3.5457
   31.170    3.5282
   31.185    3.5457
   31.200    3.6510
   31.215    3.6159
   31.230    3.7739
   31.245    3.6686
   31.260    3.8090
   31.275    3.7388
   31.290    3.4229
   31.305    3.2824
   31.320    3.8617
   31.335    3.7213
   31.350    3.9319
   31.365    3.4755
   31.380    3.5282
   31.395    3.7564
   31.410    4.0548
   31.425    4.0197
   31.440    3.6510
   31.455    3.8792
   31.470    3.7213
   31.485    4.0021
   31.500    3.7388
   31.515    3.4229
   31.530    3.2473
   31.545    3.3702
   31.560    3.4580
   31.575    3.7739
   31.590    3.5984
   31.605    3.5457
   31.620    3.6510
   31.635    4.3005
   31.650    3.8266
   31.665    3.8090
   31.680    4.0548
   31.695    3.7564
   31.710    4.4585
   31.725    4.2127
   31.740    3.8617
   31.755    3.8441
   31.770    4.0372
   31.785    4.1250
   31.800    4.0021
   31.815    4.0899
   31.830    3.7388
   31.845    4.1250
   31.860    4.2478
   31.875    3.7739
   31.890    3.7739
   31.905    3.6510
   31.920    3.5808
   31.935    3.5106
   31.950    3.6510
   31.965    3.5984
   31.980    3.5282
   31.995    3.8968
   32.010    3.5808
   32.025    3.2649
   32.040    3.5282
   32.055    3.4404
   32.070    3.6686
   32.085    3.5457
   32.100    3.9670
   32.115    3.4755
   32.130    3.4580
   32.145    3.1596
   32.160    3.5282
   32.175    3.5808
   32.190    3.7213
   32.205    3.4404
   32.220    3.1420
   32.235    3.2298
   32.250    3.3526
   32.265    3.5282
   32.280    3.3175
   32.295    3.1947
   32.310    3.0016
   32.325    3.3702
   32.340    3.5984
   32.355    3.4755
   32.370    3.6159
   32.385    3.4755
   32.400    3.1069
   32.415    3.2824
   32.430    3.7388
   32.445    3.5457
   32.460    3.4931
   32.475    3.7388
   32.490    3.3000
   32.505    3.1947
   32.520    3.4755
   32.535    3.5457
   32.550    3.3175
   32.565    3.5984
   32.580    3.2298
   32.595    3.4053
   32.610    3.4931
   32.625    3.1947
   32.640    3.1245
   32.655    3.3702
   32.670    3.5106
   32.685    3.4580
   32.700    3.1420
   32.715    3.3351
   32.730    3.6510
   32.745    3.4580
   32.760    3.3702
   32.775    3.2824
   32.790    3.4229
   32.805    3.6686
   32.820    3.6510
   32.835    3.7915
   32.850    3.3526
   32.865    3.8441
   32.880    3.8266
   32.895    3.8266
   32.910    3.8792
   32.925    3.8266
   32.940    3.6159
   32.955    3.5282
   32.970    3.4229
   32.985    3.4931
   33.000    3.5282
   33.015    3.4404
   33.030    3.3000
   33.045    3.3702
   33.060    3.0893
   33.075    3.6686
   33.090    3.7037
   33.105    3.3702
   33.120    3.7739
   33.135    3.1420
   33.150    3.4755
   33.165    3.4404
   33.180    3.0191
   33.195    3.1420
   33.210    3.3526
   33.225    3.2649
   33.240    3.1596
   33.255    3.1596
   33.270    3.1069
   33.285    3.2824
   33.300    3.2122
   33.315    2.9840
   33.330    3.0542
   33.345    3.5808
   33.360    3.4755
   33.375    3.4404
   33.390    3.2824
   33.405    3.3000
   33.420    3.3175
   33.435    3.3351
   33.450    3.5282
   33.465    3.4053
   33.480    3.4931
   33.495    3.3877
   33.510    3.0191
   33.525    3.3000
   33.540    3.2298
   33.555    3.3877
   33.570    3.5106
   33.585    3.5457
   33.600    3.3526
   33.615    3.6686
   33.630    3.5106
   33.645    3.0542
   33.660    3.1245
   33.675    3.2298
   33.690    3.1069
   33.705    3.0893
   33.720    3.5808
   33.735    3.3351
   33.750    3.3877
   33.765    3.3877
   33.780    3.4404
   33.795    3.3877
   33.810    3.5457
   33.825    3.6686
   33.840    3.7037
   33.855    3.7037
   33.870    3.9670
   33.885    4.2127
   33.900    3.4580
   33.915    3.4404
   33.930    3.9143
   33.945    3.6862
   33.960    3.4053
   33.975    3.5633
   33.990    3.8792
   34.005    3.5282
   34.020    3.5282
   34.035    3.4404
   34.050    3.2824
   34.065    3.3351
   34.080    3.5633
   34.095    3.5106
   34.110    3.1596
   34.125    3.2649
   34.140    3.1947
   34.155    3.0367
   34.170    2.8787
   34.185    3.1771
   34.200    3.2298
   34.215    3.3175
   34.230    3.2824
   34.245    3.3000
   34.260    3.3702
   34.275    3.3702
   34.290    3.2122
   34.305    3.0191
   34.320    3.3526
   34.335    3.2298
   34.350    3.5457
   34.365    3.4404
   34.380    3.0367
   34.395    3.2122
   34.410    2.9665
   34.425    3.3175
   34.440    2.9314
   34.455    2.8787
   34.470    2.7383
   34.485    3.1596
   34.500    2.7734
   34.515    2.9314
   34.530    2.8612
   34.545    3.0893
   34.560    3.2824
   34.575    3.3175
   34.590    2.9489
   34.605    3.3702
   34.620    3.4580
   34.635    3.3351
   34.650    3.0367
   34.665    3.2122
   34.680    3.0367
   34.695    3.1069
   34.710    2.8260
   34.725    3.1420
   34.740    3.2824
   34.755    3.3351
   34.770    3.6510
   34.785    3.4053
   34.800    3.5808
   34.815    3.1771
   34.830    2.8963
   34.845    3.2473
   34.860    3.4404
   34.875    3.4755
   34.890    3.4404
   34.905    3.5633
   34.920    3.1771
   34.935    3.0718
   34.950    3.5106
   34.965    3.2122
   34.980    2.8612
   34.995    3.3000
   35.010    3.0718
   35.025    2.8963
   35.040    3.0191
   35.055    2.7909
   35.070    2.8436
   35.085    2.8436
   35.100    3.2649
   35.115    2.9840
   35.130    3.1771
   35.145    3.2824
   35.160    3.0893
   35.175    3.0367
   35.190    3.3351
   35.205    3.1771
   35.220    3.0542
   35.235    3.3351
   35.250    2.9314
   35.265    3.1596
   35.280    3.4053
   35.295    2.9138
   35.310    2.6856
   35.325    2.8963
   35.340    2.9840
   35.355    3.3175
   35.370    3.3175
   35.385    3.1245
   35.400    3.1420
   35.415    3.1245
   35.430    3.1245
   35.445    3.1596
   35.460    3.0367
   35.475    2.9840
   35.490    3.1069
   35.505    2.6681
   35.520    3.0191
   35.535    2.9489
   35.550    3.0016
   35.565    3.0016
   35.580    2.9489
   35.595    2.9840
   35.610    2.7383
   35.625    2.8612
   35.640    2.6505
   35.655    3.0718
   35.670    2.7558
   35.685    3.5457
   35.700    3.0016
   35.715    3.1245
   35.730    3.4580
   35.745    3.3175
   35.760    3.0718
   35.775    3.1069
   35.790    3.0718
   35.805    3.1771
   35.820    2.8963
   35.835    3.3000
   35.850    3.1947
   35.865    3.0191
   35.880    3.1245
   35.895    2.7383
   35.910    3.1771
   35.925    2.8612
   35.940    3.1771
   35.955    3.0191
   35.970    2.8260
   35.985    2.6154
   36.000    2.9840
   36.015    3.1069
   36.030    3.1069
   36.045    2.9665
   36.060    3.1947
   36.075    3.0542
   36.090    2.7032
   36.105    2.8085
   36.120    3.1245
   36.135    3.3351
   36.150    3.2122
   36.165    3.3526
   36.180    3.2824
   36.195    3.3000
   36.210    3.4229
   36.225    3.1947
   36.240    3.0542
   36.255    3.2473
   36.270    3.1771
   36.285    3.1245
   36.300    2.9489
   36.315    2.8612
   36.330    2.7032
   36.345    2.8612
   36.360    2.6505
   36.375    2.8612
   36.390    3.0893
   36.405    2.9840
   36.420    3.1245
   36.435    3.3526
   36.450    3.3000
   36.465    3.2298
   36.480    3.2298
   36.495    3.0016
   36.510    3.0367
   36.525    2.7909
   36.540    2.7909
   36.555    2.9138
   36.570    3.0718
   36.585    3.0016
   36.600    3.0191
   36.615    3.0893
   36.630    2.7734
   36.645    2.9314
   36.660    2.8260
   36.675    3.2649
   36.690    3.2649
   36.705    3.1420
   36.720    3.0367
   36.735    2.7909
   36.750    3.1947
   36.765    2.6681
   36.780    2.7383
   36.795    2.7909
   36.810    2.8787
   36.825    2.9138
   36.840    2.8436
   36.855    2.6681
   36.870    2.9314
   36.885    2.8436
   36.900    2.9138
   36.915    3.0542
   36.930    2.8085
   36.945    2.8963
   36.960    2.9314
   36.975    2.9138
   36.990    3.1771
   37.005    2.7558
   37.020    2.9840
   37.035    3.4229
   37.050    2.9665
   37.065    3.4053
   37.080    3.4404
   37.095    3.0191
   37.110    3.0542
   37.125    3.2824
   37.140    3.0016
   37.155    3.1420
   37.170    3.1069
   37.185    2.8963
   37.200    2.4574
   37.215    2.6505
   37.230    2.9489
   37.245    2.6505
   37.260    3.0016
   37.275    3.0191
   37.290    3.1069
   37.305    3.0016
   37.320    2.9840
   37.335    2.8085
   37.350    2.7207
   37.365    2.5452
   37.380    2.9840
   37.395    2.8260
   37.410    2.6856
   37.425    2.6681
   37.440    2.5452
   37.455    2.8963
   37.470    2.7383
   37.485    2.9840
   37.500    3.0718
   37.515    3.0191
   37.530    2.7558
   37.545    2.9840
   37.560    2.7909
   37.575    3.1596
   37.590    2.8085
   37.605    2.7734
   37.620    3.0893
   37.635    2.8787
   37.650    2.7734
   37.665    2.7207
   37.680    3.0191
   37.695    2.8260
   37.710    3.3526
   37.725    3.2298
   37.740    2.9665
   37.755    3.0016
   37.770    3.3175
   37.785    3.2824
   37.800    3.2122
   37.815    3.2122
   37.830    3.0191
   37.845    2.8612
   37.860    2.7207
   37.875    2.9314
   37.890    2.8787
   37.905    2.9314
   37.920    2.8963
   37.935    2.7558
   37.950    2.6330
   37.965    2.6856
   37.980    3.2298
   37.995    3.1947
   38.010    3.1245
   38.025    3.2473
   38.040    3.1069
   38.055    3.0718
   38.070    3.1245
   38.085    2.7383
   38.100    2.7734
   38.115    2.8085
   38.130    2.9840
   38.145    2.9489
   38.160    2.8787
   38.175    2.7734
   38.190    2.9138
   38.205    2.7558
   38.220    2.8787
   38.235    2.4925
   38.250    2.8085
   38.265    2.9489
   38.280    2.6856
   38.295    2.7207
   38.310    2.8787
   38.325    2.4574
   38.340    2.9665
   38.355    2.9665
   38.370    2.5803
   38.385    2.8787
   38.400    2.8085
   38.415    3.0893
   38.430    3.0367
   38.445    2.7558
   38.460    2.9665
   38.475    2.8787
   38.490    2.9314
   38.505    2.6505
   38.520    3.0542
   38.535    2.7207
   38.550    2.6505
   38.565    2.6681
   38.580    3.0367
   38.595    2.6154
   38.610    2.5452
   38.625    2.9314
   38.640    2.8787
   38.655    2.6681
   38.670    2.7734
   38.685    2.9489
   38.700    2.8963
   38.715    2.7909
   38.730    3.0367
   38.745    2.8436
   38.760    2.7207
   38.775    2.9665
   38.790    2.8963
   38.805    2.5979
   38.820    2.6681
   38.835    2.7207
   38.850    2.5276
   38.865    2.7383
   38.880    2.6856
   38.895    2.7207
   38.910    3.0016
   38.925    2.6856
   38.940    2.6330
   38.955    2.5276
   38.970    3.0191
   38.985    2.9138
   39.000    2.7207
   39.015    2.8963
   39.030    2.3170
   39.045    3.0016
   39.060    2.7909
   39.075    2.6505
   39.090    2.5803
   39.105    2.6856
   39.120    2.7207
   39.135    2.7383
   39.150    2.5101
   39.165    2.3697
   39.180    2.7558
   39.195    2.7909
   39.210    2.8963
   39.225    2.7383
   39.240    2.6681
   39.255    3.1771
   39.270    2.9138
   39.285    3.0542
   39.300    2.9840
   39.315    3.1420
   39.330    2.9489
   39.345    2.8085
   39.360    3.2122
   39.375    2.8085
   39.390    2.9489
   39.405    2.6681
   39.420    2.6681
   39.435    2.4750
   39.450    2.4048
   39.465    2.7032
   39.480    2.7032
   39.495    2.8787
   39.510    2.6330
   39.525    2.7734
   39.540    2.5101
   39.555    2.9138
   39.570    3.0191
   39.585    2.6681
   39.600    2.6330
   39.615    2.8787
   39.630    2.6856
   39.645    2.6330
   39.660    2.7909
   39.675    3.0718
   39.690    3.0016
   39.705    2.8260
   39.720    2.9489
   39.735    3.1596
   39.750    2.8436
   39.765    3.0367
   39.780    2.7734
   39.795    2.7383
   39.810    2.9314
   39.825    2.8963
   39.840    2.6681
   39.855    2.7734
   39.870    2.6505
   39.885    2.9665
   39.900    3.0016
   39.915    2.6856
   39.930    2.8612
   39.945    2.8260
   39.960    2.7207
   39.975    2.7558
   39.990    2.5979
