    1.500  136.9668
    1.515  138.3676
    1.530  135.5766
    1.545  132.9437
    1.560  128.9942
    1.575  124.9500
    1.590  124.9500
    1.605  120.4108
    1.620  117.6619
    1.635  116.4718
    1.650  111.7957
    1.665  109.6261
    1.680  106.7931
    1.695  104.2654
    1.710  101.8431
    1.725   99.5261
    1.740   96.6087
    1.755   93.6493
    1.770   91.8694
    1.785   87.6145
    1.800   85.8557
    1.815   84.5919
    1.830   82.2854
    1.845   80.3792
    1.860   78.4518
    1.875   76.4297
    1.890   73.1332
    1.905   70.8057
    1.920   70.8584
    1.935   68.7204
    1.950   65.6977
    1.965   64.3391
    1.980   63.3386
    1.995   62.2749
    2.010   59.4945
    2.025   57.0932
    2.040   55.3028
    2.055   54.2285
    2.070   53.5229
    2.085   51.7220
    2.100   50.8583
    2.115   49.3944
    2.130   48.0358
    2.145   46.3823
    2.160   45.7399
    2.175   43.8863
    2.190   42.9068
    2.205   41.3797
    2.220   40.1580
    2.235   39.2522
    2.250   38.6940
    2.265   38.1780
    2.280   38.0516
    2.295   36.7562
    2.310   35.3870
    2.325   34.8394
    2.340   34.2496
    2.355   32.7330
    2.370   32.0063
    2.385   31.5745
    2.400   31.0900
    2.415   31.5535
    2.430   29.9737
    2.445   29.3628
    2.460   29.5735
    2.475   28.7414
    2.490   28.1938
    2.505   26.8668
    2.520   27.5408
    2.535   26.3191
    2.550   25.4871
    2.565   25.2975
    2.580   25.4450
    2.595   24.0864
    2.610   24.2443
    2.625   23.8020
    2.640   23.7599
    2.655   22.4855
    2.670   23.3070
    2.685   22.6962
    2.700   22.3381
    2.715   22.1906
    2.730   21.7062
    2.745   21.1374
    2.760   20.7372
    2.775   20.5161
    2.790   20.6635
    2.805   19.3681
    2.820   19.1890
    2.835   18.6203
    2.850   19.5787
    2.865   18.8204
    2.880   18.3465
    2.895   18.3886
    2.910   18.7467
    2.925   18.0411
    2.940   17.7778
    2.955   17.5566
    2.970   17.5882
    2.985   17.9568
    3.000   17.3038
    3.015   17.4302
    3.030   16.7141
    3.045   17.3144
    3.060   16.5982
    3.075   15.9242
    3.090   16.2401
    3.105   15.7030
    3.120   15.4292
    3.135   15.3028
    3.150   15.1553
    3.165   15.4608
    3.180   15.3344
    3.195   15.3344
    3.210   15.0922
    3.225   15.3133
    3.240   14.9131
    3.255   14.7341
    3.270   14.7551
    3.285   14.8078
    3.300   14.8183
    3.315   14.5024
    3.330   14.3549
    3.345   14.2180
    3.360   14.4497
    3.375   13.7230
    3.390   13.9231
    3.405   13.9652
    3.420   13.4808
    3.435   13.2807
    3.450   13.3860
    3.465   13.6072
    3.480   13.8599
    3.495   14.0495
    3.510   13.4176
    3.525   13.0174
    3.540   13.6493
    3.555   13.6072
    3.570   13.0700
    3.585   13.3017
    3.600   13.1859
    3.615   12.9542
    3.630   13.3017
    3.645   13.4387
    3.660   12.8594
    3.675   12.6488
    3.690   12.3855
    3.705   12.0906
    3.720   12.4381
    3.735   12.6172
    3.750   12.8383
    3.765   12.0800
    3.780   11.7746
    3.795   11.7009
    3.810   11.9958
    3.825   12.3960
    3.840   12.4171
    3.855   12.1643
    3.870   11.8483
    3.885   11.6061
    3.900   11.4903
    3.915   11.9221
    3.930   11.5429
    3.945   11.8799
    3.960   11.5219
    3.975   11.9958
    3.990   11.8167
    4.005   11.1532
    4.020   11.8167
    4.035   11.4060
    4.050   11.6377
    4.065   12.1643
    4.080   11.8062
    4.095   11.8905
    4.110   11.6166
    4.125   11.8694
    4.140   11.9326
    4.155   11.9010
    4.170   12.0379
    4.185   11.7114
    4.200   11.3323
    4.215   11.6061
    4.230   11.5219
    4.245   11.1848
    4.260   11.5324
    4.275   11.5429
    4.290   11.2375
    4.305   11.1532
    4.320   11.5640
    4.335   12.0274
    4.350   11.9431
    4.365   11.4587
    4.380   11.5324
    4.395   11.1006
    4.410   11.0058
    4.425   10.8794
    4.440   11.0795
    4.455   11.4271
    4.470   11.0690
    4.485   11.3112
    4.500   10.9847
    4.515   10.9426
    4.530   10.4581
    4.545   10.9531
    4.560   10.8794
    4.575   10.7214
    4.590   10.8162
    4.605   10.8162
    4.620   10.5529
    4.635   11.0479
    4.650   10.6266
    4.665   10.8373
    4.680   10.7530
    4.695   10.4055
    4.710   10.2686
    4.725   10.6161
    4.740   10.2791
    4.755   10.3528
    4.770   10.6161
    4.785   10.5108
    4.800   10.2264
    4.815   10.2686
    4.830   10.1948
    4.845   10.1422
    4.860   10.3107
    4.875    9.6472
    4.890   10.0053
    4.905   10.1106
    4.920    9.9421
    4.935   10.0474
    4.950    9.5840
    4.965    9.5735
    4.980    9.8999
    4.995   10.0474
    5.010    9.5419
    5.025   10.1211
    5.040    9.8157
    5.055    9.7525
    5.070    9.9421
    5.085    9.8157
    5.100    9.8473
    5.115    9.6156
    5.130   10.0158
    5.145    9.8999
    5.160    9.6998
    5.175    9.5945
    5.190   10.1422
    5.205    9.7209
    5.220    9.2048
    5.235    9.7209
    5.250    9.6893
    5.265    9.1943
    5.280    9.0574
    5.295    8.8994
    5.310    9.2470
    5.325    9.7104
    5.340    9.8052
    5.355    9.5208
    5.370    9.4155
    5.385    9.5103
    5.400    9.5945
    5.415    9.3418
    5.430    9.1943
    5.445    8.9626
    5.460    9.2680
    5.475    9.2996
    5.490    9.1417
    5.505    9.2786
    5.520    8.9942
    5.535    9.0258
    5.550    9.2259
    5.565    9.3207
    5.580    9.8368
    5.595    9.2575
    5.610    8.9415
    5.625    8.6993
    5.640    9.6261
    5.655    9.4892
    5.670    9.3312
    5.685    9.3628
    5.700    9.0785
    5.715    9.0469
    5.730    9.5103
    5.745    9.6367
    5.760    9.3944
    5.775    9.2364
    5.790    9.0574
    5.805    9.3628
    5.820    9.0153
    5.835    9.5313
    5.850    9.5840
    5.865    9.0890
    5.880    8.8468
    5.895    9.4471
    5.910    9.2470
    5.925    8.7414
    5.940    9.1732
    5.955    9.4155
    5.970    8.8678
    5.985    8.9626
    6.000    9.3839
    6.015    9.1943
    6.030    8.9205
    6.045    9.5208
    6.060    9.3312
    6.075    9.5208
    6.090    9.0363
    6.105    9.1522
    6.120    9.0679
    6.135    9.5103
    6.150    8.8784
    6.165    9.5313
    6.180    9.4471
    6.195    9.1732
    6.210    9.1101
    6.225    9.3523
    6.240    8.5519
    6.255    9.0153
    6.270    8.7098
    6.285    8.9205
    6.300    9.1101
    6.315    8.8889
    6.330    8.9205
    6.345    9.2048
    6.360    9.2575
    6.375    9.1732
    6.390    9.2470
    6.405    9.0363
    6.420    8.9626
    6.435    9.1206
    6.450    8.7941
    6.465    8.8046
    6.480    8.9837
    6.495    9.2048
    6.510    8.9942
    6.525    9.0574
    6.540    9.0047
    6.555    9.0469
    6.570    8.9626
    6.585    9.2891
    6.600    9.3628
    6.615    9.2786
    6.630    9.5629
    6.645    9.5735
    6.660    9.1206
    6.675    9.0679
    6.690    9.4892
    6.705    8.9310
    6.720    9.2575
    6.735    9.0574
    6.750    8.6993
    6.765    8.9100
    6.780    9.1101
    6.795    8.9837
    6.810    9.0047
    6.825    8.6677
    6.840    9.2680
    6.855    9.1627
    6.870    9.5735
    6.885    9.2259
    6.900    9.0047
    6.915    8.9100
    6.930    8.7730
    6.945    8.9521
    6.960    8.7414
    6.975    9.4681
    6.990    8.6888
    7.005    9.2891
    7.020    8.9837
    7.035    9.1101
    7.050    9.1311
    7.065    9.2048
    7.080    9.2048
    7.095    9.2680
    7.110    9.3839
    7.125    9.7630
    7.140    9.0679
    7.155    8.9837
    7.170    9.2048
    7.185    9.5103
    7.200    9.2364
    7.215    9.3207
    7.230    9.2470
    7.245    8.7836
    7.260    9.1206
    7.275    9.8684
    7.290    9.1417
    7.305    9.2786
    7.320    9.2154
    7.335    9.3418
    7.350    8.9415
    7.365    9.2891
    7.380    9.5208
    7.395    9.5103
    7.410    9.2786
    7.425    9.2575
    7.440    8.9731
    7.455    9.1838
    7.470    9.0258
    7.485    8.9205
    7.500    9.4260
    7.515    9.2786
    7.530    9.7946
    7.545    9.1838
    7.560    9.3839
    7.575    9.2154
    7.590    9.0574
    7.605    9.1311
    7.620    9.8052
    7.635    9.5313
    7.650    9.5840
    7.665    9.1732
    7.680    9.6156
    7.695    9.5524
    7.710    9.4576
    7.725    9.4892
    7.740    9.0785
    7.755    9.4681
    7.770    9.6577
    7.785    8.9205
    7.800    9.3628
    7.815    9.3207
    7.830    9.3628
    7.845    9.6788
    7.860    9.1943
    7.875    9.4050
    7.890    9.6261
    7.905    9.2996
    7.920    9.4892
    7.935   10.0158
    7.950    9.5735
    7.965    9.7841
    7.980    9.6261
    7.995    9.3102
    8.010    9.9842
    8.025    9.4997
    8.040    9.7946
    8.055    9.7630
    8.070    9.9105
    8.085    9.7314
    8.100    9.4997
    8.115    9.4576
    8.130    9.4050
    8.145    9.6682
    8.160    9.8052
    8.175    9.3523
    8.190    9.8157
    8.205    9.3839
    8.220    9.6367
    8.235    9.4365
    8.250    9.5103
    8.265    9.7630
    8.280    9.4576
    8.295    9.5840
    8.310    9.6261
    8.325    9.5103
    8.340    9.5419
    8.355    9.7841
    8.370    9.3207
    8.385    9.6893
    8.400   10.0685
    8.415    9.1627
    8.430    9.7104
    8.445    9.8473
    8.460    9.6261
    8.475    9.5840
    8.490    9.7841
    8.505   10.1001
    8.520    9.7420
    8.535    9.4050
    8.550   10.6161
    8.565   10.1843
    8.580    9.6682
    8.595    9.7841
    8.610    9.3207
    8.625    9.6156
    8.640    9.6051
    8.655    9.6156
    8.670    9.7420
    8.685    9.7314
    8.700   10.0685
    8.715    9.7104
    8.730    9.5524
    8.745    9.4892
    8.760    9.7420
    8.775    9.6472
    8.790   10.0579
    8.805   10.0369
    8.820    9.6472
    8.835    9.8157
    8.850   10.0685
    8.865    9.7420
    8.880   10.0053
    8.895   10.2159
    8.910   10.2264
    8.925   10.0263
    8.940   10.1738
    8.955    9.7104
    8.970   10.0895
    8.985   10.5108
    9.000   10.3633
    9.015   10.0685
    9.030    9.8789
    9.045    9.5419
    9.060   10.0369
    9.075    9.9526
    9.090    9.8262
    9.105    9.8473
    9.120    9.7209
    9.135    9.6051
    9.150    9.4155
    9.165   10.0895
    9.180   10.4792
    9.195   10.0369
    9.210    9.9631
    9.225   10.2159
    9.240   10.0474
    9.255    9.8894
    9.270   10.0579
    9.285   10.1632
    9.300    9.8578
    9.315   10.3528
    9.330   10.0790
    9.345   10.0579
    9.360    9.9842
    9.375   10.1843
    9.390   10.5529
    9.405    9.8789
    9.420   10.0685
    9.435   10.0263
    9.450   10.1843
    9.465    9.6472
    9.480    9.9947
    9.495    9.8052
    9.510    9.6893
    9.525    9.9631
    9.540    9.6998
    9.555   10.2264
    9.570   10.3212
    9.585   10.1422
    9.600   10.6266
    9.615    9.9526
    9.630   10.2054
    9.645   10.0790
    9.660    9.5735
    9.675    9.7525
    9.690   10.2159
    9.705   10.4581
    9.720    9.8368
    9.735    9.7630
    9.750    9.8262
    9.765    9.8789
    9.780    9.7841
    9.795    9.6156
    9.810    9.7104
    9.825   10.4371
    9.840   10.0474
    9.855    9.9421
    9.870    9.7630
    9.885    9.8473
    9.900   10.2159
    9.915   10.3212
    9.930    9.9947
    9.945   10.1211
    9.960    9.6577
    9.975    9.5735
    9.990    9.9842
   10.005   10.2580
   10.020   10.0053
   10.035    9.9105
   10.050   10.1001
   10.065    9.9421
   10.080    9.6472
   10.095    9.8999
   10.110    9.7630
   10.125   10.2896
   10.140   10.0369
   10.155   10.0369
   10.170   10.1316
   10.185   10.0579
   10.200    9.6682
   10.215    9.8894
   10.230    9.8684
   10.245    9.9210
   10.260   10.2580
   10.275   10.0685
   10.290    9.8157
   10.305    9.9737
   10.320    9.8894
   10.335    9.4576
   10.350   10.1527
   10.365    9.9315
   10.380    9.8262
   10.395    9.6156
   10.410    9.8999
   10.425    9.5945
   10.440    9.7314
   10.455    9.8157
   10.470    9.9421
   10.485    9.6051
   10.500    9.2680
   10.515    9.8999
   10.530    9.9421
   10.545    9.7209
   10.560    9.6893
   10.575    9.5524
   10.590    9.7420
   10.605    9.8473
   10.620   10.1316
   10.635    9.6998
   10.650    9.9105
   10.665    9.4365
   10.680    9.4892
   10.695    9.5419
   10.710    9.8473
   10.725    9.4155
   10.740    9.8052
   10.755    9.6577
   10.770    9.4997
   10.785    9.6788
   10.800    9.6367
   10.815    9.8157
   10.830    9.3523
   10.845    9.3102
   10.860    9.2786
   10.875    9.8999
   10.890    9.9631
   10.905    9.9315
   10.920    9.4260
   10.935    9.3839
   10.950    9.8052
   10.965    9.8262
   10.980    9.4365
   10.995    9.3312
   11.010    9.4471
   11.025    9.7104
   11.040    9.7736
   11.055    9.5945
   11.070    9.3312
   11.085    9.3312
   11.100    9.4892
   11.115    9.8684
   11.130    9.2364
   11.145    9.3418
   11.160    9.0890
   11.175    9.4997
   11.190    9.4471
   11.205    9.5735
   11.220    9.2154
   11.235    9.2259
   11.250    9.3628
   11.265    9.0574
   11.280    9.0469
   11.295    9.2364
   11.310    9.2259
   11.325    9.3312
   11.340    9.4365
   11.355    9.0785
   11.370    9.0890
   11.385    9.1627
   11.400    9.1206
   11.415    8.2886
   11.430    8.8046
   11.445    9.0785
   11.460    8.8784
   11.475    8.7836
   11.490    9.4576
   11.505    9.6788
   11.520    8.8257
   11.535    8.8046
   11.550    9.2575
   11.565    9.1943
   11.580    9.0258
   11.595    8.8889
   11.610    8.9626
   11.625    8.9626
   11.640    8.6783
   11.655    9.1943
   11.670    9.2364
   11.685    9.1627
   11.700    8.7941
   11.715    9.2259
   11.730    8.9100
   11.745    9.1311
   11.760    8.9626
   11.775    8.9837
   11.790    9.3102
   11.805    9.1101
   11.820    9.7314
   11.835    9.2996
   11.850    8.6993
   11.865    9.0995
   11.880    9.2259
   11.895    8.9521
   11.910    9.3734
   11.925    8.7309
   11.940    9.2154
   11.955    8.9310
   11.970    9.0785
   11.985    8.8678
   12.000    8.6572
   12.015    8.8468
   12.030    8.6572
   12.045    8.9731
   12.060    9.1311
   12.075    9.1311
   12.090    8.8362
   12.105    9.1732
   12.120    9.0363
   12.135    9.1417
   12.150    9.3944
   12.165    9.1522
   12.180    9.0679
   12.195    8.9310
   12.210    8.8889
   12.225    8.7730
   12.240    8.4466
   12.255    8.8152
   12.270    9.4260
   12.285    8.8678
   12.300    9.1522
   12.315    9.0153
   12.330    8.4992
   12.345    8.6783
   12.360    8.6151
   12.375    8.3412
   12.390    8.9731
   12.405    8.7730
   12.420    9.1101
   12.435    9.0363
   12.450    8.8152
   12.465    8.8889
   12.480    8.8362
   12.495    8.9310
   12.510    8.7941
   12.525    8.4255
   12.540    8.8362
   12.555    8.4781
   12.570    8.3623
   12.585    8.7730
   12.600    8.8573
   12.615    8.5413
   12.630    8.6677
   12.645    8.2886
   12.660    8.6783
   12.675    8.6677
   12.690    8.5203
   12.705    8.0463
   12.720    8.4887
   12.735    8.4781
   12.750    8.6256
   12.765    8.8046
   12.780    8.8468
   12.795    8.3096
   12.810    8.2991
   12.825    8.1938
   12.840    8.5519
   12.855    8.6256
   12.870    8.3518
   12.885    8.8362
   12.900    8.5835
   12.915    8.9310
   12.930    8.8362
   12.945    8.5413
   12.960    8.2043
   12.975    8.0779
   12.990    8.6783
   13.005    8.1833
   13.020    8.5519
   13.035    8.2780
   13.050    8.5097
   13.065    8.7098
   13.080    8.3412
   13.095    8.5097
   13.110    8.9205
   13.125    8.9100
   13.140    8.8468
   13.155    8.3307
   13.170    8.7204
   13.185    8.5940
   13.200    8.5940
   13.215    8.7204
   13.230    8.5203
   13.245    7.8778
   13.260    8.2991
   13.275    8.2149
   13.290    8.7941
   13.305    8.6888
   13.320    8.8784
   13.335    8.3623
   13.350    8.5413
   13.365    8.7098
   13.380    8.5835
   13.395    8.8784
   13.410    8.3518
   13.425    8.4571
   13.440    8.4360
   13.455    8.0779
   13.470    8.3834
   13.485    8.2570
   13.500    8.6888
   13.515    7.9937
   13.530    7.8146
   13.545    8.2886
   13.560    8.1622
   13.575    9.1943
   13.590    8.6572
   13.605    8.1411
   13.620    8.5940
   13.635    8.4781
   13.650    8.1411
   13.665    8.5624
   13.680    8.6888
   13.695    8.3202
   13.710    8.3728
   13.725    8.4781
   13.740    8.4571
   13.755    8.1411
   13.770    8.6783
   13.785    8.4992
   13.800    8.9415
   13.815    8.2675
   13.830    8.6677
   13.845    8.6677
   13.860    8.3623
   13.875    8.5097
   13.890    8.6151
   13.905    8.5519
   13.920    8.6572
   13.935    8.5624
   13.950    8.4150
   13.965    8.6888
   13.980    8.2359
   13.995    8.9626
   14.010    8.3202
   14.025    8.3623
   14.040    8.3202
   14.055    8.6677
   14.070    8.4992
   14.085    8.1517
   14.100    8.0569
   14.115    8.4044
   14.130    8.5940
   14.145    8.5940
   14.160    8.4992
   14.175    8.8152
   14.190    8.7836
   14.205    8.8468
   14.220    9.0363
   14.235    8.5729
   14.250    8.7730
   14.265    8.5413
   14.280    8.5413
   14.295    8.1938
   14.310    8.2570
   14.325    8.1306
   14.340    8.1622
   14.355    8.2464
   14.370    8.0253
   14.385    8.2991
   14.400    8.4466
   14.415    8.2886
   14.430    8.3518
   14.445    8.4992
   14.460    8.4255
   14.475    8.5940
   14.490    8.4571
   14.505    8.6783
   14.520    8.8046
   14.535    8.4360
   14.550    8.7836
   14.565    8.1517
   14.580    8.2570
   14.595    8.6045
   14.610    8.4781
   14.625    8.5729
   14.640    8.7836
   14.655    8.4887
   14.670    8.6783
   14.685    8.3623
   14.700    8.1095
   14.715    8.6256
   14.730    8.1938
   14.745    8.8678
   14.760    8.6045
   14.775    8.4992
   14.790    8.3412
   14.805    8.6361
   14.820    8.7836
   14.835    8.9100
   14.850    8.3834
   14.865    8.3096
   14.880    8.3939
   14.895    8.1833
   14.910    8.3307
   14.925    8.6993
   14.940    8.5203
   14.955    8.3939
   14.970    8.5097
   14.985    8.6045
   15.000    8.4676
   15.015    8.0569
   15.030    8.7204
   15.045    7.9937
   15.060    8.0042
   15.075    8.4044
   15.090    8.6256
   15.105    8.6783
   15.120    8.7520
   15.135    8.8257
   15.150    8.9310
   15.165    8.2149
   15.180    8.4781
   15.195    8.6783
   15.210    8.6045
   15.225    8.6151
   15.240    8.5203
   15.255    9.1311
   15.270    8.4781
   15.285    8.3728
   15.300    8.3518
   15.315    8.4360
   15.330    8.7309
   15.345    8.7414
   15.360    8.7204
   15.375    8.9310
   15.390    8.4466
   15.405    8.3939
   15.420    8.3096
   15.435    8.0569
   15.450    8.0885
   15.465    8.4255
   15.480    8.0885
   15.495    8.6677
   15.510    8.5624
   15.525    8.2149
   15.540    8.6677
   15.555    8.5097
   15.570    8.5203
   15.585    8.1095
   15.600    8.3834
   15.615    8.8468
   15.630    8.9415
   15.645    8.7309
   15.660    9.1417
   15.675    7.9726
   15.690    8.2886
   15.705    8.3307
   15.720    8.4571
   15.735    8.5624
   15.750    8.5940
   15.765    8.5729
   15.780    8.4255
   15.795    8.1938
   15.810    8.2780
   15.825    8.5940
   15.840    8.6677
   15.855    8.4255
   15.870    8.2149
   15.885    8.2991
   15.900    8.6993
   15.915    8.3096
   15.930    8.4360
   15.945    8.7414
   15.960    8.5097
   15.975    8.3834
   15.990    8.2780
   16.005    8.5624
   16.020    8.5203
   16.035    7.8673
   16.050    8.3202
   16.065    7.9305
   16.080    8.7414
   16.095    8.2043
   16.110    8.3728
   16.125    8.2254
   16.140    8.5835
   16.155    8.7204
   16.170    8.3728
   16.185    8.3518
   16.200    8.7204
   16.215    8.6361
   16.230    8.6151
   16.245    8.2991
   16.260    8.2886
   16.275    8.2570
   16.290    8.3307
   16.305    8.2886
   16.320    8.5308
   16.335    8.4150
   16.350    8.0569
   16.365    8.2991
   16.380    8.7730
   16.395    8.6151
   16.410    8.6888
   16.425    8.5097
   16.440    8.5624
   16.455    8.0358
   16.470    8.5940
   16.485    8.6256
   16.500    8.2991
   16.515    8.3518
   16.530    8.1727
   16.545    8.8889
   16.560    8.6572
   16.575    8.4466
   16.590    8.6256
   16.605    8.8362
   16.620    8.6572
   16.635    8.3939
   16.650    8.6256
   16.665    8.3202
   16.680    8.7204
   16.695    8.4571
   16.710    8.6151
   16.725    8.4676
   16.740    8.2675
   16.755    8.6151
   16.770    8.7836
   16.785    8.4150
   16.800    8.2886
   16.815    8.2675
   16.830    8.3096
   16.845    7.8041
   16.860    8.3834
   16.875    8.6361
   16.890    8.1727
   16.905    8.3412
   16.920    8.4887
   16.935    8.2780
   16.950    8.4044
   16.965    8.6993
   16.980    8.7414
   16.995    8.6993
   17.010    8.5519
   17.025    8.3096
   17.040    8.6572
   17.055    8.9626
   17.070    8.5413
   17.085    8.7309
   17.100    8.4781
   17.115    9.0785
   17.130    8.5203
   17.145    8.2886
   17.160    8.6151
   17.175    8.8257
   17.190    8.2886
   17.205    8.3834
   17.220    8.5624
   17.235    8.6783
   17.250    8.2570
   17.265    8.5519
   17.280    8.4992
   17.295    8.7520
   17.310    8.2886
   17.325    8.4360
   17.340    8.7941
   17.355    8.5729
   17.370    8.8573
   17.385    8.7520
   17.400    8.8784
   17.415    8.4887
   17.430    8.1517
   17.445    8.3202
   17.460    8.1411
   17.475    8.1517
   17.490    8.2254
   17.505    8.6467
   17.520    8.6467
   17.535    8.8468
   17.550    8.5097
   17.565    8.4360
   17.580    8.5519
   17.595    8.7309
   17.610    8.5940
   17.625    8.1622
   17.640    8.5940
   17.655    8.4255
   17.670    8.2886
   17.685    8.5203
   17.700    8.4571
   17.715    8.7520
   17.730    8.8257
   17.745    8.6151
   17.760    8.2149
   17.775    8.3939
   17.790    8.7098
   17.805    8.3834
   17.820    8.6361
   17.835    8.6783
   17.850    9.0679
   17.865    8.9415
   17.880    8.7941
   17.895    8.6256
   17.910    8.8468
   17.925    8.7309
   17.940    8.6045
   17.955    8.1517
   17.970    8.8784
   17.985    8.7414
   18.000    8.3096
   18.015    8.1727
   18.030    8.3518
   18.045    8.2043
   18.060    8.3834
   18.075    8.4360
   18.090    8.7941
   18.105    8.8678
   18.120    8.4781
   18.135    8.9415
   18.150    9.0363
   18.165    9.1732
   18.180    8.4150
   18.195    8.3623
   18.210    8.7309
   18.225    8.7730
   18.240    8.5940
   18.255    8.6572
   18.270    8.5308
   18.285    8.8362
   18.300    8.7204
   18.315    8.7414
   18.330    8.6256
   18.345    8.5097
   18.360    8.2991
   18.375    8.4781
   18.390    8.3096
   18.405    8.4992
   18.420    8.9205
   18.435    8.3096
   18.450    8.9205
   18.465    9.0785
   18.480    8.3202
   18.495    8.2570
   18.510    8.4360
   18.525    8.6045
   18.540    8.4571
   18.555    8.4150
   18.570    8.2043
   18.585    8.4466
   18.600    9.1417
   18.615    8.8889
   18.630    8.8152
   18.645    8.7414
   18.660    8.5203
   18.675    7.9516
   18.690    8.0990
   18.705    8.5203
   18.720    8.7520
   18.735    8.7520
   18.750    8.9837
   18.765    8.3939
   18.780    8.4992
   18.795    8.4887
   18.810    8.9942
   18.825    8.4255
   18.840    8.6993
   18.855    8.8994
   18.870    8.6677
   18.885    8.6361
   18.900    8.6993
   18.915    8.9731
   18.930    8.7625
   18.945    8.7204
   18.960    8.6572
   18.975    8.5519
   18.990    8.4992
   19.005    8.1938
   19.020    8.2991
   19.035    8.6256
   19.050    9.2154
   19.065    9.4365
   19.080    9.1943
   19.095    9.0574
   19.110    9.1522
   19.125    8.5624
   19.140    8.0990
   19.155    8.6572
   19.170    9.4892
   19.185    9.2048
   19.200    8.7730
   19.215    8.7625
   19.230    8.5729
   19.245    8.5729
   19.260    8.4150
   19.275    8.5729
   19.290    8.6151
   19.305    8.3412
   19.320    8.5940
   19.335    8.9837
   19.350    8.8362
   19.365    9.1522
   19.380    8.9205
   19.395    8.6467
   19.410    9.1838
   19.425    9.2680
   19.440    8.7204
   19.455    8.7941
   19.470    8.3939
   19.485    8.9731
   19.500    9.1522
   19.515    9.2259
   19.530    8.8152
   19.545    8.7309
   19.560    8.6045
   19.575    8.7309
   19.590    9.0890
   19.605    9.0258
   19.620    9.1838
   19.635    9.5208
   19.650    8.7414
   19.665    8.8257
   19.680    8.8152
   19.695    9.1522
   19.710    8.5413
   19.725    9.1311
   19.740    9.0574
   19.755    8.6993
   19.770    9.2048
   19.785    8.7414
   19.800    8.4571
   19.815    9.1417
   19.830    8.6151
   19.845    8.8678
   19.860    8.8257
   19.875    8.7204
   19.890    8.6361
   19.905    8.8152
   19.920    8.8257
   19.935    8.8152
   19.950    8.8152
   19.965    9.0469
   19.980    8.7204
   19.995    8.8362
   20.010    8.8152
   20.025    9.0574
   20.040    8.5097
   20.055    8.4571
   20.070    9.1101
   20.085    8.9942
   20.100    8.6467
   20.115    8.7309
   20.130    8.8573
   20.145    8.9731
   20.160    9.2575
   20.175    9.1417
   20.190    8.8257
   20.205    8.7941
   20.220    9.1522
   20.235    9.1522
   20.250    9.1311
   20.265    9.3628
   20.280    8.7836
   20.295    9.0574
   20.310    8.9310
   20.325    9.2891
   20.340    8.7836
   20.355    8.8257
   20.370    8.8046
   20.385    8.5203
   20.400    8.5519
   20.415    8.9521
   20.430    9.2575
   20.445    9.0363
   20.460    9.1732
   20.475    9.0574
   20.490    8.6888
   20.505    8.2043
   20.520    8.8889
   20.535    8.9100
   20.550    9.1101
   20.565    9.0153
   20.580    9.0995
   20.595    8.8046
   20.610    8.9310
   20.625    8.8994
   20.640    8.6467
   20.655    8.8784
   20.670    8.8468
   20.685    8.8889
   20.700    9.3523
   20.715    9.0995
   20.730    9.2048
   20.745    9.0258
   20.760    9.0890
   20.775    8.9626
   20.790    9.3418
   20.805    9.3312
   20.820    8.9626
   20.835    9.1206
   20.850    8.9731
   20.865    8.7625
   20.880    9.0363
   20.895    8.7204
   20.910    8.5519
   20.925    9.0679
   20.940    8.6467
   20.955    8.6467
   20.970    9.0363
   20.985    9.1206
   21.000    8.9415
   21.015    8.6467
   21.030    8.9415
   21.045    8.8573
   21.060    8.9731
   21.075    9.2470
   21.090    9.2470
   21.105    8.8678
   21.120    8.5624
   21.135    9.2786
   21.150    9.0363
   21.165    9.0153
   21.180    8.9100
   21.195    9.2786
   21.210    9.3207
   21.225    9.3523
   21.240    9.2470
   21.255    9.0153
   21.270    9.0679
   21.285    9.1627
   21.300    9.0785
   21.315    9.1838
   21.330    9.2891
   21.345    9.2786
   21.360    8.8573
   21.375    8.8046
   21.390    8.7625
   21.405    8.8257
   21.420    8.9415
   21.435    9.0995
   21.450    9.3734
   21.465    9.0469
   21.480    9.1838
   21.495    8.8152
   21.510    9.1838
   21.525    9.3207
   21.540    8.9205
   21.555    9.2154
   21.570    9.2786
   21.585    9.1627
   21.600    8.9100
   21.615    8.5835
   21.630    8.9521
   21.645    8.9942
   21.660    8.8889
   21.675    9.3418
   21.690    9.2680
   21.705    8.9942
   21.720    9.0363
   21.735    8.8784
   21.750    9.1311
   21.765    9.1732
   21.780    9.1732
   21.795    9.0785
   21.810    9.2786
   21.825    9.2259
   21.840    8.8678
   21.855    9.2364
   21.870    8.8152
   21.885    8.9415
   21.900    9.4681
   21.915    8.9415
   21.930    9.2364
   21.945    9.1522
   21.960    8.8046
   21.975    9.4471
   21.990    8.8678
   22.005    9.1522
   22.020    9.5419
   22.035    9.2575
   22.050    9.1101
   22.065    9.2786
   22.080    9.1206
   22.095    8.8889
   22.110    9.1627
   22.125    8.9837
   22.140    8.6993
   22.155    9.2891
   22.170    8.8046
   22.185    9.1943
   22.200    9.1838
   22.215    9.3839
   22.230    9.0995
   22.245    9.2259
   22.260    8.3939
   22.275    8.5203
   22.290    9.1627
   22.305    9.2259
   22.320    9.0679
   22.335    9.0258
   22.350    8.9731
   22.365    9.1311
   22.380    9.2680
   22.395    8.8889
   22.410    8.8994
   22.425    8.4992
   22.440    9.1417
   22.455    9.5208
   22.470    8.8257
   22.485    8.9415
   22.500    8.8046
   22.515    8.8046
   22.530    8.8994
   22.545    9.4681
   22.560    8.7730
   22.575    9.1417
   22.590    9.0995
   22.605    9.1627
   22.620    9.2154
   22.635    9.0469
   22.650    9.2259
   22.665    8.9731
   22.680    8.9837
   22.695    9.1838
   22.710    9.1206
   22.725    8.6572
   22.740    8.7730
   22.755    8.9521
   22.770    9.3523
   22.785    8.8152
   22.800    8.9942
   22.815    9.1838
   22.830    9.3102
   22.845    9.1522
   22.860    8.8678
   22.875    9.5208
   22.890    9.0785
   22.905    9.0153
   22.920    8.8468
   22.935    8.7625
   22.950    8.7204
   22.965    8.9942
   22.980    8.7309
   22.995    8.9521
   23.010    8.8362
   23.025    8.9100
   23.040    9.3628
   23.055    9.1417
   23.070    9.0890
   23.085    9.3944
   23.100    8.9521
   23.115    8.6467
   23.130    8.6993
   23.145    8.6467
   23.160    8.6151
   23.175    9.3944
   23.190    9.3523
   23.205    9.4787
   23.220    9.3207
   23.235    9.1101
   23.250    8.6888
   23.265    8.7836
   23.280    8.8784
   23.295    9.0574
   23.310    9.0679
   23.325    9.3418
   23.340    9.2786
   23.355    8.7625
   23.370    8.7836
   23.385    8.8994
   23.400    8.8678
   23.415    8.8468
   23.430    9.2680
   23.445    9.1522
   23.460    8.8046
   23.475    9.2259
   23.490    8.8257
   23.505    9.1943
   23.520    9.5524
   23.535    9.3207
   23.550    8.8257
   23.565    8.6045
   23.580    8.9205
   23.595    9.2891
   23.610    8.7836
   23.625    9.0047
   23.640    8.6045
   23.655    9.0574
   23.670    9.1311
   23.685    8.7204
   23.700    8.7309
   23.715    8.7204
   23.730    8.4887
   23.745    8.4676
   23.760    8.5413
   23.775    8.4044
   23.790    8.8573
   23.805    8.6572
   23.820    8.5203
   23.835    8.9521
   23.850    8.7730
   23.865    8.9310
   23.880    9.0469
   23.895    8.7625
   23.910    8.6045
   23.925    8.6888
   23.940    9.0469
   23.955    8.9415
   23.970    8.7414
   23.985    8.6993
   24.000    8.4887
   24.015    8.9837
   24.030    8.9205
   24.045    8.7625
   24.060    9.3312
   24.075    8.7520
   24.090    8.8784
   24.105    8.9942
   24.120    8.8362
   24.135    8.8784
   24.150    8.7625
   24.165    8.6993
   24.180    8.9521
   24.195    9.0469
   24.210    9.0890
   24.225    8.9942
   24.240    8.3518
   24.255    8.6045
   24.270    8.2675
   24.285    8.6256
   24.300    8.8468
   24.315    8.4992
   24.330    8.9521
   24.345    8.9415
   24.360    8.7098
   24.375    9.2154
   24.390    9.3312
   24.405    8.6677
   24.420    8.4781
   24.435    8.4571
   24.450    8.6783
   24.465    8.1201
   24.480    8.3623
   24.495    8.3728
   24.510    8.0147
   24.525    8.7309
   24.540    8.8046
   24.555    8.7309
   24.570    8.7836
   24.585    8.6572
   24.600    8.8046
   24.615    9.0785
   24.630    8.6045
   24.645    8.7414
   24.660    8.5413
   24.675    8.3623
   24.690    8.4676
   24.705    8.9837
   24.720    8.3518
   24.735    8.8362
   24.750    8.7414
   24.765    8.5308
   24.780    8.8468
   24.795    8.2886
   24.810    8.7941
   24.825    8.4466
   24.840    8.1727
   24.855    8.2675
   24.870    8.6361
   24.885    8.5729
   24.900    8.9205
   24.915    8.5940
   24.930    8.3623
   24.945    8.1833
   24.960    8.5519
   24.975    8.8573
   24.990    8.4466
   25.005    8.6467
   25.020    8.6783
   25.035    8.6677
   25.050    8.5624
   25.065    9.0469
   25.080    8.2359
   25.095    8.4044
   25.110    8.0147
   25.125    8.7414
   25.140    8.6783
   25.155    8.2675
   25.170    8.2675
   25.185    8.7204
   25.200    8.4992
   25.215    8.4887
   25.230    8.3307
   25.245    8.4781
   25.260    8.3834
   25.275    8.7309
   25.290    8.5097
   25.305    8.6677
   25.320    8.6783
   25.335    8.0463
   25.350    8.4571
   25.365    8.6045
   25.380    8.3307
   25.395    8.4571
   25.410    8.2359
   25.425    8.4676
   25.440    8.6361
   25.455    8.5835
   25.470    8.4571
   25.485    8.0147
   25.500    8.4992
   25.515    8.6467
   25.530    8.1411
   25.545    8.4676
   25.560    8.8889
   25.575    9.0363
   25.590    8.4571
   25.605    8.2780
   25.620    8.0885
   25.635    8.1306
   25.650    8.1517
   25.665    8.0253
   25.680    8.2886
   25.695    8.5413
   25.710    8.4150
   25.725    8.4466
   25.740    8.2043
   25.755    8.0990
   25.770    8.4360
   25.785    7.9937
   25.800    8.1306
   25.815    8.4781
   25.830    8.5203
   25.845    7.6777
   25.860    7.7199
   25.875    8.1201
   25.890    8.3202
   25.905    8.6361
   25.920    8.3939
   25.935    8.1095
   25.950    8.2675
   25.965    8.5413
   25.980    7.9937
   25.995    8.1938
   26.010    8.4255
   26.025    8.4360
   26.040    7.9516
   26.055    8.2359
   26.070    8.2780
   26.085    7.8252
   26.100    8.0253
   26.115    8.0569
   26.130    8.4781
   26.145    8.2675
   26.160    8.2464
   26.175    8.3518
   26.190    8.2043
   26.205    7.9937
   26.220    8.0569
   26.235    8.3834
   26.250    8.0463
   26.265    8.2675
   26.280    8.3202
   26.295    8.7625
   26.310    8.1306
   26.325    8.2254
   26.340    8.1201
   26.355    8.6256
   26.370    8.6361
   26.385    8.3834
   26.400    7.9094
   26.415    8.2254
   26.430    8.0042
   26.445    8.1833
   26.460    8.2149
   26.475    8.2991
   26.490    7.7830
   26.505    8.1095
   26.520    7.7936
   26.535    8.2675
   26.550    8.0253
   26.565    8.0463
   26.580    8.6888
   26.595    8.6361
   26.610    8.1201
   26.625    8.1727
   26.640    8.1411
   26.655    8.0779
   26.670    8.2570
   26.685    8.0253
   26.700    7.7304
   26.715    7.8146
   26.730    7.9516
   26.745    8.3939
   26.760    7.9305
   26.775    7.9937
   26.790    8.1095
   26.805    7.8778
   26.820    8.0674
   26.835    7.8357
   26.850    7.8673
   26.865    7.6988
   26.880    7.8778
   26.895    8.1095
   26.910    7.7725
   26.925    7.6988
   26.940    7.9094
   26.955    8.1411
   26.970    7.8146
   26.985    7.7830
   27.000    7.7936
   27.015    8.1306
   27.030    7.8357
   27.045    7.7936
   27.060    8.0042
   27.075    8.2149
   27.090    8.2886
   27.105    7.9200
   27.120    7.9200
   27.135    7.7936
   27.150    7.8884
   27.165    8.0569
   27.180    7.8568
   27.195    8.1833
   27.210    7.9200
   27.225    7.8989
   27.240    7.7304
   27.255    7.9831
   27.270    7.9937
   27.285    7.5935
   27.300    8.0569
   27.315    7.5408
   27.330    8.3307
   27.345    8.1517
   27.360    8.0042
   27.375    8.0885
   27.390    7.8252
   27.405    8.0674
   27.420    8.2464
   27.435    7.8252
   27.450    7.8357
   27.465    8.1306
   27.480    8.0147
   27.495    7.9200
   27.510    7.6040
   27.525    8.1833
   27.540    8.1727
   27.555    7.9937
   27.570    7.9831
   27.585    8.4466
   27.600    8.0463
   27.615    8.1727
   27.630    8.0358
   27.645    7.7725
   27.660    8.1306
   27.675    8.2570
   27.690    7.8357
   27.705    8.1727
   27.720    7.9094
   27.735    8.1622
   27.750    7.6672
   27.765    7.5619
   27.780    7.6145
   27.795    7.7409
   27.810    7.7725
   27.825    7.6145
   27.840    7.5619
   27.855    7.6567
   27.870    7.7620
   27.885    7.7514
   27.900    7.8568
   27.915    7.8041
   27.930    7.7514
   27.945    7.9726
   27.960    8.0358
   27.975    7.6883
   27.990    7.5829
   28.005    7.8673
   28.020    7.7514
   28.035    7.3302
   28.050    7.4144
   28.065    7.8146
   28.080    7.7830
   28.095    7.8357
   28.110    7.4776
   28.125    7.3618
   28.140    7.7514
   28.155    8.0042
   28.170    7.9200
   28.185    7.3723
   28.200    7.6040
   28.215    7.7620
   28.230    7.6883
   28.245    7.8041
   28.260    7.8357
   28.275    7.4144
   28.290    7.2143
   28.305    7.7514
   28.320    7.9410
   28.335    7.6356
   28.350    7.7409
   28.365    7.4987
   28.380    7.9200
   28.395    7.2249
   28.410    7.7830
   28.425    7.4460
   28.440    7.6567
   28.455    8.0569
   28.470    7.4355
   28.485    6.9721
   28.500    7.5619
   28.515    7.5092
   28.530    7.6040
   28.545    7.4460
   28.560    7.2038
   28.575    7.4566
   28.590    8.0147
   28.605    7.8462
   28.620    7.5935
   28.635    7.7304
   28.650    7.8146
   28.665    8.1411
   28.680    7.7620
   28.695    7.5724
   28.710    7.4566
   28.725    7.4671
   28.740    7.5092
   28.755    7.2670
   28.770    7.8568
   28.785    7.9621
   28.800    7.8989
   28.815    7.9621
   28.830    7.6672
   28.845    7.4882
   28.860    7.6672
   28.875    7.5092
   28.890    7.4460
   28.905    7.7936
   28.920    7.8252
   28.935    7.4144
   28.950    8.0253
   28.965    7.4882
   28.980    7.5092
   28.995    7.6145
   29.010    8.0463
   29.025    7.3723
   29.040    7.8041
   29.055    7.4355
   29.070    7.8778
   29.085    7.4039
   29.100    7.6356
   29.115    8.0358
   29.130    7.4460
   29.145    7.4039
   29.160    7.6883
   29.175    7.8462
   29.190    7.4039
   29.205    7.3723
   29.220    8.1727
   29.235    7.5408
   29.250    7.9200
   29.265    7.2775
   29.280    7.6356
   29.295    7.6040
   29.310    7.9305
   29.325    7.4566
   29.340    7.5092
   29.355    7.3618
   29.370    7.3723
   29.385    7.1722
   29.400    7.5724
   29.415    7.8568
   29.430    7.7199
   29.445    7.7725
   29.460    6.9932
   29.475    7.4776
   29.490    7.3828
   29.505    7.3196
   29.520    7.1195
   29.535    7.2670
   29.550    7.3091
   29.565    7.3302
   29.580    7.4144
   29.595    7.1722
   29.610    7.1511
   29.625    7.4144
   29.640    7.2670
   29.655    7.1617
   29.670    7.1722
   29.685    7.2880
   29.700    7.2670
   29.715    7.4250
   29.730    6.9510
   29.745    7.1406
   29.760    7.0669
   29.775    7.1195
   29.790    7.2670
   29.805    7.5619
   29.820    7.2354
   29.835    7.3407
   29.850    7.3302
   29.865    7.0669
   29.880    7.3618
   29.895    7.2038
   29.910    7.5619
   29.925    7.1406
   29.940    7.0563
   29.955    7.2143
   29.970    7.1617
   29.985    7.3302
   30.000    7.3723
   30.015    7.3618
   30.030    7.5303
   30.045    7.0563
   30.060    7.1617
   30.075    7.2986
   30.090    7.3723
   30.105    7.3512
   30.120    7.1617
   30.135    7.4671
   30.150    7.4987
   30.165    7.2459
   30.180    7.0458
   30.195    7.1933
   30.210    7.0142
   30.225    7.0353
   30.240    7.3828
   30.255    7.6251
   30.270    7.4250
   30.285    7.2880
   30.300    6.5087
   30.315    6.8246
   30.330    6.9510
   30.345    7.2249
   30.360    7.2565
   30.375    7.0037
   30.390    7.3091
   30.405    7.0774
   30.420    7.1933
   30.435    7.5303
   30.450    7.6251
   30.465    7.1195
   30.480    7.4987
   30.495    7.4671
   30.510    7.0563
   30.525    7.5619
   30.540    7.0142
   30.555    7.4566
   30.570    6.8036
   30.585    6.9826
   30.600    7.1722
   30.615    6.9826
   30.630    7.3723
   30.645    7.0774
   30.660    6.7088
   30.675    7.1511
   30.690    7.2565
   30.705    7.4671
   30.720    7.3934
   30.735    7.2670
   30.750    7.4355
   30.765    6.7720
   30.780    7.0458
   30.795    7.4039
   30.810    7.4566
   30.825    7.7725
   30.840    7.3091
   30.855    7.0142
   30.870    6.8878
   30.885    7.0458
   30.900    7.3934
   30.915    7.1511
   30.930    7.6356
   30.945    7.5724
   30.960    6.8984
   30.975    7.0563
   30.990    7.4039
   31.005    6.8246
   31.020    7.1827
   31.035    7.1090
   31.050    7.3723
   31.065    7.2038
   31.080    6.8773
   31.095    7.0458
   31.110    7.0985
   31.125    7.3512
   31.140    7.2354
   31.155    7.1511
   31.170    7.2459
   31.185    7.4671
   31.200    7.1827
   31.215    6.7088
   31.230    7.2565
   31.245    6.7509
   31.260    7.0985
   31.275    7.0774
   31.290    6.9826
   31.305    7.1090
   31.320    6.9194
   31.335    6.8773
   31.350    6.9932
   31.365    7.0037
   31.380    7.2986
   31.395    7.3302
   31.410    6.8984
   31.425    7.2038
   31.440    6.8562
   31.455    7.4250
   31.470    7.1617
   31.485    6.7088
   31.500    7.1195
   31.515    6.7930
   31.530    6.7193
   31.545    7.3091
   31.560    7.1511
   31.575    7.1511
   31.590    7.1933
   31.605    7.0248
   31.620    6.9510
   31.635    7.0458
   31.650    7.1195
   31.665    7.3512
   31.680    7.1406
   31.695    6.9932
   31.710    7.1722
   31.725    7.2775
   31.740    6.7404
   31.755    7.1617
   31.770    7.2038
   31.785    6.5508
   31.800    6.8036
   31.815    7.3091
   31.830    7.3512
   31.845    7.2670
   31.860    7.0248
   31.875    7.0774
   31.890    7.4355
   31.905    7.0458
   31.920    6.6561
   31.935    6.7930
   31.950    7.0142
   31.965    7.0669
   31.980    6.6772
   31.995    7.2880
   32.010    7.1195
   32.025    7.3512
   32.040    7.4671
   32.055    6.8984
   32.070    6.8878
   32.085    7.0142
   32.100    7.1090
   32.115    7.1195
   32.130    7.0142
   32.145    7.1827
   32.160    6.6245
   32.175    7.2249
   32.190    6.6035
   32.205    7.1511
   32.220    6.7615
   32.235    6.9932
   32.250    6.7193
   32.265    7.0458
   32.280    7.1090
   32.295    6.9194
   32.310    6.6035
   32.325    6.9300
   32.340    6.9932
   32.355    6.9300
   32.370    6.9826
   32.385    7.1406
   32.400    6.7930
   32.415    7.2038
   32.430    6.7193
   32.445    6.8668
   32.460    7.0563
   32.475    6.8246
   32.490    7.0248
   32.505    6.8352
   32.520    6.9826
   32.535    6.7720
   32.550    6.7193
   32.565    7.0774
   32.580    7.2565
   32.595    6.8668
   32.610    6.8457
   32.625    7.0353
   32.640    6.8141
   32.655    6.4560
   32.670    7.0458
   32.685    7.0142
   32.700    6.8457
   32.715    7.1301
   32.730    6.7299
   32.745    6.6561
   32.760    6.9616
   32.775    6.7193
   32.790    6.9194
   32.805    6.7299
   32.820    6.6877
   32.835    7.1933
   32.850    7.1827
   32.865    6.9826
   32.880    6.4560
   32.895    6.5403
   32.910    6.8457
   32.925    7.2143
   32.940    6.8352
   32.955    6.9932
   32.970    6.7720
   32.985    6.7509
   33.000    7.0458
   33.015    6.9300
   33.030    6.8562
   33.045    6.7509
   33.060    7.0037
   33.075    6.9089
   33.090    6.8141
   33.105    6.6667
   33.120    6.7088
   33.135    6.6772
   33.150    6.6561
   33.165    6.8984
   33.180    6.6667
   33.195    7.0353
   33.210    6.9721
   33.225    6.6983
   33.240    6.7299
   33.255    7.1511
   33.270    7.1511
   33.285    7.0774
   33.300    6.5824
   33.315    6.7615
   33.330    6.6561
   33.345    6.9300
   33.360    6.9510
   33.375    6.7720
   33.390    6.6140
   33.405    6.8984
   33.420    6.9405
   33.435    7.0879
   33.450    6.5298
   33.465    6.9300
   33.480    6.8352
   33.495    6.9089
   33.510    6.7299
   33.525    6.6351
   33.540    6.7299
   33.555    6.7615
   33.570    6.8036
   33.585    6.7615
   33.600    6.5403
   33.615    6.7509
   33.630    6.5719
   33.645    6.4982
   33.660    6.6245
   33.675    6.5929
   33.690    6.9616
   33.705    7.0774
   33.720    6.6772
   33.735    7.1195
   33.750    6.5087
   33.765    6.3718
   33.780    6.6035
   33.795    6.6035
   33.810    6.4455
   33.825    6.3718
   33.840    6.8668
   33.855    7.2354
   33.870    6.7930
   33.885    6.2665
   33.900    6.4350
   33.915    6.5298
   33.930    6.6245
   33.945    6.6561
   33.960    6.3928
   33.975    6.4876
   33.990    6.6140
   34.005    6.3507
   34.020    6.6245
   34.035    6.8352
   34.050    6.7299
   34.065    6.3823
   34.080    7.0037
   34.095    6.8668
   34.110    7.0142
   34.125    7.0879
   34.140    6.8246
   34.155    6.6351
   34.170    6.3718
   34.185    6.7193
   34.200    6.3823
   34.215    6.4876
   34.230    6.9194
   34.245    6.6245
   34.260    6.6035
   34.275    6.6667
   34.290    6.6772
   34.305    6.6983
   34.320    6.6245
   34.335    6.6351
   34.350    6.3718
   34.365    6.9932
   34.380    6.6877
   34.395    6.3191
   34.410    6.4034
   34.425    6.4666
   34.440    6.4876
   34.455    6.3086
   34.470    6.1506
   34.485    6.2559
   34.500    6.6772
   34.515    6.8668
   34.530    6.2138
   34.545    6.4771
   34.560    6.6035
   34.575    6.4560
   34.590    6.3823
   34.605    6.7509
   34.620    6.7509
   34.635    6.8457
   34.650    6.6456
   34.665    7.0142
   34.680    6.7193
   34.695    6.4244
   34.710    6.6772
   34.725    6.8141
   34.740    6.5087
   34.755    6.4771
   34.770    7.2038
   34.785    6.9721
   34.800    6.2243
   34.815    6.6245
   34.830    6.5087
   34.845    7.0037
   34.860    6.6035
   34.875    6.6877
   34.890    6.7825
   34.905    6.5403
   34.920    6.1717
   34.935    6.6140
   34.950    7.2143
   34.965    6.6351
   34.980    7.0669
   34.995    7.0353
   35.010    6.8562
   35.025    6.7509
   35.040    6.5298
   35.055    6.2243
   35.070    6.5613
   35.085    6.4139
   35.100    6.5403
   35.115    6.1822
   35.130    6.6456
   35.145    6.7615
   35.160    6.8036
   35.175    6.5403
   35.190    6.3191
   35.205    6.5613
   35.220    6.5403
   35.235    6.5719
   35.250    6.7299
   35.265    6.6983
   35.280    6.5298
   35.295    6.4982
   35.310    6.4455
   35.325    6.5508
   35.340    6.4876
   35.355    6.4771
   35.370    6.5929
   35.385    6.7720
   35.400    6.6561
   35.415    6.6983
   35.430    6.4876
   35.445    6.6772
   35.460    6.2875
   35.475    6.2454
   35.490    6.2981
   35.505    6.5929
   35.520    6.4455
   35.535    6.1611
   35.550    6.7825
   35.565    6.3823
   35.580    6.8878
   35.595    6.5298
   35.610    6.2138
   35.625    6.2770
   35.640    6.3086
   35.655    6.3507
   35.670    6.2138
   35.685    6.1506
   35.700    6.2349
   35.715    6.2349
   35.730    6.3718
   35.745    6.1822
   35.760    6.3507
   35.775    6.5298
   35.790    6.8036
   35.805    6.7825
   35.820    6.6140
   35.835    6.7299
   35.850    6.6035
   35.865    6.5298
   35.880    6.6983
   35.895    6.6245
   35.910    6.8668
   35.925    6.8773
   35.940    6.5508
   35.955    6.8036
   35.970    6.0874
   35.985    6.2033
   36.000    6.0558
   36.015    6.2243
   36.030    6.0242
   36.045    6.5298
   36.060    6.5087
   36.075    6.4455
   36.090    6.6351
   36.105    6.5298
   36.120    6.6035
   36.135    6.6456
   36.150    6.4560
   36.165    6.7299
   36.180    6.1927
   36.195    6.5192
   36.210    6.6983
   36.225    6.5929
   36.240    6.7193
   36.255    6.6140
   36.270    6.8141
   36.285    6.4876
   36.300    6.7404
   36.315    6.5508
   36.330    6.4982
   36.345    6.9194
   36.360    6.4350
   36.375    6.1085
   36.390    6.3296
   36.405    6.6245
   36.420    6.2770
   36.435    6.2770
   36.450    6.1295
   36.465    5.9821
   36.480    6.3402
   36.495    6.3296
   36.510    6.3718
   36.525    6.2559
   36.540    6.4455
   36.555    6.4244
   36.570    6.4666
   36.585    6.6877
   36.600    6.8352
   36.615    6.6561
   36.630    6.9932
   36.645    6.6983
   36.660    6.4244
   36.675    6.2875
   36.690    6.1295
   36.705    6.0453
   36.720    6.2875
   36.735    6.7825
   36.750    6.5298
   36.765    6.8352
   36.780    6.8352
   36.795    6.4666
   36.810    6.2875
   36.825    6.1295
   36.840    6.0979
   36.855    6.4244
   36.870    6.7193
   36.885    6.4139
   36.900    6.5719
   36.915    6.3402
   36.930    6.4350
   36.945    6.3928
   36.960    6.0032
   36.975    6.6351
   36.990    6.6245
   37.005    6.5613
   37.020    6.4034
   37.035    6.2875
   37.050    6.5298
   37.065    6.3296
   37.080    6.0979
   37.095    6.6035
   37.110    6.1927
   37.125    6.1190
   37.140    6.0137
   37.155    6.4771
   37.170    6.4455
   37.185    6.1927
   37.200    5.9505
   37.215    6.2243
   37.230    6.1506
   37.245    6.6667
   37.260    6.4455
   37.275    6.2770
   37.290    6.4034
   37.305    6.3402
   37.320    6.1401
   37.335    6.1506
   37.350    6.2243
   37.365    6.2349
   37.380    6.2138
   37.395    6.0032
   37.410    5.9610
   37.425    6.5403
   37.440    6.3296
   37.455    6.2981
   37.470    6.5298
   37.485    6.3928
   37.500    6.1190
   37.515    6.2770
   37.530    6.3191
   37.545    6.2770
   37.560    6.2349
   37.575    6.1401
   37.590    6.3612
   37.605    6.3086
   37.620    6.4455
   37.635    6.3823
   37.650    6.2770
   37.665    6.2138
   37.680    6.3507
   37.695    6.6456
   37.710    6.3718
   37.725    6.1927
   37.740    6.2454
   37.755    6.3823
   37.770    6.7193
   37.785    6.1717
   37.800    6.3296
   37.815    6.2349
   37.830    6.2033
   37.845    6.5087
   37.860    5.9400
   37.875    6.3296
   37.890    6.3612
   37.905    6.2559
   37.920    6.1611
   37.935    6.1611
   37.950    6.1401
   37.965    5.9084
   37.980    6.0558
   37.995    6.1085
   38.010    6.3507
   38.025    6.0453
   38.040    6.1085
   38.055    6.3823
   38.070    6.1611
   38.085    6.4244
   38.100    6.2981
   38.115    6.3086
   38.130    6.4771
   38.145    6.4455
   38.160    6.1927
   38.175    6.0032
   38.190    6.1927
   38.205    6.6140
   38.220    6.1927
   38.235    6.4034
   38.250    6.4666
   38.265    6.1506
   38.280    6.2665
   38.295    6.4139
   38.310    6.5298
   38.325    6.4560
   38.340    6.6140
   38.355    6.4560
   38.370    6.5824
   38.385    6.5192
   38.400    6.4139
   38.415    6.2454
   38.430    6.2454
   38.445    6.5298
   38.460    6.4244
   38.475    6.4982
   38.490    6.5613
   38.505    6.5192
   38.520    6.5403
   38.535    6.1822
   38.550    5.8978
   38.565    5.9610
   38.580    6.1190
   38.595    6.2875
   38.610    6.3507
   38.625    6.4982
   38.640    6.3928
   38.655    6.6456
   38.670    6.7720
   38.685    6.4455
   38.700    6.5929
   38.715    6.3191
   38.730    6.6772
   38.745    6.3928
   38.760    6.0453
   38.775    6.0874
   38.790    6.5192
   38.805    6.2981
   38.820    6.2981
   38.835    6.1190
   38.850    6.4034
   38.865    6.2243
   38.880    6.2875
   38.895    6.5929
   38.910    6.2033
   38.925    6.4139
   38.940    6.3191
   38.955    5.9610
   38.970    6.1190
   38.985    6.5403
   39.000    6.5613
   39.015    6.3823
   39.030    5.7504
   39.045    5.9610
   39.060    5.8873
   39.075    6.1506
   39.090    6.2454
   39.105    6.5508
   39.120    6.6983
   39.135    6.7193
   39.150    6.3823
   39.165    6.7299
   39.180    6.5298
   39.195    6.5087
   39.210    6.4244
   39.225    5.9821
   39.240    5.8662
   39.255    5.8241
   39.270    6.2770
   39.285    6.1401
   39.300    6.1190
   39.315    5.9084
   39.330    5.8873
   39.345    6.1822
   39.360    6.3823
   39.375    6.3823
   39.390    6.7193
   39.405    6.2454
   39.420    6.2138
   39.435    6.4771
   39.450    6.3718
   39.465    6.2138
   39.480    6.5298
   39.495    6.4034
   39.510    6.6772
   39.525    6.6667
   39.540    6.0032
   39.555    6.1295
   39.570    6.2875
   39.585    6.4350
   39.600    6.7193
   39.615    6.1611
   39.630    5.9926
   39.645    6.7088
   39.660    6.0348
   39.675    6.1506
   39.690    6.2138
   39.705    6.2033
   39.720    6.3402
   39.735    6.1717
   39.750    6.4244
   39.765    6.4771
   39.780    6.0242
   39.795    6.4244
   39.810    6.3191
   39.825    5.9610
   39.840    6.3296
   39.855    6.4350
   39.870    6.3191
   39.885    6.2454
   39.900    6.4560
   39.915    6.2138
   39.930    6.2875
   39.945    6.1295
   39.960    6.3823
   39.975    6.5824
   39.990    6.2770
