    1.500   19.1680
    1.515   19.2733
    1.530   19.0802
    1.545   19.5717
    1.560   18.9925
    1.575   18.7643
    1.590   18.8696
    1.605   18.1148
    1.620   18.1499
    1.635   17.4829
    1.650   16.8159
    1.665   17.0616
    1.680   17.4127
    1.695   16.9036
    1.710   17.2547
    1.725   16.9036
    1.740   16.1664
    1.755   15.9031
    1.770   15.4292
    1.785   14.6568
    1.800   14.6568
    1.815   16.0611
    1.830   15.7978
    1.845   14.8675
    1.860   14.8850
    1.875   15.4292
    1.890   14.7622
    1.905   14.7973
    1.920   14.9026
    1.935   14.5164
    1.950   13.9723
    1.965   13.8318
    1.980   13.6212
    1.995   14.3409
    2.010   14.6217
    2.025   13.9196
    2.040   13.9372
    2.055   13.7441
    2.070   13.0946
    2.085   12.8489
    2.100   13.9898
    2.115   13.8845
    2.130   13.5861
    2.145   13.3930
    2.160   13.6914
    2.175   12.7260
    2.190   12.4100
    2.205   13.6037
    2.220   13.3404
    2.235   12.4100
    2.250   12.5505
    2.265   13.1648
    2.280   13.4632
    2.295   12.6558
    2.310   13.1999
    2.325   12.9893
    2.340   12.7787
    2.355   12.7435
    2.370   13.1648
    2.385   13.1122
    2.400   13.0068
    2.415   12.8840
    2.430   12.9542
    2.445   12.7084
    2.460   12.4978
    2.475   11.9361
    2.490   12.7962
    2.505   12.9191
    2.520   13.4281
    2.535   13.1297
    2.550   13.2175
    2.565   12.5329
    2.580   13.6914
    2.595   13.6914
    2.610   14.0600
    2.625   13.6739
    2.640   13.7265
    2.655   13.2701
    2.670   13.6037
    2.685   14.0600
    2.700   14.0951
    2.715   14.0425
    2.730   13.4632
    2.745   14.5515
    2.760   15.0255
    2.775   14.3233
    2.790   14.9903
    2.805   14.9728
    2.820   15.1308
    2.835   16.0084
    2.850   15.9733
    2.865   16.2542
    2.880   16.8510
    2.895   16.3595
    2.910   17.1318
    2.925   17.3249
    2.940   17.5531
    2.955   17.3249
    2.970   17.7286
    2.985   17.0967
    3.000   18.0095
    3.015   18.0797
    3.030   19.9228
    3.045   18.8696
    3.060   18.8871
    3.075   20.2036
    3.090   20.4494
    3.105   20.2738
    3.120   21.1164
    3.135   21.4674
    3.150   21.4499
    3.165   23.5212
    3.180   22.9419
    3.195   23.3632
    3.210   24.6797
    3.225   24.9254
    3.240   25.6100
    3.255   27.1020
    3.270   26.7860
    3.285   28.1201
    3.300   28.4009
    3.315   30.8232
    3.330   30.9110
    3.345   31.4727
    3.360   32.9472
    3.375   33.3509
    3.390   34.8780
    3.405   35.6152
    3.420   37.9498
    3.435   38.1604
    3.450   39.4594
    3.465   41.4253
    3.480   43.0578
    3.495   44.1636
    3.510   45.4801
    3.525   47.2705
    3.540   49.7279
    3.555   53.9582
    3.570   56.8194
    3.585   59.1364
    3.600   62.6821
    3.615   65.2800
    3.630   68.9310
    3.645   73.3193
    3.660   78.6905
    3.675   85.2027
    3.690   88.6080
    3.705   94.3830
    3.720  102.4048
    3.735  111.1989
    3.750  120.3967
    3.765  132.8067
    3.780  150.1317
    3.795  172.3890
    3.810  202.5101
    3.825  232.6137
    3.840  248.8678
    3.855  231.7185
    3.870  196.8580
    3.885  146.8141
    3.900   94.9798
    3.915   53.1332
    3.930   28.1025
    3.945   18.7116
    3.960   14.5340
    3.975   12.0414
    3.990   11.3744
    4.005   10.4441
    4.020    9.4787
    4.035    9.0750
    4.050    8.5659
    4.065    8.4430
    4.080    8.2851
    4.095    8.8994
    4.110    8.1797
    4.125    7.6005
    4.140    7.7058
    4.155    7.2670
    4.170    7.8638
    4.185    7.2670
    4.200    7.4952
    4.215    7.8989
    4.230    7.5303
    4.245    7.5303
    4.260    8.0744
    4.275    7.3196
    4.290    7.3547
    4.305    7.8287
    4.320    7.1792
    4.335    7.6180
    4.350    7.4776
    4.365    7.4074
    4.380    7.2494
    4.395    7.4425
    4.410    7.6356
    4.425    7.4952
    4.440    7.7760
    4.455    7.1266
    4.470    7.4250
    4.485    7.1090
    4.500    7.6356
    4.515    7.2670
    4.530    7.1968
    4.545    7.6532
    4.560    7.6005
    4.575    7.8287
    4.590    7.9867
    4.605    7.4074
    4.620    7.8638
    4.635    7.8989
    4.650    8.1271
    4.665    8.6186
    4.680    8.4079
    4.695    8.6010
    4.710    8.3026
    4.725    8.0393
    4.740    8.7941
    4.755    8.7590
    4.770    8.6361
    4.785    9.4787
    4.800    9.3382
    4.815    9.3382
    4.830    9.5840
    4.845    9.6015
    4.860   10.1106
    4.875   10.2861
    4.890   10.1983
    4.905   10.3563
    4.920   10.5494
    4.935   10.8127
    4.950   11.2340
    4.965   10.9180
    4.980   11.4973
    4.995   11.6202
    5.010   11.6026
    5.025   12.4978
    5.040   13.3228
    5.055   13.0946
    5.070   13.1297
    5.085   13.1824
    5.100   14.8324
    5.115   15.1308
    5.130   14.4813
    5.145   15.0606
    5.160   16.7457
    5.175   17.3249
    5.190   19.0276
    5.205   19.4664
    5.220   19.4137
    5.235   21.3972
    5.250   22.0994
    5.265   23.7669
    5.280   25.1009
    5.295   26.6632
    5.310   28.7169
    5.325   31.5605
    5.340   33.1578
    5.355   36.8440
    5.370   38.2306
    5.385   41.3727
    5.400   47.1476
    5.415   54.4673
    5.430   64.5076
    5.445   75.2501
    5.460   80.8145
    5.475   79.9544
    5.490   71.5113
    5.505   56.8720
    5.520   40.1088
    5.535   24.5392
    5.550   14.4286
    5.565   10.1983
    5.580    8.6186
    5.595    8.0393
    5.610    7.7585
    5.625    7.1968
    5.640    6.9335
    5.655    7.0212
    5.670    6.7228
    5.685    6.7053
    5.700    6.3718
    5.715    6.2138
    5.730    6.2840
    5.745    6.2840
    5.760    6.1436
    5.775    6.9159
    5.790    6.9861
    5.805    6.3542
    5.820    6.2313
    5.835    6.5298
    5.850    6.1962
    5.865    6.4771
    5.880    6.4244
    5.895    5.9681
    5.910    6.5122
    5.925    6.4946
    5.940    6.1962
    5.955    6.1787
    5.970    6.0207
    5.985    6.1787
    6.000    6.1962
    6.015    6.2313
    6.030    6.1962
    6.045    6.4595
    6.060    6.0383
    6.075    6.3191
    6.090    6.3367
    6.105    6.7755
    6.120    6.9686
    6.135    6.4069
    6.150    6.4946
    6.165    6.5473
    6.180    6.4946
    6.195    6.4420
    6.210    6.6175
    6.225    6.3191
    6.240    6.7930
    6.255    6.9686
    6.270    6.7930
    6.285    7.3196
    6.300    7.7936
    6.315    7.2319
    6.330    7.3196
    6.345    7.4425
    6.360    8.2324
    6.375    8.5835
    6.390    7.7234
    6.405    7.5654
    6.420    8.5308
    6.435    8.4430
    6.450    8.1622
    6.465    8.5659
    6.480    9.4260
    6.495    9.3909
    6.510    9.9702
    6.525    9.9702
    6.540   10.4616
    6.555   11.2866
    6.570   11.6904
    6.585   11.9712
    6.600   13.0068
    6.615   14.1127
    6.630   15.9909
    6.645   17.2898
    6.660   19.7121
    6.675   21.6254
    6.690   23.6265
    6.705   26.8738
    6.720   26.2770
    6.735   24.3988
    6.750   19.7648
    6.765   14.8850
    6.780   11.0585
    6.795    8.5484
    6.810    7.0037
    6.825    6.3191
    6.840    6.6175
    6.855    6.3016
    6.870    5.8452
    6.885    5.8276
    6.900    6.4069
    6.915    5.6345
    6.930    5.9505
    6.945    5.5819
    6.960    5.4239
    6.975    5.7925
    6.990    6.3542
    7.005    6.0558
    7.020    5.6872
    7.035    5.7925
    7.050    5.6345
    7.065    5.9856
    7.080    6.3191
    7.095    5.4941
    7.110    6.0558
    7.125    5.5117
    7.140    5.9856
    7.155    5.7574
    7.170    6.2489
    7.185    5.7048
    7.200    5.7223
    7.215    6.1260
    7.230    6.3718
    7.245    5.9505
    7.260    5.8276
    7.275    6.1962
    7.290    6.0909
    7.305    6.3191
    7.320    6.1436
    7.335    6.3542
    7.350    6.0909
    7.365    6.2138
    7.380    6.3718
    7.395    6.5298
    7.410    6.9335
    7.425    6.6351
    7.440    6.9861
    7.455    7.6356
    7.470    7.0037
    7.485    6.8808
    7.500    6.7755
    7.515    7.3547
    7.530    8.1622
    7.545    8.1973
    7.560    7.8989
    7.575    8.2851
    7.590    8.6361
    7.605    9.1978
    7.620    9.0223
    7.635    9.5840
    7.650   10.0228
    7.665   11.2691
    7.680   11.8132
    7.695   13.3052
    7.710   14.4813
    7.725   15.2361
    7.740   18.0095
    7.755   20.6951
    7.770   20.2563
    7.785   18.4132
    7.800   15.6749
    7.815   13.1824
    7.830   10.2686
    7.845    7.6005
    7.860    6.8984
    7.875    6.1260
    7.890    5.5468
    7.905    6.1436
    7.920    6.2840
    7.935    5.3888
    7.950    5.1957
    7.965    5.5994
    7.980    5.5117
    7.995    5.6345
    8.010    5.8101
    8.025    5.4941
    8.040    5.4239
    8.055    5.7399
    8.070    5.6170
    8.085    5.7223
    8.100    5.9505
    8.115    5.5117
    8.130    5.2835
    8.145    5.9856
    8.160    5.8276
    8.175    5.3361
    8.190    5.5994
    8.205    5.4064
    8.220    5.9856
    8.235    5.3888
    8.250    5.0553
    8.265    5.8627
    8.280    5.6170
    8.295    5.0904
    8.310    5.1431
    8.325    5.5468
    8.340    5.6170
    8.355    5.8101
    8.370    5.4941
    8.385    5.2484
    8.400    5.5819
    8.415    5.7223
    8.430    5.3361
    8.445    5.3712
    8.460    5.9154
    8.475    5.6521
    8.490    5.8978
    8.505    6.0383
    8.520    5.5819
    8.535    6.2489
    8.550    6.4069
    8.565    6.0734
    8.580    6.4244
    8.595    6.0909
    8.610    6.2665
    8.625    6.6877
    8.640    6.9686
    8.655    6.7228
    8.670    7.5829
    8.685    8.1797
    8.700    7.5829
    8.715    7.6356
    8.730    6.9335
    8.745    6.7930
    8.760    6.2840
    8.775    5.9856
    8.790    5.5468
    8.805    5.7399
    8.820    5.6345
    8.835    5.6872
    8.850    5.4590
    8.865    5.3361
    8.880    5.5819
    8.895    5.1782
    8.910    5.3186
    8.925    5.4590
    8.940    5.5468
    8.955    5.8803
    8.970    5.4590
    8.985    5.5643
    9.000    5.6521
    9.015    6.0207
    9.030    6.2138
    9.045    5.6872
    9.060    5.9505
    9.075    6.3191
    9.090    6.3893
    9.105    6.2840
    9.120    5.9329
    9.135    6.1787
    9.150    6.4244
    9.165    5.8978
    9.180    6.4771
    9.195    7.5829
    9.210    7.4074
    9.225    7.8989
    9.240    8.0569
    9.255    8.1797
    9.270    8.0393
    9.285    8.8117
    9.300    9.1101
    9.315    9.0750
    9.330    9.8999
    9.345   10.3739
    9.360   10.9180
    9.375   12.1467
    9.390   12.8489
    9.405   12.7787
    9.420   14.4462
    9.435   16.0260
    9.450   18.5185
    9.465   19.9754
    9.480   23.6967
    9.495   27.5935
    9.510   31.7009
    9.525   34.2110
    9.540   33.4913
    9.555   30.8759
    9.570   25.4344
    9.585   19.1504
    9.600   13.3930
    9.615    9.1978
    9.630    6.8808
    9.645    5.8627
    9.660    5.5819
    9.675    5.7399
    9.690    5.5468
    9.705    5.5643
    9.720    5.2133
    9.735    5.2835
    9.750    5.9154
    9.765    5.7574
    9.780    5.4590
    9.795    5.5468
    9.810    5.5117
    9.825    4.8798
    9.840    5.5994
    9.855    5.8803
    9.870    5.7223
    9.885    6.1085
    9.900    5.6345
    9.915    6.0909
    9.930    6.3718
    9.945    5.9856
    9.960    6.0207
    9.975    5.9329
    9.990    6.1436
   10.005    5.8803
   10.020    6.5473
   10.035    6.3016
   10.050    6.5824
   10.065    6.6000
   10.080    6.4771
   10.095    6.4771
   10.110    6.9686
   10.125    6.9335
   10.140    7.2494
   10.155    7.6707
   10.170    7.8462
   10.185    8.6010
   10.200    9.4436
   10.215    9.9877
   10.230   11.0760
   10.245   12.3398
   10.260   13.6563
   10.275   14.4638
   10.290   15.4994
   10.305   16.4297
   10.320   15.6925
   10.335   13.9021
   10.350   11.1813
   10.365    9.2505
   10.380    7.0915
   10.395    6.3542
   10.410    5.8978
   10.425    5.9154
   10.440    5.6872
   10.455    5.1080
   10.470    5.5292
   10.485    5.4239
   10.500    5.3537
   10.515    5.1080
   10.530    5.1957
   10.545    5.0026
   10.560    4.9675
   10.575    5.6521
   10.590    5.2659
   10.605    5.3186
   10.620    5.2133
   10.635    5.0202
   10.650    5.0553
   10.665    5.3537
   10.680    5.4415
   10.695    5.5819
   10.710    5.4590
   10.725    5.6697
   10.740    6.0734
   10.755    6.0909
   10.770    6.0734
   10.785    5.9154
   10.800    5.6170
   10.815    5.9154
   10.830    6.6526
   10.845    6.4420
   10.860    6.2489
   10.875    6.6351
   10.890    6.4771
   10.905    6.9159
   10.920    7.8111
   10.935    8.0569
   10.950    8.5484
   10.965   10.0404
   10.980   11.0585
   10.995   12.0765
   11.010   12.3398
   11.025   12.5856
   11.040   12.1819
   11.055   10.0404
   11.070    9.1452
   11.085    7.9516
   11.100    6.4244
   11.115    5.7750
   11.130    5.6521
   11.145    5.6872
   11.160    5.3361
   11.175    5.5468
   11.190    5.3712
   11.205    5.8627
   11.220    5.4590
   11.235    5.3010
   11.250    5.5468
   11.265    5.1782
   11.280    5.4941
   11.295    4.8798
   11.310    5.0202
   11.325    5.0553
   11.340    5.1957
   11.355    4.9324
   11.370    5.3712
   11.385    5.7399
   11.400    5.3888
   11.415    5.2484
   11.430    5.2484
   11.445    5.6170
   11.460    5.5117
   11.475    5.4941
   11.490    6.0734
   11.505    6.4946
   11.520    6.4069
   11.535    6.6877
   11.550    7.4250
   11.565    7.7760
   11.580    7.9340
   11.595    7.9516
   11.610    8.1622
   11.625    8.8819
   11.640   10.0053
   11.655   10.6898
   11.670   11.5499
   11.685   13.3404
   11.700   13.6563
   11.715   13.9196
   11.730   12.1819
   11.745   10.3212
   11.760    8.8643
   11.775    6.9335
   11.790    6.3016
   11.805    5.6521
   11.820    5.0377
   11.835    4.9500
   11.850    5.2659
   11.865    5.1255
   11.880    5.1606
   11.895    5.0728
   11.910    5.2308
   11.925    5.2659
   11.940    5.1431
   11.955    4.9324
   11.970    5.0377
   11.985    5.3010
   12.000    5.4590
   12.015    5.3712
   12.030    5.2133
   12.045    5.2835
   12.060    5.2659
   12.075    4.9675
   12.090    4.6516
   12.105    5.3712
   12.120    5.1080
   12.135    5.4941
   12.150    5.2308
   12.165    5.3712
   12.180    4.9324
   12.195    5.4590
   12.210    5.1606
   12.225    5.4415
   12.240    5.4941
   12.255    5.5819
   12.270    5.7048
   12.285    6.0558
   12.300    6.4069
   12.315    6.6351
   12.330    6.3718
   12.345    6.3367
   12.360    6.0558
   12.375    6.3718
   12.390    6.1260
   12.405    5.5292
   12.420    5.1431
   12.435    4.8798
   12.450    5.3186
   12.465    4.8622
   12.480    4.9149
   12.495    5.1957
   12.510    4.6691
   12.525    5.0202
   12.540    5.0553
   12.555    4.7920
   12.570    4.9149
   12.585    5.3010
   12.600    5.0553
   12.615    5.4239
   12.630    5.3010
   12.645    5.2659
   12.660    4.9500
   12.675    5.1957
   12.690    4.9851
   12.705    5.5643
   12.720    5.4415
   12.735    5.1431
   12.750    5.3537
   12.765    6.2313
   12.780    6.0383
   12.795    5.8627
   12.810    6.0383
   12.825    5.9329
   12.840    6.3367
   12.855    6.3542
   12.870    6.8984
   12.885    7.7585
   12.900    9.0223
   12.915    9.5313
   12.930   10.2335
   12.945   10.3212
   12.960   10.3739
   12.975    9.5840
   12.990    8.3026
   13.005    7.9867
   13.020    6.6877
   13.035    5.8978
   13.050    5.3537
   13.065    5.3186
   13.080    5.1606
   13.095    4.9851
   13.110    4.6691
   13.125    5.1957
   13.140    5.2133
   13.155    4.5638
   13.170    5.0904
   13.185    5.2835
   13.200    5.1080
   13.215    5.0904
   13.230    5.1782
   13.245    5.3888
   13.260    4.9324
   13.275    4.7042
   13.290    4.9324
   13.305    5.1255
   13.320    4.6691
   13.335    5.1957
   13.350    5.1255
   13.365    5.0728
   13.380    5.3712
   13.395    4.9324
   13.410    4.9324
   13.425    5.6521
   13.440    5.8276
   13.455    5.7223
   13.470    6.3893
   13.485    7.0915
   13.500    7.1441
   13.515    7.5127
   13.530    8.1271
   13.545    7.4250
   13.560    6.8808
   13.575    6.5473
   13.590    5.7574
   13.605    5.3712
   13.620    5.0026
   13.635    5.2133
   13.650    5.3537
   13.665    5.1782
   13.680    4.8271
   13.695    5.0553
   13.710    5.5292
   13.725    4.9851
   13.740    5.0377
   13.755    5.2308
   13.770    4.9675
   13.785    5.1080
   13.800    5.3537
   13.815    5.2308
   13.830    5.4941
   13.845    5.3888
   13.860    5.1782
   13.875    5.2308
   13.890    5.5468
   13.905    5.9505
   13.920    6.0207
   13.935    6.4595
   13.950    6.4420
   13.965    6.5824
   13.980    6.8457
   13.995    7.0739
   14.010    7.0915
   14.025    8.5835
   14.040    8.7239
   14.055    9.7069
   14.070   10.1983
   14.085   10.3914
   14.100   10.3037
   14.115    9.0398
   14.130    8.6361
   14.145    7.7234
   14.160    6.7053
   14.175    5.5117
   14.190    5.3010
   14.205    5.1606
   14.220    4.9675
   14.235    5.2308
   14.250    4.6867
   14.265    4.7744
   14.280    4.8622
   14.295    4.5111
   14.310    4.5463
   14.325    5.0553
   14.340    4.6867
   14.355    4.6516
   14.370    4.8973
   14.385    4.7042
   14.400    4.8271
   14.415    4.8798
   14.430    4.5814
   14.445    4.6516
   14.460    4.8973
   14.475    4.8798
   14.490    4.8095
   14.505    5.1431
   14.520    4.6867
   14.535    4.7920
   14.550    4.7744
   14.565    5.0728
   14.580    4.9675
   14.595    4.7218
   14.610    4.9851
   14.625    4.6165
   14.640    4.9500
   14.655    4.6691
   14.670    4.7218
   14.685    4.8095
   14.700    4.9675
   14.715    4.6867
   14.730    4.6340
   14.745    4.8095
   14.760    4.9675
   14.775    4.7569
   14.790    4.6516
   14.805    4.9500
   14.820    5.3712
   14.835    4.9675
   14.850    4.2654
   14.865    4.7744
   14.880    4.4760
   14.895    4.5989
   14.910    4.4760
   14.925    4.5638
   14.940    5.0202
   14.955    4.7393
   14.970    5.2835
   14.985    5.1606
   15.000    4.5814
   15.015    5.0904
   15.030    5.3888
   15.045    5.2133
   15.060    5.0202
   15.075    5.1080
   15.090    5.8276
   15.105    5.8452
   15.120    5.1431
   15.135    5.4415
   15.150    5.7925
   15.165    5.9505
   15.180    5.7399
   15.195    4.7569
   15.210    4.6691
   15.225    5.0026
   15.240    4.7042
   15.255    4.5638
   15.270    4.8973
   15.285    4.7393
   15.300    4.8095
   15.315    4.6691
   15.330    4.8271
   15.345    5.1080
   15.360    4.6867
   15.375    4.8973
   15.390    4.7569
   15.405    4.7218
   15.420    5.4064
   15.435    4.9675
   15.450    4.6340
   15.465    4.5814
   15.480    4.9324
   15.495    5.1080
   15.510    5.3712
   15.525    4.6691
   15.540    4.9500
   15.555    4.5814
   15.570    5.1080
   15.585    5.0377
   15.600    4.7393
   15.615    4.8447
   15.630    4.9851
   15.645    4.5638
   15.660    4.3181
   15.675    4.7920
   15.690    4.5463
   15.705    5.0553
   15.720    4.7920
   15.735    4.3883
   15.750    4.5638
   15.765    4.9851
   15.780    5.2308
   15.795    4.6516
   15.810    4.4234
   15.825    4.7042
   15.840    4.7393
   15.855    4.8798
   15.870    4.9675
   15.885    4.7920
   15.900    5.3361
   15.915    4.7218
   15.930    5.1080
   15.945    4.8095
   15.960    4.8095
   15.975    4.9851
   15.990    5.0377
   16.005    5.1080
   16.020    4.9675
   16.035    5.2484
   16.050    5.1080
   16.065    5.1255
   16.080    5.6170
   16.095    5.7750
   16.110    6.1787
   16.125    6.1611
   16.140    6.0734
   16.155    5.5819
   16.170    5.3186
   16.185    5.5468
   16.200    5.0553
   16.215    5.0728
   16.230    5.4239
   16.245    5.1782
   16.260    4.9675
   16.275    4.7218
   16.290    4.5814
   16.305    4.9851
   16.320    5.1782
   16.335    4.8095
   16.350    5.0026
   16.365    4.8973
   16.380    4.9675
   16.395    5.2659
   16.410    5.0904
   16.425    4.8622
   16.440    5.0904
   16.455    5.0202
   16.470    5.1255
   16.485    4.6691
   16.500    4.9851
   16.515    4.9675
   16.530    5.2133
   16.545    5.8452
   16.560    5.7750
   16.575    5.6521
   16.590    5.9154
   16.605    6.1260
   16.620    5.6521
   16.635    6.0734
   16.650    5.7925
   16.665    5.4766
   16.680    4.9851
   16.695    4.8798
   16.710    5.3537
   16.725    4.7042
   16.740    4.9500
   16.755    5.2133
   16.770    5.5292
   16.785    5.4766
   16.800    5.1255
   16.815    5.0377
   16.830    5.1431
   16.845    4.8622
   16.860    5.3712
   16.875    5.6170
   16.890    5.0026
   16.905    5.0728
   16.920    5.6170
   16.935    5.6345
   16.950    5.7925
   16.965    6.0032
   16.980    6.7755
   16.995    6.7930
   17.010    7.5478
   17.025    7.9691
   17.040    8.3377
   17.055    8.9170
   17.070    8.5133
   17.085    8.6361
   17.100    7.8462
   17.115    7.1090
   17.130    6.6175
   17.145    5.9856
   17.160    5.6170
   17.175    5.1957
   17.190    5.5117
   17.205    4.3532
   17.220    4.8271
   17.235    4.3181
   17.250    4.8095
   17.265    4.9675
   17.280    5.0904
   17.295    5.0026
   17.310    5.0728
   17.325    5.2659
   17.340    5.1606
   17.355    4.8798
   17.370    4.4936
   17.385    5.3186
   17.400    5.0553
   17.415    5.2484
   17.430    5.3361
   17.445    5.0728
   17.460    5.2659
   17.475    5.7399
   17.490    5.9681
   17.505    5.6521
   17.520    5.7048
   17.535    5.9329
   17.550    5.8276
   17.565    5.3010
   17.580    5.0728
   17.595    4.9851
   17.610    4.9851
   17.625    5.2133
   17.640    5.0728
   17.655    5.2835
   17.670    5.1957
   17.685    5.1606
   17.700    4.9324
   17.715    5.4064
   17.730    5.3888
   17.745    5.2308
   17.760    4.9851
   17.775    4.4585
   17.790    4.8271
   17.805    4.6867
   17.820    4.8447
   17.835    5.0026
   17.850    5.1606
   17.865    5.2835
   17.880    5.0377
   17.895    5.4766
   17.910    5.5468
   17.925    5.9505
   17.940    5.5994
   17.955    5.7223
   17.970    5.7574
   17.985    5.2835
   18.000    5.4590
   18.015    5.4941
   18.030    5.2133
   18.045    4.9500
   18.060    5.0377
   18.075    4.9324
   18.090    4.7218
   18.105    5.2484
   18.120    5.1606
   18.135    4.7042
   18.150    5.0553
   18.165    4.8271
   18.180    4.8798
   18.195    4.8973
   18.210    5.0728
   18.225    4.8798
   18.240    5.1957
   18.255    4.9500
   18.270    5.4239
   18.285    4.6867
   18.300    4.7920
   18.315    5.2659
   18.330    5.4941
   18.345    5.8452
   18.360    5.5117
   18.375    6.1085
   18.390    6.0558
   18.405    6.0207
   18.420    5.5643
   18.435    5.5117
   18.450    5.5994
   18.465    4.9500
   18.480    5.0553
   18.495    4.8271
   18.510    4.6691
   18.525    4.9149
   18.540    5.2133
   18.555    5.3010
   18.570    5.3888
   18.585    5.4766
   18.600    5.2835
   18.615    5.0202
   18.630    4.8798
   18.645    5.1957
   18.660    4.4409
   18.675    4.7393
   18.690    4.9675
   18.705    4.8622
   18.720    5.1606
   18.735    5.3186
   18.750    5.1606
   18.765    5.3186
   18.780    5.5117
   18.795    5.0728
   18.810    5.5643
   18.825    5.5117
   18.840    4.9851
   18.855    5.2659
   18.870    4.7744
   18.885    4.8973
   18.900    4.9500
   18.915    4.7218
   18.930    4.7393
   18.945    5.1255
   18.960    5.5292
   18.975    4.9851
   18.990    4.8095
   19.005    4.5814
   19.020    4.5287
   19.035    5.1255
   19.050    4.8973
   19.065    4.2830
   19.080    4.4760
   19.095    5.1606
   19.110    5.3010
   19.125    5.0377
   19.140    5.0728
   19.155    4.6691
   19.170    4.6691
   19.185    5.0904
   19.200    5.3010
   19.215    4.9500
   19.230    4.8973
   19.245    5.3888
   19.260    5.3712
   19.275    5.1782
   19.290    4.9675
   19.305    4.8973
   19.320    5.1782
   19.335    4.8447
   19.350    4.8095
   19.365    4.7218
   19.380    4.9675
   19.395    4.8973
   19.410    5.0026
   19.425    4.7920
   19.440    4.9324
   19.455    5.6697
   19.470    4.9851
   19.485    5.0377
   19.500    4.9675
   19.515    5.0202
   19.530    5.4941
   19.545    5.8276
   19.560    5.8452
   19.575    6.2489
   19.590    6.0909
   19.605    6.6175
   19.620    6.7053
   19.635    6.2313
   19.650    5.4941
   19.665    5.1606
   19.680    4.9851
   19.695    5.3888
   19.710    5.4941
   19.725    5.1080
   19.740    4.7218
   19.755    5.0377
   19.770    5.3361
   19.785    5.1431
   19.800    4.9675
   19.815    4.5814
   19.830    4.9675
   19.845    4.6867
   19.860    4.8798
   19.875    5.0553
   19.890    4.7744
   19.905    5.2659
   19.920    4.8095
   19.935    4.8095
   19.950    4.9851
   19.965    4.8447
   19.980    5.4941
   19.995    5.4590
   20.010    5.3888
   20.025    4.7218
   20.040    4.6516
   20.055    4.8973
   20.070    5.1782
   20.085    5.3712
   20.100    4.9851
   20.115    4.9675
   20.130    5.0904
   20.145    4.7042
   20.160    5.1431
   20.175    5.1431
   20.190    5.2308
   20.205    4.7569
   20.220    5.1782
   20.235    5.2308
   20.250    5.5468
   20.265    6.0734
   20.280    6.0909
   20.295    5.5994
   20.310    6.2313
   20.325    6.6000
   20.340    7.0739
   20.355    7.6883
   20.370    8.4079
   20.385    8.2851
   20.400    7.9516
   20.415    7.4074
   20.430    6.7404
   20.445    6.0032
   20.460    5.8627
   20.475    5.8978
   20.490    5.6170
   20.505    5.3888
   20.520    4.9851
   20.535    4.8095
   20.550    5.1431
   20.565    4.7744
   20.580    4.7920
   20.595    5.1431
   20.610    4.8798
   20.625    4.8271
   20.640    4.6867
   20.655    4.7393
   20.670    5.0377
   20.685    5.0728
   20.700    5.1431
   20.715    5.0904
   20.730    4.8973
   20.745    5.0202
   20.760    4.6691
   20.775    4.7218
   20.790    4.9500
   20.805    4.8798
   20.820    4.6867
   20.835    4.8798
   20.850    4.6516
   20.865    4.7744
   20.880    5.1782
   20.895    5.0026
   20.910    5.4590
   20.925    4.8447
   20.940    4.8271
   20.955    5.0553
   20.970    5.0026
   20.985    5.0026
   21.000    5.0904
   21.015    4.9675
   21.030    5.0728
   21.045    4.9500
   21.060    4.7920
   21.075    4.4936
   21.090    4.8447
   21.105    4.8622
   21.120    5.0728
   21.135    4.7042
   21.150    4.6340
   21.165    4.7744
   21.180    4.9851
   21.195    5.0202
   21.210    4.9675
   21.225    5.0026
   21.240    5.0202
   21.255    4.9675
   21.270    4.8798
   21.285    4.7218
   21.300    4.8798
   21.315    5.0728
   21.330    5.1957
   21.345    4.9851
   21.360    4.9500
   21.375    5.1782
   21.390    5.2484
   21.405    5.0377
   21.420    5.2835
   21.435    5.1431
   21.450    5.1080
   21.465    5.5117
   21.480    5.1255
   21.495    4.9324
   21.510    4.5814
   21.525    4.7393
   21.540    5.1606
   21.555    4.9500
   21.570    4.7393
   21.585    4.7218
   21.600    4.8271
   21.615    4.5814
   21.630    5.2133
   21.645    5.2484
   21.660    5.0904
   21.675    4.8973
   21.690    4.7393
   21.705    5.2835
   21.720    4.9675
   21.735    5.3712
   21.750    4.8271
   21.765    5.4941
   21.780    5.6521
   21.795    5.8101
   21.810    5.3712
   21.825    5.4766
   21.840    5.5819
   21.855    5.6697
   21.870    5.4766
   21.885    5.8101
   21.900    6.0558
   21.915    5.6345
   21.930    5.7223
   21.945    5.9505
   21.960    5.2484
   21.975    5.1782
   21.990    5.0553
   22.005    4.7920
   22.020    5.0377
   22.035    5.4064
   22.050    5.0553
   22.065    5.2133
   22.080    5.0728
   22.095    5.4239
   22.110    4.8447
   22.125    5.3010
   22.140    5.3361
   22.155    5.3888
   22.170    5.3712
   22.185    5.3537
   22.200    6.0207
   22.215    6.1260
   22.230    5.3361
   22.245    5.1255
   22.260    5.0553
   22.275    5.6521
   22.290    5.6170
   22.305    5.1431
   22.320    5.1782
   22.335    5.3537
   22.350    5.0202
   22.365    5.0553
   22.380    5.4239
   22.395    5.4590
   22.410    5.3712
   22.425    5.5994
   22.440    4.9324
   22.455    5.3361
   22.470    6.0383
   22.485    6.2138
   22.500    6.6702
   22.515    7.0739
   22.530    8.0393
   22.545    8.8819
   22.560    8.4781
   22.575    8.2500
   22.590    8.6361
   22.605    8.0042
   22.620    7.1968
   22.635    7.0388
   22.650    6.4771
   22.665    6.0558
   22.680    5.8276
   22.695    5.8452
   22.710    5.2659
   22.725    5.1606
   22.740    5.3186
   22.755    5.4941
   22.770    5.2308
   22.785    5.5994
   22.800    5.7750
   22.815    6.0032
   22.830    6.1611
   22.845    6.1611
   22.860    6.6175
   22.875    7.5654
   22.890    8.3553
   22.905    8.5308
   22.920    8.7063
   22.935    8.3904
   22.950    8.0218
   22.965    7.9691
   22.980    6.9686
   22.995    6.1787
   23.010    5.4064
   23.025    5.4064
   23.040    5.1782
   23.055    5.1782
   23.070    5.3186
   23.085    5.0377
   23.100    4.9500
   23.115    5.0202
   23.130    5.3186
   23.145    5.2659
   23.160    4.8973
   23.175    5.4590
   23.190    5.9329
   23.205    6.4244
   23.220    5.7750
   23.235    5.5468
   23.250    5.4941
   23.265    6.0734
   23.280    6.0207
   23.295    6.2665
   23.310    5.7223
   23.325    5.6345
   23.340    5.5819
   23.355    5.7925
   23.370    5.4239
   23.385    5.1782
   23.400    5.3888
   23.415    4.8798
   23.430    4.9500
   23.445    5.2659
   23.460    5.2484
   23.475    4.9324
   23.490    5.4064
   23.505    5.1431
   23.520    4.9851
   23.535    5.8101
   23.550    5.6521
   23.565    5.2133
   23.580    5.0728
   23.595    5.3537
   23.610    5.3361
   23.625    5.4064
   23.640    5.0728
   23.655    5.2484
   23.670    5.0377
   23.685    5.0202
   23.700    5.0026
   23.715    5.0026
   23.730    5.2308
   23.745    5.1606
   23.760    4.6516
   23.775    4.9851
   23.790    5.2308
   23.805    5.5292
   23.820    5.8978
   23.835    5.6170
   23.850    5.5819
   23.865    5.3888
   23.880    5.4590
   23.895    6.0207
   23.910    5.6697
   23.925    5.8276
   23.940    5.8978
   23.955    5.5819
   23.970    5.4239
   23.985    5.4590
   24.000    5.4590
   24.015    4.9324
   24.030    5.2484
   24.045    4.7744
   24.060    4.7920
   24.075    4.7393
   24.090    4.7744
   24.105    4.4760
   24.120    4.7920
   24.135    4.8622
   24.150    4.8271
   24.165    4.5814
   24.180    4.9675
   24.195    5.1431
   24.210    4.8095
   24.225    5.1606
   24.240    4.9324
   24.255    5.2659
   24.270    4.9500
   24.285    4.8973
   24.300    5.0553
   24.315    4.9500
   24.330    5.4941
   24.345    4.9675
   24.360    4.9149
   24.375    5.0904
   24.390    5.1431
   24.405    4.7393
   24.420    5.1782
   24.435    4.8095
   24.450    4.8798
   24.465    4.7218
   24.480    5.0202
   24.495    4.7569
   24.510    5.0728
   24.525    5.1957
   24.540    5.1080
   24.555    5.0026
   24.570    5.1606
   24.585    5.5819
   24.600    5.2484
   24.615    4.8095
   24.630    4.7920
   24.645    5.3712
   24.660    5.0026
   24.675    4.5814
   24.690    5.2835
   24.705    4.8798
   24.720    5.2484
   24.735    4.8095
   24.750    4.8973
   24.765    4.8973
   24.780    4.4058
   24.795    4.5638
   24.810    4.7569
   24.825    4.8271
   24.840    5.0377
   24.855    5.0377
   24.870    5.5994
   24.885    5.3361
   24.900    5.2133
   24.915    4.4936
   24.930    4.9675
   24.945    4.7218
   24.960    4.3181
   24.975    4.5287
   24.990    4.7569
   25.005    4.7920
   25.020    4.7042
   25.035    5.2659
   25.050    5.2133
   25.065    5.2308
   25.080    4.8973
   25.095    5.1782
   25.110    4.4585
   25.125    4.7569
   25.140    4.6691
   25.155    5.0553
   25.170    5.5468
   25.185    5.6170
   25.200    5.4064
   25.215    5.3186
   25.230    5.5994
   25.245    5.5994
   25.260    5.7223
   25.275    5.0904
   25.290    5.4590
   25.305    4.8095
   25.320    5.1080
   25.335    4.9500
   25.350    5.1080
   25.365    4.5814
   25.380    4.7218
   25.395    4.7569
   25.410    4.7042
   25.425    5.0904
   25.440    5.0728
   25.455    5.1957
   25.470    5.3186
   25.485    5.7574
   25.500    5.6697
   25.515    5.6521
   25.530    5.7750
   25.545    5.6170
   25.560    5.1606
   25.575    5.0202
   25.590    4.5989
   25.605    5.1080
   25.620    5.1957
   25.635    5.3186
   25.650    4.7218
   25.665    5.0904
   25.680    4.9675
   25.695    5.3888
   25.710    5.2835
   25.725    5.5994
   25.740    5.6521
   25.755    5.7399
   25.770    5.7399
   25.785    6.6000
   25.800    7.0739
   25.815    7.2494
   25.830    7.5303
   25.845    7.2143
   25.860    7.4074
   25.875    6.8808
   25.890    7.1792
   25.905    6.4420
   25.920    5.6697
   25.935    5.3888
   25.950    5.3010
   25.965    5.0377
   25.980    5.1080
   25.995    4.8973
   26.010    5.0553
   26.025    4.7569
   26.040    4.6867
   26.055    4.9675
   26.070    4.9149
   26.085    4.8973
   26.100    5.0026
   26.115    4.9851
   26.130    4.9149
   26.145    4.8973
   26.160    5.4064
   26.175    4.8271
   26.190    4.5463
   26.205    4.6340
   26.220    5.2659
   26.235    4.5463
   26.250    4.7569
   26.265    5.0202
   26.280    4.7744
   26.295    4.8095
   26.310    5.1255
   26.325    4.8973
   26.340    5.1606
   26.355    4.8447
   26.370    5.0377
   26.385    5.0026
   26.400    5.0202
   26.415    5.4064
   26.430    5.6521
   26.445    5.3888
   26.460    5.2835
   26.475    5.7750
   26.490    5.2308
   26.505    5.0728
   26.520    5.2308
   26.535    4.6340
   26.550    4.7569
   26.565    4.7744
   26.580    4.8095
   26.595    4.5814
   26.610    4.9675
   26.625    4.7393
   26.640    4.7042
   26.655    4.5989
   26.670    4.4585
   26.685    4.9500
   26.700    4.6516
   26.715    4.6165
   26.730    4.3532
   26.745    4.3707
   26.760    4.5463
   26.775    4.4760
   26.790    4.8798
   26.805    5.1782
   26.820    4.7393
   26.835    4.5463
   26.850    4.7393
   26.865    4.5463
   26.880    4.5287
   26.895    4.5463
   26.910    5.0553
   26.925    5.0553
   26.940    5.3888
   26.955    5.6345
   26.970    5.1957
   26.985    4.8798
   27.000    5.7574
   27.015    5.6521
   27.030    5.7925
   27.045    5.7925
   27.060    6.2138
   27.075    5.3361
   27.090    5.6697
   27.105    5.4766
   27.120    4.8973
   27.135    4.5463
   27.150    5.1431
   27.165    4.5287
   27.180    4.7569
   27.195    4.6867
   27.210    4.2654
   27.225    4.7042
   27.240    4.6165
   27.255    4.9324
   27.270    4.8447
   27.285    4.1250
   27.300    4.4760
   27.315    4.3883
   27.330    4.7218
   27.345    4.5989
   27.360    4.5989
   27.375    4.9324
   27.390    4.6340
   27.405    4.7042
   27.420    4.9324
   27.435    4.9675
   27.450    4.6340
   27.465    4.8973
   27.480    4.6340
   27.495    4.3532
   27.510    5.0202
   27.525    5.1606
   27.540    5.0728
   27.555    4.8095
   27.570    4.6867
   27.585    5.1080
   27.600    4.5814
   27.615    5.1606
   27.630    5.6872
   27.645    5.7048
   27.660    5.5292
   27.675    5.4766
   27.690    5.1782
   27.705    4.7920
   27.720    4.9500
   27.735    4.9500
   27.750    4.3532
   27.765    5.2308
   27.780    4.7042
   27.795    4.4234
   27.810    4.7569
   27.825    4.4409
   27.840    4.4234
   27.855    4.6516
   27.870    4.4760
   27.885    4.8622
   27.900    4.8447
   27.915    4.9675
   27.930    5.1782
   27.945    4.8622
   27.960    4.9500
   27.975    4.7393
   27.990    4.9675
   28.005    4.6867
   28.020    4.7920
   28.035    4.3181
   28.050    4.8271
   28.065    4.7920
   28.080    4.6867
   28.095    5.0728
   28.110    5.7750
   28.125    5.2484
   28.140    5.3361
   28.155    5.4415
   28.170    5.6521
   28.185    6.0032
   28.200    5.7048
   28.215    5.8101
   28.230    5.2659
   28.245    5.1957
   28.260    5.0553
   28.275    5.2659
   28.290    4.6691
   28.305    4.9324
   28.320    4.4936
   28.335    5.1957
   28.350    5.3712
   28.365    5.2133
   28.380    5.2133
   28.395    5.4415
   28.410    5.2308
   28.425    5.3888
   28.440    5.3186
   28.455    5.3361
   28.470    5.3888
   28.485    5.6872
   28.500    5.9681
   28.515    5.6345
   28.530    5.5819
   28.545    4.8798
   28.560    4.5814
   28.575    4.6165
   28.590    4.4760
   28.605    4.2303
   28.620    4.2654
   28.635    4.7569
   28.650    4.8271
   28.665    4.6165
   28.680    4.5463
   28.695    4.1952
   28.710    4.8622
   28.725    4.5989
   28.740    4.5638
   28.755    4.6340
   28.770    4.9149
   28.785    4.6867
   28.800    4.7218
   28.815    4.6340
   28.830    4.5111
   28.845    4.6340
   28.860    4.4234
   28.875    4.3883
   28.890    4.8095
   28.905    4.5463
   28.920    4.8798
   28.935    4.3707
   28.950    4.8798
   28.965    4.6340
   28.980    4.6867
   28.995    4.5814
   29.010    4.0899
   29.025    4.3532
   29.040    4.5287
   29.055    4.3532
   29.070    4.6516
   29.085    4.8798
   29.100    4.8271
   29.115    4.4234
   29.130    4.3532
   29.145    4.6516
   29.160    4.6516
   29.175    4.6516
   29.190    4.2654
   29.205    4.6340
   29.220    5.0377
   29.235    4.8798
   29.250    5.1782
   29.265    5.0553
   29.280    5.5643
   29.295    5.3186
   29.310    4.4936
   29.325    5.2659
   29.340    5.1782
   29.355    5.1255
   29.370    4.8622
   29.385    4.7920
   29.400    4.7042
   29.415    4.7393
   29.430    5.0904
   29.445    4.9324
   29.460    4.5287
   29.475    4.3883
   29.490    4.3181
   29.505    4.3883
   29.520    4.4409
   29.535    4.7042
   29.550    4.4936
   29.565    4.1601
   29.580    4.7218
   29.595    4.1425
   29.610    4.1601
   29.625    4.3005
   29.640    4.4409
   29.655    4.5463
   29.670    4.7569
   29.685    4.3707
   29.700    4.2830
   29.715    4.3883
   29.730    4.6691
   29.745    4.4058
   29.760    4.3005
   29.775    4.3181
   29.790    4.4234
   29.805    4.3181
   29.820    4.3532
   29.835    4.3532
   29.850    4.8447
   29.865    4.2830
   29.880    4.4760
   29.895    4.3356
   29.910    4.8271
   29.925    4.8271
   29.940    4.4585
   29.955    4.7569
   29.970    4.7042
   29.985    4.0548
   30.000    4.2654
   30.015    4.5638
   30.030    4.4409
   30.045    4.5638
   30.060    4.2830
   30.075    4.7218
   30.090    4.6165
   30.105    4.4760
   30.120    4.8095
   30.135    4.3181
   30.150    4.3883
   30.165    4.5111
   30.180    4.4585
   30.195    4.5989
   30.210    4.1776
   30.225    4.4936
   30.240    4.2478
   30.255    4.5463
   30.270    4.8973
   30.285    4.3532
   30.300    4.2478
   30.315    4.1776
   30.330    4.6165
   30.345    4.6691
   30.360    4.6165
   30.375    4.6867
   30.390    4.9149
   30.405    4.4234
   30.420    4.6165
   30.435    4.7042
   30.450    4.4409
   30.465    4.6340
   30.480    4.1250
   30.495    4.3532
   30.510    4.4760
   30.525    4.4585
   30.540    4.2478
   30.555    4.7744
   30.570    4.7393
   30.585    4.8622
   30.600    5.1782
   30.615    4.7042
   30.630    4.9324
   30.645    4.5463
   30.660    4.4585
   30.675    4.9324
   30.690    4.7920
   30.705    4.4936
   30.720    4.8095
   30.735    4.4585
   30.750    4.9149
   30.765    4.1425
   30.780    4.4936
   30.795    4.7569
   30.810    4.7042
   30.825    4.4585
   30.840    4.3883
   30.855    4.2303
   30.870    4.1250
   30.885    4.2478
   30.900    4.3005
   30.915    4.4234
   30.930    4.4936
   30.945    4.7920
   30.960    4.6165
   30.975    4.5989
   30.990    4.4936
   31.005    4.3005
   31.020    4.4585
   31.035    4.5287
   31.050    4.8447
   31.065    4.5989
   31.080    4.3356
   31.095    4.3356
   31.110    4.3707
   31.125    3.9846
   31.140    3.8617
   31.155    4.1776
   31.170    4.1601
   31.185    4.8447
   31.200    4.7042
   31.215    4.6165
   31.230    4.6516
   31.245    4.1952
   31.260    4.4234
   31.275    4.6340
   31.290    4.1250
   31.305    4.1776
   31.320    4.1952
   31.335    4.1952
   31.350    4.5989
   31.365    4.5111
   31.380    4.3883
   31.395    4.5638
   31.410    4.8271
   31.425    4.4936
   31.440    4.7393
   31.455    4.7042
   31.470    4.5111
   31.485    4.8622
   31.500    4.3707
   31.515    4.3532
   31.530    4.3356
   31.545    4.3883
   31.560    4.1601
   31.575    4.4409
   31.590    4.5111
   31.605    5.0904
   31.620    4.8622
   31.635    4.3883
   31.650    4.3005
   31.665    4.5638
   31.680    4.9851
   31.695    5.4590
   31.710    4.5989
   31.725    5.1080
   31.740    4.9675
   31.755    4.7744
   31.770    4.8798
   31.785    5.3537
   31.800    5.1080
   31.815    4.5814
   31.830    4.4760
   31.845    4.5638
   31.860    4.7218
   31.875    4.4585
   31.890    4.5989
   31.905    4.5814
   31.920    4.6516
   31.935    4.2830
   31.950    4.0723
   31.965    4.1601
   31.980    4.1952
   31.995    4.1250
   32.010    4.1601
   32.025    4.2127
   32.040    4.1074
   32.055    4.1074
   32.070    4.0372
   32.085    4.5463
   32.100    4.2127
   32.115    4.3181
   32.130    4.2127
   32.145    4.2127
   32.160    4.3883
   32.175    4.3532
   32.190    4.4234
   32.205    3.9143
   32.220    4.3883
   32.235    4.4409
   32.250    4.3883
   32.265    4.4585
   32.280    4.6165
   32.295    3.9846
   32.310    3.9319
   32.325    4.1776
   32.340    4.0723
   32.355    4.0021
   32.370    4.3181
   32.385    4.3181
   32.400    4.0021
   32.415    4.3356
   32.430    4.4936
   32.445    4.4058
   32.460    4.3532
   32.475    4.1250
   32.490    4.2830
   32.505    4.1776
   32.520    4.1250
   32.535    4.0372
   32.550    4.1250
   32.565    4.0723
   32.580    4.1952
   32.595    4.0372
   32.610    4.1776
   32.625    4.2303
   32.640    4.5814
   32.655    4.2127
   32.670    4.1776
   32.685    4.2654
   32.700    4.1601
   32.715    4.2303
   32.730    3.9670
   32.745    4.1601
   32.760    4.2478
   32.775    4.3532
   32.790    4.0197
   32.805    4.2127
   32.820    4.4760
   32.835    4.1601
   32.850    4.1952
   32.865    4.3707
   32.880    4.7042
   32.895    4.6165
   32.910    4.5111
   32.925    4.4409
   32.940    4.3883
   32.955    4.6516
   32.970    4.3356
   32.985    3.9319
   33.000    4.0197
   33.015    4.1250
   33.030    3.7739
   33.045    4.1952
   33.060    3.8441
   33.075    4.1952
   33.090    3.8266
   33.105    3.8441
   33.120    3.7915
   33.135    3.7037
   33.150    4.0021
   33.165    3.8266
   33.180    3.9846
   33.195    4.3883
   33.210    4.2830
   33.225    3.9846
   33.240    3.6862
   33.255    3.9319
   33.270    3.5457
   33.285    4.0372
   33.300    3.7915
   33.315    3.4053
   33.330    3.8441
   33.345    4.0372
   33.360    4.0723
   33.375    4.3005
   33.390    4.1425
   33.405    3.9846
   33.420    3.8441
   33.435    4.0372
   33.450    4.2830
   33.465    4.0021
   33.480    3.7213
   33.495    3.7915
   33.510    3.8266
   33.525    3.9846
   33.540    3.9319
   33.555    4.0372
   33.570    4.0021
   33.585    4.1425
   33.600    4.2654
   33.615    3.6862
   33.630    4.2303
   33.645    4.3005
   33.660    4.3532
   33.675    4.0899
   33.690    4.2303
   33.705    3.7564
   33.720    3.7915
   33.735    4.5111
   33.750    4.1425
   33.765    4.0899
   33.780    3.9670
   33.795    4.1601
   33.810    4.5814
   33.825    4.3181
   33.840    4.1250
   33.855    4.6516
   33.870    4.8447
   33.885    4.5638
   33.900    4.9324
   33.915    5.1782
   33.930    5.3010
   33.945    4.7042
   33.960    5.4239
   33.975    4.5463
   33.990    4.7569
   34.005    4.6691
   34.020    4.2654
   34.035    4.1952
   34.050    3.9319
   34.065    4.0899
   34.080    3.8968
   34.095    4.1601
   34.110    4.0372
   34.125    3.8441
   34.140    3.9494
   34.155    4.3181
   34.170    4.0723
   34.185    3.9494
   34.200    4.0197
   34.215    3.6335
   34.230    3.8617
   34.245    4.1601
   34.260    4.0021
   34.275    3.7915
   34.290    3.5282
   34.305    4.4234
   34.320    4.2478
   34.335    4.0548
   34.350    4.1601
   34.365    4.0197
   34.380    4.0723
   34.395    4.2654
   34.410    3.9846
   34.425    3.6335
   34.440    4.1776
   34.455    4.1425
   34.470    3.7915
   34.485    3.8617
   34.500    4.1250
   34.515    3.8266
   34.530    4.0548
   34.545    3.4931
   34.560    3.6686
   34.575    4.2654
   34.590    3.7915
   34.605    3.9143
   34.620    3.6862
   34.635    4.0723
   34.650    4.2127
   34.665    3.7213
   34.680    3.7915
   34.695    3.9143
   34.710    3.8441
   34.725    4.0899
   34.740    3.9846
   34.755    4.4409
   34.770    4.2654
   34.785    4.3005
   34.800    4.1074
   34.815    3.9319
   34.830    3.8792
   34.845    3.9670
   34.860    4.2127
   34.875    4.2830
   34.890    4.2127
   34.905    3.9494
   34.920    3.4931
   34.935    3.9143
   34.950    3.5282
   34.965    3.5282
   34.980    4.1250
   34.995    3.8090
   35.010    3.7037
   35.025    3.8968
   35.040    3.7915
   35.055    3.5282
   35.070    3.5808
   35.085    3.6686
   35.100    3.5984
   35.115    3.2649
   35.130    3.7388
   35.145    4.0548
   35.160    3.7915
   35.175    3.3702
   35.190    3.5808
   35.205    3.6159
   35.220    3.7388
   35.235    3.3351
   35.250    4.1250
   35.265    3.9670
   35.280    4.2303
   35.295    4.0021
   35.310    3.7213
   35.325    3.5633
   35.340    3.2649
   35.355    3.8266
   35.370    4.0548
   35.385    3.4755
   35.400    3.5106
   35.415    3.9494
   35.430    3.6686
   35.445    3.5282
   35.460    3.6686
   35.475    3.4755
   35.490    3.5808
   35.505    3.6335
   35.520    3.8968
   35.535    4.0723
   35.550    3.4755
   35.565    3.4229
   35.580    3.6335
   35.595    3.5282
   35.610    3.6335
   35.625    3.3877
   35.640    3.4229
   35.655    4.1074
   35.670    3.8968
   35.685    3.8266
   35.700    3.7739
   35.715    3.7037
   35.730    3.7213
   35.745    3.7564
   35.760    4.0197
   35.775    3.8968
   35.790    3.5457
   35.805    3.6159
   35.820    3.6510
   35.835    3.9846
   35.850    4.1425
   35.865    4.0548
   35.880    4.0197
   35.895    3.6159
   35.910    3.6862
   35.925    4.1250
   35.940    3.5633
   35.955    3.5633
   35.970    3.5457
   35.985    3.9846
   36.000    3.8090
   36.015    4.1601
   36.030    4.0548
   36.045    3.7915
   36.060    3.8441
   36.075    3.8090
   36.090    3.5633
   36.105    3.4755
   36.120    3.8441
   36.135    3.6510
   36.150    3.6335
   36.165    3.9670
   36.180    3.9143
   36.195    3.5808
   36.210    3.3351
   36.225    3.5457
   36.240    3.8266
   36.255    4.1074
   36.270    3.9494
   36.285    3.7915
   36.300    3.8617
   36.315    3.8968
   36.330    4.0723
   36.345    3.7915
   36.360    3.7739
   36.375    4.1250
   36.390    4.0021
   36.405    3.6159
   36.420    4.1601
   36.435    3.9319
   36.450    3.8441
   36.465    3.8090
   36.480    3.5984
   36.495    3.5282
   36.510    3.8617
   36.525    3.7564
   36.540    4.0899
   36.555    3.8792
   36.570    3.7037
   36.585    3.7388
   36.600    3.5808
   36.615    3.5106
   36.630    3.6510
   36.645    3.8090
   36.660    3.5984
   36.675    3.9846
   36.690    3.8968
   36.705    3.5633
   36.720    3.7388
   36.735    3.3877
   36.750    3.4053
   36.765    4.1601
   36.780    3.7564
   36.795    3.4229
   36.810    3.6159
   36.825    3.7564
   36.840    3.5633
   36.855    3.8441
   36.870    3.5808
   36.885    3.1947
   36.900    3.4580
   36.915    3.5106
   36.930    3.4404
   36.945    3.3351
   36.960    3.7213
   36.975    3.5633
   36.990    3.6686
   37.005    3.7388
   37.020    4.0548
   37.035    4.0021
   37.050    3.7739
   37.065    3.8968
   37.080    4.0899
   37.095    4.2830
   37.110    3.9670
   37.125    3.8441
   37.140    3.9846
   37.155    4.0723
   37.170    3.7739
   37.185    4.2654
   37.200    4.1425
   37.215    3.7739
   37.230    3.8441
   37.245    3.5106
   37.260    3.4931
   37.275    3.4229
   37.290    3.6159
   37.305    3.1771
   37.320    3.5808
   37.335    3.5457
   37.350    3.5984
   37.365    3.6335
   37.380    3.4053
   37.395    3.2824
   37.410    3.6159
   37.425    3.3175
   37.440    3.6510
   37.455    3.7213
   37.470    3.7388
   37.485    3.1245
   37.500    3.5808
   37.515    3.2122
   37.530    3.5457
   37.545    3.6686
   37.560    3.5984
   37.575    3.5633
   37.590    3.5984
   37.605    3.5457
   37.620    3.5457
   37.635    3.5633
   37.650    3.6159
   37.665    3.5808
   37.680    3.4755
   37.695    3.6335
   37.710    3.7915
   37.725    3.6159
   37.740    3.9494
   37.755    3.5457
   37.770    3.4931
   37.785    3.6862
   37.800    3.1596
   37.815    3.4229
   37.830    3.8968
   37.845    3.9494
   37.860    3.4755
   37.875    3.4053
   37.890    3.6335
   37.905    3.4755
   37.920    3.4755
   37.935    3.9846
   37.950    3.9319
   37.965    3.6862
   37.980    3.8266
   37.995    3.7213
   38.010    4.0723
   38.025    3.8441
   38.040    3.6159
   38.055    3.4580
   38.070    3.9143
   38.085    3.5106
   38.100    3.8266
   38.115    3.3877
   38.130    3.4229
   38.145    3.4580
   38.160    3.4053
   38.175    3.8617
   38.190    3.6862
   38.205    3.5984
   38.220    3.7037
   38.235    3.5984
   38.250    3.3877
   38.265    3.5808
   38.280    3.4755
   38.295    3.5106
   38.310    3.3877
   38.325    3.5808
   38.340    3.4755
   38.355    3.0542
   38.370    3.2298
   38.385    3.4229
   38.400    3.5457
   38.415    3.5633
   38.430    3.5457
   38.445    3.5457
   38.460    3.7915
   38.475    3.8968
   38.490    3.4404
   38.505    3.4755
   38.520    3.4053
   38.535    3.3526
   38.550    3.4229
   38.565    3.7388
   38.580    3.2473
   38.595    3.7037
   38.610    3.3000
   38.625    3.3000
   38.640    3.4931
   38.655    3.3000
   38.670    3.7037
   38.685    3.9846
   38.700    3.7564
   38.715    3.5282
   38.730    3.3877
   38.745    3.2824
   38.760    3.3175
   38.775    3.4229
   38.790    3.7739
   38.805    3.4404
   38.820    3.8090
   38.835    3.9143
   38.850    3.5633
   38.865    4.0197
   38.880    3.8968
   38.895    3.7213
   38.910    3.5282
   38.925    3.6510
   38.940    3.5106
   38.955    3.2122
   38.970    3.0542
   38.985    3.4755
   39.000    3.4229
   39.015    3.3877
   39.030    3.4931
   39.045    3.7564
   39.060    3.4755
   39.075    3.5808
   39.090    3.2473
   39.105    3.0542
   39.120    3.1947
   39.135    3.5633
   39.150    3.2649
   39.165    3.4053
   39.180    3.4755
   39.195    3.4404
   39.210    3.6510
   39.225    3.5106
   39.240    3.7213
   39.255    3.3877
   39.270    3.6510
   39.285    3.7213
   39.300    3.6862
   39.315    3.6159
   39.330    3.7739
   39.345    3.2649
   39.360    3.3175
   39.375    3.4229
   39.390    3.5633
   39.405    3.0542
   39.420    3.2298
   39.435    3.2473
   39.450    3.7564
   39.465    3.4580
   39.480    3.1245
   39.495    3.3351
   39.510    3.3702
   39.525    3.1947
   39.540    3.0718
   39.555    3.3000
   39.570    3.4755
   39.585    3.5984
   39.600    3.5633
   39.615    3.3526
   39.630    3.4053
   39.645    3.5106
   39.660    3.6335
   39.675    3.8617
   39.690    3.3877
   39.705    3.7739
   39.720    3.8792
   39.735    3.7213
   39.750    3.8968
   39.765    3.5282
   39.780    3.7037
   39.795    3.4931
   39.810    3.1947
   39.825    3.4053
   39.840    3.4580
   39.855    3.5106
   39.870    3.1596
   39.885    3.5984
   39.900    3.3175
   39.915    3.3000
   39.930    3.3877
   39.945    3.3351
   39.960    3.1771
   39.975    3.5282
   39.990    3.8266
