    1.500   20.7162
    1.515   20.6951
    1.530   20.7372
    1.545   20.4002
    1.560   19.9789
    1.575   19.8842
    1.590   20.0105
    1.605   18.9468
    1.620   18.9995
    1.635   19.3786
    1.650   18.8204
    1.665   18.5045
    1.680   18.9995
    1.695   19.0100
    1.710   18.8099
    1.725   18.5255
    1.740   18.8731
    1.755   19.1890
    1.770   18.5677
    1.785   18.3570
    1.800   18.2833
    1.815   18.5677
    1.830   18.7467
    1.845   18.1359
    1.860   18.3992
    1.875   17.6830
    1.890   17.9779
    1.905   18.3360
    1.920   18.2201
    1.935   18.5045
    1.950   18.3465
    1.965   18.2412
    1.980   18.9679
    1.995   17.5040
    2.010   17.9463
    2.025   18.0621
    2.040   18.0832
    2.055   17.9674
    2.070   18.2306
    2.085   18.7151
    2.100   18.4729
    2.115   19.0732
    2.130   18.5782
    2.145   18.7046
    2.160   19.2838
    2.175   19.1785
    2.190   18.8204
    2.205   19.3154
    2.220   18.7046
    2.235   19.6525
    2.250   19.9579
    2.265   20.0737
    2.280   19.8315
    2.295   20.1896
    2.310   19.8526
    2.325   20.5898
    2.340   19.9052
    2.355   20.5582
    2.370   19.9473
    2.385   20.8426
    2.400   20.8426
    2.415   21.8747
    2.430   21.7588
    2.445   22.0432
    2.460   22.7172
    2.475   22.1590
    2.490   23.2017
    2.505   23.3807
    2.520   24.7077
    2.535   24.8763
    2.550   24.2759
    2.565   24.0864
    2.580   25.1080
    2.595   25.3291
    2.610   26.1927
    2.625   26.4244
    2.640   26.9194
    2.655   26.9510
    2.670   27.7304
    2.685   27.7304
    2.700   28.4466
    2.715   29.5313
    2.730   30.3212
    2.745   30.3318
    2.760   30.9742
    2.775   32.5224
    2.790   32.6382
    2.805   32.5434
    2.820   33.2596
    2.835   34.9342
    2.850   35.5134
    2.865   36.1137
    2.880   36.9458
    2.895   37.8936
    2.910   38.7994
    2.925   40.3476
    2.940   40.8952
    2.955   41.5587
    2.970   43.6651
    2.985   44.6972
    3.000   46.2665
    3.015   47.7725
    3.030   49.0679
    3.045   50.9005
    3.060   52.9753
    3.075   53.0700
    3.090   54.4708
    3.105   57.6619
    3.120   59.1259
    3.135   61.1374
    3.150   63.2228
    3.165   67.0353
    3.180   68.9521
    3.195   72.1959
    3.210   73.9231
    3.225   77.7357
    3.240   81.0848
    3.255   84.3286
    3.270   88.0990
    3.285   92.9437
    3.300   98.4834
    3.315  103.6019
    3.330  110.2475
    3.345  117.7778
    3.360  125.4660
    3.375  133.1332
    3.390  141.4534
    3.405  148.9205
    3.420  158.2728
    3.435  161.2533
    3.450  159.7894
    3.465  154.5340
    3.480  144.5392
    3.495  129.7314
    3.510  113.7862
    3.525   97.0722
    3.540   81.9589
    3.555   68.9521
    3.570   59.2312
    3.585   54.1864
    3.600   49.1627
    3.615   45.9189
    3.630   43.1806
    3.645   42.1801
    3.660   40.8320
    3.675   39.7578
    3.690   40.0421
    3.705   40.0316
    3.720   39.4523
    3.735   40.4107
    3.750   41.1374
    3.765   41.4955
    3.780   42.0537
    3.795   43.6440
    3.810   43.6230
    3.825   45.0764
    3.840   46.9300
    3.855   47.4460
    3.870   50.5319
    3.885   51.1111
    3.900   51.5956
    3.915   53.5650
    3.930   55.3344
    3.945   57.3881
    3.960   60.4950
    3.975   61.0743
    3.990   62.4539
    4.005   65.3186
    4.020   66.3086
    4.035   68.2254
    4.050   68.8362
    4.065   70.4581
    4.080   70.2896
    4.095   70.7320
    4.110   70.7320
    4.125   70.2370
    4.140   69.9526
    4.155   68.6256
    4.170   66.8352
    4.185   64.7393
    4.200   63.2754
    4.215   61.6851
    4.230   58.3254
    4.245   54.9131
    4.260   51.1427
    4.275   48.3307
    4.290   44.6972
    4.305   41.8115
    4.320   38.0516
    4.335   34.3971
    4.350   31.0058
    4.365   28.5413
    4.380   25.6872
    4.395   23.5282
    4.410   21.4113
    4.425   19.4523
    4.440   17.8831
    4.455   16.5456
    4.470   15.7030
    4.485   14.8078
    4.500   13.7019
    4.515   12.5013
    4.530   12.1538
    4.545   11.4903
    4.560   10.8268
    4.575   10.9531
    4.590   10.2580
    4.605   10.2264
    4.620    9.3944
    4.635    9.3102
    4.650    8.7836
    4.665    8.7730
    4.680    8.5203
    4.695    8.7204
    4.710    8.3518
    4.725    8.3307
    4.740    8.4466
    4.755    8.1201
    4.770    7.8884
    4.785    8.0674
    4.800    8.3623
    4.815    7.9726
    4.830    7.6145
    4.845    7.6567
    4.860    7.4882
    4.875    7.4355
    4.890    7.5408
    4.905    7.3091
    4.920    7.0248
    4.935    6.8141
    4.950    6.8036
    4.965    6.9300
    4.980    7.1933
    4.995    7.2459
    5.010    7.0248
    5.025    6.9721
    5.040    7.2038
    5.055    6.9826
    5.070    6.7930
    5.085    7.1301
    5.100    6.9616
    5.115    6.7720
    5.130    6.6561
    5.145    6.8036
    5.160    6.6351
    5.175    6.6035
    5.190    6.8457
    5.205    6.6772
    5.220    6.4982
    5.235    6.6877
    5.250    7.0248
    5.265    6.3191
    5.280    6.6140
    5.295    6.9194
    5.310    6.4771
    5.325    6.2559
    5.340    6.5719
    5.355    6.2665
    5.370    6.4982
    5.385    6.5192
    5.400    6.3928
    5.415    6.4876
    5.430    6.4139
    5.445    6.4560
    5.460    6.3507
    5.475    6.2981
    5.490    6.4666
    5.505    6.1190
    5.520    6.4876
    5.535    6.4244
    5.550    6.5508
    5.565    6.4560
    5.580    6.4771
    5.595    6.0137
    5.610    5.9084
    5.625    5.9716
    5.640    6.0979
    5.655    6.1190
    5.670    6.0979
    5.685    5.7609
    5.700    5.6872
    5.715    5.9926
    5.730    5.6451
    5.745    5.3712
    5.760    5.9505
    5.775    5.9716
    5.790    6.0664
    5.805    6.0453
    5.820    5.5924
    5.835    5.3291
    5.850    5.8662
    5.865    5.7609
    5.880    6.0874
    5.895    6.0979
    5.910    5.7399
    5.925    5.6451
    5.940    5.8662
    5.955    5.8662
    5.970    5.9821
    5.985    6.2033
    6.000    6.0769
    6.015    5.7715
    6.030    5.6345
    6.045    5.8347
    6.060    5.6451
    6.075    5.8873
    6.090    5.9294
    6.105    6.1506
    6.120    6.0769
    6.135    5.8347
    6.150    5.8452
    6.165    5.8241
    6.180    6.0558
    6.195    6.6667
    6.210    6.0348
    6.225    6.0032
    6.240    6.3402
    6.255    6.2770
    6.270    6.5508
    6.285    5.7504
    6.300    6.1717
    6.315    6.5719
    6.330    6.6140
    6.345    6.6561
    6.360    6.4034
    6.375    6.9194
    6.390    6.7825
    6.405    6.8878
    6.420    6.8562
    6.435    7.1933
    6.450    7.1195
    6.465    7.2880
    6.480    6.9616
    6.495    7.0669
    6.510    7.7514
    6.525    7.5829
    6.540    7.8778
    6.555    8.0885
    6.570    7.8146
    6.585    7.9516
    6.600    8.2254
    6.615    8.4992
    6.630    8.6993
    6.645    9.3839
    6.660    9.5735
    6.675    9.6682
    6.690   10.0158
    6.705   11.2164
    6.720   10.9215
    6.735   11.0585
    6.750   12.0274
    6.765   12.2486
    6.780   13.2912
    6.795   13.2912
    6.810   13.3544
    6.825   14.5024
    6.840   16.2717
    6.855   16.8931
    6.870   17.8199
    6.885   19.3786
    6.900   19.5893
    6.915   19.7894
    6.930   20.3160
    6.945   21.8220
    6.960   20.8320
    6.975   19.1153
    6.990   18.3886
    7.005   16.4613
    7.020   15.1975
    7.035   12.8805
    7.050   11.3428
    7.065   10.2264
    7.080    9.5735
    7.095    8.9521
    7.110    8.2886
    7.125    7.7725
    7.140    7.4460
    7.155    7.3407
    7.170    6.9616
    7.185    6.6561
    7.200    6.5929
    7.215    6.7930
    7.230    6.8668
    7.245    6.8773
    7.260    6.4350
    7.275    6.0874
    7.290    6.0664
    7.305    6.3507
    7.320    6.2454
    7.335    6.0979
    7.350    6.1822
    7.365    6.2665
    7.380    6.2981
    7.395    6.4560
    7.410    6.4350
    7.425    6.3507
    7.440    6.4455
    7.455    6.0874
    7.470    6.3402
    7.485    6.0769
    7.500    6.3086
    7.515    6.6456
    7.530    6.5192
    7.545    6.4139
    7.560    6.3718
    7.575    6.3086
    7.590    6.5508
    7.605    6.9300
    7.620    6.6140
    7.635    6.4560
    7.650    6.5192
    7.665    6.7088
    7.680    6.8668
    7.695    7.0353
    7.710    6.7825
    7.725    6.8246
    7.740    6.6983
    7.755    7.3828
    7.770    7.3828
    7.785    7.2249
    7.800    7.1722
    7.815    7.3196
    7.830    7.4776
    7.845    7.6672
    7.860    7.4776
    7.875    7.7409
    7.890    8.1095
    7.905    8.1622
    7.920    8.2254
    7.935    8.3096
    7.950    8.4781
    7.965    8.6783
    7.980    8.5413
    7.995    8.4466
    8.010    8.8889
    8.025    9.1522
    8.040    9.2680
    8.055    9.3944
    8.070    9.6788
    8.085   10.0579
    8.100    9.7736
    8.115   10.2791
    8.130    9.9737
    8.145   10.0158
    8.160   10.8478
    8.175   10.4897
    8.190   10.4265
    8.205   10.6372
    8.220   10.9005
    8.235   10.7952
    8.250   11.1111
    8.265   11.0374
    8.280   11.1427
    8.295   10.8373
    8.310   11.1006
    8.325   11.3217
    8.340   11.3007
    8.355   11.3217
    8.370   11.8273
    8.385   11.4903
    8.400   11.0585
    8.415   10.8689
    8.430   11.0163
    8.445   10.6898
    8.460   10.8478
    8.475   10.3212
    8.490   10.6688
    8.505   10.4897
    8.520   10.8794
    8.535   10.3633
    8.550   10.3844
    8.565   10.3844
    8.580    9.9210
    8.595    9.6367
    8.610    9.7104
    8.625    9.0153
    8.640    8.8994
    8.655    8.9837
    8.670    8.8468
    8.685    8.6151
    8.700    8.0674
    8.715    8.1201
    8.730    8.0990
    8.745    7.7514
    8.760    7.5724
    8.775    7.5935
    8.790    7.2986
    8.805    6.9616
    8.820    7.3302
    8.835    7.2354
    8.850    6.3823
    8.865    6.4139
    8.880    6.6877
    8.895    6.6351
    8.910    6.0769
    8.925    6.3086
    8.940    6.3296
    8.955    6.0664
    8.970    6.3718
    8.985    6.3507
    9.000    6.1085
    9.015    5.5187
    9.030    5.6345
    9.045    5.6661
    9.060    5.8241
    9.075    6.0558
    9.090    5.9189
    9.105    5.5082
    9.120    5.5398
    9.135    6.2981
    9.150    5.4555
    9.165    5.0974
    9.180    5.2659
    9.195    5.7504
    9.210    5.2343
    9.225    5.1817
    9.240    5.2027
    9.255    5.5292
    9.270    5.6135
    9.285    5.5082
    9.300    5.6240
    9.315    5.1922
    9.330    4.6656
    9.345    5.1080
    9.360    5.4239
    9.375    5.5714
    9.390    5.8031
    9.405    5.4344
    9.420    5.2027
    9.435    5.2238
    9.450    5.4766
    9.465    5.2449
    9.480    5.3186
    9.495    5.4028
    9.510    5.7820
    9.525    5.4028
    9.540    5.2343
    9.555    5.7083
    9.570    5.6240
    9.585    5.5819
    9.600    5.4239
    9.615    5.2449
    9.630    5.3397
    9.645    5.2870
    9.660    4.8763
    9.675    5.2554
    9.690    5.7715
    9.705    5.2027
    9.720    5.1817
    9.735    5.3397
    9.750    5.2659
    9.765    5.5503
    9.780    5.4134
    9.795    5.2238
    9.810    5.3081
    9.825    5.2765
    9.840    5.5398
    9.855    5.1080
    9.870    5.2659
    9.885    5.0764
    9.900    5.1606
    9.915    5.6029
    9.930    5.4344
    9.945    5.1606
    9.960    5.2238
    9.975    4.9921
    9.990    5.0553
   10.005    5.0658
   10.020    5.5187
   10.035    4.9710
   10.050    5.1080
   10.065    5.1711
   10.080    5.5924
   10.095    5.4555
   10.110    5.1922
   10.125    5.5187
   10.140    5.5082
   10.155    5.1922
   10.170    5.5714
   10.185    5.2975
   10.200    5.4134
   10.215    5.8241
   10.230    5.6872
   10.245    5.6135
   10.260    5.8031
   10.275    5.7609
   10.290    5.7715
   10.305    6.1717
   10.320    5.9821
   10.335    6.0664
   10.350    5.8347
   10.365    5.8873
   10.380    6.0453
   10.395    6.3928
   10.410    6.4455
   10.425    6.0032
   10.440    5.9716
   10.455    6.3086
   10.470    6.4666
   10.485    6.3718
   10.500    5.9294
   10.515    6.1085
   10.530    6.0874
   10.545    5.5608
   10.560    5.5819
   10.575    5.9821
   10.590    5.7609
   10.605    5.7399
   10.620    5.3712
   10.635    5.4344
   10.650    5.3502
   10.665    5.2554
   10.680    5.1185
   10.695    5.8136
   10.710    5.9400
   10.725    5.7293
   10.740    5.3923
   10.755    5.4555
   10.770    5.3502
   10.785    5.4239
   10.800    5.6661
   10.815    5.5398
   10.830    5.5714
   10.845    5.3397
   10.860    5.3923
   10.875    5.3081
   10.890    5.2765
   10.905    5.0869
   10.920    5.1817
   10.935    5.3818
   10.950    5.8241
   10.965    5.6872
   10.980    5.3607
   10.995    5.4028
   11.010    5.4450
   11.025    5.1922
   11.040    5.3818
   11.055    5.1080
   11.070    5.2238
   11.085    5.1290
   11.100    5.4344
   11.115    5.5187
   11.130    5.2027
   11.145    5.2449
   11.160    5.4660
   11.175    5.1290
   11.190    4.9605
   11.205    5.4028
   11.220    5.1711
   11.235    5.2870
   11.250    5.0764
   11.265    4.9921
   11.280    5.2659
   11.295    5.6556
   11.310    5.3923
   11.325    5.2449
   11.340    5.5082
   11.355    5.0237
   11.370    5.1395
   11.385    5.1395
   11.400    5.2554
   11.415    5.3186
   11.430    5.3818
   11.445    5.2133
   11.460    5.3397
   11.475    5.2343
   11.490    5.1817
   11.505    5.4871
   11.520    5.0869
   11.535    4.7288
   11.550    5.1080
   11.565    5.2765
   11.580    5.4660
   11.595    5.6451
   11.610    5.3291
   11.625    5.3607
   11.640    5.1501
   11.655    5.1501
   11.670    5.2765
   11.685    5.4555
   11.700    5.2975
   11.715    5.4555
   11.730    5.4239
   11.745    5.2870
   11.760    5.3291
   11.775    5.4871
   11.790    5.3291
   11.805    5.4450
   11.820    5.6240
   11.835    5.6872
   11.850    5.9189
   11.865    5.6556
   11.880    5.6029
   11.895    5.5292
   11.910    5.5292
   11.925    5.6029
   11.940    5.4555
   11.955    5.4660
   11.970    5.4555
   11.985    5.8768
   12.000    5.5714
   12.015    5.6661
   12.030    6.0242
   12.045    5.6661
   12.060    5.7609
   12.075    5.7925
   12.090    5.5187
   12.105    5.6977
   12.120    5.8873
   12.135    5.8136
   12.150    6.0874
   12.165    5.8873
   12.180    5.7504
   12.195    6.2875
   12.210    6.4666
   12.225    5.7925
   12.240    5.7715
   12.255    5.9926
   12.270    5.7820
   12.285    6.3507
   12.300    6.2349
   12.315    5.9716
   12.330    6.2033
   12.345    6.0137
   12.360    5.8768
   12.375    6.1717
   12.390    6.0874
   12.405    5.9821
   12.420    6.2349
   12.435    6.3823
   12.450    6.4666
   12.465    6.1927
   12.480    6.2981
   12.495    6.4771
   12.510    6.4139
   12.525    6.2981
   12.540    6.2559
   12.555    6.6140
   12.570    6.4666
   12.585    6.3718
   12.600    6.6035
   12.615    6.3296
   12.630    6.4560
   12.645    5.8347
   12.660    6.1401
   12.675    6.4666
   12.690    6.0558
   12.705    6.3718
   12.720    6.3086
   12.735    6.4876
   12.750    6.2559
   12.765    6.2349
   12.780    6.3823
   12.795    5.9505
   12.810    5.9294
   12.825    6.1401
   12.840    6.2349
   12.855    6.2243
   12.870    6.0453
   12.885    5.8978
   12.900    6.2454
   12.915    6.0348
   12.930    5.7293
   12.945    5.6661
   12.960    5.7504
   12.975    6.1190
   12.990    6.0664
   13.005    5.7083
   13.020    6.0348
   13.035    5.8978
   13.050    6.0242
   13.065    5.7820
   13.080    5.7504
   13.095    5.9821
   13.110    6.1190
   13.125    5.9400
   13.140    5.6872
   13.155    5.4660
   13.170    5.8557
   13.185    6.1611
   13.200    6.1717
   13.215    6.1717
   13.230    6.3086
   13.245    5.9505
   13.260    5.5187
   13.275    5.6556
   13.290    5.5187
   13.305    5.3923
   13.320    5.7293
   13.335    5.8452
   13.350    5.9400
   13.365    5.6767
   13.380    5.9505
   13.395    5.7293
   13.410    5.6661
   13.425    5.4344
   13.440    5.8452
   13.455    5.7715
   13.470    5.6345
   13.485    5.7715
   13.500    5.8978
   13.515    5.5082
   13.530    5.7925
   13.545    5.8873
   13.560    5.8452
   13.575    5.6240
   13.590    5.6977
   13.605    6.0664
   13.620    5.9294
   13.635    6.1085
   13.650    5.5503
   13.665    5.8136
   13.680    5.8241
   13.695    6.1401
   13.710    5.7188
   13.725    6.2559
   13.740    5.8978
   13.755    5.7715
   13.770    5.6661
   13.785    5.8136
   13.800    5.7609
   13.815    5.8136
   13.830    5.8347
   13.845    6.0664
   13.860    6.0664
   13.875    5.8136
   13.890    5.8241
   13.905    5.9505
   13.920    6.0137
   13.935    5.8662
   13.950    5.3923
   13.965    5.5608
   13.980    5.6240
   13.995    5.5714
   14.010    5.0448
   14.025    5.5714
   14.040    5.5924
   14.055    5.4766
   14.070    5.6767
   14.085    5.8241
   14.100    5.7820
   14.115    5.6029
   14.130    5.2554
   14.145    5.7399
   14.160    5.6767
   14.175    5.4028
   14.190    5.7188
   14.205    5.1922
   14.220    5.1185
   14.235    5.2870
   14.250    5.0026
   14.265    5.2449
   14.280    5.0974
   14.295    5.3502
   14.310    5.4766
   14.325    5.2133
   14.340    5.2554
   14.355    5.2343
   14.370    5.2554
   14.385    5.5187
   14.400    5.3712
   14.415    5.0869
   14.430    5.2027
   14.445    5.5292
   14.460    5.2343
   14.475    4.8236
   14.490    4.7604
   14.505    5.1395
   14.520    4.9816
   14.535    4.9289
   14.550    4.9816
   14.565    5.3818
   14.580    5.0448
   14.595    5.2027
   14.610    5.0132
   14.625    4.9184
   14.640    5.2238
   14.655    4.8552
   14.670    5.1080
   14.685    5.5819
   14.700    5.3818
   14.715    5.1080
   14.730    5.2027
   14.745    5.2343
   14.760    5.4976
   14.775    5.2659
   14.790    5.4239
   14.805    5.1817
   14.820    5.0974
   14.835    4.9500
   14.850    5.0869
   14.865    4.8973
   14.880    4.7393
   14.895    5.2343
   14.910    5.0237
   14.925    5.2238
   14.940    4.9605
   14.955    4.8973
   14.970    5.0132
   14.985    4.9605
   15.000    5.6556
   15.015    5.1185
   15.030    5.2133
   15.045    5.2343
   15.060    5.0553
   15.075    5.0869
   15.090    5.0342
   15.105    5.3712
   15.120    5.1817
   15.135    5.1501
   15.150    5.1817
   15.165    5.0237
   15.180    5.0448
   15.195    5.2133
   15.210    5.2343
   15.225    5.1080
   15.240    5.1606
   15.255    5.0553
   15.270    5.1922
   15.285    5.3818
   15.300    4.9500
   15.315    4.7183
   15.330    4.8552
   15.345    5.1817
   15.360    5.2343
   15.375    5.0974
   15.390    5.0342
   15.405    5.3818
   15.420    5.2343
   15.435    5.1922
   15.450    5.3397
   15.465    5.2554
   15.480    5.3818
   15.495    5.7188
   15.510    5.6029
   15.525    5.5082
   15.540    5.4134
   15.555    5.4976
   15.570    5.3186
   15.585    4.9710
   15.600    5.2027
   15.615    5.0764
   15.630    5.2133
   15.645    5.3291
   15.660    5.4134
   15.675    5.8557
   15.690    5.3397
   15.705    5.6135
   15.720    5.6135
   15.735    5.4766
   15.750    5.5924
   15.765    5.5819
   15.780    5.1711
   15.795    5.1501
   15.810    5.7504
   15.825    5.6029
   15.840    5.5819
   15.855    5.7399
   15.870    5.6977
   15.885    5.9084
   15.900    5.4239
   15.915    5.4134
   15.930    5.3923
   15.945    5.3291
   15.960    5.7504
   15.975    5.7293
   15.990    5.2975
   16.005    5.5608
   16.020    5.6345
   16.035    5.6135
   16.050    5.5608
   16.065    5.5819
   16.080    5.5819
   16.095    5.3397
   16.110    5.3923
   16.125    5.3607
   16.140    5.5398
   16.155    5.4028
   16.170    5.3186
   16.185    5.1290
   16.200    5.3607
   16.215    5.4660
   16.230    5.0974
   16.245    5.4344
   16.260    5.3607
   16.275    5.5819
   16.290    5.8452
   16.305    5.2870
   16.320    5.1501
   16.335    5.4450
   16.350    5.4028
   16.365    5.6135
   16.380    5.2027
   16.395    5.1606
   16.410    4.9605
   16.425    5.2975
   16.440    5.4344
   16.455    5.4450
   16.470    5.6977
   16.485    5.2238
   16.500    5.2027
   16.515    5.2449
   16.530    5.2870
   16.545    5.0132
   16.560    4.9710
   16.575    5.3397
   16.590    5.2027
   16.605    5.1395
   16.620    5.1501
   16.635    5.4871
   16.650    5.0553
   16.665    5.1080
   16.680    5.2659
   16.695    5.1606
   16.710    5.0974
   16.725    4.9394
   16.740    4.8025
   16.755    5.0448
   16.770    4.8025
   16.785    4.7183
   16.800    4.8868
   16.815    5.1817
   16.830    5.0342
   16.845    5.0342
   16.860    5.0448
   16.875    5.0237
   16.890    5.2027
   16.905    5.2343
   16.920    4.8763
   16.935    4.9605
   16.950    5.0026
   16.965    4.8868
   16.980    4.8236
   16.995    4.8236
   17.010    4.8763
   17.025    5.0764
   17.040    4.8868
   17.055    5.3397
   17.070    5.6135
   17.085    5.4766
   17.100    5.3081
   17.115    5.2554
   17.130    5.2238
   17.145    5.0553
   17.160    5.3186
   17.175    5.2238
   17.190    5.3081
   17.205    5.1922
   17.220    5.2765
   17.235    5.3291
   17.250    5.1185
   17.265    5.2027
   17.280    5.2765
   17.295    5.5503
   17.310    5.2870
   17.325    5.6345
   17.340    5.4450
   17.355    5.4450
   17.370    4.9500
   17.385    5.5187
   17.400    5.5398
   17.415    5.5398
   17.430    5.3397
   17.445    5.3818
   17.460    5.4555
   17.475    5.1922
   17.490    5.0764
   17.505    5.4344
   17.520    5.2027
   17.535    5.4239
   17.550    5.4766
   17.565    5.1290
   17.580    5.1290
   17.595    5.0342
   17.610    5.3502
   17.625    5.1290
   17.640    5.1922
   17.655    5.1922
   17.670    5.2765
   17.685    4.9816
   17.700    5.3712
   17.715    5.3818
   17.730    5.2238
   17.745    5.3923
   17.760    5.4344
   17.775    5.3607
   17.790    5.4028
   17.805    4.9605
   17.820    5.4976
   17.835    5.4555
   17.850    5.4766
   17.865    5.1501
   17.880    5.1290
   17.895    5.0869
   17.910    5.3291
   17.925    5.6135
   17.940    5.6451
   17.955    5.6029
   17.970    5.6872
   17.985    5.5924
   18.000    5.1185
   18.015    5.4660
   18.030    5.3081
   18.045    5.0764
   18.060    5.2133
   18.075    5.3186
   18.090    5.4028
   18.105    5.4134
   18.120    5.9084
   18.135    5.3818
   18.150    5.2449
   18.165    5.5503
   18.180    5.3186
   18.195    5.5187
   18.210    5.3607
   18.225    5.1922
   18.240    5.0764
   18.255    5.3186
   18.270    5.6872
   18.285    5.4660
   18.300    5.3818
   18.315    5.2765
   18.330    5.0974
   18.345    5.1395
   18.360    5.4239
   18.375    5.3607
   18.390    5.1711
   18.405    5.2659
   18.420    5.2238
   18.435    5.4134
   18.450    5.7399
   18.465    5.6451
   18.480    5.2870
   18.495    5.4450
   18.510    5.4028
   18.525    5.4871
   18.540    5.3818
   18.555    5.2133
   18.570    5.2975
   18.585    5.2554
   18.600    5.2975
   18.615    5.0342
   18.630    5.2449
   18.645    5.3923
   18.660    5.0974
   18.675    5.1080
   18.690    5.7399
   18.705    5.2765
   18.720    5.1501
   18.735    5.3291
   18.750    5.4871
   18.765    5.2343
   18.780    5.0132
   18.795    5.0974
   18.810    5.4976
   18.825    5.2765
   18.840    5.2765
   18.855    5.1922
   18.870    5.0974
   18.885    5.0658
   18.900    4.9710
   18.915    5.2554
   18.930    5.2554
   18.945    5.0342
   18.960    5.0342
   18.975    5.1922
   18.990    5.3607
   19.005    5.2554
   19.020    5.1606
   19.035    5.0869
   19.050    5.4660
   19.065    5.4239
   19.080    5.1501
   19.095    5.3291
   19.110    5.6556
   19.125    5.2027
   19.140    5.2027
   19.155    5.0764
   19.170    4.9710
   19.185    5.2133
   19.200    5.4450
   19.215    5.2554
   19.230    5.4976
   19.245    5.5187
   19.260    5.4976
   19.275    5.4344
   19.290    5.3291
   19.305    5.6240
   19.320    5.5187
   19.335    5.1922
   19.350    5.5398
   19.365    5.5503
   19.380    5.9926
   19.395    6.0664
   19.410    5.7083
   19.425    5.7083
   19.440    5.6029
   19.455    5.7715
   19.470    5.5714
   19.485    5.6556
   19.500    5.8768
   19.515    5.6977
   19.530    6.0348
   19.545    5.9926
   19.560    5.6135
   19.575    5.9294
   19.590    5.8978
   19.605    5.8557
   19.620    6.1506
   19.635    6.0032
   19.650    5.6872
   19.665    6.2349
   19.680    6.3296
   19.695    6.4771
   19.710    6.0874
   19.725    6.3823
   19.740    6.1927
   19.755    6.2981
   19.770    6.0348
   19.785    6.0874
   19.800    5.8873
   19.815    6.3402
   19.830    6.2770
   19.845    5.9821
   19.860    6.0348
   19.875    6.0769
   19.890    6.0453
   19.905    6.5192
   19.920    6.0242
   19.935    5.8662
   19.950    6.3191
   19.965    6.3086
   19.980    5.8978
   19.995    6.3296
   20.010    6.6140
   20.025    6.2243
   20.040    5.8241
   20.055    5.7504
   20.070    6.1506
   20.085    6.1717
   20.100    6.1401
   20.115    6.3296
   20.130    6.3296
   20.145    6.2033
   20.160    6.3402
   20.175    6.3086
   20.190    6.2665
   20.205    6.2138
   20.220    6.3612
   20.235    6.2243
   20.250    6.1611
   20.265    5.8136
   20.280    5.5082
   20.295    6.1295
   20.310    6.1611
   20.325    6.2138
   20.340    5.8347
   20.355    6.1085
   20.370    6.5087
   20.385    5.8873
   20.400    5.8136
   20.415    5.8031
   20.430    6.0979
   20.445    6.0979
   20.460    6.2665
   20.475    5.8978
   20.490    6.0242
   20.505    5.9294
   20.520    5.8452
   20.535    5.9926
   20.550    6.0874
   20.565    6.0242
   20.580    5.8662
   20.595    5.6556
   20.610    5.7083
   20.625    6.0032
   20.640    5.8136
   20.655    5.3818
   20.670    6.0242
   20.685    5.9716
   20.700    6.0032
   20.715    5.7820
   20.730    5.8662
   20.745    5.8873
   20.760    6.0348
   20.775    6.2138
   20.790    5.8347
   20.805    5.8241
   20.820    5.9294
   20.835    5.8662
   20.850    5.8978
   20.865    5.9505
   20.880    5.7188
   20.895    5.7083
   20.910    5.9926
   20.925    6.0769
   20.940    6.1085
   20.955    6.0664
   20.970    5.7715
   20.985    6.1822
   21.000    6.2981
   21.015    6.2138
   21.030    6.3296
   21.045    5.9716
   21.060    6.2033
   21.075    6.1401
   21.090    6.0348
   21.105    6.0137
   21.120    5.9821
   21.135    5.8768
   21.150    5.5924
   21.165    6.2138
   21.180    6.2243
   21.195    5.5714
   21.210    6.0874
   21.225    5.9821
   21.240    5.8031
   21.255    5.6029
   21.270    6.0664
   21.285    5.9821
   21.300    5.8873
   21.315    5.7609
   21.330    5.6977
   21.345    5.8031
   21.360    5.9610
   21.375    5.9716
   21.390    6.1506
   21.405    6.0032
   21.420    5.5187
   21.435    6.1506
   21.450    6.0137
   21.465    6.1927
   21.480    5.6135
   21.495    5.4450
   21.510    5.6451
   21.525    5.8347
   21.540    5.8873
   21.555    5.9505
   21.570    5.5819
   21.585    5.9505
   21.600    5.8978
   21.615    6.1506
   21.630    5.7504
   21.645    5.8347
   21.660    6.1927
   21.675    6.1401
   21.690    5.9189
   21.705    6.0242
   21.720    5.9084
   21.735    5.8557
   21.750    5.8452
   21.765    5.6977
   21.780    5.5503
   21.795    5.9400
   21.810    5.6556
   21.825    5.7083
   21.840    5.7188
   21.855    5.6556
   21.870    5.8978
   21.885    6.2665
   21.900    5.9716
   21.915    5.6451
   21.930    5.4976
   21.945    6.2138
   21.960    6.3086
   21.975    6.1927
   21.990    5.8031
   22.005    5.9926
   22.020    5.7504
   22.035    6.2243
   22.050    6.2559
   22.065    5.8768
   22.080    6.1190
   22.095    6.0348
   22.110    6.2981
   22.125    5.8347
   22.140    5.9294
   22.155    6.1717
   22.170    6.0032
   22.185    6.0032
   22.200    6.1295
   22.215    6.3296
   22.230    6.0137
   22.245    6.0769
   22.260    6.1295
   22.275    6.0242
   22.290    6.0348
   22.305    5.5398
   22.320    5.8136
   22.335    5.5608
   22.350    5.8136
   22.365    6.2981
   22.380    5.9821
   22.395    6.0558
   22.410    5.8136
   22.425    5.5503
   22.440    5.8452
   22.455    5.7188
   22.470    5.5924
   22.485    6.0032
   22.500    5.8241
   22.515    5.7399
   22.530    5.7820
   22.545    5.6240
   22.560    5.9400
   22.575    5.5398
   22.590    6.0453
   22.605    6.0979
   22.620    6.1190
   22.635    5.6872
   22.650    5.8347
   22.665    5.4766
   22.680    5.7083
   22.695    6.1822
   22.710    5.8873
   22.725    5.6451
   22.740    5.7399
   22.755    5.7399
   22.770    5.7293
   22.785    5.8452
   22.800    5.4555
   22.815    5.8662
   22.830    5.7609
   22.845    5.6767
   22.860    5.8768
   22.875    5.7820
   22.890    5.5819
   22.905    5.8031
   22.920    6.1085
   22.935    5.7609
   22.950    5.6240
   22.965    5.7715
   22.980    5.9821
   22.995    5.7188
   23.010    5.8347
   23.025    5.9926
   23.040    5.8347
   23.055    5.7083
   23.070    5.5398
   23.085    5.4134
   23.100    5.4450
   23.115    5.2765
   23.130    5.2027
   23.145    5.4134
   23.160    5.4555
   23.175    5.6872
   23.190    5.6345
   23.205    5.6556
   23.220    5.8873
   23.235    5.8136
   23.250    5.8978
   23.265    5.8662
   23.280    5.6977
   23.295    5.7609
   23.310    5.9189
   23.325    6.2349
   23.340    5.7504
   23.355    5.7504
   23.370    5.7293
   23.385    5.4766
   23.400    5.4766
   23.415    5.5187
   23.430    5.5608
   23.445    5.8452
   23.460    5.8347
   23.475    5.5292
   23.490    5.6977
   23.505    5.5924
   23.520    5.5082
   23.535    5.5082
   23.550    5.5292
   23.565    5.7820
   23.580    5.7083
   23.595    5.8768
   23.610    5.7188
   23.625    5.6135
   23.640    5.6556
   23.655    5.9610
   23.670    5.5608
   23.685    5.5503
   23.700    5.3081
   23.715    5.2554
   23.730    5.3607
   23.745    5.4134
   23.760    5.6872
   23.775    5.6345
   23.790    5.5398
   23.805    5.2659
   23.820    5.3186
   23.835    5.6767
   23.850    5.6029
   23.865    5.2554
   23.880    5.8557
   23.895    5.5082
   23.910    5.6872
   23.925    5.9294
   23.940    5.8662
   23.955    5.5082
   23.970    5.2449
   23.985    5.9505
   24.000    5.5187
   24.015    5.4450
   24.030    5.5082
   24.045    5.6451
   24.060    5.4766
   24.075    5.5398
   24.090    5.8978
   24.105    5.3923
   24.120    5.3502
   24.135    5.8136
   24.150    5.4976
   24.165    5.3607
   24.180    5.7504
   24.195    5.6661
   24.210    5.3923
   24.225    5.7504
   24.240    5.4660
   24.255    5.3291
   24.270    5.6977
   24.285    5.4871
   24.300    5.5714
   24.315    5.5924
   24.330    5.4450
   24.345    5.6345
   24.360    5.5608
   24.375    5.8241
   24.390    5.8768
   24.405    5.6029
   24.420    5.3607
   24.435    5.5398
   24.450    5.5082
   24.465    5.2659
   24.480    5.4871
   24.495    6.1927
   24.510    6.1822
   24.525    5.9716
   24.540    5.7609
   24.555    6.0769
   24.570    5.4344
   24.585    5.7399
   24.600    5.9610
   24.615    6.0032
   24.630    5.8136
   24.645    5.8136
   24.660    5.6345
   24.675    5.6767
   24.690    5.7609
   24.705    5.7293
   24.720    5.8978
   24.735    5.6661
   24.750    5.7925
   24.765    5.5292
   24.780    5.8452
   24.795    5.5714
   24.810    5.4450
   24.825    5.4239
   24.840    5.6345
   24.855    5.3397
   24.870    5.4976
   24.885    5.5292
   24.900    5.4555
   24.915    5.2027
   24.930    5.0026
   24.945    5.3397
   24.960    5.0026
   24.975    5.4450
   24.990    5.5187
   25.005    5.1395
   25.020    5.2870
   25.035    5.1817
   25.050    5.2975
   25.065    5.2870
   25.080    5.2554
   25.095    5.2765
   25.110    5.5924
   25.125    5.6977
   25.140    5.5608
   25.155    5.4976
   25.170    5.2133
   25.185    5.0237
   25.200    5.2975
   25.215    5.0974
   25.230    5.3923
   25.245    5.2765
   25.260    5.3081
   25.275    5.2659
   25.290    5.2449
   25.305    5.3923
   25.320    5.3081
   25.335    5.4766
   25.350    5.2238
   25.365    5.4239
   25.380    5.4660
   25.395    5.2449
   25.410    5.2027
   25.425    5.6977
   25.440    5.5714
   25.455    5.6029
   25.470    5.5082
   25.485    5.2449
   25.500    5.6240
   25.515    5.5082
   25.530    5.9189
   25.545    5.4766
   25.560    5.5082
   25.575    5.4134
   25.590    5.5082
   25.605    5.2449
   25.620    5.3502
   25.635    5.4344
   25.650    5.2975
   25.665    5.3186
   25.680    5.3397
   25.695    5.5082
   25.710    5.1501
   25.725    5.3923
   25.740    5.0869
   25.755    5.2449
   25.770    5.1922
   25.785    5.2238
   25.800    5.1711
   25.815    5.0553
   25.830    5.2975
   25.845    5.2870
   25.860    5.1395
   25.875    4.9078
   25.890    5.4450
   25.905    5.1711
   25.920    5.0237
   25.935    5.1290
   25.950    5.2027
   25.965    5.4028
   25.980    5.2765
   25.995    5.0869
   26.010    5.1817
   26.025    5.2027
   26.040    4.9289
   26.055    5.1501
   26.070    5.0658
   26.085    4.9710
   26.100    4.9394
   26.115    5.2765
   26.130    4.9184
   26.145    5.0448
   26.160    4.9289
   26.175    5.0658
   26.190    4.8973
   26.205    5.1817
   26.220    5.0448
   26.235    4.8973
   26.250    5.0342
   26.265    5.0237
   26.280    4.8447
   26.295    4.8131
   26.310    5.4344
   26.325    5.2554
   26.340    5.1080
   26.355    5.0974
   26.370    4.8973
   26.385    5.0658
   26.400    4.9500
   26.415    5.2659
   26.430    5.0764
   26.445    5.1711
   26.460    5.2449
   26.475    5.2554
   26.490    5.1711
   26.505    5.3607
   26.520    4.9500
   26.535    4.7499
   26.550    4.8552
   26.565    4.8973
   26.580    4.7604
   26.595    5.0974
   26.610    5.1606
   26.625    5.1395
   26.640    5.1080
   26.655    5.2765
   26.670    4.9394
   26.685    5.0553
   26.700    4.6130
   26.715    4.7709
   26.730    5.3081
   26.745    5.3607
   26.760    5.2554
   26.775    4.7499
   26.790    4.7709
   26.805    4.8131
   26.820    4.8447
   26.835    4.9394
   26.850    4.9289
   26.865    5.0342
   26.880    4.9184
   26.895    5.0974
   26.910    4.8657
   26.925    4.6340
   26.940    4.5708
   26.955    4.8868
   26.970    4.9921
   26.985    4.6130
   27.000    4.8763
   27.015    4.7077
   27.030    4.8447
   27.045    5.0132
   27.060    4.8657
   27.075    4.8868
   27.090    4.7815
   27.105    4.7920
   27.120    5.0869
   27.135    4.7709
   27.150    4.8552
   27.165    4.9710
   27.180    5.1711
   27.195    5.1290
   27.210    5.1185
   27.225    5.2027
   27.240    4.9605
   27.255    4.9289
   27.270    4.9184
   27.285    4.6130
   27.300    4.6761
   27.315    4.8552
   27.330    4.9078
   27.345    4.8657
   27.360    4.7920
   27.375    5.1185
   27.390    4.9921
   27.405    5.2027
   27.420    4.8763
   27.435    5.0974
   27.450    4.9921
   27.465    5.0026
   27.480    4.7288
   27.495    4.6867
   27.510    4.8341
   27.525    4.9921
   27.540    5.2765
   27.555    5.2449
   27.570    5.2449
   27.585    4.8447
   27.600    4.8131
   27.615    4.6130
   27.630    4.8025
   27.645    4.8973
   27.660    4.6656
   27.675    4.6972
   27.690    4.7709
   27.705    4.8973
   27.720    5.1501
   27.735    4.9816
   27.750    5.1922
   27.765    4.9078
   27.780    4.9816
   27.795    4.5919
   27.810    4.8973
   27.825    4.9289
   27.840    4.8657
   27.855    5.0026
   27.870    4.7393
   27.885    4.8236
   27.900    4.8868
   27.915    5.0026
   27.930    5.0658
   27.945    5.2133
   27.960    5.0237
   27.975    5.1395
   27.990    5.0342
   28.005    4.9394
   28.020    5.1501
   28.035    5.2449
   28.050    4.8657
   28.065    5.1395
   28.080    5.3712
   28.095    5.4134
   28.110    5.2133
   28.125    5.2343
   28.140    5.3291
   28.155    5.2343
   28.170    5.2765
   28.185    5.0553
   28.200    5.0553
   28.215    5.3923
   28.230    5.2133
   28.245    5.4028
   28.260    4.8341
   28.275    4.9710
   28.290    5.2238
   28.305    5.2449
   28.320    4.9500
   28.335    5.0132
   28.350    4.9500
   28.365    4.7288
   28.380    4.8763
   28.395    5.2554
   28.410    5.0026
   28.425    4.9289
   28.440    4.9184
   28.455    4.8657
   28.470    4.8763
   28.485    4.9816
   28.500    5.0974
   28.515    5.3397
   28.530    5.2659
   28.545    5.0658
   28.560    4.9500
   28.575    5.2238
   28.590    5.1290
   28.605    4.7288
   28.620    4.9394
   28.635    5.0342
   28.650    4.8131
   28.665    4.7288
   28.680    4.6972
   28.695    4.5182
   28.710    4.7604
   28.725    5.0026
   28.740    4.9394
   28.755    4.8552
   28.770    4.8552
   28.785    4.8447
   28.800    5.1080
   28.815    5.0448
   28.830    4.6235
   28.845    5.0026
   28.860    4.5392
   28.875    5.0026
   28.890    4.9184
   28.905    4.7920
   28.920    4.6024
   28.935    4.8025
   28.950    4.9394
   28.965    4.8236
   28.980    4.7815
   28.995    5.1606
   29.010    4.8973
   29.025    5.0658
   29.040    4.9078
   29.055    4.7709
   29.070    4.8447
   29.085    4.9605
   29.100    4.8868
   29.115    4.7604
   29.130    4.8973
   29.145    4.8236
   29.160    4.8973
   29.175    4.8025
   29.190    4.7709
   29.205    4.5498
   29.220    4.2865
   29.235    4.7709
   29.250    4.9289
   29.265    4.6340
   29.280    4.6972
   29.295    4.6761
   29.310    4.8341
   29.325    4.6867
   29.340    5.1395
   29.355    4.7920
   29.370    4.6130
   29.385    4.9184
   29.400    5.0026
   29.415    4.4655
   29.430    4.6551
   29.445    4.4550
   29.460    4.3391
   29.475    4.5076
   29.490    4.3497
   29.505    4.6340
   29.520    4.4655
   29.535    4.5287
   29.550    4.5919
   29.565    4.8025
   29.580    4.5708
   29.595    4.6761
   29.610    4.4866
   29.625    4.5708
   29.640    4.5603
   29.655    4.3181
   29.670    4.2654
   29.685    4.6761
   29.700    4.5182
   29.715    4.7393
   29.730    4.8868
   29.745    4.7815
   29.760    4.6024
   29.775    4.9184
   29.790    4.7393
   29.805    4.4339
   29.820    4.5287
   29.835    4.7920
   29.850    4.8552
   29.865    4.7183
   29.880    4.4339
   29.895    4.5498
   29.910    4.4760
   29.925    4.7077
   29.940    4.8025
   29.955    4.5919
   29.970    4.5392
   29.985    4.6656
   30.000    4.4655
   30.015    4.5287
   30.030    4.7604
   30.045    4.4760
   30.060    4.4128
   30.075    4.4655
   30.090    4.6551
   30.105    4.6867
   30.120    4.6972
   30.135    4.9078
   30.150    4.9500
   30.165    5.0658
   30.180    4.6867
   30.195    4.5814
   30.210    4.2549
   30.225    4.4234
   30.240    4.4866
   30.255    4.8657
   30.270    4.7499
   30.285    4.8236
   30.300    4.6130
   30.315    4.6024
   30.330    4.7815
   30.345    4.5708
   30.360    4.8447
   30.375    4.7815
   30.390    4.6445
   30.405    4.7393
   30.420    4.8131
   30.435    4.6656
   30.450    4.4760
   30.465    4.6867
   30.480    4.6340
   30.495    4.8131
   30.510    4.5708
   30.525    4.5814
   30.540    4.6761
   30.555    3.9705
   30.570    4.3181
   30.585    4.6761
   30.600    4.3497
   30.615    4.6551
   30.630    4.2654
   30.645    4.5076
   30.660    4.5076
   30.675    4.4655
   30.690    4.5603
   30.705    4.4444
   30.720    4.7709
   30.735    4.8447
   30.750    4.6867
   30.765    4.6340
   30.780    4.4128
   30.795    4.5814
   30.810    4.7183
   30.825    4.5498
   30.840    4.5708
   30.855    4.4339
   30.870    4.5182
   30.885    4.6972
   30.900    4.2338
   30.915    4.3286
   30.930    4.4760
   30.945    4.5076
   30.960    4.8657
   30.975    4.8131
   30.990    4.6551
   31.005    4.7183
   31.020    4.6445
   31.035    4.5182
   31.050    4.5392
   31.065    4.5498
   31.080    4.7499
   31.095    5.1185
   31.110    4.4866
   31.125    4.5182
   31.140    4.7604
   31.155    4.7183
   31.170    4.4655
   31.185    4.7393
   31.200    4.6867
   31.215    4.5392
   31.230    4.4339
   31.245    4.6867
   31.260    4.6340
   31.275    4.1074
   31.290    4.3181
   31.305    4.6972
   31.320    4.6867
   31.335    4.5919
   31.350    4.8868
   31.365    4.6551
   31.380    4.4234
   31.395    4.6445
   31.410    4.5708
   31.425    4.6867
   31.440    4.3602
   31.455    4.6130
   31.470    4.8341
   31.485    4.6656
   31.500    4.6551
   31.515    4.6340
   31.530    4.5814
   31.545    4.3181
   31.560    4.4339
   31.575    4.4866
   31.590    4.5814
   31.605    4.6761
   31.620    4.6761
   31.635    4.7288
   31.650    4.6656
   31.665    4.7288
   31.680    4.6972
   31.695    4.3813
   31.710    4.4339
   31.725    4.5182
   31.740    4.5392
   31.755    4.7604
   31.770    5.0658
   31.785    4.6867
   31.800    4.5919
   31.815    4.5603
   31.830    4.6551
   31.845    4.6972
   31.860    4.9605
   31.875    4.6761
   31.890    4.7709
   31.905    4.6445
   31.920    4.8447
   31.935    4.6024
   31.950    4.3497
   31.965    4.6024
   31.980    4.6656
   31.995    4.6024
   32.010    4.5287
   32.025    4.6761
   32.040    4.7815
   32.055    4.3707
   32.070    4.5182
   32.085    4.3918
   32.100    4.4023
   32.115    4.4971
   32.130    4.3075
   32.145    4.3813
   32.160    4.3918
   32.175    4.2970
   32.190    4.2233
   32.205    4.1390
   32.220    4.0548
   32.235    4.6235
   32.250    4.4971
   32.265    4.4866
   32.280    4.4760
   32.295    4.5392
   32.310    4.2022
   32.325    4.6340
   32.340    4.3602
   32.355    4.3707
   32.370    4.0864
   32.385    4.2549
   32.400    4.3813
   32.415    4.4128
   32.430    4.3918
   32.445    4.2654
   32.460    4.4760
   32.475    4.4128
   32.490    4.2338
   32.505    4.5287
   32.520    4.4550
   32.535    4.4866
   32.550    4.1917
   32.565    4.2127
   32.580    4.5708
   32.595    4.5603
   32.610    4.6972
   32.625    4.3286
   32.640    4.3391
   32.655    4.0969
   32.670    3.8652
   32.685    3.9389
   32.700    4.3497
   32.715    4.1811
   32.730    4.1074
   32.745    4.1390
   32.760    4.3497
   32.775    4.3602
   32.790    4.3497
   32.805    4.2970
   32.820    4.2865
   32.835    4.2127
   32.850    4.4128
   32.865    4.5287
   32.880    4.1706
   32.895    4.5182
   32.910    4.7815
   32.925    4.4550
   32.940    4.3391
   32.955    4.4339
   32.970    4.3286
   32.985    4.4339
   33.000    4.2970
   33.015    4.2549
   33.030    4.0232
   33.045    4.1601
   33.060    4.2865
   33.075    4.1811
   33.090    3.9494
   33.105    3.9810
   33.120    3.8547
   33.135    4.0864
   33.150    4.1180
   33.165    4.4655
   33.180    4.5814
   33.195    4.3181
   33.210    4.4760
   33.225    4.3286
   33.240    4.2970
   33.255    4.4444
   33.270    4.3391
   33.285    4.1811
   33.300    3.9179
   33.315    4.1917
   33.330    4.0758
   33.345    4.3075
   33.360    3.9389
   33.375    4.1285
   33.390    4.0758
   33.405    4.2338
   33.420    4.0653
   33.435    4.2022
   33.450    4.1811
   33.465    4.1706
   33.480    4.0126
   33.495    4.3602
   33.510    4.0337
   33.525    3.9389
   33.540    3.9600
   33.555    4.0653
   33.570    4.0969
   33.585    4.2127
   33.600    4.4866
   33.615    4.4128
   33.630    4.1601
   33.645    3.9494
   33.660    3.8336
   33.675    4.4023
   33.690    4.1811
   33.705    4.2970
   33.720    4.4023
   33.735    4.2654
   33.750    4.1180
   33.765    4.0758
   33.780    4.1180
   33.795    4.2865
   33.810    4.4550
   33.825    4.3497
   33.840    4.3602
   33.855    4.1285
   33.870    4.2233
   33.885    4.1180
   33.900    4.2759
   33.915    4.0548
   33.930    4.1285
   33.945    4.4339
   33.960    4.1601
   33.975    4.3813
   33.990    3.9494
   34.005    4.1917
   34.020    3.9600
   34.035    3.9810
   34.050    4.1180
   34.065    3.9179
   34.080    3.9494
   34.095    4.1601
   34.110    3.9600
   34.125    3.9916
   34.140    4.2127
   34.155    4.4866
   34.170    4.2654
   34.185    4.1917
   34.200    3.8441
   34.215    4.0232
   34.230    4.0021
   34.245    4.0548
   34.260    4.2022
   34.275    4.1074
   34.290    3.7493
   34.305    4.1285
   34.320    4.3602
   34.335    3.8231
   34.350    3.8652
   34.365    4.2970
   34.380    4.1180
   34.395    4.1917
   34.410    4.3813
   34.425    4.0021
   34.440    4.0864
   34.455    4.0969
   34.470    3.9600
   34.485    3.7493
   34.500    4.1496
   34.515    4.0653
   34.530    4.0653
   34.545    4.0232
   34.560    4.1811
   34.575    3.9810
   34.590    4.0337
   34.605    3.9916
   34.620    3.7599
   34.635    3.9073
   34.650    3.8968
   34.665    4.0969
   34.680    3.8968
   34.695    3.9494
   34.710    4.0864
   34.725    4.2865
   34.740    4.0864
   34.755    3.9916
   34.770    3.9073
   34.785    4.2549
   34.800    3.8652
   34.815    4.0337
   34.830    3.9705
   34.845    4.0442
   34.860    4.0337
   34.875    3.9389
   34.890    3.8547
   34.905    3.6862
   34.920    3.9810
   34.935    4.1601
   34.950    4.0758
   34.965    4.1496
   34.980    4.0758
   34.995    4.0021
   35.010    3.9179
   35.025    3.8863
   35.040    3.8863
   35.055    4.0548
   35.070    4.1706
   35.085    3.8231
   35.100    4.0864
   35.115    4.0442
   35.130    3.7072
   35.145    3.6335
   35.160    4.0969
   35.175    4.0126
   35.190    3.9705
   35.205    3.8020
   35.220    4.1074
   35.235    4.1601
   35.250    3.9705
   35.265    4.2233
   35.280    4.1601
   35.295    4.0548
   35.310    4.1601
   35.325    3.8863
   35.340    3.9389
   35.355    3.8336
   35.370    3.8336
   35.385    3.8968
   35.400    4.0864
   35.415    4.0653
   35.430    4.0653
   35.445    4.1074
   35.460    4.0548
   35.475    4.2127
   35.490    3.7177
   35.505    4.1285
   35.520    3.8968
   35.535    3.9389
   35.550    3.8652
   35.565    4.3602
   35.580    4.2022
   35.595    3.8863
   35.610    3.9810
   35.625    4.0021
   35.640    4.0653
   35.655    3.7704
   35.670    4.0021
   35.685    4.0337
   35.700    3.9705
   35.715    3.8336
   35.730    3.7704
   35.745    3.5703
   35.760    3.8757
   35.775    4.1285
   35.790    3.9705
   35.805    3.9284
   35.820    4.1074
   35.835    3.9600
   35.850    3.6124
   35.865    3.7809
   35.880    3.8231
   35.895    3.8968
   35.910    3.9179
   35.925    3.8652
   35.940    3.7704
   35.955    4.0758
   35.970    3.9705
   35.985    3.7493
   36.000    4.0232
   36.015    3.9600
   36.030    4.2338
   36.045    3.9389
   36.060    4.2022
   36.075    4.0548
   36.090    4.3918
   36.105    4.1811
   36.120    3.9389
   36.135    3.7704
   36.150    4.0969
   36.165    3.8652
   36.180    3.4544
   36.195    3.7072
   36.210    3.5703
   36.225    3.9810
   36.240    4.0126
   36.255    3.8968
   36.270    3.6756
   36.285    4.0021
   36.300    4.0442
   36.315    3.7704
   36.330    3.8757
   36.345    3.7072
   36.360    3.5176
   36.375    3.7177
   36.390    3.5387
   36.405    3.9073
   36.420    3.8020
   36.435    3.8547
   36.450    3.9179
   36.465    4.1285
   36.480    3.6335
   36.495    4.0232
   36.510    3.9179
   36.525    3.8231
   36.540    3.8336
   36.555    3.7809
   36.570    4.0021
   36.585    4.1811
   36.600    4.0337
   36.615    3.8547
   36.630    3.9600
   36.645    3.8863
   36.660    3.9600
   36.675    3.7599
   36.690    3.7704
   36.705    3.6440
   36.720    3.8547
   36.735    3.7599
   36.750    3.8125
   36.765    3.9389
   36.780    3.7704
   36.795    3.6756
   36.810    3.6124
   36.825    3.8125
   36.840    3.7915
   36.855    3.6546
   36.870    3.7388
   36.885    4.0969
   36.900    3.6440
   36.915    3.6440
   36.930    3.7283
   36.945    3.6440
   36.960    3.7493
   36.975    3.5703
   36.990    3.5387
   37.005    3.6967
   37.020    3.5492
   37.035    3.8863
   37.050    3.4229
   37.065    3.5387
   37.080    4.0126
   37.095    3.6967
   37.110    3.6230
   37.125    3.6124
   37.140    3.6862
   37.155    3.7493
   37.170    3.9284
   37.185    3.7283
   37.200    3.6230
   37.215    3.8863
   37.230    3.7177
   37.245    3.6546
   37.260    3.6335
   37.275    3.6124
   37.290    3.5387
   37.305    3.8863
   37.320    3.5492
   37.335    3.8863
   37.350    3.8125
   37.365    3.6862
   37.380    3.7915
   37.395    3.7599
   37.410    3.7388
   37.425    3.5914
   37.440    3.6019
   37.455    3.3281
   37.470    3.5492
   37.485    3.7388
   37.500    3.9705
   37.515    3.9179
   37.530    3.6756
   37.545    3.6335
   37.560    4.0548
   37.575    4.0021
   37.590    3.7809
   37.605    3.7704
   37.620    3.6651
   37.635    3.5176
   37.650    3.4755
   37.665    3.8336
   37.680    3.8441
   37.695    4.1074
   37.710    3.6335
   37.725    3.6546
   37.740    3.4650
   37.755    3.8231
   37.770    4.0021
   37.785    3.5703
   37.800    3.6335
   37.815    3.6546
   37.830    3.8863
   37.845    3.6335
   37.860    3.6862
   37.875    3.5282
   37.890    3.4229
   37.905    4.0969
   37.920    3.8231
   37.935    3.7493
   37.950    3.5914
   37.965    3.6967
   37.980    3.7177
   37.995    3.9810
   38.010    3.7072
   38.025    3.6756
   38.040    3.6756
   38.055    3.6230
   38.070    3.6967
   38.085    3.8231
   38.100    3.7809
   38.115    3.7809
   38.130    3.7283
   38.145    3.8547
   38.160    3.6230
   38.175    3.7599
   38.190    3.6124
   38.205    3.6862
   38.220    3.8863
   38.235    3.8125
   38.250    3.6440
   38.265    3.5387
   38.280    3.8020
   38.295    3.8336
   38.310    3.7493
   38.325    3.9284
   38.340    3.7072
   38.355    3.6019
   38.370    3.6019
   38.385    3.5387
   38.400    3.5703
   38.415    3.4860
   38.430    3.6019
   38.445    3.6440
   38.460    3.8231
   38.475    3.6124
   38.490    3.7072
   38.505    3.6124
   38.520    3.5282
   38.535    3.9810
   38.550    3.6651
   38.565    3.3281
   38.580    3.6862
   38.595    3.5598
   38.610    3.6756
   38.625    3.5071
   38.640    4.0232
   38.655    3.8336
   38.670    3.7283
   38.685    3.7493
   38.700    3.7072
   38.715    3.6862
   38.730    3.4755
   38.745    3.8547
   38.760    3.6230
   38.775    3.8757
   38.790    3.6651
   38.805    3.5387
   38.820    3.4018
   38.835    3.5492
   38.850    3.5387
   38.865    3.7388
   38.880    3.7704
   38.895    3.6124
   38.910    3.5914
   38.925    3.4755
   38.940    3.8547
   38.955    3.8652
   38.970    3.4860
   38.985    3.7388
   39.000    3.5808
   39.015    3.6651
   39.030    3.6335
   39.045    3.7493
   39.060    3.8125
   39.075    3.7177
   39.090    3.6862
   39.105    3.9705
   39.120    3.8757
   39.135    3.6546
   39.150    3.5914
   39.165    3.6756
   39.180    3.4966
   39.195    3.6440
   39.210    3.5387
   39.225    3.7177
   39.240    3.9179
   39.255    3.5282
   39.270    3.3386
   39.285    3.6862
   39.300    3.5914
   39.315    3.7283
   39.330    3.7388
   39.345    3.9179
   39.360    3.8231
   39.375    3.6546
   39.390    3.6335
   39.405    3.4966
   39.420    3.8547
   39.435    3.9600
   39.450    3.8125
   39.465    3.8125
   39.480    3.9600
   39.495    3.9284
   39.510    3.8441
   39.525    3.5387
   39.540    3.5598
   39.555    3.6862
   39.570    3.7283
   39.585    3.6967
   39.600    3.8652
   39.615    3.6756
   39.630    3.5808
   39.645    3.8020
   39.660    3.7177
   39.675    3.7283
   39.690    3.6335
   39.705    3.6546
   39.720    3.9073
   39.735    3.8231
   39.750    3.7915
   39.765    3.6862
   39.780    3.7809
   39.795    3.8020
   39.810    3.6651
   39.825    3.3807
   39.840    3.4650
   39.855    3.6756
   39.870    3.8968
   39.885    3.8652
   39.900    3.8547
   39.915    3.9073
   39.930    3.8125
   39.945    3.4966
   39.960    3.7388
   39.975    3.5598
   39.990    3.4966
