    1.500   24.8341
    1.515   24.7815
    1.530   24.8973
    1.545   24.4444
    1.560   23.9073
    1.575   23.4860
    1.590   22.9910
    1.605   23.9810
    1.620   23.9073
    1.635   23.7599
    1.650   23.0332
    1.665   22.6856
    1.680   22.6119
    1.695   22.8857
    1.710   23.5387
    1.725   22.5592
    1.740   22.4539
    1.755   22.8647
    1.770   22.7067
    1.785   23.1280
    1.800   22.6540
    1.815   22.5066
    1.830   22.3802
    1.845   22.2959
    1.860   22.2644
    1.875   22.8647
    1.890   21.9800
    1.905   22.5487
    1.920   23.0332
    1.935   22.7278
    1.950   22.9279
    1.965   23.3702
    1.980   23.2859
    1.995   22.9595
    2.010   23.0016
    2.025   23.5176
    2.040   22.5803
    2.055   22.3381
    2.070   23.7599
    2.085   23.4018
    2.100   23.7177
    2.115   23.5808
    2.130   23.4650
    2.145   24.2233
    2.160   24.1601
    2.175   24.3813
    2.190   24.6340
    2.205   24.7815
    2.220   25.3923
    2.235   25.8768
    2.250   25.8136
    2.265   25.3291
    2.280   25.8557
    2.295   25.8557
    2.310   25.5819
    2.325   26.9616
    2.340   27.1827
    2.355   27.4460
    2.370   27.5408
    2.385   28.4150
    2.400   28.8468
    2.415   28.4466
    2.430   28.8573
    2.445   29.4471
    2.460   30.3318
    2.475   30.8794
    2.490   31.5956
    2.505   31.2691
    2.520   31.5850
    2.535   32.5856
    2.550   33.2701
    2.565   33.8915
    2.580   33.3333
    2.595   34.0600
    2.610   35.5134
    2.625   35.6187
    2.640   35.8294
    2.655   37.1880
    2.670   37.9989
    2.685   38.3254
    2.700   39.8736
    2.715   40.3686
    2.730   40.0527
    2.745   41.7167
    2.760   42.1696
    2.775   43.7599
    2.790   44.9710
    2.805   46.5719
    2.820   46.8562
    2.835   48.3518
    2.850   49.3734
    2.865   50.1211
    2.880   50.0685
    2.895   52.4697
    2.910   52.4381
    2.925   54.7973
    2.940   56.7773
    2.955   58.6625
    2.970   59.6735
    2.985   61.0743
    3.000   64.4655
    3.015   65.2870
    3.030   66.4876
    3.045   68.5729
    3.060   71.8378
    3.075   74.0811
    3.090   75.8083
    3.105   77.7357
    3.120   79.4313
    3.135   82.1380
    3.150   86.5298
    3.165   90.2159
    3.180   91.7114
    3.195   96.1664
    3.210   98.7783
    3.225  104.2654
    3.240  107.1301
    3.255  111.9537
    3.270  117.8831
    3.285  123.1596
    3.300  127.7936
    3.315  134.0811
    3.330  142.0643
    3.345  148.0674
    3.360  158.0938
    3.375  168.2780
    3.390  180.3686
    3.405  193.4808
    3.420  209.4260
    3.435  224.4023
    3.450  240.5266
    3.465  251.6798
    3.480  254.6498
    3.495  248.5098
    3.510  232.1327
    3.525  205.0553
    3.540  173.4913
    3.555  142.8857
    3.570  122.5698
    3.585  106.8036
    3.600   97.9568
    3.615   95.0922
    3.630   92.5856
    3.645   93.0911
    3.660   92.7330
    3.675   94.3444
    3.690   97.7673
    3.705  100.1159
    3.720  103.1490
    3.735  109.7525
    3.750  114.8289
    3.765  121.7588
    3.780  128.0148
    3.795  135.8504
    3.810  143.7493
    3.825  154.4286
    3.840  166.4771
    3.855  177.7146
    3.870  192.9015
    3.885  205.6556
    3.900  210.9110
    3.915  211.2902
    3.930  198.8204
    3.945  181.4745
    3.960  154.7235
    3.975  126.7404
    3.990  106.1506
    4.005   91.0690
    4.020   75.7767
    4.035   64.3286
    4.050   54.0600
    4.065   45.8452
    4.080   39.6946
    4.095   33.2070
    4.110   29.2470
    4.125   26.2559
    4.140   23.1069
    4.155   20.6003
    4.170   18.8942
    4.185   18.6730
    4.200   17.2407
    4.215   16.1875
    4.230   15.3344
    4.245   14.5129
    4.260   13.9863
    4.275   13.3755
    4.290   13.5440
    4.305   12.6698
    4.320   12.9121
    4.335   11.7536
    4.350   11.5534
    4.365   11.1743
    4.380   11.1532
    4.395   10.6688
    4.410   10.6688
    4.425   10.7425
    4.440    9.9947
    4.455   10.1001
    4.470   10.3423
    4.485    9.7420
    4.500   10.3423
    4.515   10.1001
    4.530    9.8789
    4.545    9.6788
    4.560   10.0579
    4.575    9.9842
    4.590    9.6893
    4.605    9.5524
    4.620    9.3102
    4.635    9.5629
    4.650    9.3312
    4.665    9.2575
    4.680    8.9415
    4.695    9.7841
    4.710    9.5208
    4.725    9.3418
    4.740    9.0047
    4.755    8.9626
    4.770    9.1206
    4.785    9.0890
    4.800    9.4050
    4.815    9.3628
    4.830    9.3102
    4.845    8.7625
    4.860    9.4997
    4.875    9.5945
    4.890    9.1732
    4.905    9.3312
    4.920    9.2470
    4.935    8.9837
    4.950    9.3418
    4.965    9.1311
    4.980    9.6156
    4.995   10.0685
    5.010   10.0474
    5.025   10.0369
    5.040   10.3739
    5.055    9.8473
    5.070    9.5313
    5.085   10.1948
    5.100   10.6898
    5.115   10.9426
    5.130   11.1638
    5.145   11.1427
    5.160   10.5213
    5.175   11.3428
    5.190   11.6693
    5.205   11.5956
    5.220   12.2170
    5.235   11.7114
    5.250   12.0800
    5.265   12.7541
    5.280   12.6804
    5.295   12.9963
    5.310   13.0279
    5.325   13.4597
    5.340   13.9652
    5.355   14.2075
    5.370   15.1132
    5.385   15.3660
    5.400   15.6398
    5.415   16.0716
    5.430   16.6825
    5.445   17.6093
    5.460   19.0943
    5.475   21.0637
    5.490   24.2022
    5.505   26.8246
    5.520   28.7941
    5.535   29.0258
    5.550   26.6667
    5.565   21.7062
    5.580   15.9136
    5.595   10.8478
    5.610    8.1833
    5.625    7.9726
    5.640    7.8146
    5.655    8.2149
    5.670    8.0779
    5.685    7.8884
    5.700    7.6461
    5.715    8.0569
    5.730    7.7725
    5.745    8.2675
    5.760    8.2780
    5.775    7.9831
    5.790    7.4987
    5.805    7.4144
    5.820    7.7093
    5.835    7.5408
    5.850    7.6567
    5.865    7.8146
    5.880    8.1833
    5.895    7.8462
    5.910    8.2464
    5.925    7.5092
    5.940    7.6672
    5.955    8.1517
    5.970    8.3939
    5.985    7.8989
    6.000    7.6988
    6.015    7.5513
    6.030    7.6251
    6.045    7.8462
    6.060    8.2570
    6.075    7.8884
    6.090    8.0569
    6.105    7.9305
    6.120    8.2149
    6.135    7.9726
    6.150    7.9410
    6.165    8.1727
    6.180    8.1517
    6.195    8.3518
    6.210    8.1833
    6.225    8.5203
    6.240    8.8362
    6.255    8.4255
    6.270    8.7098
    6.285    8.7414
    6.300    9.2048
    6.315    9.6577
    6.330    9.0785
    6.345    9.5419
    6.360    9.5419
    6.375    9.8262
    6.390    9.5945
    6.405   10.4265
    6.420   10.4581
    6.435   10.4160
    6.450   10.2475
    6.465   10.4265
    6.480   10.9426
    6.495   11.1216
    6.510   10.8478
    6.525   11.5850
    6.540   12.5750
    6.555   12.4381
    6.570   12.9331
    6.585   13.6809
    6.600   13.7862
    6.615   14.4286
    6.630   15.4608
    6.645   15.9242
    6.660   16.1137
    6.675   16.1664
    6.690   17.0721
    6.705   18.4834
    6.720   19.7156
    6.735   21.2954
    6.750   22.3907
    6.765   23.8757
    6.780   24.3813
    6.795   24.8973
    6.810   25.7083
    6.825   26.4034
    6.840   26.8246
    6.855   28.1727
    6.870   29.8789
    6.885   32.4065
    6.900   34.3549
    6.915   37.5987
    6.930   40.3265
    6.945   42.1696
    6.960   44.6972
    6.975   44.9921
    6.990   43.9600
    7.005   39.6630
    7.020   35.0922
    7.035   29.2048
    7.050   24.8236
    7.065   20.7267
    7.080   17.0616
    7.095   14.8183
    7.110   13.4597
    7.125   12.5434
    7.140   11.4060
    7.155   10.6266
    7.170   10.6056
    7.185   10.5424
    7.200   10.6477
    7.215   10.1211
    7.230    9.9842
    7.245   10.1843
    7.260    9.5419
    7.275    9.8999
    7.290   10.5003
    7.305   10.6161
    7.320   10.6793
    7.335   10.7004
    7.350   10.8689
    7.365   10.6793
    7.380   11.5219
    7.395   10.7952
    7.410   11.5745
    7.425   12.0800
    7.440   12.0274
    7.455   12.6382
    7.470   13.1964
    7.485   13.4808
    7.500   13.7335
    7.515   13.8810
    7.530   15.0395
    7.545   14.7973
    7.560   15.4818
    7.575   16.1559
    7.590   17.4934
    7.605   17.6514
    7.620   18.5887
    7.635   20.1264
    7.650   20.8636
    7.665   21.8431
    7.680   22.8752
    7.695   25.0026
    7.710   25.5924
    7.725   27.0774
    7.740   29.7314
    7.755   31.3533
    7.770   33.6072
    7.785   36.5140
    7.800   37.8094
    7.815   37.8936
    7.830   39.1680
    7.845   38.9258
    7.860   37.4302
    7.875   35.7978
    7.890   33.2280
    7.905   31.1006
    7.920   30.5951
    7.935   28.0253
    7.950   26.7509
    7.965   24.2970
    7.980   22.0537
    7.995   19.6419
    8.010   18.1253
    8.025   16.9142
    8.040   15.2607
    8.055   14.4918
    8.070   13.6388
    8.085   12.3960
    8.100   11.8694
    8.115   11.1427
    8.130   11.1427
    8.145   10.4055
    8.160    9.7209
    8.175    9.6998
    8.190    9.7736
    8.205    9.0995
    8.220    9.2048
    8.235    8.9310
    8.250    8.7625
    8.265    8.7098
    8.280    8.3096
    8.295    8.3834
    8.310    8.1938
    8.325    7.7830
    8.340    8.1411
    8.355    7.8462
    8.370    7.8041
    8.385    7.3618
    8.400    7.4882
    8.415    7.6883
    8.430    7.5513
    8.445    7.8989
    8.460    7.8146
    8.475    7.8673
    8.490    7.8778
    8.505    7.8778
    8.520    7.7093
    8.535    7.4144
    8.550    7.3618
    8.565    7.6251
    8.580    7.4250
    8.595    7.6040
    8.610    7.1617
    8.625    7.2249
    8.640    7.2354
    8.655    7.2775
    8.670    7.1301
    8.685    7.4882
    8.700    7.8146
    8.715    7.9937
    8.730    8.1306
    8.745    7.8252
    8.760    8.0990
    8.775    7.5513
    8.790    7.1617
    8.805    7.2775
    8.820    7.1090
    8.835    6.9826
    8.850    7.2986
    8.865    7.2143
    8.880    7.0248
    8.895    6.8984
    8.910    6.8141
    8.925    6.9300
    8.940    6.8878
    8.955    7.2880
    8.970    7.2459
    8.985    6.9932
    9.000    7.0879
    9.015    7.3723
    9.030    7.1827
    9.045    7.0248
    9.060    6.9089
    9.075    7.0563
    9.090    7.0353
    9.105    7.2459
    9.120    7.3618
    9.135    7.0774
    9.150    7.0879
    9.165    7.1827
    9.180    7.3512
    9.195    7.1195
    9.210    7.4776
    9.225    7.4671
    9.240    7.5303
    9.255    7.5724
    9.270    7.2986
    9.285    7.6988
    9.300    7.8884
    9.315    8.0885
    9.330    7.8146
    9.345    7.5724
    9.360    8.1411
    9.375    8.5835
    9.390    8.5519
    9.405    8.9415
    9.420    8.8994
    9.435    9.1417
    9.450    9.4997
    9.465    9.7209
    9.480   10.2686
    9.495   10.6056
    9.510   11.1848
    9.525   11.7430
    9.540   13.5545
    9.555   15.2080
    9.570   16.2717
    9.585   17.2407
    9.600   16.0927
    9.615   15.6398
    9.630   12.3223
    9.645    9.9947
    9.660    7.9410
    9.675    7.4355
    9.690    6.7720
    9.705    6.9826
    9.720    6.7404
    9.735    6.8457
    9.750    7.0879
    9.765    7.4144
    9.780    7.3618
    9.795    7.2459
    9.810    7.5513
    9.825    7.4460
    9.840    7.4144
    9.855    7.0879
    9.870    7.4460
    9.885    7.4039
    9.900    7.3512
    9.915    6.7930
    9.930    6.9932
    9.945    7.5092
    9.960    7.2880
    9.975    7.5408
    9.990    7.3091
   10.005    6.9510
   10.020    7.2249
   10.035    7.1827
   10.050    7.2038
   10.065    7.2986
   10.080    7.2143
   10.095    7.4671
   10.110    7.6567
   10.125    7.5724
   10.140    7.7514
   10.155    7.6040
   10.170    7.5935
   10.185    7.3618
   10.200    7.7725
   10.215    8.1306
   10.230    8.0569
   10.245    8.3623
   10.260    8.4150
   10.275    8.1727
   10.290    8.4255
   10.305    8.9310
   10.320   10.0263
   10.335   10.0790
   10.350    9.7736
   10.365   10.2475
   10.380    9.7420
   10.395    8.7098
   10.410    9.2154
   10.425    8.2991
   10.440    7.8884
   10.455    7.9621
   10.470    8.4255
   10.485    8.3307
   10.500    8.5729
   10.515    7.9621
   10.530    7.7199
   10.545    7.2880
   10.560    7.6145
   10.575    7.7620
   10.590    7.2670
   10.605    7.4776
   10.620    7.4882
   10.635    7.3934
   10.650    7.6777
   10.665    7.6567
   10.680    7.4144
   10.695    7.5619
   10.710    7.4671
   10.725    8.0253
   10.740    7.6988
   10.755    7.0458
   10.770    7.3618
   10.785    7.5619
   10.800    7.4987
   10.815    7.1722
   10.830    7.7830
   10.845    7.4144
   10.860    7.6567
   10.875    8.1517
   10.890    7.7725
   10.905    7.4987
   10.920    7.6777
   10.935    7.8357
   10.950    7.8989
   10.965    8.3623
   10.980    8.4044
   10.995    8.3623
   11.010    8.8784
   11.025    8.9100
   11.040    9.1417
   11.055    9.9631
   11.070   10.1316
   11.085    9.8157
   11.100    9.5945
   11.115    8.8573
   11.130    8.4466
   11.145    7.9200
   11.160    7.5513
   11.175    7.6777
   11.190    7.6251
   11.205    7.3091
   11.220    7.4460
   11.235    7.3828
   11.250    7.6040
   11.265    7.7304
   11.280    7.7409
   11.295    7.7620
   11.310    7.5408
   11.325    7.8989
   11.340    8.0042
   11.355    7.6356
   11.370    7.6356
   11.385    7.7830
   11.400    8.3096
   11.415    7.9516
   11.430    7.9200
   11.445    7.7936
   11.460    8.5624
   11.475    8.3202
   11.490    8.1938
   11.505    8.4360
   11.520    8.4676
   11.535    8.6888
   11.550    8.6783
   11.565    9.2259
   11.580    8.9310
   11.595    9.1838
   11.610    9.5629
   11.625    9.8789
   11.640    9.9737
   11.655   10.1843
   11.670   10.7214
   11.685   10.7741
   11.700   10.9110
   11.715   11.1638
   11.730   11.3217
   11.745   11.8799
   11.760   12.1959
   11.775   11.4376
   11.790   11.3323
   11.805   10.2264
   11.820    9.7736
   11.835    9.4787
   11.850    9.2259
   11.865    8.9837
   11.880    9.0153
   11.895    9.3628
   11.910    9.5945
   11.925    9.1417
   11.940    8.9415
   11.955    9.0363
   11.970    8.9310
   11.985    8.8257
   12.000    8.6572
   12.015    7.9937
   12.030    7.9200
   12.045    8.0253
   12.060    7.9410
   12.075    8.3096
   12.090    8.2149
   12.105    7.6251
   12.120    7.6461
   12.135    7.6567
   12.150    7.6883
   12.165    7.5092
   12.180    7.3723
   12.195    7.3091
   12.210    7.6040
   12.225    7.4144
   12.240    7.3934
   12.255    7.3196
   12.270    7.4987
   12.285    7.9726
   12.300    7.9094
   12.315    7.6777
   12.330    7.4776
   12.345    7.5303
   12.360    7.3407
   12.375    7.9094
   12.390    7.9410
   12.405    7.5197
   12.420    7.3512
   12.435    7.4250
   12.450    7.3512
   12.465    7.5303
   12.480    7.3302
   12.495    7.3723
   12.510    7.5724
   12.525    6.8668
   12.540    7.0879
   12.555    7.6461
   12.570    7.4671
   12.585    7.1722
   12.600    7.5829
   12.615    7.9094
   12.630    7.4460
   12.645    7.5724
   12.660    7.7936
   12.675    7.6777
   12.690    7.4987
   12.705    7.2880
   12.720    7.4776
   12.735    7.5935
   12.750    7.8252
   12.765    7.6356
   12.780    8.1095
   12.795    8.0990
   12.810    7.7830
   12.825    7.9726
   12.840    7.5935
   12.855    7.8884
   12.870    7.8778
   12.885    7.9516
   12.900    8.2464
   12.915    8.3202
   12.930    8.4781
   12.945    8.7625
   12.960    8.5413
   12.975    8.8573
   12.990    9.2154
   13.005    8.9205
   13.020    8.8889
   13.035    9.1838
   13.050    8.3728
   13.065    8.2570
   13.080    7.8778
   13.095    8.1095
   13.110    8.1095
   13.125    8.3096
   13.140    8.2464
   13.155    7.5724
   13.170    7.6672
   13.185    7.8462
   13.200    8.0885
   13.215    7.6777
   13.230    7.8989
   13.245    7.9937
   13.260    8.1622
   13.275    7.8884
   13.290    8.1938
   13.305    7.7725
   13.320    7.8252
   13.335    7.7409
   13.350    7.8989
   13.365    7.2986
   13.380    7.6461
   13.395    7.6145
   13.410    7.9094
   13.425    7.9831
   13.440    7.6251
   13.455    7.1722
   13.470    7.6251
   13.485    7.7304
   13.500    8.1517
   13.515    7.9305
   13.530    7.9516
   13.545    8.0358
   13.560    7.7514
   13.575    8.1517
   13.590    7.6356
   13.605    7.9200
   13.620    7.4566
   13.635    7.2143
   13.650    7.3828
   13.665    7.6040
   13.680    7.4250
   13.695    7.2775
   13.710    7.3091
   13.725    7.1406
   13.740    7.2038
   13.755    7.0985
   13.770    7.0879
   13.785    6.8457
   13.800    7.1827
   13.815    7.4250
   13.830    7.1933
   13.845    7.2775
   13.860    7.0037
   13.875    6.8878
   13.890    6.7615
   13.905    7.1406
   13.920    7.2565
   13.935    7.2775
   13.950    7.3091
   13.965    7.0985
   13.980    7.3934
   13.995    7.0985
   14.010    7.1827
   14.025    7.2670
   14.040    7.7093
   14.055    7.8357
   14.070    8.1095
   14.085    8.2675
   14.100    8.0253
   14.115    8.1833
   14.130    7.8568
   14.145    8.0674
   14.160    8.0779
   14.175    7.8252
   14.190    7.5303
   14.205    7.3512
   14.220    7.1195
   14.235    7.4671
   14.250    7.5513
   14.265    7.4566
   14.280    7.3828
   14.295    6.8668
   14.310    7.0669
   14.325    7.2143
   14.340    6.6877
   14.355    7.2775
   14.370    6.9510
   14.385    7.0985
   14.400    7.0353
   14.415    7.2880
   14.430    7.1933
   14.445    7.1617
   14.460    7.1195
   14.475    6.6772
   14.490    7.2459
   14.505    7.3302
   14.520    7.1406
   14.535    7.0774
   14.550    7.1827
   14.565    7.0458
   14.580    7.1933
   14.595    7.1301
   14.610    7.2354
   14.625    7.4566
   14.640    7.0142
   14.655    7.3512
   14.670    7.4250
   14.685    7.5408
   14.700    7.4671
   14.715    7.0353
   14.730    7.0985
   14.745    7.3302
   14.760    7.5619
   14.775    6.9405
   14.790    7.2459
   14.805    7.2038
   14.820    7.0879
   14.835    7.5408
   14.850    7.4355
   14.865    7.1301
   14.880    7.2670
   14.895    7.0879
   14.910    7.7199
   14.925    7.2775
   14.940    7.0142
   14.955    7.4776
   14.970    7.1933
   14.985    7.5408
   15.000    7.2459
   15.015    7.2986
   15.030    7.8568
   15.045    7.5829
   15.060    7.6251
   15.075    7.7620
   15.090    7.8673
   15.105    7.0563
   15.120    7.8989
   15.135    7.6145
   15.150    8.0147
   15.165    7.6777
   15.180    7.8357
   15.195    7.6777
   15.210    7.7830
   15.225    7.6145
   15.240    7.8146
   15.255    7.6040
   15.270    7.3407
   15.285    7.8989
   15.300    7.5935
   15.315    7.3196
   15.330    7.5197
   15.345    7.3302
   15.360    7.4039
   15.375    7.4882
   15.390    7.7725
   15.405    7.6777
   15.420    7.4144
   15.435    7.9831
   15.450    7.9516
   15.465    7.8989
   15.480    7.4460
   15.495    7.6988
   15.510    7.7620
   15.525    7.8778
   15.540    7.5935
   15.555    7.4250
   15.570    7.8462
   15.585    7.7514
   15.600    7.4882
   15.615    7.6777
   15.630    7.7304
   15.645    7.8989
   15.660    8.1517
   15.675    8.0253
   15.690    7.8989
   15.705    8.2254
   15.720    7.9200
   15.735    7.5303
   15.750    8.1938
   15.765    8.2254
   15.780    7.5303
   15.795    7.2249
   15.810    7.2143
   15.825    7.5619
   15.840    7.8041
   15.855    7.9516
   15.870    7.8989
   15.885    7.9410
   15.900    8.0674
   15.915    7.6777
   15.930    7.7936
   15.945    7.5197
   15.960    7.2670
   15.975    7.1617
   15.990    7.5513
   16.005    7.5829
   16.020    7.3196
   16.035    7.3723
   16.050    7.5935
   16.065    7.5303
   16.080    7.1722
   16.095    7.1722
   16.110    7.3091
   16.125    7.4250
   16.140    7.4566
   16.155    7.4039
   16.170    7.2354
   16.185    7.0669
   16.200    7.2986
   16.215    7.0142
   16.230    7.3302
   16.245    7.2249
   16.260    6.7825
   16.275    7.0142
   16.290    7.3091
   16.305    7.1722
   16.320    6.9721
   16.335    6.8562
   16.350    7.3618
   16.365    7.1722
   16.380    7.3512
   16.395    7.0458
   16.410    7.3196
   16.425    6.7930
   16.440    6.6561
   16.455    6.7615
   16.470    7.0353
   16.485    7.2249
   16.500    7.0669
   16.515    7.0248
   16.530    7.5197
   16.545    6.8878
   16.560    6.5508
   16.575    6.6351
   16.590    7.0774
   16.605    7.1301
   16.620    6.7509
   16.635    7.1827
   16.650    6.8773
   16.665    6.6245
   16.680    7.1195
   16.695    6.7088
   16.710    6.6351
   16.725    7.2143
   16.740    7.2354
   16.755    6.4982
   16.770    6.9510
   16.785    7.2249
   16.800    6.7404
   16.815    7.0142
   16.830    6.6561
   16.845    6.3823
   16.860    6.8457
   16.875    6.6983
   16.890    7.0142
   16.905    7.2249
   16.920    7.1827
   16.935    6.8984
   16.950    7.2354
   16.965    7.1090
   16.980    7.0879
   16.995    7.8673
   17.010    7.6461
   17.025    7.2775
   17.040    7.7830
   17.055    7.9726
   17.070    8.4676
   17.085    8.3096
   17.100    8.4360
   17.115    8.4781
   17.130    8.4360
   17.145    8.2043
   17.160    7.6777
   17.175    7.3618
   17.190    7.0669
   17.205    7.2880
   17.220    7.3828
   17.235    7.6777
   17.250    8.0042
   17.265    7.5303
   17.280    7.4987
   17.295    7.3196
   17.310    6.9932
   17.325    7.3828
   17.340    7.4355
   17.355    7.2986
   17.370    7.4250
   17.385    7.3934
   17.400    7.6461
   17.415    7.3618
   17.430    7.6883
   17.445    7.6461
   17.460    7.7409
   17.475    7.6145
   17.490    7.7304
   17.505    7.7725
   17.520    7.6461
   17.535    7.6567
   17.550    7.7093
   17.565    8.0674
   17.580    7.3934
   17.595    7.1617
   17.610    7.8041
   17.625    7.0142
   17.640    6.9826
   17.655    7.4776
   17.670    7.4355
   17.685    7.4882
   17.700    7.5303
   17.715    7.3618
   17.730    7.5197
   17.745    7.5935
   17.760    7.5197
   17.775    7.7514
   17.790    7.5197
   17.805    7.2354
   17.820    7.7199
   17.835    7.6040
   17.850    7.4671
   17.865    7.6567
   17.880    7.5092
   17.895    7.7093
   17.910    7.6883
   17.925    7.4566
   17.940    7.5303
   17.955    7.6672
   17.970    7.5408
   17.985    7.6251
   18.000    7.4039
   18.015    7.8778
   18.030    7.4987
   18.045    7.7409
   18.060    7.6988
   18.075    7.5303
   18.090    7.4460
   18.105    7.2880
   18.120    7.7199
   18.135    7.2775
   18.150    7.5935
   18.165    7.6672
   18.180    7.3407
   18.195    7.5935
   18.210    7.4039
   18.225    7.3828
   18.240    7.5619
   18.255    7.8252
   18.270    7.2143
   18.285    7.3723
   18.300    7.3723
   18.315    6.8878
   18.330    7.1617
   18.345    7.1301
   18.360    7.2143
   18.375    7.4460
   18.390    8.1833
   18.405    7.7620
   18.420    7.6461
   18.435    7.3302
   18.450    7.2670
   18.465    7.3512
   18.480    7.3723
   18.495    7.1722
   18.510    7.1722
   18.525    7.3828
   18.540    7.0879
   18.555    6.5824
   18.570    6.8878
   18.585    7.0458
   18.600    7.3091
   18.615    7.7199
   18.630    7.4882
   18.645    7.1301
   18.660    7.0353
   18.675    7.3091
   18.690    7.0458
   18.705    7.3723
   18.720    7.2880
   18.735    6.9510
   18.750    7.0669
   18.765    7.2143
   18.780    7.4250
   18.795    7.5303
   18.810    7.5092
   18.825    7.3934
   18.840    7.3723
   18.855    7.0563
   18.870    6.5824
   18.885    6.8878
   18.900    7.3723
   18.915    7.1722
   18.930    7.2459
   18.945    6.8668
   18.960    7.1195
   18.975    7.0458
   18.990    7.0248
   19.005    7.0037
   19.020    7.6145
   19.035    7.6567
   19.050    7.1617
   19.065    7.2249
   19.080    7.2249
   19.095    7.1827
   19.110    7.3934
   19.125    7.1090
   19.140    7.0037
   19.155    6.8141
   19.170    7.3407
   19.185    7.2249
   19.200    7.2880
   19.215    7.2038
   19.230    7.6251
   19.245    7.4882
   19.260    7.4144
   19.275    7.0248
   19.290    6.9721
   19.305    7.3512
   19.320    7.1195
   19.335    7.3723
   19.350    7.4144
   19.365    7.4355
   19.380    7.1722
   19.395    7.1195
   19.410    7.5619
   19.425    7.4776
   19.440    7.4882
   19.455    7.3196
   19.470    7.8146
   19.485    7.9831
   19.500    7.7725
   19.515    7.7199
   19.530    7.8673
   19.545    8.1095
   19.560    7.7093
   19.575    7.9410
   19.590    8.1411
   19.605    7.9831
   19.620    7.9094
   19.635    7.8568
   19.650    7.9200
   19.665    8.2991
   19.680    8.4781
   19.695    8.4044
   19.710    7.9726
   19.725    7.8673
   19.740    7.8673
   19.755    7.7409
   19.770    7.9516
   19.785    7.8989
   19.800    7.6883
   19.815    8.2043
   19.830    8.0674
   19.845    8.2675
   19.860    8.3939
   19.875    8.3939
   19.890    7.9094
   19.905    8.4992
   19.920    8.1201
   19.935    8.2464
   19.950    8.4466
   19.965    8.5413
   19.980    8.0463
   19.995    8.2149
   20.010    8.5308
   20.025    8.5835
   20.040    8.6361
   20.055    8.7730
   20.070    8.6783
   20.085    8.7098
   20.100    8.3939
   20.115    8.9837
   20.130    8.5519
   20.145    8.1201
   20.160    8.5729
   20.175    8.1201
   20.190    8.3623
   20.205    8.2043
   20.220    8.6361
   20.235    8.6151
   20.250    8.3412
   20.265    8.6467
   20.280    9.1943
   20.295    8.7204
   20.310    9.1838
   20.325    8.9310
   20.340    8.9942
   20.355    8.5308
   20.370    8.8468
   20.385    9.0785
   20.400    9.6472
   20.415    9.6156
   20.430    9.3418
   20.445    8.9626
   20.460    8.8889
   20.475    8.4150
   20.490    8.7941
   20.505    8.3728
   20.520    8.4150
   20.535    8.8573
   20.550    8.1201
   20.565    8.1938
   20.580    8.3518
   20.595    8.2570
   20.610    8.2359
   20.625    8.7941
   20.640    8.8257
   20.655    8.4255
   20.670    8.5835
   20.685    8.1833
   20.700    8.5729
   20.715    8.4360
   20.730    8.6045
   20.745    8.6888
   20.760    8.7836
   20.775    8.7941
   20.790    8.6993
   20.805    8.2149
   20.820    7.6777
   20.835    8.5097
   20.850    8.4992
   20.865    8.6572
   20.880    8.4360
   20.895    8.3834
   20.910    8.8152
   20.925    8.5835
   20.940    8.5519
   20.955    8.3939
   20.970    8.6572
   20.985    8.7836
   21.000    9.0153
   21.015    8.7098
   21.030    9.0890
   21.045    9.1522
   21.060    9.0574
   21.075    9.0469
   21.090    9.1101
   21.105    8.8889
   21.120    8.8257
   21.135    8.7941
   21.150    8.5413
   21.165    8.8046
   21.180    8.6256
   21.195    8.0779
   21.210    8.5519
   21.225    8.4887
   21.240    8.8257
   21.255    8.5729
   21.270    8.8784
   21.285    8.2991
   21.300    8.5729
   21.315    8.3096
   21.330    8.3096
   21.345    8.6045
   21.360    8.6572
   21.375    8.2991
   21.390    8.1833
   21.405    8.1517
   21.420    8.3412
   21.435    8.2570
   21.450    8.5624
   21.465    8.4360
   21.480    8.0885
   21.495    8.0463
   21.510    8.2359
   21.525    8.1622
   21.540    8.1306
   21.555    8.0885
   21.570    8.3728
   21.585    8.1622
   21.600    7.8568
   21.615    7.8673
   21.630    8.3096
   21.645    7.9937
   21.660    7.9621
   21.675    8.1727
   21.690    8.2675
   21.705    8.1727
   21.720    8.1517
   21.735    8.1727
   21.750    8.4255
   21.765    8.4360
   21.780    8.2570
   21.795    8.9100
   21.810    8.5624
   21.825    8.7204
   21.840    8.4571
   21.855    8.8152
   21.870    8.4676
   21.885    8.3834
   21.900    8.4150
   21.915    8.6256
   21.930    8.8257
   21.945    8.8468
   21.960    8.1411
   21.975    8.5413
   21.990    8.3939
   22.005    8.2043
   22.020    8.3307
   22.035    8.3834
   22.050    8.7414
   22.065    8.3412
   22.080    8.7625
   22.095    8.5940
   22.110    8.8257
   22.125    8.8678
   22.140    8.7098
   22.155    8.6572
   22.170    8.3307
   22.185    8.8573
   22.200    8.5097
   22.215    8.7520
   22.230    8.8784
   22.245    9.0679
   22.260    8.8468
   22.275    8.8152
   22.290    8.9731
   22.305    8.2464
   22.320    8.8573
   22.335    9.0469
   22.350    8.6888
   22.365    8.4887
   22.380    8.9100
   22.395    9.0890
   22.410    8.7520
   22.425    8.7204
   22.440    8.9731
   22.455    8.9100
   22.470    8.6783
   22.485    9.0363
   22.500    9.1311
   22.515    9.7314
   22.530    9.4050
   22.545   10.0158
   22.560    9.6682
   22.575   10.0158
   22.590   10.1738
   22.605   10.2159
   22.620   10.5319
   22.635    9.7841
   22.650    9.9526
   22.665    9.4892
   22.680    9.2575
   22.695    9.1943
   22.710    9.4471
   22.725    9.3207
   22.740    8.7836
   22.755    9.2364
   22.770    9.0785
   22.785    9.1838
   22.800    9.1943
   22.815    9.3839
   22.830    9.2470
   22.845    8.7941
   22.860    9.5208
   22.875    9.8368
   22.890    8.9731
   22.905    9.2786
   22.920    9.6261
   22.935    9.2575
   22.950    9.1627
   22.965    9.3102
   22.980    8.8257
   22.995    8.8152
   23.010    9.2364
   23.025    8.6361
   23.040    8.4360
   23.055    8.0253
   23.070    7.9305
   23.085    7.9831
   23.100    7.9621
   23.115    7.7936
   23.130    8.0885
   23.145    8.2254
   23.160    7.9410
   23.175    7.9937
   23.190    7.9094
   23.205    8.2780
   23.220    8.0569
   23.235    7.9937
   23.250    7.7409
   23.265    8.0885
   23.280    8.3307
   23.295    8.2570
   23.310    7.8673
   23.325    7.8884
   23.340    7.5092
   23.355    7.8673
   23.370    7.2986
   23.385    7.1933
   23.400    7.7093
   23.415    7.8252
   23.430    7.8673
   23.445    7.2565
   23.460    7.6988
   23.475    8.4150
   23.490    7.8462
   23.505    7.5303
   23.520    7.4882
   23.535    7.8673
   23.550    7.5829
   23.565    7.6145
   23.580    7.8884
   23.595    8.0885
   23.610    7.6040
   23.625    7.5724
   23.640    7.8989
   23.655    7.9200
   23.670    7.9726
   23.685    7.3512
   23.700    7.7199
   23.715    7.9094
   23.730    7.8568
   23.745    7.4144
   23.760    8.1306
   23.775    7.5408
   23.790    7.4882
   23.805    7.8357
   23.820    7.6883
   23.835    7.8146
   23.850    8.1517
   23.865    7.8357
   23.880    8.0253
   23.895    8.0569
   23.910    7.9305
   23.925    8.0885
   23.940    7.8252
   23.955    7.8462
   23.970    8.6151
   23.985    8.4150
   24.000    8.0463
   24.015    8.3518
   24.030    8.0674
   24.045    7.9410
   24.060    7.8252
   24.075    7.4144
   24.090    7.6461
   24.105    7.7936
   24.120    7.6777
   24.135    7.9410
   24.150    7.6461
   24.165    7.4460
   24.180    7.9200
   24.195    8.2675
   24.210    8.1306
   24.225    7.8884
   24.240    7.6988
   24.255    7.9305
   24.270    8.3412
   24.285    7.9516
   24.300    7.8989
   24.315    8.2359
   24.330    7.7620
   24.345    7.4882
   24.360    8.0147
   24.375    7.9305
   24.390    8.2886
   24.405    8.0463
   24.420    7.9621
   24.435    7.8146
   24.450    7.6777
   24.465    8.1833
   24.480    8.1833
   24.495    7.9831
   24.510    8.4571
   24.525    8.6467
   24.540    8.3096
   24.555    8.2043
   24.570    8.5097
   24.585    8.6677
   24.600    8.8889
   24.615    9.2048
   24.630    8.8468
   24.645    8.5308
   24.660    8.1306
   24.675    8.1833
   24.690    8.3202
   24.705    7.9200
   24.720    8.1622
   24.735    8.2675
   24.750    7.9094
   24.765    7.4355
   24.780    8.0147
   24.795    8.1517
   24.810    7.7093
   24.825    8.1833
   24.840    7.9516
   24.855    8.1517
   24.870    7.7409
   24.885    7.7830
   24.900    7.7409
   24.915    7.7199
   24.930    7.8989
   24.945    8.2464
   24.960    7.6461
   24.975    7.5829
   24.990    7.6883
   25.005    7.7620
   25.020    7.9726
   25.035    7.4776
   25.050    7.6988
   25.065    7.2986
   25.080    7.3407
   25.095    7.4776
   25.110    7.4882
   25.125    7.5619
   25.140    7.5513
   25.155    7.6777
   25.170    7.6461
   25.185    8.0147
   25.200    7.8041
   25.215    7.5724
   25.230    7.5513
   25.245    7.4355
   25.260    7.2986
   25.275    7.6145
   25.290    7.1090
   25.305    7.6251
   25.320    7.4144
   25.335    7.1511
   25.350    7.0669
   25.365    7.2880
   25.380    7.3618
   25.395    7.3091
   25.410    7.5197
   25.425    7.1933
   25.440    6.8352
   25.455    7.2249
   25.470    6.7193
   25.485    6.9932
   25.500    7.2249
   25.515    7.1933
   25.530    7.1301
   25.545    7.3407
   25.560    7.2670
   25.575    6.9194
   25.590    7.0669
   25.605    7.1406
   25.620    7.5408
   25.635    7.5303
   25.650    7.1195
   25.665    7.2249
   25.680    7.3934
   25.695    7.1195
   25.710    7.2986
   25.725    7.1090
   25.740    7.2880
   25.755    7.0142
   25.770    7.7093
   25.785    7.5408
   25.800    7.8252
   25.815    7.7830
   25.830    7.5092
   25.845    7.5303
   25.860    8.2149
   25.875    7.8568
   25.890    7.6145
   25.905    7.6777
   25.920    7.5513
   25.935    6.9510
   25.950    7.3196
   25.965    7.2459
   25.980    7.2354
   25.995    6.8562
   26.010    7.2249
   26.025    7.0774
   26.040    7.2986
   26.055    6.8878
   26.070    6.7509
   26.085    7.2880
   26.100    7.1195
   26.115    6.8562
   26.130    6.7299
   26.145    7.1406
   26.160    7.2880
   26.175    7.3618
   26.190    7.4144
   26.205    7.2775
   26.220    7.3512
   26.235    7.0985
   26.250    7.1195
   26.265    6.6667
   26.280    7.3618
   26.295    7.4144
   26.310    7.6777
   26.325    7.2354
   26.340    7.5197
   26.355    7.4987
   26.370    7.2459
   26.385    7.1933
   26.400    7.0353
   26.415    7.1933
   26.430    7.2143
   26.445    7.5935
   26.460    7.4566
   26.475    7.3196
   26.490    7.1617
   26.505    6.9721
   26.520    7.2565
   26.535    7.2880
   26.550    7.3512
   26.565    7.2143
   26.580    7.0353
   26.595    7.0985
   26.610    7.0563
   26.625    7.2775
   26.640    7.4776
   26.655    6.6561
   26.670    7.0037
   26.685    7.0985
   26.700    7.2880
   26.715    7.2249
   26.730    7.0774
   26.745    7.2354
   26.760    7.0458
   26.775    7.2670
   26.790    6.9721
   26.805    7.0142
   26.820    6.6667
   26.835    7.3091
   26.850    7.0879
   26.865    6.9510
   26.880    6.6561
   26.895    7.1617
   26.910    7.0563
   26.925    7.3091
   26.940    7.1301
   26.955    7.1090
   26.970    7.1617
   26.985    7.3828
   27.000    7.4460
   27.015    7.3512
   27.030    7.3723
   27.045    7.2459
   27.060    7.3091
   27.075    7.0037
   27.090    7.2143
   27.105    7.5092
   27.120    7.3302
   27.135    7.1406
   27.150    6.8984
   27.165    7.0248
   27.180    7.1933
   27.195    6.9826
   27.210    7.3828
   27.225    6.7193
   27.240    6.8984
   27.255    6.8246
   27.270    6.9721
   27.285    7.3091
   27.300    6.9405
   27.315    6.8668
   27.330    6.8457
   27.345    6.9194
   27.360    7.0353
   27.375    6.6983
   27.390    7.0669
   27.405    7.0142
   27.420    7.0879
   27.435    6.9510
   27.450    7.0669
   27.465    7.1301
   27.480    7.0248
   27.495    6.9405
   27.510    6.9932
   27.525    7.3091
   27.540    7.4566
   27.555    7.1617
   27.570    7.1827
   27.585    6.8668
   27.600    7.0353
   27.615    7.0037
   27.630    7.0353
   27.645    6.7930
   27.660    7.1722
   27.675    7.5513
   27.690    7.0458
   27.705    7.1090
   27.720    7.1511
   27.735    7.1722
   27.750    7.1722
   27.765    6.6983
   27.780    7.0879
   27.795    6.5824
   27.810    6.6351
   27.825    7.1090
   27.840    6.8457
   27.855    7.0353
   27.870    7.2143
   27.885    6.8878
   27.900    6.7404
   27.915    6.7825
   27.930    6.8457
   27.945    6.8246
   27.960    6.8984
   27.975    7.2775
   27.990    7.3828
   28.005    6.8036
   28.020    6.8562
   28.035    7.2670
   28.050    7.3618
   28.065    7.0669
   28.080    7.0353
   28.095    7.0879
   28.110    6.9194
   28.125    7.0142
   28.140    7.5408
   28.155    7.4250
   28.170    7.1195
   28.185    7.1195
   28.200    7.6461
   28.215    7.2775
   28.230    7.5408
   28.245    7.1827
   28.260    6.5719
   28.275    6.9932
   28.290    7.1406
   28.305    7.1090
   28.320    7.0353
   28.335    6.9932
   28.350    6.9089
   28.365    6.6245
   28.380    6.8036
   28.395    6.8036
   28.410    6.8141
   28.425    6.9405
   28.440    6.9616
   28.455    7.1406
   28.470    7.1406
   28.485    6.8878
   28.500    7.0879
   28.515    6.6983
   28.530    6.5403
   28.545    6.4771
   28.560    6.8878
   28.575    6.9616
   28.590    6.7615
   28.605    6.6245
   28.620    6.3612
   28.635    6.5403
   28.650    6.5087
   28.665    6.6561
   28.680    6.5613
   28.695    6.6245
   28.710    6.3402
   28.725    6.0137
   28.740    6.2770
   28.755    6.6035
   28.770    6.9510
   28.785    6.9405
   28.800    6.5719
   28.815    6.8668
   28.830    7.0248
   28.845    6.8352
   28.860    6.6983
   28.875    6.4455
   28.890    6.6561
   28.905    6.6351
   28.920    6.6772
   28.935    6.3612
   28.950    6.6140
   28.965    6.6667
   28.980    6.6772
   28.995    6.9405
   29.010    6.9510
   29.025    6.8457
   29.040    6.9932
   29.055    7.0037
   29.070    6.8457
   29.085    6.4876
   29.100    6.1190
   29.115    6.2981
   29.130    7.0774
   29.145    7.0037
   29.160    6.9616
   29.175    6.5824
   29.190    6.5192
   29.205    6.6035
   29.220    6.5824
   29.235    6.8246
   29.250    6.7720
   29.265    6.6456
   29.280    6.7404
   29.295    7.2354
   29.310    7.1090
   29.325    6.9826
   29.340    7.0669
   29.355    6.8036
   29.370    6.2665
   29.385    6.3718
   29.400    6.3612
   29.415    6.6772
   29.430    6.5298
   29.445    6.4771
   29.460    6.5087
   29.475    6.6667
   29.490    6.3718
   29.505    6.6245
   29.520    6.7615
   29.535    6.4350
   29.550    6.3191
   29.565    6.9405
   29.580    6.4350
   29.595    6.8036
   29.610    6.6456
   29.625    6.9826
   29.640    6.5929
   29.655    6.7299
   29.670    6.6561
   29.685    6.6877
   29.700    6.6035
   29.715    6.3296
   29.730    6.0769
   29.745    6.4455
   29.760    6.7299
   29.775    6.9721
   29.790    6.6245
   29.805    6.4982
   29.820    6.8036
   29.835    6.8457
   29.850    6.8246
   29.865    6.8141
   29.880    6.2243
   29.895    6.5508
   29.910    6.5719
   29.925    6.7509
   29.940    6.4455
   29.955    6.5824
   29.970    6.2138
   29.985    6.2559
   30.000    6.4560
   30.015    6.8246
   30.030    6.9300
   30.045    6.8984
   30.060    6.7509
   30.075    6.5508
   30.090    6.4771
   30.105    6.2454
   30.120    6.6456
   30.135    6.9932
   30.150    6.9510
   30.165    7.0669
   30.180    6.6772
   30.195    6.4034
   30.210    6.3402
   30.225    6.7615
   30.240    6.7930
   30.255    6.5929
   30.270    6.5403
   30.285    6.5403
   30.300    6.4034
   30.315    6.5403
   30.330    6.7193
   30.345    6.6351
   30.360    6.6561
   30.375    6.9194
   30.390    6.3402
   30.405    6.2243
   30.420    6.5298
   30.435    6.6772
   30.450    6.2559
   30.465    6.1611
   30.480    6.3612
   30.495    6.7615
   30.510    6.4982
   30.525    6.3718
   30.540    6.3191
   30.555    6.3507
   30.570    6.6035
   30.585    6.6561
   30.600    6.7930
   30.615    6.2454
   30.630    6.5508
   30.645    6.4350
   30.660    6.2981
   30.675    6.6983
   30.690    6.5298
   30.705    6.7930
   30.720    6.6983
   30.735    6.2981
   30.750    6.1506
   30.765    6.4560
   30.780    6.5613
   30.795    6.2770
   30.810    6.1190
   30.825    6.4876
   30.840    6.6877
   30.855    6.3296
   30.870    6.7404
   30.885    6.1611
   30.900    5.8347
   30.915    6.1611
   30.930    6.2243
   30.945    6.7720
   30.960    6.5929
   30.975    6.3823
   30.990    6.5508
   31.005    6.2981
   31.020    6.5087
   31.035    6.2243
   31.050    6.0874
   31.065    6.5087
   31.080    6.1822
   31.095    6.2875
   31.110    6.2454
   31.125    6.5192
   31.140    6.1927
   31.155    6.4034
   31.170    6.2349
   31.185    6.2559
   31.200    6.2138
   31.215    6.1927
   31.230    5.9821
   31.245    6.3928
   31.260    6.3718
   31.275    6.2981
   31.290    6.4666
   31.305    6.3191
   31.320    6.4771
   31.335    6.4350
   31.350    6.3718
   31.365    6.3507
   31.380    6.5929
   31.395    6.6983
   31.410    6.3612
   31.425    6.3928
   31.440    7.0142
   31.455    6.3507
   31.470    6.2981
   31.485    6.3928
   31.500    6.4771
   31.515    6.0769
   31.530    6.1822
   31.545    6.4982
   31.560    6.4350
   31.575    6.3928
   31.590    6.6140
   31.605    6.4034
   31.620    6.5929
   31.635    6.4455
   31.650    5.9610
   31.665    6.4876
   31.680    6.5087
   31.695    6.6035
   31.710    6.4034
   31.725    6.4139
   31.740    6.5087
   31.755    6.4771
   31.770    6.3718
   31.785    6.1190
   31.800    6.4666
   31.815    6.6561
   31.830    6.8668
   31.845    6.7299
   31.860    6.6667
   31.875    6.5403
   31.890    6.5087
   31.905    6.6877
   31.920    6.5403
   31.935    6.4350
   31.950    6.6140
   31.965    6.5403
   31.980    6.4771
   31.995    6.7299
   32.010    6.7193
   32.025    6.1506
   32.040    6.4244
   32.055    6.3823
   32.070    5.9716
   32.085    6.1927
   32.100    6.3296
   32.115    6.1295
   32.130    6.1190
   32.145    6.2559
   32.160    6.2349
   32.175    6.4139
   32.190    6.3823
   32.205    6.5719
   32.220    6.5403
   32.235    6.3507
   32.250    6.1506
   32.265    6.9826
   32.280    6.4982
   32.295    6.5719
   32.310    6.0137
   32.325    6.3823
   32.340    6.5508
   32.355    6.3191
   32.370    6.2454
   32.385    6.5824
   32.400    6.0348
   32.415    6.6351
   32.430    6.2665
   32.445    6.4560
   32.460    6.6245
   32.475    6.1190
   32.490    6.1295
   32.505    6.3507
   32.520    6.4139
   32.535    6.0979
   32.550    6.1190
   32.565    6.0769
   32.580    6.1401
   32.595    6.3191
   32.610    6.1927
   32.625    6.1295
   32.640    6.0874
   32.655    6.4244
   32.670    6.1927
   32.685    6.3507
   32.700    5.9821
   32.715    6.4139
   32.730    6.8562
   32.745    6.3612
   32.760    6.4139
   32.775    6.6035
   32.790    5.8557
   32.805    5.9505
   32.820    6.1506
   32.835    6.3402
   32.850    5.8978
   32.865    6.2349
   32.880    6.2875
   32.895    5.8768
   32.910    6.2665
   32.925    6.3612
   32.940    6.7193
   32.955    6.1611
   32.970    6.0348
   32.985    6.2559
   33.000    6.1927
   33.015    6.2981
   33.030    6.0032
   33.045    6.0348
   33.060    6.3402
   33.075    6.0348
   33.090    6.0979
   33.105    6.3928
   33.120    6.2243
   33.135    5.9716
   33.150    6.1190
   33.165    6.5613
   33.180    6.1822
   33.195    5.9716
   33.210    6.1401
   33.225    5.9821
   33.240    6.3612
   33.255    6.0769
   33.270    5.6135
   33.285    5.8347
   33.300    5.7083
   33.315    6.0453
   33.330    6.2454
   33.345    5.9821
   33.360    6.0874
   33.375    5.9505
   33.390    6.0874
   33.405    5.9610
   33.420    5.8768
   33.435    5.8978
   33.450    5.9716
   33.465    5.8452
   33.480    5.9084
   33.495    5.8136
   33.510    6.0032
   33.525    6.2981
   33.540    5.7715
   33.555    5.8873
   33.570    5.8873
   33.585    6.1190
   33.600    6.3296
   33.615    5.8662
   33.630    6.0979
   33.645    6.3296
   33.660    6.1927
   33.675    5.8873
   33.690    6.1085
   33.705    5.9926
   33.720    5.9189
   33.735    5.9716
   33.750    5.9821
   33.765    6.1190
   33.780    6.3191
   33.795    5.9505
   33.810    5.7609
   33.825    6.1085
   33.840    5.8031
   33.855    5.6240
   33.870    6.1401
   33.885    6.0348
   33.900    6.4560
   33.915    6.1506
   33.930    6.2033
   33.945    6.0348
   33.960    6.4560
   33.975    6.2665
   33.990    6.2665
   34.005    6.0453
   34.020    6.2454
   34.035    6.0453
   34.050    5.8662
   34.065    6.3086
   34.080    5.9084
   34.095    5.8347
   34.110    5.6767
   34.125    5.6135
   34.140    5.7925
   34.155    5.7715
   34.170    6.2243
   34.185    5.8241
   34.200    6.0032
   34.215    5.6240
   34.230    6.5403
   34.245    6.1190
   34.260    5.7083
   34.275    5.9505
   34.290    5.4766
   34.305    5.8557
   34.320    6.0137
   34.335    6.1085
   34.350    5.8347
   34.365    5.8241
   34.380    5.4660
   34.395    5.7504
   34.410    5.6977
   34.425    5.8031
   34.440    5.9926
   34.455    6.0664
   34.470    5.9716
   34.485    5.9189
   34.500    5.5714
   34.515    6.1190
   34.530    5.8557
   34.545    5.8768
   34.560    5.7504
   34.575    5.6240
   34.590    5.5082
   34.605    5.5503
   34.620    5.7188
   34.635    5.8873
   34.650    5.8873
   34.665    6.4350
   34.680    5.6872
   34.695    5.3818
   34.710    5.7083
   34.725    5.7504
   34.740    5.9610
   34.755    6.0769
   34.770    5.8557
   34.785    5.8662
   34.800    5.6661
   34.815    6.1927
   34.830    6.1295
   34.845    5.8136
   34.860    5.8031
   34.875    5.6135
   34.890    5.8557
   34.905    5.7715
   34.920    5.8873
   34.935    6.0137
   34.950    5.7715
   34.965    5.6767
   34.980    5.9926
   34.995    5.7715
   35.010    5.8136
   35.025    5.8978
   35.040    5.9400
   35.055    5.7399
   35.070    5.6661
   35.085    6.0137
   35.100    5.7399
   35.115    5.5292
   35.130    5.6977
   35.145    6.1401
   35.160    5.6661
   35.175    6.0032
   35.190    6.1295
   35.205    5.4871
   35.220    5.4450
   35.235    5.4976
   35.250    5.8241
   35.265    5.6977
   35.280    5.5292
   35.295    6.0874
   35.310    5.7609
   35.325    5.7609
   35.340    5.8347
   35.355    5.8031
   35.370    5.9926
   35.385    5.6767
   35.400    6.1717
   35.415    5.8768
   35.430    5.6767
   35.445    5.5924
   35.460    5.9821
   35.475    5.6872
   35.490    5.7293
   35.505    5.6029
   35.520    5.7504
   35.535    5.6240
   35.550    5.7504
   35.565    5.9821
   35.580    5.5082
   35.595    5.6451
   35.610    5.3502
   35.625    5.5924
   35.640    5.8978
   35.655    6.0032
   35.670    5.3712
   35.685    5.5608
   35.700    5.4555
   35.715    5.6240
   35.730    5.9610
   35.745    5.8347
   35.760    5.7083
   35.775    5.7083
   35.790    5.7083
   35.805    5.8978
   35.820    5.6661
   35.835    5.4555
   35.850    5.5082
   35.865    5.8347
   35.880    6.0242
   35.895    5.9294
   35.910    5.9716
   35.925    5.7504
   35.940    5.7609
   35.955    5.8241
   35.970    5.8557
   35.985    5.4239
   36.000    5.5924
   36.015    5.7609
   36.030    5.9505
   36.045    5.9189
   36.060    5.5714
   36.075    5.5819
   36.090    5.3081
   36.105    5.2975
   36.120    5.4450
   36.135    5.8452
   36.150    5.6661
   36.165    6.1506
   36.180    5.7504
   36.195    5.6977
   36.210    5.7293
   36.225    5.4976
   36.240    5.6345
   36.255    5.5503
   36.270    5.4976
   36.285    5.6661
   36.300    5.7609
   36.315    5.6451
   36.330    5.8031
   36.345    5.3502
   36.360    5.5503
   36.375    5.6556
   36.390    5.4555
   36.405    5.3818
   36.420    5.7293
   36.435    5.8978
   36.450    5.6029
   36.465    5.2975
   36.480    5.4871
   36.495    5.6767
   36.510    5.8241
   36.525    5.5819
   36.540    5.6661
   36.555    5.8031
   36.570    5.3397
   36.585    5.3818
   36.600    5.8662
   36.615    5.4871
   36.630    5.0869
   36.645    5.8662
   36.660    5.8557
   36.675    5.8768
   36.690    6.0242
   36.705    5.7399
   36.720    5.6767
   36.735    5.4028
   36.750    5.8136
   36.765    6.1085
   36.780    5.8557
   36.795    5.6767
   36.810    5.5082
   36.825    5.8136
   36.840    5.6451
   36.855    5.5714
   36.870    5.4028
   36.885    5.4344
   36.900    5.3607
   36.915    5.2659
   36.930    5.4134
   36.945    5.8031
   36.960    5.5398
   36.975    5.8241
   36.990    5.4555
   37.005    5.6556
   37.020    5.5187
   37.035    5.3291
   37.050    5.4344
   37.065    5.4871
   37.080    5.4766
   37.095    5.6451
   37.110    5.6872
   37.125    5.7820
   37.140    5.3818
   37.155    5.3607
   37.170    5.6240
   37.185    5.5924
   37.200    5.6977
   37.215    5.4660
   37.230    5.5714
   37.245    5.4555
   37.260    5.4871
   37.275    5.2238
   37.290    5.6240
   37.305    5.4660
   37.320    5.6135
   37.335    5.5082
   37.350    5.5503
   37.365    5.6345
   37.380    5.4660
   37.395    5.4028
   37.410    5.6029
   37.425    5.1817
   37.440    5.1606
   37.455    5.6451
   37.470    5.7925
   37.485    5.6029
   37.500    5.4344
   37.515    5.5819
   37.530    5.2870
   37.545    5.2659
   37.560    5.2870
   37.575    5.1080
   37.590    5.4028
   37.605    5.6661
   37.620    5.4450
   37.635    5.4134
   37.650    5.2238
   37.665    5.4028
   37.680    5.5187
   37.695    5.2659
   37.710    5.4766
   37.725    5.7188
   37.740    5.4344
   37.755    5.7399
   37.770    5.7399
   37.785    5.7293
   37.800    5.9926
   37.815    5.5082
   37.830    5.1922
   37.845    5.4555
   37.860    5.6240
   37.875    6.0979
   37.890    5.9189
   37.905    5.5714
   37.920    5.4766
   37.935    5.5503
   37.950    5.6451
   37.965    5.0658
   37.980    5.3081
   37.995    5.7715
   38.010    5.4450
   38.025    5.4344
   38.040    5.4134
   38.055    5.3081
   38.070    5.2449
   38.085    5.3818
   38.100    5.5503
   38.115    5.6661
   38.130    5.7504
   38.145    5.6240
   38.160    5.2870
   38.175    5.0342
   38.190    4.9394
   38.205    5.4766
   38.220    5.1606
   38.235    5.2870
   38.250    5.4450
   38.265    5.7399
   38.280    5.9189
   38.295    5.4134
   38.310    5.2765
   38.325    5.4239
   38.340    5.3607
   38.355    5.3712
   38.370    5.2554
   38.385    5.1817
   38.400    5.5924
   38.415    5.5187
   38.430    5.4450
   38.445    5.6451
   38.460    5.3923
   38.475    5.3923
   38.490    5.5187
   38.505    5.6767
   38.520    5.3081
   38.535    5.6345
   38.550    5.3397
   38.565    5.2449
   38.580    5.3081
   38.595    5.6767
   38.610    5.6767
   38.625    5.6872
   38.640    5.7504
   38.655    5.2343
   38.670    5.2870
   38.685    5.0448
   38.700    5.2870
   38.715    5.5924
   38.730    5.2238
   38.745    5.3818
   38.760    4.9394
   38.775    5.3186
   38.790    5.6977
   38.805    5.1711
   38.820    5.4028
   38.835    5.0553
   38.850    5.3502
   38.865    5.3607
   38.880    5.3291
   38.895    5.5292
   38.910    5.5082
   38.925    5.9716
   38.940    5.6345
   38.955    5.2870
   38.970    5.5503
   38.985    5.7504
   39.000    5.7504
   39.015    5.6661
   39.030    5.5924
   39.045    5.4766
   39.060    5.8031
   39.075    5.4344
   39.090    5.6240
   39.105    5.6345
   39.120    5.2975
   39.135    5.6451
   39.150    5.6661
   39.165    5.1080
   39.180    5.1080
   39.195    5.3712
   39.210    5.7083
   39.225    5.3818
   39.240    5.6556
   39.255    5.4134
   39.270    5.5187
   39.285    5.6767
   39.300    5.5187
   39.315    5.5714
   39.330    5.4450
   39.345    5.3081
   39.360    5.3712
   39.375    5.6240
   39.390    5.3397
   39.405    5.7399
   39.420    5.3607
   39.435    5.4555
   39.450    5.3291
   39.465    5.4450
   39.480    5.3186
   39.495    5.5924
   39.510    5.5187
   39.525    5.1290
   39.540    5.3291
   39.555    5.7504
   39.570    5.6661
   39.585    5.4976
   39.600    5.2870
   39.615    5.3607
   39.630    5.4766
   39.645    5.5398
   39.660    5.4871
   39.675    5.5714
   39.690    5.4555
   39.705    5.5082
   39.720    5.6977
   39.735    5.4871
   39.750    5.4239
   39.765    5.4028
   39.780    5.5924
   39.795    5.5503
   39.810    5.8768
   39.825    5.6977
   39.840    5.6345
   39.855    5.6661
   39.870    5.8347
   39.885    5.7925
   39.900    5.6240
   39.915    5.2554
   39.930    5.6240
   39.945    5.5187
   39.960    5.6029
   39.975    5.6451
   39.990    5.1606
