    1.500   15.3063
    1.515   15.6925
    1.530   14.9201
    1.545   15.1834
    1.560   15.4467
    1.575   15.4467
    1.590   14.9728
    1.605   14.3760
    1.620   13.3228
    1.635   13.1297
    1.650   13.7616
    1.665   13.9196
    1.680   13.3755
    1.695   13.0068
    1.710   13.2877
    1.725   12.8840
    1.740   12.3223
    1.755   12.8313
    1.770   12.9191
    1.785   12.9542
    1.800   12.9366
    1.815   12.7260
    1.830   11.9010
    1.845   11.8834
    1.860   12.1467
    1.875   11.7957
    1.890   11.7255
    1.905   11.6377
    1.920   11.8659
    1.935   12.0414
    1.950   11.4797
    1.965   11.1813
    1.980   10.6372
    1.995   11.1462
    2.010   10.9707
    2.025   10.3563
    2.040   10.9707
    2.055    9.8122
    2.070   10.4441
    2.085   11.2866
    2.100   10.4616
    2.115   10.1457
    2.130   10.4090
    2.145   10.6898
    2.160   10.2686
    2.175   10.0930
    2.190   10.7249
    2.205   10.0579
    2.220   10.0755
    2.235   10.4968
    2.250   10.3212
    2.265    9.7771
    2.280   10.4265
    2.295   10.2159
    2.310    9.9175
    2.325   10.3037
    2.340   10.0053
    2.355   10.1983
    2.370   10.1632
    2.385   10.1632
    2.400    9.9526
    2.415    9.9702
    2.430   10.6196
    2.445    9.8122
    2.460   10.4616
    2.475   10.0228
    2.490    9.9175
    2.505    9.3382
    2.520    9.8648
    2.535   10.3212
    2.550   10.4792
    2.565    9.8473
    2.580   10.5319
    2.595   11.0760
    2.610   10.4792
    2.625   10.0755
    2.640   11.1462
    2.655   10.6723
    2.670   10.2159
    2.685   10.0053
    2.700   10.5845
    2.715   10.6898
    2.730   10.9882
    2.745   11.4797
    2.760   11.2340
    2.775   11.4095
    2.790   11.1462
    2.805   12.1116
    2.820   11.4622
    2.835   11.9712
    2.850   12.2170
    2.865   12.7260
    2.880   12.9015
    2.895   13.0068
    2.910   12.0063
    2.925   12.3398
    2.940   13.1473
    2.955   13.2526
    2.970   13.1999
    2.985   13.2526
    3.000   14.0776
    3.015   13.4281
    3.030   13.8318
    3.045   13.7265
    3.060   13.4983
    3.075   14.2531
    3.090   14.4286
    3.105   14.3760
    3.120   15.0606
    3.135   15.5169
    3.150   16.3946
    3.165   15.7276
    3.180   16.4648
    3.195   16.9738
    3.210   17.0090
    3.225   17.7286
    3.240   18.0621
    3.255   18.5712
    3.270   18.0621
    3.285   17.9919
    3.300   19.5893
    3.315   19.8174
    3.330   20.1685
    3.345   20.5196
    3.360   21.6254
    3.375   21.9063
    3.390   22.5031
    3.405   23.3983
    3.420   23.3456
    3.435   25.0658
    3.450   25.1711
    3.465   26.9440
    3.480   27.7163
    3.495   28.4009
    3.510   28.9802
    3.525   30.1913
    3.540   31.4025
    3.555   34.1408
    3.570   35.1062
    3.585   35.9487
    3.600   38.2658
    3.615   39.9860
    3.630   41.8992
    3.645   43.2333
    3.660   47.2003
    3.675   49.9035
    3.690   53.8354
    3.705   56.8545
    3.720   60.3476
    3.735   64.9816
    3.750   69.8087
    3.765   76.7421
    3.780   86.3788
    3.795   98.5958
    3.810  112.6031
    3.825  131.2270
    3.840  140.5828
    3.855  130.9812
    3.870  111.2515
    3.885   82.0783
    3.900   55.4678
    3.915   35.4748
    3.930   21.4850
    3.945   14.2707
    3.960   10.9882
    3.975    9.2329
    3.990    8.2675
    4.005    7.7234
    4.020    7.5127
    4.035    7.0915
    4.050    6.9159
    4.065    6.8106
    4.080    6.5298
    4.095    6.0032
    4.110    6.2138
    4.125    5.9856
    4.140    5.8276
    4.155    6.2138
    4.170    5.9856
    4.185    6.1085
    4.200    6.4069
    4.215    6.0734
    4.230    5.9681
    4.245    5.3010
    4.260    5.9856
    4.275    6.4946
    4.290    5.6521
    4.305    5.8276
    4.320    5.8978
    4.335    6.0032
    4.350    6.0207
    4.365    5.5819
    4.380    6.0207
    4.395    6.4069
    4.410    5.8978
    4.425    5.1080
    4.440    5.9681
    4.455    5.8452
    4.470    6.0032
    4.485    5.8101
    4.500    5.5819
    4.515    5.5994
    4.530    5.3010
    4.545    5.6697
    4.560    5.8276
    4.575    5.7223
    4.590    6.2138
    4.605    6.5824
    4.620    6.1436
    4.635    5.7925
    4.650    6.3016
    4.665    6.1962
    4.680    6.2138
    4.695    6.3016
    4.710    6.8106
    4.725    6.8984
    4.740    6.5122
    4.755    6.2313
    4.770    6.0734
    4.785    6.8808
    4.800    6.7053
    4.815    6.8457
    4.830    6.7404
    4.845    7.0915
    4.860    7.0388
    4.875    7.2670
    4.890    7.6532
    4.905    7.5829
    4.920    7.1617
    4.935    8.1095
    4.950    7.8813
    4.965    8.9521
    4.980    8.2500
    4.995    8.6537
    5.010    8.8994
    5.025    8.9345
    5.040    8.7765
    5.055    9.4787
    5.070    9.6015
    5.085    9.7771
    5.100   10.2510
    5.115   10.6372
    5.130   10.9531
    5.145   11.0233
    5.160   11.7781
    5.175   12.5680
    5.190   12.6382
    5.205   13.3228
    5.220   13.8494
    5.235   14.1127
    5.250   15.2010
    5.265   15.8680
    5.280   15.9733
    5.295   17.5882
    5.310   18.5536
    5.325   19.8701
    5.340   21.6956
    5.355   23.6440
    5.370   25.1711
    5.385   27.9621
    5.400   30.4195
    5.415   34.1232
    5.430   39.2312
    5.445   46.3226
    5.460   48.2535
    5.475   47.9551
    5.490   41.8290
    5.505   32.5259
    5.520   24.0302
    5.535   16.8861
    5.550   10.7952
    5.565    8.0393
    5.580    6.3367
    5.595    5.9681
    5.610    5.7574
    5.625    5.6345
    5.640    5.3010
    5.655    5.4064
    5.670    5.8276
    5.685    5.1255
    5.700    5.0553
    5.715    5.3361
    5.730    4.9500
    5.745    5.3537
    5.760    5.1606
    5.775    5.3186
    5.790    5.4064
    5.805    4.5463
    5.820    5.0377
    5.835    5.1782
    5.850    4.5814
    5.865    4.5111
    5.880    4.7393
    5.895    4.7218
    5.910    4.9675
    5.925    4.8622
    5.940    4.8447
    5.955    4.8447
    5.970    5.1431
    5.985    4.7218
    6.000    4.9851
    6.015    5.3361
    6.030    4.9324
    6.045    4.8447
    6.060    5.0026
    6.075    5.0904
    6.090    4.9675
    6.105    4.8447
    6.120    5.3010
    6.135    4.7218
    6.150    4.7218
    6.165    5.1255
    6.180    4.9500
    6.195    5.0026
    6.210    5.1957
    6.225    5.0377
    6.240    5.4064
    6.255    5.4415
    6.270    5.5819
    6.285    5.1255
    6.300    5.7048
    6.315    5.9505
    6.330    5.8452
    6.345    5.7399
    6.360    6.1436
    6.375    6.1436
    6.390    6.4244
    6.405    6.4595
    6.420    6.0909
    6.435    6.3893
    6.450    6.6351
    6.465    7.3547
    6.480    6.8808
    6.495    7.2494
    6.510    7.6356
    6.525    7.4074
    6.540    7.7058
    6.555    8.1271
    6.570    8.5308
    6.585    8.8643
    6.600    9.5313
    6.615    9.7595
    6.630   11.0058
    6.645   11.9712
    6.660   12.6031
    6.675   13.9372
    6.690   16.1840
    6.705   17.5180
    6.720   16.7632
    6.735   14.7270
    6.750   12.6031
    6.765   10.5670
    6.780    8.0569
    6.795    7.1090
    6.810    5.8276
    6.825    5.3537
    6.840    5.0728
    6.855    5.0377
    6.870    4.9149
    6.885    4.4936
    6.900    4.2303
    6.915    4.9500
    6.930    4.5287
    6.945    4.5111
    6.960    4.8095
    6.975    4.9324
    6.990    4.6516
    7.005    4.0723
    7.020    4.7042
    7.035    4.4936
    7.050    4.5814
    7.065    4.2830
    7.080    4.3707
    7.095    4.7042
    7.110    4.4936
    7.125    4.6340
    7.140    4.8447
    7.155    4.4760
    7.170    4.7744
    7.185    4.5287
    7.200    4.3181
    7.215    4.7393
    7.230    4.9149
    7.245    4.6165
    7.260    4.6867
    7.275    4.8271
    7.290    5.0553
    7.305    4.6867
    7.320    4.8271
    7.335    4.5638
    7.350    4.8447
    7.365    4.7218
    7.380    4.8447
    7.395    4.8798
    7.410    5.1782
    7.425    5.4239
    7.440    5.5117
    7.455    5.4415
    7.470    5.5643
    7.485    5.4590
    7.500    5.5117
    7.515    5.6697
    7.530    5.8978
    7.545    5.6872
    7.560    6.0207
    7.575    6.0207
    7.590    6.2840
    7.605    6.1787
    7.620    6.8106
    7.635    7.0739
    7.650    7.3723
    7.665    7.5654
    7.680    8.0218
    7.695    8.7063
    7.710    8.8117
    7.725    9.9877
    7.740   11.1638
    7.755   11.9888
    7.770   12.1819
    7.785   11.7079
    7.800   10.0579
    7.815    8.1973
    7.830    6.8808
    7.845    5.7925
    7.860    5.4766
    7.875    5.2835
    7.890    5.0202
    7.905    4.9675
    7.920    4.5638
    7.935    4.3883
    7.950    4.4760
    7.965    4.0372
    7.980    4.5287
    7.995    4.1074
    8.010    4.3883
    8.025    4.4760
    8.040    4.3707
    8.055    4.5111
    8.070    5.0553
    8.085    4.8622
    8.100    4.5814
    8.115    4.3532
    8.130    4.0899
    8.145    4.2303
    8.160    4.3883
    8.175    3.9670
    8.190    4.6165
    8.205    4.6340
    8.220    4.5638
    8.235    4.4058
    8.250    4.3005
    8.265    4.2478
    8.280    4.1425
    8.295    5.0904
    8.310    4.3532
    8.325    4.7920
    8.340    4.3005
    8.355    4.0372
    8.370    5.0553
    8.385    4.6691
    8.400    4.4058
    8.415    4.4585
    8.430    4.4409
    8.445    4.7744
    8.460    4.7569
    8.475    4.7744
    8.490    4.7569
    8.505    4.9500
    8.520    4.5287
    8.535    4.7042
    8.550    4.7569
    8.565    4.5638
    8.580    4.6165
    8.595    5.1255
    8.610    5.1255
    8.625    5.4064
    8.640    5.1255
    8.655    5.2308
    8.670    5.5643
    8.685    5.7223
    8.700    5.8627
    8.715    5.8627
    8.730    5.6521
    8.745    4.9324
    8.760    5.0377
    8.775    4.6867
    8.790    4.2127
    8.805    4.1074
    8.820    4.0548
    8.835    4.2478
    8.850    4.5287
    8.865    4.3883
    8.880    4.4234
    8.895    4.5111
    8.910    4.8798
    8.925    4.7393
    8.940    4.4409
    8.955    4.4936
    8.970    4.8095
    8.985    5.2659
    9.000    4.4409
    9.015    4.4936
    9.030    4.6691
    9.045    4.5814
    9.060    4.6340
    9.075    4.7569
    9.090    5.2308
    9.105    4.8798
    9.120    5.3010
    9.135    4.9500
    9.150    5.5819
    9.165    5.2659
    9.180    5.1782
    9.195    5.3361
    9.210    5.4064
    9.225    6.2489
    9.240    6.1436
    9.255    6.3191
    9.270    6.4069
    9.285    6.6351
    9.300    6.3367
    9.315    6.7579
    9.330    7.1266
    9.345    7.6356
    9.360    7.6532
    9.375    8.4430
    9.390    9.2329
    9.405    9.6015
    9.420   10.6021
    9.435   10.8303
    9.450   12.0765
    9.465   13.7090
    9.480   15.6574
    9.495   18.7818
    9.510   19.3962
    9.525   21.0462
    9.540   20.0807
    9.555   18.1850
    9.570   15.6749
    9.585   11.6553
    9.600    9.5313
    9.615    6.8984
    9.630    5.5292
    9.645    5.1606
    9.660    5.4239
    9.675    4.8271
    9.690    4.6340
    9.705    4.8622
    9.720    4.4234
    9.735    4.4585
    9.750    4.3181
    9.765    4.5814
    9.780    4.3005
    9.795    4.4058
    9.810    4.1425
    9.825    4.3005
    9.840    4.7920
    9.855    4.7218
    9.870    4.3181
    9.885    4.5463
    9.900    4.6867
    9.915    4.4936
    9.930    4.2127
    9.945    4.6340
    9.960    4.9324
    9.975    4.7218
    9.990    4.6516
   10.005    4.8447
   10.020    4.7042
   10.035    4.7744
   10.050    5.1080
   10.065    4.9324
   10.080    4.8622
   10.095    4.5287
   10.110    5.4415
   10.125    5.4590
   10.140    5.4415
   10.155    5.5643
   10.170    5.5117
   10.185    6.1085
   10.200    6.4420
   10.215    6.6526
   10.230    7.4952
   10.245    8.5835
   10.260    9.2154
   10.275    9.7946
   10.290    9.8297
   10.305   10.7952
   10.320    9.4611
   10.335    8.7063
   10.350    7.6005
   10.365    6.5298
   10.380    5.7574
   10.395    5.0377
   10.410    4.6516
   10.425    4.5814
   10.440    4.7393
   10.455    4.4409
   10.470    4.1250
   10.485    4.5287
   10.500    4.2654
   10.515    4.5111
   10.530    4.5638
   10.545    4.6165
   10.560    4.4936
   10.575    4.6516
   10.590    4.4585
   10.605    4.5814
   10.620    4.4936
   10.635    4.1425
   10.650    4.4585
   10.665    4.7393
   10.680    4.9675
   10.695    4.6340
   10.710    4.6165
   10.725    4.2303
   10.740    4.6165
   10.755    4.6340
   10.770    4.8447
   10.785    4.6340
   10.800    4.7920
   10.815    5.0377
   10.830    5.0202
   10.845    4.7569
   10.860    4.7569
   10.875    5.0553
   10.890    5.5117
   10.905    5.4415
   10.920    5.9154
   10.935    5.9856
   10.950    6.3718
   10.965    6.8282
   10.980    7.2143
   10.995    8.3202
   11.010    8.8468
   11.025    8.7239
   11.040    8.0218
   11.055    7.4425
   11.070    6.1436
   11.085    5.6521
   11.100    5.2484
   11.115    5.1080
   11.130    4.5111
   11.145    4.2830
   11.160    4.5814
   11.175    4.5287
   11.190    4.3005
   11.205    4.3005
   11.220    4.2478
   11.235    4.5287
   11.250    4.3005
   11.265    4.1250
   11.280    4.5638
   11.295    4.2303
   11.310    4.0372
   11.325    3.9319
   11.340    4.6516
   11.355    4.5638
   11.370    4.5287
   11.385    4.1952
   11.400    4.2654
   11.415    4.6340
   11.430    4.6691
   11.445    4.4234
   11.460    4.5287
   11.475    4.5287
   11.490    4.8095
   11.505    5.1957
   11.520    5.1606
   11.535    4.7218
   11.550    5.1255
   11.565    5.4239
   11.580    5.4064
   11.595    5.8452
   11.610    5.9329
   11.625    6.7579
   11.640    8.0744
   11.655    8.0218
   11.670    8.1797
   11.685    9.2680
   11.700    9.8648
   11.715    8.7239
   11.730    8.0218
   11.745    6.7755
   11.760    6.1787
   11.775    5.3888
   11.790    4.6165
   11.805    4.6691
   11.820    3.9670
   11.835    4.1776
   11.850    4.2478
   11.865    4.1776
   11.880    3.9319
   11.895    3.9143
   11.910    3.8792
   11.925    3.7739
   11.940    3.6862
   11.955    3.7564
   11.970    3.4755
   11.985    3.7564
   12.000    3.7213
   12.015    3.5457
   12.030    3.6510
   12.045    3.8792
   12.060    4.0899
   12.075    3.9319
   12.090    3.8441
   12.105    4.0197
   12.120    4.1601
   12.135    4.0021
   12.150    3.9846
   12.165    3.8266
   12.180    3.7213
   12.195    3.8792
   12.210    4.2127
   12.225    4.2127
   12.240    4.2127
   12.255    4.3883
   12.270    4.5814
   12.285    4.3532
   12.300    4.5989
   12.315    4.7042
   12.330    4.8973
   12.345    4.7042
   12.360    4.8095
   12.375    4.4585
   12.390    4.6165
   12.405    4.6340
   12.420    4.4234
   12.435    3.6686
   12.450    3.7037
   12.465    3.8441
   12.480    3.9494
   12.495    3.6335
   12.510    3.5808
   12.525    4.2127
   12.540    4.0021
   12.555    4.0197
   12.570    3.7915
   12.585    4.0021
   12.600    4.2478
   12.615    4.0723
   12.630    4.1074
   12.645    4.0197
   12.660    3.8441
   12.675    3.8968
   12.690    4.4585
   12.705    4.1425
   12.720    4.3707
   12.735    4.4058
   12.750    4.3883
   12.765    4.5111
   12.780    4.3883
   12.795    4.8095
   12.810    4.9149
   12.825    4.7218
   12.840    5.1080
   12.855    5.4590
   12.870    5.2659
   12.885    6.0207
   12.900    6.6175
   12.915    7.1792
   12.930    7.0915
   12.945    7.4601
   12.960    7.3372
   12.975    6.2840
   12.990    5.1255
   13.005    5.5117
   13.020    5.3010
   13.035    4.4409
   13.050    4.3883
   13.065    4.1425
   13.080    4.0197
   13.095    3.7915
   13.110    3.6335
   13.125    4.1601
   13.140    3.7037
   13.155    3.7915
   13.170    4.0197
   13.185    4.1952
   13.200    4.1601
   13.215    3.4580
   13.230    4.1074
   13.245    3.9319
   13.260    3.9319
   13.275    3.8968
   13.290    3.7037
   13.305    3.8266
   13.320    3.8441
   13.335    3.9143
   13.350    3.7564
   13.365    3.7213
   13.380    4.1425
   13.395    4.1250
   13.410    4.5287
   13.425    4.7744
   13.440    4.3181
   13.455    4.7569
   13.470    4.8798
   13.485    5.5117
   13.500    5.3888
   13.515    5.6697
   13.530    5.4064
   13.545    5.7574
   13.560    5.0553
   13.575    4.6691
   13.590    4.3181
   13.605    4.0021
   13.620    4.0021
   13.635    4.0372
   13.650    4.1601
   13.665    3.8090
   13.680    3.9143
   13.695    4.0899
   13.710    4.1425
   13.725    3.6862
   13.740    4.0548
   13.755    3.9143
   13.770    4.0548
   13.785    4.1601
   13.800    4.3532
   13.815    4.2830
   13.830    4.4234
   13.845    4.0548
   13.860    3.6686
   13.875    3.8968
   13.890    4.5814
   13.905    4.0197
   13.920    4.2830
   13.935    5.0904
   13.950    4.5814
   13.965    4.7393
   13.980    4.5638
   13.995    4.8973
   14.010    5.1782
   14.025    6.4420
   14.040    6.3016
   14.055    6.3542
   14.070    7.1617
   14.085    6.8106
   14.100    6.8457
   14.115    6.0909
   14.130    5.7750
   14.145    5.4415
   14.160    4.7218
   14.175    4.3356
   14.190    4.1250
   14.205    3.7213
   14.220    3.6510
   14.235    4.1776
   14.250    3.7915
   14.265    3.8968
   14.280    3.8617
   14.295    3.8441
   14.310    3.8266
   14.325    3.6159
   14.340    3.6686
   14.355    3.6686
   14.370    4.0548
   14.385    3.8090
   14.400    4.0197
   14.415    4.2303
   14.430    3.8968
   14.445    4.0548
   14.460    4.1074
   14.475    3.9670
   14.490    3.5282
   14.505    4.0021
   14.520    3.8266
   14.535    3.9494
   14.550    4.1074
   14.565    3.6686
   14.580    3.7739
   14.595    3.8792
   14.610    3.8441
   14.625    4.1601
   14.640    4.1425
   14.655    3.8968
   14.670    4.3532
   14.685    3.8090
   14.700    3.7564
   14.715    3.4404
   14.730    3.3351
   14.745    3.5808
   14.760    3.6159
   14.775    3.6335
   14.790    3.6686
   14.805    3.9494
   14.820    3.7388
   14.835    3.8968
   14.850    4.1074
   14.865    3.5984
   14.880    3.8090
   14.895    3.8968
   14.910    3.8441
   14.925    3.9846
   14.940    3.5808
   14.955    3.9143
   14.970    4.1250
   14.985    4.0021
   15.000    4.0372
   15.015    3.9494
   15.030    3.9494
   15.045    3.8266
   15.060    4.2303
   15.075    4.4936
   15.090    4.3707
   15.105    4.3181
   15.120    4.0723
   15.135    4.2654
   15.150    4.0899
   15.165    4.0372
   15.180    4.1601
   15.195    4.4585
   15.210    4.0372
   15.225    3.6159
   15.240    3.6510
   15.255    4.1074
   15.270    4.1250
   15.285    3.9494
   15.300    4.0899
   15.315    3.8792
   15.330    3.8266
   15.345    3.7037
   15.360    3.4931
   15.375    3.4229
   15.390    3.4755
   15.405    3.6335
   15.420    3.5984
   15.435    4.0548
   15.450    3.9143
   15.465    3.6686
   15.480    3.8441
   15.495    3.7388
   15.510    3.7564
   15.525    3.4755
   15.540    3.6862
   15.555    3.6862
   15.570    4.0021
   15.585    3.8968
   15.600    3.8792
   15.615    3.8266
   15.630    3.9319
   15.645    3.6862
   15.660    3.7564
   15.675    3.7915
   15.690    3.8090
   15.705    4.0021
   15.720    3.6862
   15.735    4.2127
   15.750    4.1250
   15.765    3.7915
   15.780    3.9846
   15.795    3.8617
   15.810    3.6510
   15.825    3.4404
   15.840    3.7739
   15.855    3.5633
   15.870    3.9143
   15.885    4.0899
   15.900    3.7739
   15.915    3.5282
   15.930    3.5457
   15.945    3.7915
   15.960    3.8441
   15.975    3.9494
   15.990    3.9670
   16.005    4.3181
   16.020    4.1074
   16.035    4.2478
   16.050    4.1601
   16.065    4.1074
   16.080    4.2478
   16.095    4.6516
   16.110    4.4409
   16.125    4.4936
   16.140    4.5989
   16.155    4.0899
   16.170    4.1074
   16.185    4.0899
   16.200    3.8090
   16.215    3.7213
   16.230    4.1776
   16.245    3.9846
   16.260    3.8792
   16.275    3.7564
   16.290    3.7564
   16.305    3.3526
   16.320    3.7388
   16.335    3.8090
   16.350    3.8090
   16.365    3.8617
   16.380    4.2303
   16.395    3.8968
   16.410    3.9143
   16.425    3.8968
   16.440    4.0899
   16.455    4.2127
   16.470    4.3532
   16.485    4.1601
   16.500    3.8617
   16.515    3.8617
   16.530    4.0372
   16.545    3.9494
   16.560    4.5638
   16.575    4.7920
   16.590    4.5814
   16.605    4.4409
   16.620    3.8968
   16.635    4.0899
   16.650    4.3356
   16.665    4.3181
   16.680    3.9143
   16.695    3.7388
   16.710    4.0899
   16.725    4.1776
   16.740    4.0372
   16.755    3.9494
   16.770    3.8792
   16.785    4.1601
   16.800    3.8792
   16.815    4.1952
   16.830    4.0372
   16.845    4.2303
   16.860    4.1250
   16.875    4.3532
   16.890    4.3883
   16.905    4.3707
   16.920    4.0197
   16.935    4.4409
   16.950    4.7218
   16.965    4.7744
   16.980    5.1782
   16.995    5.8978
   17.010    5.3186
   17.025    5.8978
   17.040    6.7404
   17.055    6.2840
   17.070    5.7048
   17.085    5.8452
   17.100    5.4064
   17.115    4.8798
   17.130    4.7218
   17.145    4.4585
   17.160    4.2127
   17.175    4.2654
   17.190    4.1776
   17.205    4.2830
   17.220    4.3181
   17.235    4.0197
   17.250    3.8090
   17.265    3.7213
   17.280    3.9319
   17.295    3.8617
   17.310    3.5106
   17.325    3.5282
   17.340    3.8968
   17.355    3.9319
   17.370    4.1952
   17.385    3.8968
   17.400    3.9494
   17.415    3.7564
   17.430    4.0372
   17.445    4.5463
   17.460    4.2303
   17.475    4.2303
   17.490    4.0899
   17.505    4.5989
   17.520    4.8798
   17.535    4.6867
   17.550    4.1250
   17.565    4.0723
   17.580    3.9143
   17.595    3.7037
   17.610    3.8968
   17.625    3.9143
   17.640    3.8441
   17.655    4.0723
   17.670    3.5457
   17.685    3.8090
   17.700    3.8441
   17.715    4.1074
   17.730    3.9494
   17.745    3.8441
   17.760    4.0372
   17.775    3.7915
   17.790    4.1952
   17.805    3.8266
   17.820    3.8792
   17.835    3.8266
   17.850    4.3181
   17.865    4.0548
   17.880    3.7739
   17.895    3.8792
   17.910    4.3532
   17.925    4.2478
   17.940    4.3883
   17.955    4.6867
   17.970    4.2303
   17.985    4.1776
   18.000    4.5111
   18.015    4.3181
   18.030    4.0548
   18.045    3.8968
   18.060    3.4229
   18.075    3.8617
   18.090    3.8090
   18.105    3.9670
   18.120    3.6686
   18.135    3.3175
   18.150    3.5457
   18.165    3.9494
   18.180    3.8090
   18.195    3.4580
   18.210    3.7564
   18.225    4.0899
   18.240    3.8090
   18.255    3.6159
   18.270    3.9143
   18.285    4.3532
   18.300    4.0197
   18.315    4.1425
   18.330    4.0372
   18.345    4.1776
   18.360    4.4409
   18.375    4.5814
   18.390    4.4936
   18.405    4.3356
   18.420    4.0899
   18.435    4.0899
   18.450    4.1601
   18.465    4.4409
   18.480    4.2830
   18.495    4.0197
   18.510    3.9143
   18.525    3.9494
   18.540    3.9143
   18.555    3.9143
   18.570    4.0197
   18.585    4.1601
   18.600    3.7388
   18.615    3.7564
   18.630    3.3877
   18.645    3.8441
   18.660    4.3707
   18.675    4.3883
   18.690    4.2478
   18.705    3.5808
   18.720    3.6862
   18.735    3.8617
   18.750    3.9670
   18.765    3.8266
   18.780    3.8617
   18.795    4.0548
   18.810    4.3005
   18.825    4.3181
   18.840    4.2303
   18.855    4.2303
   18.870    4.0021
   18.885    3.8266
   18.900    3.8441
   18.915    4.2127
   18.930    4.0197
   18.945    3.8441
   18.960    3.8441
   18.975    3.7388
   18.990    3.5633
   19.005    3.9143
   19.020    3.9494
   19.035    3.7213
   19.050    4.0723
   19.065    3.9494
   19.080    3.7213
   19.095    3.7037
   19.110    3.7739
   19.125    3.4931
   19.140    3.9319
   19.155    3.9670
   19.170    4.0021
   19.185    4.0548
   19.200    3.9670
   19.215    3.8792
   19.230    3.9846
   19.245    3.8441
   19.260    4.1952
   19.275    3.7739
   19.290    3.7213
   19.305    3.5984
   19.320    3.8441
   19.335    3.8090
   19.350    3.9670
   19.365    3.9494
   19.380    4.0372
   19.395    3.8266
   19.410    3.8617
   19.425    4.0548
   19.440    4.0021
   19.455    4.0021
   19.470    4.4585
   19.485    4.2303
   19.500    4.2830
   19.515    4.1952
   19.530    4.3356
   19.545    4.2303
   19.560    4.3883
   19.575    4.4058
   19.590    4.4585
   19.605    4.4936
   19.620    4.5111
   19.635    4.2478
   19.650    4.3532
   19.665    4.1952
   19.680    3.7915
   19.695    3.8968
   19.710    3.8968
   19.725    4.1601
   19.740    3.7739
   19.755    3.5282
   19.770    4.0372
   19.785    4.0372
   19.800    3.7213
   19.815    3.7915
   19.830    3.8441
   19.845    3.6686
   19.860    4.0548
   19.875    3.9143
   19.890    4.0197
   19.905    3.8441
   19.920    3.7037
   19.935    3.7388
   19.950    3.9319
   19.965    4.1425
   19.980    4.1250
   19.995    4.1425
   20.010    4.2127
   20.025    4.3532
   20.040    4.3181
   20.055    4.0548
   20.070    3.8441
   20.085    4.2303
   20.100    3.8617
   20.115    3.6510
   20.130    4.1601
   20.145    4.1250
   20.160    4.0372
   20.175    3.8441
   20.190    3.7564
   20.205    4.1074
   20.220    4.5638
   20.235    4.1601
   20.250    4.2127
   20.265    4.4058
   20.280    4.2654
   20.295    4.7569
   20.310    5.0553
   20.325    4.9500
   20.340    5.1431
   20.355    5.4239
   20.370    5.7399
   20.385    6.1085
   20.400    5.7574
   20.415    5.6872
   20.430    5.7925
   20.445    5.2308
   20.460    4.3532
   20.475    3.9494
   20.490    4.1952
   20.505    4.0548
   20.520    3.9319
   20.535    4.3181
   20.550    4.0723
   20.565    4.0372
   20.580    4.1250
   20.595    4.2478
   20.610    4.0372
   20.625    4.0899
   20.640    3.6686
   20.655    3.7213
   20.670    4.3181
   20.685    4.0372
   20.700    3.8968
   20.715    4.4234
   20.730    4.1074
   20.745    4.0723
   20.760    3.7915
   20.775    3.6510
   20.790    4.0548
   20.805    4.1601
   20.820    4.1601
   20.835    4.0021
   20.850    3.6686
   20.865    3.7915
   20.880    3.9670
   20.895    3.6159
   20.910    3.9494
   20.925    4.2127
   20.940    4.0548
   20.955    3.8266
   20.970    3.8617
   20.985    4.1074
   21.000    3.7739
   21.015    3.7739
   21.030    3.7388
   21.045    3.8441
   21.060    4.1601
   21.075    3.8617
   21.090    4.0372
   21.105    3.7213
   21.120    3.6510
   21.135    4.0548
   21.150    4.1074
   21.165    3.7915
   21.180    3.7213
   21.195    3.9670
   21.210    3.9846
   21.225    3.9846
   21.240    4.2127
   21.255    4.1952
   21.270    4.2830
   21.285    3.8090
   21.300    3.9143
   21.315    4.0723
   21.330    3.7388
   21.345    3.5457
   21.360    3.5457
   21.375    3.9670
   21.390    4.0021
   21.405    4.0723
   21.420    4.0899
   21.435    4.1776
   21.450    4.0548
   21.465    3.9846
   21.480    3.7564
   21.495    4.0723
   21.510    3.8968
   21.525    4.0021
   21.540    3.9143
   21.555    3.8441
   21.570    3.5457
   21.585    3.5808
   21.600    3.6862
   21.615    4.0021
   21.630    3.8968
   21.645    3.9670
   21.660    4.1425
   21.675    4.4234
   21.690    3.9143
   21.705    3.5457
   21.720    3.7564
   21.735    3.7037
   21.750    3.9494
   21.765    4.2478
   21.780    3.5457
   21.795    3.8968
   21.810    4.4234
   21.825    4.3707
   21.840    4.1250
   21.855    4.3707
   21.870    4.3005
   21.885    4.3532
   21.900    4.0899
   21.915    4.3707
   21.930    4.4760
   21.945    4.0197
   21.960    3.8090
   21.975    4.0372
   21.990    3.8617
   22.005    4.0548
   22.020    4.0021
   22.035    4.1776
   22.050    4.2303
   22.065    4.0372
   22.080    3.9670
   22.095    4.0372
   22.110    3.8617
   22.125    4.0723
   22.140    4.1074
   22.155    4.2478
   22.170    4.2303
   22.185    4.3005
   22.200    4.1952
   22.215    4.0899
   22.230    4.2654
   22.245    4.3707
   22.260    4.1425
   22.275    4.1250
   22.290    3.8441
   22.305    4.0548
   22.320    4.0372
   22.335    3.8617
   22.350    4.0723
   22.365    3.9846
   22.380    3.9319
   22.395    4.2127
   22.410    4.2654
   22.425    4.1776
   22.440    4.1776
   22.455    4.8271
   22.470    4.7569
   22.485    4.9324
   22.500    4.7042
   22.515    4.8973
   22.530    5.4590
   22.545    5.4064
   22.560    5.3361
   22.575    5.3888
   22.590    5.3712
   22.605    5.5117
   22.620    5.1255
   22.635    4.8973
   22.650    4.8973
   22.665    4.4760
   22.680    4.2478
   22.695    4.1776
   22.710    4.0548
   22.725    4.1776
   22.740    4.3356
   22.755    4.3356
   22.770    4.3532
   22.785    4.3532
   22.800    4.7744
   22.815    4.8798
   22.830    4.5814
   22.845    5.1080
   22.860    4.8798
   22.875    6.0558
   22.890    5.7223
   22.905    5.6345
   22.920    5.8978
   22.935    6.0558
   22.950    5.5117
   22.965    5.4766
   22.980    4.9500
   22.995    4.6340
   23.010    4.9149
   23.025    4.6165
   23.040    4.4058
   23.055    4.2830
   23.070    4.1074
   23.085    3.6159
   23.100    3.9143
   23.115    4.1425
   23.130    4.0899
   23.145    4.2303
   23.160    4.7393
   23.175    4.2303
   23.190    4.4058
   23.205    4.3707
   23.220    4.5989
   23.235    4.6867
   23.250    4.9500
   23.265    4.4058
   23.280    4.2127
   23.295    4.4409
   23.310    4.2830
   23.325    4.1776
   23.340    3.9846
   23.355    4.1776
   23.370    3.9319
   23.385    3.8792
   23.400    3.6862
   23.415    3.9846
   23.430    4.0021
   23.445    3.7915
   23.460    4.2478
   23.475    3.5984
   23.490    3.7739
   23.505    4.2303
   23.520    4.2830
   23.535    3.6510
   23.550    3.8090
   23.565    3.8968
   23.580    3.9670
   23.595    4.1250
   23.610    4.3356
   23.625    3.6335
   23.640    3.8090
   23.655    3.8792
   23.670    4.0021
   23.685    4.0723
   23.700    3.9494
   23.715    3.8266
   23.730    3.7213
   23.745    3.9670
   23.760    3.5808
   23.775    3.5633
   23.790    4.1952
   23.805    4.2127
   23.820    4.1074
   23.835    4.1425
   23.850    4.2830
   23.865    4.0723
   23.880    4.2654
   23.895    4.5814
   23.910    4.4760
   23.925    4.2127
   23.940    4.3005
   23.955    4.4409
   23.970    4.3181
   23.985    4.5638
   24.000    4.1776
   24.015    3.6862
   24.030    3.8266
   24.045    3.8090
   24.060    3.8792
   24.075    4.0548
   24.090    3.9846
   24.105    3.6335
   24.120    3.5984
   24.135    3.7388
   24.150    3.6510
   24.165    4.1074
   24.180    4.0197
   24.195    3.6159
   24.210    3.5808
   24.225    3.6159
   24.240    3.3526
   24.255    3.6686
   24.270    3.5282
   24.285    3.5984
   24.300    4.0372
   24.315    3.8441
   24.330    3.8441
   24.345    3.8441
   24.360    3.5457
   24.375    3.8617
   24.390    3.7037
   24.405    4.1425
   24.420    4.1074
   24.435    3.6862
   24.450    4.0021
   24.465    4.2127
   24.480    4.1074
   24.495    4.0197
   24.510    4.1601
   24.525    4.0548
   24.540    3.9319
   24.555    4.1601
   24.570    4.0197
   24.585    3.8617
   24.600    3.8090
   24.615    4.1250
   24.630    3.9143
   24.645    4.0723
   24.660    3.8968
   24.675    3.9143
   24.690    3.8968
   24.705    3.7388
   24.720    4.3707
   24.735    3.9319
   24.750    3.5106
   24.765    3.9670
   24.780    3.8968
   24.795    4.1250
   24.810    3.7564
   24.825    3.6335
   24.840    3.7037
   24.855    3.6159
   24.870    3.7739
   24.885    3.8617
   24.900    4.0021
   24.915    4.0723
   24.930    4.0021
   24.945    3.7739
   24.960    3.5808
   24.975    3.7388
   24.990    3.7739
   25.005    3.8968
   25.020    3.6159
   25.035    3.4229
   25.050    3.4580
   25.065    3.8968
   25.080    3.7037
   25.095    3.5808
   25.110    3.8792
   25.125    3.8968
   25.140    3.8617
   25.155    4.0372
   25.170    4.0548
   25.185    3.8441
   25.200    3.8968
   25.215    4.1425
   25.230    3.9670
   25.245    4.3532
   25.260    3.9494
   25.275    3.6686
   25.290    3.7739
   25.305    4.0197
   25.320    4.0372
   25.335    3.8090
   25.350    3.7213
   25.365    3.4053
   25.380    3.4755
   25.395    4.0197
   25.410    4.0899
   25.425    3.7564
   25.440    3.7388
   25.455    3.8266
   25.470    3.9670
   25.485    4.2478
   25.500    4.4058
   25.515    4.0197
   25.530    4.1776
   25.545    4.2654
   25.560    3.5633
   25.575    3.9143
   25.590    4.0899
   25.605    4.1074
   25.620    4.1074
   25.635    4.2478
   25.650    4.1952
   25.665    3.9846
   25.680    3.9670
   25.695    3.9846
   25.710    4.2303
   25.725    4.5463
   25.740    4.0899
   25.755    4.2654
   25.770    4.5111
   25.785    5.0202
   25.800    5.0026
   25.815    5.2659
   25.830    5.2484
   25.845    5.1431
   25.860    4.7569
   25.875    5.0904
   25.890    4.7042
   25.905    4.5111
   25.920    4.1250
   25.935    3.7739
   25.950    3.6862
   25.965    3.4931
   25.980    3.8617
   25.995    3.9670
   26.010    3.9846
   26.025    4.0021
   26.040    3.6862
   26.055    3.6686
   26.070    3.5633
   26.085    3.6862
   26.100    3.7564
   26.115    3.8792
   26.130    3.8090
   26.145    3.8968
   26.160    3.6159
   26.175    3.4580
   26.190    3.7388
   26.205    3.9670
   26.220    3.6159
   26.235    3.6862
   26.250    3.4053
   26.265    3.7213
   26.280    4.0548
   26.295    3.5984
   26.310    3.8792
   26.325    3.8266
   26.340    3.8792
   26.355    4.2830
   26.370    3.8441
   26.385    4.3005
   26.400    4.5814
   26.415    4.4234
   26.430    4.1776
   26.445    4.2654
   26.460    3.8617
   26.475    3.6510
   26.490    4.2478
   26.505    3.7037
   26.520    3.8792
   26.535    3.9846
   26.550    3.9143
   26.565    3.5808
   26.580    3.7564
   26.595    3.3877
   26.610    3.4755
   26.625    3.7564
   26.640    3.4229
   26.655    3.4053
   26.670    3.5633
   26.685    3.7037
   26.700    3.6510
   26.715    3.3351
   26.730    3.4404
   26.745    3.9846
   26.760    3.7213
   26.775    3.3877
   26.790    3.7037
   26.805    3.8617
   26.820    3.4404
   26.835    3.7037
   26.850    3.8792
   26.865    3.8617
   26.880    3.7037
   26.895    3.7564
   26.910    3.8441
   26.925    3.8441
   26.940    3.7037
   26.955    3.8266
   26.970    4.2830
   26.985    4.0723
   27.000    3.9319
   27.015    4.1952
   27.030    4.0021
   27.045    4.1074
   27.060    3.9143
   27.075    3.7915
   27.090    3.8090
   27.105    4.0021
   27.120    3.7213
   27.135    4.0021
   27.150    3.7915
   27.165    3.8968
   27.180    3.8792
   27.195    4.2830
   27.210    3.8968
   27.225    3.3000
   27.240    3.1947
   27.255    3.3175
   27.270    3.7739
   27.285    3.4404
   27.300    3.6159
   27.315    3.6862
   27.330    3.7037
   27.345    3.9143
   27.360    3.5984
   27.375    3.5633
   27.390    3.6862
   27.405    3.6510
   27.420    3.5984
   27.435    3.3526
   27.450    3.6686
   27.465    3.6862
   27.480    3.5106
   27.495    3.5106
   27.510    3.8441
   27.525    3.7739
   27.540    3.5808
   27.555    4.0723
   27.570    4.1601
   27.585    3.8090
   27.600    3.8441
   27.615    3.8617
   27.630    3.7564
   27.645    4.0548
   27.660    4.0723
   27.675    3.8266
   27.690    3.6862
   27.705    3.5282
   27.720    3.8441
   27.735    3.5106
   27.750    3.3702
   27.765    3.7213
   27.780    3.6159
   27.795    3.5808
   27.810    3.3877
   27.825    3.6510
   27.840    2.9314
   27.855    3.6686
   27.870    3.9846
   27.885    3.9494
   27.900    3.7915
   27.915    3.4931
   27.930    3.5106
   27.945    3.5633
   27.960    3.4755
   27.975    3.7388
   27.990    3.7213
   28.005    3.2298
   28.020    3.6335
   28.035    3.5633
   28.050    3.6159
   28.065    3.4229
   28.080    3.6510
   28.095    4.1601
   28.110    4.1250
   28.125    3.9846
   28.140    4.1952
   28.155    4.2478
   28.170    4.0548
   28.185    3.8617
   28.200    4.0197
   28.215    4.0021
   28.230    3.8617
   28.245    3.5282
   28.260    3.6510
   28.275    3.8968
   28.290    4.0021
   28.305    3.7388
   28.320    3.5808
   28.335    3.7388
   28.350    3.7739
   28.365    3.6862
   28.380    4.0899
   28.395    4.2303
   28.410    3.9670
   28.425    4.2303
   28.440    4.2654
   28.455    3.9494
   28.470    4.5287
   28.485    4.0548
   28.500    4.2303
   28.515    4.0197
   28.530    3.7915
   28.545    3.7915
   28.560    3.7915
   28.575    3.3526
   28.590    3.3877
   28.605    3.5282
   28.620    3.3702
   28.635    3.3175
   28.650    3.6159
   28.665    3.6159
   28.680    3.8617
   28.695    3.7388
   28.710    3.5984
   28.725    3.3175
   28.740    3.7915
   28.755    3.7213
   28.770    3.6159
   28.785    3.6510
   28.800    3.5633
   28.815    3.4931
   28.830    3.4755
   28.845    3.5633
   28.860    3.5984
   28.875    3.6510
   28.890    3.4053
   28.905    3.3351
   28.920    3.6159
   28.935    3.6510
   28.950    3.2649
   28.965    3.8617
   28.980    3.9670
   28.995    3.7213
   29.010    3.9143
   29.025    3.5282
   29.040    3.5808
   29.055    3.5457
   29.070    3.4404
   29.085    3.7037
   29.100    3.7388
   29.115    3.9494
   29.130    3.7739
   29.145    3.9319
   29.160    3.4580
   29.175    3.3175
   29.190    3.4580
   29.205    3.7388
   29.220    3.9494
   29.235    3.8792
   29.250    3.9846
   29.265    3.8968
   29.280    3.8617
   29.295    3.8266
   29.310    4.3532
   29.325    4.0197
   29.340    4.0197
   29.355    3.8441
   29.370    3.3877
   29.385    3.5984
   29.400    3.8090
   29.415    3.7037
   29.430    3.2649
   29.445    3.4229
   29.460    3.6159
   29.475    3.4580
   29.490    3.6510
   29.505    3.5984
   29.520    3.3175
   29.535    3.3526
   29.550    3.1069
   29.565    3.1947
   29.580    3.3175
   29.595    3.5633
   29.610    3.6862
   29.625    3.5282
   29.640    3.4580
   29.655    3.3351
   29.670    3.2298
   29.685    3.4229
   29.700    3.5106
   29.715    3.4931
   29.730    3.4755
   29.745    3.8090
   29.760    3.9846
   29.775    3.6686
   29.790    3.7739
   29.805    3.5282
   29.820    3.3526
   29.835    3.6335
   29.850    3.5984
   29.865    3.8792
   29.880    3.7037
   29.895    3.4404
   29.910    3.4053
   29.925    3.4580
   29.940    3.1947
   29.955    3.6510
   29.970    3.1771
   29.985    3.6510
   30.000    3.5633
   30.015    3.4053
   30.030    3.4931
   30.045    3.6159
   30.060    3.1069
   30.075    3.9319
   30.090    3.7739
   30.105    3.6510
   30.120    3.8266
   30.135    3.4229
   30.150    3.4229
   30.165    3.7564
   30.180    3.5808
   30.195    3.3526
   30.210    3.6686
   30.225    3.3877
   30.240    3.5633
   30.255    3.2298
   30.270    3.3702
   30.285    3.3877
   30.300    3.6510
   30.315    3.4580
   30.330    3.4404
   30.345    3.4053
   30.360    3.3877
   30.375    3.1069
   30.390    3.1069
   30.405    3.4404
   30.420    3.4053
   30.435    3.8968
   30.450    3.2649
   30.465    3.2122
   30.480    3.3351
   30.495    3.6686
   30.510    3.5106
   30.525    3.3877
   30.540    3.4229
   30.555    3.6862
   30.570    3.2824
   30.585    3.3526
   30.600    3.6335
   30.615    3.4229
   30.630    3.5633
   30.645    3.8792
   30.660    3.5984
   30.675    3.4229
   30.690    3.8792
   30.705    3.3351
   30.720    3.3000
   30.735    3.7213
   30.750    3.8792
   30.765    3.1596
   30.780    3.2649
   30.795    3.5808
   30.810    3.1069
   30.825    3.0191
   30.840    3.0016
   30.855    3.1596
   30.870    3.4931
   30.885    3.3351
   30.900    3.8617
   30.915    3.4404
   30.930    3.4755
   30.945    3.3877
   30.960    3.4229
   30.975    3.3526
   30.990    3.5282
   31.005    3.3175
   31.020    3.4404
   31.035    3.4053
   31.050    3.6159
   31.065    3.5106
   31.080    3.3702
   31.095    3.4755
   31.110    3.4931
   31.125    3.4229
   31.140    3.3175
   31.155    3.3877
   31.170    3.3702
   31.185    3.1245
   31.200    3.3351
   31.215    3.5282
   31.230    3.3877
   31.245    3.1947
   31.260    3.1596
   31.275    3.8090
   31.290    3.1947
   31.305    2.9840
   31.320    3.4931
   31.335    3.4053
   31.350    3.3000
   31.365    3.1771
   31.380    3.5633
   31.395    3.5282
   31.410    3.4755
   31.425    3.3000
   31.440    3.1245
   31.455    3.4404
   31.470    3.2298
   31.485    3.2649
   31.500    3.3702
   31.515    3.1245
   31.530    3.5984
   31.545    2.9138
   31.560    3.4404
   31.575    3.4404
   31.590    3.2649
   31.605    3.2298
   31.620    3.4755
   31.635    3.4931
   31.650    3.2824
   31.665    3.7037
   31.680    3.2122
   31.695    3.5457
   31.710    3.2122
   31.725    3.4931
   31.740    3.3351
   31.755    3.5633
   31.770    3.1596
   31.785    3.2122
   31.800    3.2649
   31.815    2.9665
   31.830    3.2298
   31.845    3.3702
   31.860    3.3351
   31.875    3.2649
   31.890    3.1596
   31.905    3.1420
   31.920    3.5282
   31.935    3.2824
   31.950    3.5106
   31.965    3.2473
   31.980    3.3351
   31.995    3.0191
   32.010    3.6335
   32.025    3.3000
   32.040    3.0191
   32.055    3.1420
   32.070    3.1947
   32.085    2.7558
   32.100    3.0893
   32.115    3.3526
   32.130    3.0718
   32.145    3.5106
   32.160    3.2824
   32.175    3.1596
   32.190    3.2649
   32.205    3.2824
   32.220    3.0718
   32.235    3.4229
   32.250    3.0718
   32.265    2.9314
   32.280    2.9840
   32.295    3.0718
   32.310    3.1596
   32.325    2.9665
   32.340    3.2122
   32.355    3.5633
   32.370    3.3702
   32.385    3.2824
   32.400    3.3526
   32.415    3.3000
   32.430    3.4580
   32.445    3.3702
   32.460    3.0016
   32.475    2.8787
   32.490    2.8260
   32.505    3.0893
   32.520    3.0367
   32.535    3.0016
   32.550    3.0893
   32.565    3.3877
   32.580    2.9314
   32.595    2.8787
   32.610    3.3702
   32.625    3.3175
   32.640    3.2824
   32.655    3.4404
   32.670    3.3702
   32.685    3.1420
   32.700    3.1420
   32.715    3.1245
   32.730    3.1069
   32.745    3.3351
   32.760    3.0542
   32.775    3.2824
   32.790    2.6330
   32.805    3.5106
   32.820    3.2473
   32.835    3.1947
   32.850    3.1771
   32.865    3.4580
   32.880    3.4229
   32.895    3.8090
   32.910    3.3526
   32.925    3.4053
   32.940    3.6510
   32.955    3.5282
   32.970    3.5282
   32.985    3.3877
   33.000    3.2122
   33.015    3.1069
   33.030    2.9489
   33.045    3.1771
   33.060    3.4755
   33.075    2.7909
   33.090    2.9314
   33.105    3.1069
   33.120    3.3000
   33.135    3.4931
   33.150    3.3526
   33.165    3.2122
   33.180    3.3526
   33.195    2.9138
   33.210    3.2122
   33.225    3.0191
   33.240    2.9489
   33.255    2.8436
   33.270    3.2298
   33.285    3.3526
   33.300    2.9840
   33.315    3.3702
   33.330    3.2473
   33.345    3.1947
   33.360    3.1245
   33.375    3.0016
   33.390    3.2298
   33.405    3.1245
   33.420    3.3000
   33.435    3.1245
   33.450    3.1069
   33.465    3.1069
   33.480    3.2298
   33.495    3.1069
   33.510    3.2649
   33.525    3.0542
   33.540    3.2298
   33.555    3.4931
   33.570    3.0016
   33.585    2.9314
   33.600    2.9138
   33.615    3.0542
   33.630    3.0718
   33.645    3.2649
   33.660    3.1069
   33.675    3.0016
   33.690    3.2649
   33.705    3.4053
   33.720    3.2122
   33.735    3.0718
   33.750    2.9665
   33.765    2.8787
   33.780    3.2473
   33.795    3.0718
   33.810    3.3526
   33.825    3.4053
   33.840    2.7734
   33.855    3.0893
   33.870    3.1771
   33.885    3.2824
   33.900    3.0367
   33.915    3.3702
   33.930    3.1420
   33.945    3.7037
   33.960    3.4053
   33.975    3.2473
   33.990    2.9665
   34.005    3.1420
   34.020    3.1771
   34.035    3.3175
   34.050    3.3000
   34.065    2.8612
   34.080    3.1245
   34.095    2.9489
   34.110    3.0191
   34.125    3.5106
   34.140    3.3351
   34.155    3.1069
   34.170    3.4053
   34.185    3.1245
   34.200    3.0718
   34.215    2.9314
   34.230    3.1069
   34.245    3.3175
   34.260    3.0016
   34.275    2.7558
   34.290    3.3175
   34.305    3.2473
   34.320    3.5457
   34.335    3.2649
   34.350    2.8963
   34.365    2.8963
   34.380    3.1771
   34.395    3.1245
   34.410    3.0542
   34.425    2.8612
   34.440    3.0893
   34.455    3.3702
   34.470    3.1245
   34.485    2.8787
   34.500    3.1245
   34.515    3.0016
   34.530    3.1069
   34.545    2.7558
   34.560    2.5979
   34.575    3.0016
   34.590    2.9840
   34.605    2.9489
   34.620    2.9665
   34.635    3.0191
   34.650    2.9665
   34.665    2.8260
   34.680    2.9138
   34.695    2.9489
   34.710    2.9840
   34.725    3.2473
   34.740    3.2824
   34.755    3.5808
   34.770    3.2649
   34.785    3.1596
   34.800    3.1245
   34.815    3.2649
   34.830    3.4755
   34.845    3.2298
   34.860    3.0016
   34.875    3.0016
   34.890    3.0718
   34.905    3.3175
   34.920    3.0718
   34.935    3.1245
   34.950    2.8085
   34.965    3.0542
   34.980    2.8260
   34.995    3.0893
   35.010    2.8436
   35.025    3.0191
   35.040    3.1947
   35.055    2.9138
   35.070    3.1771
   35.085    2.9314
   35.100    2.9138
   35.115    3.1420
   35.130    2.9665
   35.145    2.8787
   35.160    3.0016
   35.175    2.8963
   35.190    3.3000
   35.205    2.7909
   35.220    2.7383
   35.235    2.9138
   35.250    3.2298
   35.265    3.1771
   35.280    2.9840
   35.295    3.0542
   35.310    2.9840
   35.325    2.9314
   35.340    3.1771
   35.355    2.8436
   35.370    3.0718
   35.385    2.6681
   35.400    2.7558
   35.415    2.9489
   35.430    2.8963
   35.445    3.0191
   35.460    2.8963
   35.475    3.0542
   35.490    2.8436
   35.505    2.8787
   35.520    3.1069
   35.535    2.6505
   35.550    2.8436
   35.565    3.0191
   35.580    2.7207
   35.595    2.6856
   35.610    2.8612
   35.625    2.8612
   35.640    2.7207
   35.655    2.9665
   35.670    2.9314
   35.685    2.9314
   35.700    2.9314
   35.715    3.0191
   35.730    3.1771
   35.745    2.8963
   35.760    2.7383
   35.775    2.9840
   35.790    2.8963
   35.805    2.9489
   35.820    2.9314
   35.835    3.0016
   35.850    3.1069
   35.865    3.1420
   35.880    3.0191
   35.895    2.7734
   35.910    3.0191
   35.925    3.0718
   35.940    2.8787
   35.955    2.8963
   35.970    2.9314
   35.985    2.8612
   36.000    2.8260
   36.015    3.0191
   36.030    2.7909
   36.045    2.6330
   36.060    2.9840
   36.075    3.1245
   36.090    2.9489
   36.105    3.0542
   36.120    3.1596
   36.135    2.9138
   36.150    3.0016
   36.165    3.3000
   36.180    3.1245
   36.195    2.8436
   36.210    2.7734
   36.225    2.9840
   36.240    2.8787
   36.255    2.8436
   36.270    2.9138
   36.285    2.9489
   36.300    2.7383
   36.315    2.6681
   36.330    3.0893
   36.345    2.7558
   36.360    2.5979
   36.375    3.0016
   36.390    3.0191
   36.405    2.7032
   36.420    2.7383
   36.435    2.7383
   36.450    2.8260
   36.465    2.7734
   36.480    2.8260
   36.495    2.9840
   36.510    3.2824
   36.525    3.0367
   36.540    2.8436
   36.555    2.7734
   36.570    2.8787
   36.585    2.8085
   36.600    2.5979
   36.615    2.7734
   36.630    2.5101
   36.645    2.8085
   36.660    2.8612
   36.675    2.7032
   36.690    3.0893
   36.705    2.7383
   36.720    3.0542
   36.735    2.7558
   36.750    3.1596
   36.765    2.7032
   36.780    2.7032
   36.795    2.8260
   36.810    2.6505
   36.825    2.8436
   36.840    2.7032
   36.855    2.7909
   36.870    2.5628
   36.885    3.0718
   36.900    2.9314
   36.915    2.6856
   36.930    2.8260
   36.945    2.9314
   36.960    2.7909
   36.975    2.7032
   36.990    2.8260
   37.005    2.9665
   37.020    2.5803
   37.035    2.5628
   37.050    2.7032
   37.065    3.0542
   37.080    2.8963
   37.095    2.9314
   37.110    2.7558
   37.125    2.8260
   37.140    2.5979
   37.155    2.9840
   37.170    2.9840
   37.185    2.8787
   37.200    3.0016
   37.215    2.7734
   37.230    2.6330
   37.245    2.6681
   37.260    2.7558
   37.275    2.8085
   37.290    2.8787
   37.305    2.9840
   37.320    2.5628
   37.335    2.6856
   37.350    2.8963
   37.365    2.9489
   37.380    2.6330
   37.395    2.6681
   37.410    2.9489
   37.425    2.8963
   37.440    3.0367
   37.455    2.9489
   37.470    3.0542
   37.485    2.9840
   37.500    2.8612
   37.515    2.9314
   37.530    2.8260
   37.545    2.6154
   37.560    2.8787
   37.575    3.3526
   37.590    2.8963
   37.605    2.8963
   37.620    2.8612
   37.635    2.9840
   37.650    2.4223
   37.665    2.9840
   37.680    2.7558
   37.695    2.5276
   37.710    3.1420
   37.725    2.9840
   37.740    3.0367
   37.755    2.9840
   37.770    3.0718
   37.785    2.9314
   37.800    2.7207
   37.815    2.8787
   37.830    2.5803
   37.845    2.7207
   37.860    2.7383
   37.875    2.8085
   37.890    2.8612
   37.905    2.7558
   37.920    3.0542
   37.935    2.9489
   37.950    2.9489
   37.965    3.1069
   37.980    2.8963
   37.995    2.8612
   38.010    2.8612
   38.025    2.7383
   38.040    2.7383
   38.055    2.6330
   38.070    2.7383
   38.085    2.7207
   38.100    2.7383
   38.115    3.0016
   38.130    2.8085
   38.145    2.8436
   38.160    3.2298
   38.175    3.0542
   38.190    2.9665
   38.205    2.9314
   38.220    2.8436
   38.235    2.7383
   38.250    2.6681
   38.265    2.6154
   38.280    2.7383
   38.295    2.9138
   38.310    2.6505
   38.325    3.0016
   38.340    2.5803
   38.355    2.4750
   38.370    2.6681
   38.385    2.5628
   38.400    2.7558
   38.415    2.6856
   38.430    2.8436
   38.445    3.1771
   38.460    2.8612
   38.475    2.6154
   38.490    2.7207
   38.505    2.6856
   38.520    2.9138
   38.535    2.7558
   38.550    2.7032
   38.565    2.7383
   38.580    2.8787
   38.595    2.6856
   38.610    2.6154
   38.625    2.8085
   38.640    2.7207
   38.655    2.5803
   38.670    2.5979
   38.685    2.7383
   38.700    2.8085
   38.715    2.8436
   38.730    2.7207
   38.745    2.7558
   38.760    2.7558
   38.775    2.6856
   38.790    2.6856
   38.805    2.7383
   38.820    2.5803
   38.835    2.9138
   38.850    3.0893
   38.865    2.8612
   38.880    2.8260
   38.895    2.8260
   38.910    2.9489
   38.925    2.8085
   38.940    2.6330
   38.955    2.8612
   38.970    2.6330
   38.985    2.6505
   39.000    2.7734
   39.015    2.8612
   39.030    2.8260
   39.045    2.8085
   39.060    2.8436
   39.075    2.4750
   39.090    2.9314
   39.105    2.7207
   39.120    2.7032
   39.135    2.4399
   39.150    2.6154
   39.165    2.6154
   39.180    2.7734
   39.195    2.4399
   39.210    2.5979
   39.225    2.8260
   39.240    2.5101
   39.255    2.5101
   39.270    3.0542
   39.285    2.6505
   39.300    2.8787
   39.315    2.8963
   39.330    2.4223
   39.345    2.7207
   39.360    2.9665
   39.375    2.7734
   39.390    2.6681
   39.405    2.8085
   39.420    2.6681
   39.435    2.7032
   39.450    2.5803
   39.465    2.6330
   39.480    2.6681
   39.495    2.7558
   39.510    2.7909
   39.525    2.8085
   39.540    2.9489
   39.555    2.8260
   39.570    2.5276
   39.585    2.4574
   39.600    2.4925
   39.615    2.6505
   39.630    3.0016
   39.645    2.8260
   39.660    3.0893
   39.675    2.9489
   39.690    2.8787
   39.705    2.7383
   39.720    2.6154
   39.735    2.5452
   39.750    2.6856
   39.765    2.4048
   39.780    2.9840
   39.795    2.9840
   39.810    2.8612
   39.825    2.8787
   39.840    2.9314
   39.855    2.8612
   39.870    2.7207
   39.885    2.8260
   39.900    2.5452
   39.915    2.5628
   39.930    2.6681
   39.945    2.8787
   39.960    2.7207
   39.975    2.9138
   39.990    2.8963
   40.005    2.8436
   40.020    2.7734
   40.035    2.3697
   40.050    3.0191
   40.065    2.8085
   40.080    2.6856
   40.095    2.4399
   40.110    2.7032
   40.125    2.5803
   40.140    2.7909
   40.155    2.7734
   40.170    2.6505
   40.185    2.6681
   40.200    3.0016
   40.215    2.8436
   40.230    2.9489
   40.245    3.1069
   40.260    3.0016
   40.275    2.7032
   40.290    3.0893
   40.305    2.6856
   40.320    2.9138
   40.335    3.1596
   40.350    2.7032
   40.365    2.8085
   40.380    2.8436
   40.395    2.7734
   40.410    2.7734
   40.425    3.0367
   40.440    3.3175
   40.455    3.0191
   40.470    3.0016
   40.485    3.0191
   40.500    2.9314
   40.515    3.0542
   40.530    3.0542
   40.545    2.8436
   40.560    3.0893
   40.575    2.8612
   40.590    3.1069
   40.605    3.1420
   40.620    2.8612
   40.635    2.6330
   40.650    2.7558
   40.665    3.0191
   40.680    2.9314
   40.695    2.6856
   40.710    2.5452
   40.725    2.4574
   40.740    2.7558
   40.755    2.9489
   40.770    2.8085
   40.785    2.9840
   40.800    2.9840
   40.815    2.6505
   40.830    3.1420
   40.845    2.6681
   40.860    2.8963
   40.875    3.1069
   40.890    2.7558
   40.905    2.8963
   40.920    2.9665
   40.935    3.0191
   40.950    2.7909
   40.965    2.8963
   40.980    2.8260
   40.995    2.8963
   41.010    2.6505
   41.025    2.7383
   41.040    2.6681
   41.055    2.7558
   41.070    2.9489
   41.085    2.5101
   41.100    2.4925
   41.115    2.6856
   41.130    2.5628
   41.145    2.5628
   41.160    2.6681
   41.175    2.3521
   41.190    2.6681
   41.205    2.7383
   41.220    2.8260
   41.235    2.8085
   41.250    2.7383
   41.265    3.0016
   41.280    2.7383
   41.295    2.4750
   41.310    2.8260
   41.325    2.8260
   41.340    2.6330
   41.355    2.8963
   41.370    2.8787
   41.385    2.6681
   41.400    2.8612
   41.415    2.5803
   41.430    3.1596
   41.445    3.0542
   41.460    2.8085
   41.475    2.7558
   41.490    2.9489
   41.505    2.8436
   41.520    2.9840
   41.535    3.0016
   41.550    2.8260
   41.565    2.7734
   41.580    2.3521
   41.595    2.6856
   41.610    2.5101
   41.625    2.6330
   41.640    3.0016
   41.655    2.8787
   41.670    2.6681
   41.685    2.7734
   41.700    2.6154
   41.715    2.6505
   41.730    2.6330
   41.745    2.6330
   41.760    2.8963
   41.775    2.8612
   41.790    2.9489
   41.805    2.9138
   41.820    2.6330
   41.835    2.5979
   41.850    2.6856
   41.865    2.7909
   41.880    2.6856
   41.895    2.6330
   41.910    2.6154
   41.925    2.5452
   41.940    2.7558
   41.955    2.4048
   41.970    2.6505
   41.985    2.5452
   42.000    2.6330
   42.015    2.5101
   42.030    2.6330
   42.045    2.8436
   42.060    2.5452
   42.075    2.3521
   42.090    2.4574
   42.105    2.6505
   42.120    2.8963
   42.135    2.9840
   42.150    2.7734
   42.165    2.5101
   42.180    2.7909
   42.195    2.6681
   42.210    2.7032
   42.225    2.4750
   42.240    2.6856
   42.255    2.5276
   42.270    2.6505
   42.285    2.8436
   42.300    2.7032
   42.315    2.5803
   42.330    2.5803
   42.345    2.7558
   42.360    2.7383
   42.375    2.8436
   42.390    2.9138
   42.405    2.8612
   42.420    2.9489
   42.435    2.5803
   42.450    2.5628
   42.465    2.5628
   42.480    2.4048
   42.495    2.5628
   42.510    2.7032
   42.525    2.7558
   42.540    2.9840
   42.555    2.8260
   42.570    2.5803
   42.585    2.6154
   42.600    2.9840
   42.615    2.7909
   42.630    2.4223
   42.645    2.7032
   42.660    2.6330
   42.675    2.4750
   42.690    2.4223
   42.705    2.5276
   42.720    2.9138
   42.735    2.6154
   42.750    2.3521
   42.765    2.5979
   42.780    2.8612
   42.795    2.9489
   42.810    2.8612
   42.825    3.0893
   42.840    2.8085
   42.855    2.8436
   42.870    2.5452
   42.885    2.8085
   42.900    2.9840
   42.915    2.6330
   42.930    2.5452
   42.945    2.6681
   42.960    2.5452
   42.975    2.6154
   42.990    2.6330
   43.005    2.7909
   43.020    2.7383
   43.035    2.6681
   43.050    2.8612
   43.065    2.3872
   43.080    2.6856
   43.095    2.6681
   43.110    3.0542
   43.125    3.0367
   43.140    2.6856
   43.155    2.7383
   43.170    2.7383
   43.185    2.8963
   43.200    2.9314
   43.215    2.7558
   43.230    2.8787
   43.245    2.9138
   43.260    3.0718
   43.275    3.2649
   43.290    2.8436
   43.305    2.8085
   43.320    2.8085
   43.335    2.9840
   43.350    3.0718
   43.365    2.9314
   43.380    3.2473
   43.395    2.8787
   43.410    2.5276
   43.425    2.6856
   43.440    2.8260
   43.455    2.6330
   43.470    2.7383
   43.485    2.6154
   43.500    2.2468
   43.515    2.5452
   43.530    2.5628
   43.545    2.7734
   43.560    2.4048
   43.575    2.5803
   43.590    2.6856
   43.605    2.6681
   43.620    2.9489
   43.635    2.9840
   43.650    2.9840
   43.665    2.7558
   43.680    2.5803
   43.695    2.8260
   43.710    2.5979
   43.725    2.5101
   43.740    2.5979
   43.755    3.2298
   43.770    2.9138
   43.785    3.0191
   43.800    2.4399
   43.815    2.4399
   43.830    2.5628
   43.845    3.0016
   43.860    2.7734
   43.875    2.7734
   43.890    2.7909
   43.905    2.9840
   43.920    2.6505
   43.935    2.7383
   43.950    2.4223
   43.965    2.3170
   43.980    2.8260
   43.995    2.5803
   44.010    2.6856
   44.025    2.7207
   44.040    2.8612
   44.055    2.9840
   44.070    2.7909
   44.085    2.6154
   44.100    3.0542
   44.115    2.6330
   44.130    2.5803
   44.145    2.5803
   44.160    2.8963
   44.175    2.9489
   44.190    2.7909
   44.205    2.5276
   44.220    2.9840
   44.235    2.4750
   44.250    2.6856
   44.265    2.8260
   44.280    2.8436
   44.295    2.7909
   44.310    2.8085
   44.325    2.6681
   44.340    2.3697
   44.355    2.4750
   44.370    2.9138
   44.385    2.6505
   44.400    2.7383
   44.415    2.4574
   44.430    3.0542
   44.445    3.3175
   44.460    2.7032
   44.475    2.6681
   44.490    2.8260
   44.505    2.9840
   44.520    2.7734
   44.535    2.7207
   44.550    2.8436
   44.565    2.7207
   44.580    2.5628
   44.595    2.4574
   44.610    2.4574
   44.625    2.4048
   44.640    2.4750
   44.655    2.8260
   44.670    2.6681
   44.685    2.5628
   44.700    2.5628
   44.715    2.5452
   44.730    2.6681
   44.745    2.7383
   44.760    2.5452
   44.775    2.6856
   44.790    2.8787
   44.805    2.9138
   44.820    2.9840
   44.835    2.9489
   44.850    2.5979
   44.865    2.6681
   44.880    2.5803
   44.895    2.8260
   44.910    2.8963
   44.925    2.8085
   44.940    2.8260
   44.955    2.8963
   44.970    2.9489
   44.985    2.5979
   45.000    2.2995
   45.015    2.4399
   45.030    2.7734
   45.045    2.6681
   45.060    2.7734
   45.075    2.8787
   45.090    2.8085
   45.105    2.9138
   45.120    2.5803
   45.135    2.6681
   45.150    2.5101
   45.165    2.8963
   45.180    2.5276
   45.195    2.7383
   45.210    2.8963
   45.225    2.8085
   45.240    2.5276
   45.255    2.8612
   45.270    2.5979
   45.285    2.6154
   45.300    2.4574
   45.315    2.6154
   45.330    2.8787
   45.345    2.7383
   45.360    2.7558
   45.375    2.8787
   45.390    2.7207
   45.405    2.5452
   45.420    2.8787
   45.435    2.8260
   45.450    2.6505
   45.465    2.8260
   45.480    2.7909
   45.495    2.4925
   45.510    2.4574
   45.525    2.8085
   45.540    2.4399
   45.555    2.3521
   45.570    2.5979
   45.585    2.7207
   45.600    2.9314
   45.615    2.8085
   45.630    2.7558
   45.645    2.5276
   45.660    2.7207
   45.675    2.4925
   45.690    2.4925
   45.705    2.4925
   45.720    2.5452
   45.735    2.5628
   45.750    2.7558
   45.765    2.7383
   45.780    2.7909
   45.795    2.5101
   45.810    2.8787
   45.825    2.7207
   45.840    2.5803
   45.855    2.4750
   45.870    2.9489
   45.885    2.7032
   45.900    2.8260
   45.915    2.4574
   45.930    2.4925
   45.945    2.8787
   45.960    2.7032
   45.975    2.5276
   45.990    2.4574
   46.005    2.5803
   46.020    2.7032
   46.035    2.3346
   46.050    2.5452
   46.065    2.9314
   46.080    2.7734
   46.095    2.9138
   46.110    2.7734
   46.125    2.7734
   46.140    2.9840
   46.155    2.8260
   46.170    2.6154
   46.185    2.8260
   46.200    2.6154
   46.215    2.7734
   46.230    2.9314
   46.245    2.8963
   46.260    2.8260
   46.275    2.7558
   46.290    2.7207
   46.305    3.1069
   46.320    2.7734
   46.335    2.6856
   46.350    2.5452
   46.365    2.9314
   46.380    2.8612
   46.395    2.4399
   46.410    2.6505
   46.425    3.0718
   46.440    2.7909
   46.455    2.6681
   46.470    2.6681
   46.485    2.4399
   46.500    2.6856
   46.515    2.8963
   46.530    3.1947
   46.545    3.0718
   46.560    2.8436
   46.575    2.8963
   46.590    2.9665
   46.605    2.4048
   46.620    2.4223
   46.635    2.5979
   46.650    2.8260
   46.665    2.6330
   46.680    2.4574
   46.695    2.6505
   46.710    2.7734
   46.725    2.6505
   46.740    2.9314
   46.755    2.7207
   46.770    2.9840
   46.785    2.8787
   46.800    2.6330
   46.815    2.8612
   46.830    2.9489
   46.845    3.1069
   46.860    2.7558
   46.875    2.7383
   46.890    2.5452
   46.905    2.6154
   46.920    2.4399
   46.935    2.9314
   46.950    2.8085
   46.965    2.8612
   46.980    2.5803
   46.995    2.4574
   47.010    2.4750
   47.025    2.6154
   47.040    2.6681
   47.055    2.8436
   47.070    2.7207
   47.085    2.7383
   47.100    2.7909
   47.115    2.9665
   47.130    2.7558
   47.145    2.8260
   47.160    2.3170
   47.175    2.4750
   47.190    2.4750
   47.205    2.4574
   47.220    2.2117
   47.235    2.3697
   47.250    2.5628
   47.265    2.7032
   47.280    2.9489
   47.295    2.8260
   47.310    2.7909
   47.325    2.9840
   47.340    2.8260
   47.355    2.5276
   47.370    2.5276
   47.385    2.8085
   47.400    2.7032
   47.415    2.3872
   47.430    2.4048
   47.445    2.5979
   47.460    2.3697
   47.475    2.8612
   47.490    2.5979
   47.505    2.4399
   47.520    2.6856
   47.535    2.7383
   47.550    2.7032
   47.565    2.9314
   47.580    2.8085
   47.595    2.7032
   47.610    2.4048
   47.625    2.5979
   47.640    2.9665
   47.655    2.4574
   47.670    2.6505
   47.685    2.5276
   47.700    2.4223
   47.715    2.2995
   47.730    2.5276
   47.745    2.6856
   47.760    2.5452
   47.775    2.6330
   47.790    2.7909
   47.805    2.5628
   47.820    2.2292
   47.835    2.3872
   47.850    3.0016
   47.865    2.2643
   47.880    2.2819
   47.895    2.6505
   47.910    2.3697
   47.925    2.3346
   47.940    2.1766
   47.955    2.4399
   47.970    2.5452
   47.985    2.5979
   48.000    2.2117
   48.015    2.5803
   48.030    2.3521
   48.045    2.5276
   48.060    2.5803
   48.075    2.8085
   48.090    2.4223
   48.105    2.7032
   48.120    2.8085
   48.135    2.5803
   48.150    2.4925
   48.165    2.4925
   48.180    2.3697
   48.195    2.4399
   48.210    2.2995
   48.225    2.2117
   48.240    2.5979
   48.255    2.6856
   48.270    2.6856
   48.285    2.2995
   48.300    2.7383
   48.315    2.4399
   48.330    2.6856
   48.345    2.5452
   48.360    2.4750
   48.375    2.8085
   48.390    2.5452
   48.405    2.7909
   48.420    2.5628
   48.435    2.7383
   48.450    2.6505
   48.465    2.6154
   48.480    2.7207
   48.495    2.5628
   48.510    2.4925
   48.525    2.4925
   48.540    2.3346
   48.555    2.4574
   48.570    2.7383
   48.585    2.7734
   48.600    2.6681
   48.615    2.7207
   48.630    2.6505
   48.645    2.5979
   48.660    2.6330
   48.675    2.5628
   48.690    2.4925
   48.705    2.4574
   48.720    2.3170
   48.735    2.5979
   48.750    2.4925
   48.765    2.5628
   48.780    2.7734
   48.795    2.7032
   48.810    2.5452
   48.825    2.5979
   48.840    2.6154
   48.855    2.4574
   48.870    2.4223
   48.885    2.6505
   48.900    2.5628
   48.915    2.4925
   48.930    2.3521
   48.945    2.3346
   48.960    2.6154
   48.975    2.5803
   48.990    2.2643
   49.005    2.7207
   49.020    2.5276
   49.035    2.4223
   49.050    2.5803
   49.065    2.3346
   49.080    2.3872
   49.095    3.0542
   49.110    2.7032
   49.125    2.5452
   49.140    2.5628
   49.155    2.5101
   49.170    2.3872
   49.185    2.5803
   49.200    2.4925
   49.215    2.4925
   49.230    2.4048
   49.245    2.4223
   49.260    2.5452
   49.275    2.5101
   49.290    2.4574
   49.305    2.6856
   49.320    2.9489
   49.335    2.7032
   49.350    2.8085
   49.365    2.2819
   49.380    2.2117
   49.395    2.2292
   49.410    2.3521
   49.425    2.5452
   49.440    2.4399
   49.455    2.5452
   49.470    2.4574
   49.485    2.6856
   49.500    2.5803
   49.515    2.5979
   49.530    2.3697
   49.545    2.1064
   49.560    2.3872
   49.575    2.3872
   49.590    2.2468
   49.605    2.4048
   49.620    2.7207
   49.635    2.8260
   49.650    2.2292
   49.665    2.4750
   49.680    2.6330
   49.695    2.1590
   49.710    2.0888
   49.725    2.1415
   49.740    2.5276
   49.755    2.8260
   49.770    2.5803
   49.785    2.3521
   49.800    2.3346
   49.815    2.5452
   49.830    2.5979
   49.845    2.6505
   49.860    2.7383
   49.875    2.6856
   49.890    3.0718
   49.905    2.6505
   49.920    2.4574
   49.935    2.2468
   49.950    2.2292
   49.965    2.8085
   49.980    2.4750
