    1.500   18.6730
    1.515   18.9784
    1.530   18.3781
    1.545   18.3360
    1.560   17.4408
    1.575   16.8931
    1.590   17.2617
    1.605   16.9774
    1.620   16.5350
    1.635   16.5561
    1.650   16.6509
    1.665   16.0400
    1.680   14.9131
    1.695   14.8499
    1.710   14.6709
    1.725   14.6182
    1.740   14.3023
    1.755   14.2391
    1.770   14.2601
    1.785   13.5334
    1.800   12.6804
    1.815   12.5645
    1.830   12.8067
    1.845   12.4276
    1.860   12.4276
    1.875   12.5540
    1.890   11.9958
    1.905   11.9642
    1.920   11.5008
    1.935   11.9326
    1.950   11.3744
    1.965   11.0269
    1.980   11.0269
    1.995   11.0900
    2.010   11.0374
    2.025   10.8583
    2.040   10.9110
    2.055   10.8689
    2.070   10.5951
    2.085   10.1422
    2.100   10.4160
    2.115    9.8894
    2.130   10.3423
    2.145   10.1001
    2.160    9.8473
    2.175    9.9315
    2.190    9.3628
    2.205    9.7209
    2.220    9.8262
    2.235    9.2470
    2.250    9.6472
    2.265    9.8052
    2.280    9.5735
    2.295    9.0469
    2.310    9.3944
    2.325    9.1206
    2.340    9.5945
    2.355    9.4260
    2.370    9.1417
    2.385    9.5840
    2.400    9.1417
    2.415    9.9210
    2.430    9.1206
    2.445    9.0785
    2.460    9.2996
    2.475    9.4471
    2.490    9.4576
    2.505    9.4997
    2.520    9.6998
    2.535    9.3523
    2.550    9.8578
    2.565    9.8473
    2.580    9.6051
    2.595    9.8789
    2.610   10.1001
    2.625   10.3844
    2.640   10.5951
    2.655   10.6056
    2.670   11.0900
    2.685   10.8162
    2.700   11.3744
    2.715   11.5429
    2.730   11.6588
    2.745   11.5008
    2.760   12.0169
    2.775   12.2486
    2.790   12.6172
    2.805   13.1438
    2.820   13.5229
    2.835   14.0495
    2.850   14.2707
    2.865   14.7341
    2.880   15.6609
    2.895   15.8715
    2.910   16.1769
    2.925   16.7035
    2.940   17.8304
    2.955   18.3781
    2.970   18.8942
    2.985   19.6209
    3.000   20.4845
    3.015   21.3481
    3.030   22.9595
    3.045   24.1917
    3.060   25.3081
    3.075   26.3296
    3.090   27.6145
    3.105   29.2470
    3.120   31.9642
    3.135   33.3017
    3.150   34.9658
    3.165   36.5982
    3.180   39.3470
    3.195   41.9168
    3.210   43.8231
    3.225   48.1411
    3.240   51.0900
    3.255   54.1443
    3.270   58.8310
    3.285   63.0542
    3.300   67.4882
    3.315   72.6698
    3.330   80.5582
    3.345   85.7504
    3.360   93.5334
    3.375  102.2328
    3.390  107.8146
    3.405  111.5113
    3.420  117.2933
    3.435  115.3555
    3.450  111.7325
    3.465  104.9079
    3.480   93.7546
    3.495   80.6846
    3.510   69.5524
    3.525   58.6519
    3.540   48.8046
    3.555   41.4639
    3.570   35.6082
    3.585   32.1116
    3.600   29.4681
    3.615   27.6145
    3.630   26.4139
    3.645   24.9184
    3.660   23.5492
    3.675   23.5914
    3.690   23.4439
    3.705   24.4866
    3.720   24.5392
    3.735   25.1290
    3.750   26.3296
    3.765   27.4460
    3.780   26.5508
    3.795   27.3407
    3.810   28.6993
    3.825   30.3107
    3.840   30.9321
    3.855   31.6061
    3.870   33.2280
    3.885   34.1127
    3.900   35.6398
    3.915   35.7241
    3.930   37.4513
    3.945   38.8520
    3.960   39.0837
    3.975   40.0316
    3.990   40.4107
    4.005   41.1690
    4.020   41.3060
    4.035   42.2959
    4.050   42.7172
    4.065   43.1385
    4.080   42.5698
    4.095   41.7904
    4.110   40.8320
    4.125   40.5161
    4.140   40.0105
    4.155   38.8204
    4.170   37.7672
    4.185   35.6503
    4.200   35.9979
    4.215   34.0390
    4.230   32.4171
    4.245   30.7004
    4.260   28.7625
    4.275   27.3407
    4.290   25.4239
    4.305   23.7493
    4.320   22.6962
    4.335   21.1269
    4.350   18.9152
    4.365   17.9779
    4.380   16.9036
    4.395   15.5029
    4.410   14.1548
    4.425   13.0384
    4.440   12.2801
    4.455   11.7536
    4.470   10.9005
    4.485   10.5003
    4.500   10.1001
    4.515    9.7314
    4.530    8.8257
    4.545    8.4571
    4.560    7.7514
    4.575    7.7514
    4.590    7.3512
    4.605    7.6777
    4.620    7.2986
    4.635    7.2986
    4.650    6.6035
    4.665    6.0664
    4.680    6.2559
    4.695    6.0242
    4.710    5.7925
    4.725    5.5082
    4.740    5.7925
    4.755    5.6767
    4.770    5.3712
    4.785    5.1922
    4.800    5.0764
    4.815    5.2765
    4.830    4.6972
    4.845    4.7288
    4.860    4.8025
    4.875    4.9816
    4.890    4.7183
    4.905    4.8447
    4.920    4.4866
    4.935    4.3497
    4.950    4.1074
    4.965    4.2338
    4.980    4.2549
    4.995    4.3497
    5.010    4.1811
    5.025    4.3707
    5.040    4.2970
    5.055    4.6130
    5.070    4.3286
    5.085    4.4550
    5.100    4.5603
    5.115    4.2443
    5.130    4.1180
    5.145    4.1706
    5.160    4.2654
    5.175    4.2338
    5.190    3.8547
    5.205    3.6862
    5.220    4.0337
    5.235    4.3181
    5.250    3.9073
    5.265    3.9916
    5.280    4.2022
    5.295    4.1285
    5.310    3.5914
    5.325    3.6862
    5.340    4.0758
    5.355    3.8020
    5.370    3.8231
    5.385    3.9284
    5.400    3.8652
    5.415    3.6124
    5.430    3.8231
    5.445    3.8441
    5.460    3.6440
    5.475    3.6440
    5.490    3.3281
    5.505    3.4650
    5.520    3.5914
    5.535    3.7388
    5.550    3.5387
    5.565    3.8652
    5.580    3.4229
    5.595    3.5914
    5.610    3.4650
    5.625    3.3070
    5.640    3.6230
    5.655    3.1701
    5.670    3.3175
    5.685    3.5387
    5.700    3.7072
    5.715    3.7388
    5.730    3.2543
    5.745    3.4334
    5.760    3.4650
    5.775    3.4229
    5.790    3.4544
    5.805    3.2859
    5.820    3.6230
    5.835    3.5492
    5.850    3.8652
    5.865    3.4229
    5.880    3.3386
    5.895    3.3491
    5.910    3.3702
    5.925    3.4334
    5.940    3.3913
    5.955    3.4229
    5.970    3.3913
    5.985    3.6124
    6.000    3.7493
    6.015    3.3702
    6.030    3.2965
    6.045    3.2438
    6.060    3.4018
    6.075    3.2965
    6.090    3.0016
    6.105    3.4544
    6.120    3.1069
    6.135    3.2965
    6.150    3.2333
    6.165    3.3070
    6.180    3.4966
    6.195    3.4018
    6.210    3.6335
    6.225    3.3281
    6.240    3.4334
    6.255    3.4966
    6.270    3.2017
    6.285    3.2543
    6.300    3.2965
    6.315    3.2965
    6.330    3.2754
    6.345    3.1174
    6.360    3.3070
    6.375    3.3386
    6.390    3.4755
    6.405    3.6335
    6.420    3.3702
    6.435    3.3913
    6.450    3.6124
    6.465    3.4755
    6.480    3.6230
    6.495    3.5071
    6.510    3.4439
    6.525    3.6440
    6.540    3.8020
    6.555    3.9494
    6.570    4.0864
    6.585    3.9494
    6.600    3.9389
    6.615    4.2654
    6.630    4.3391
    6.645    4.7604
    6.660    5.0448
    6.675    4.8763
    6.690    5.2027
    6.705    5.5082
    6.720    5.6345
    6.735    6.1717
    6.750    6.1822
    6.765    6.5613
    6.780    7.0879
    6.795    7.9831
    6.810    9.0363
    6.825    9.6788
    6.840    9.6472
    6.855   10.8899
    6.870   11.8483
    6.885   13.2070
    6.900   13.6493
    6.915   13.8494
    6.930   14.5445
    6.945   13.9021
    6.960   13.8705
    6.975   12.8910
    6.990   11.2796
    7.005    9.8789
    7.020    8.8468
    7.035    7.7093
    7.050    6.8141
    7.065    6.3191
    7.080    5.3502
    7.095    5.1501
    7.110    4.8763
    7.125    4.4128
    7.140    4.5708
    7.155    4.5076
    7.170    4.0337
    7.185    3.6124
    7.200    3.6335
    7.215    3.7915
    7.230    3.9494
    7.245    3.8968
    7.260    4.0021
    7.275    4.0232
    7.290    4.0232
    7.305    4.0021
    7.320    3.6651
    7.335    3.4650
    7.350    4.0548
    7.365    4.0021
    7.380    3.5282
    7.395    3.4123
    7.410    3.6862
    7.425    3.9600
    7.440    3.8757
    7.455    3.5703
    7.470    3.6440
    7.485    3.5387
    7.500    3.6862
    7.515    3.7072
    7.530    4.0653
    7.545    3.8441
    7.560    3.7599
    7.575    3.4334
    7.590    3.6967
    7.605    3.8652
    7.620    3.7809
    7.635    3.7915
    7.650    3.9705
    7.665    3.8441
    7.680    3.8125
    7.695    4.1706
    7.710    3.9284
    7.725    3.8547
    7.740    4.1601
    7.755    3.9916
    7.770    4.0232
    7.785    4.0232
    7.800    4.1811
    7.815    4.5814
    7.830    4.4234
    7.845    4.5182
    7.860    4.2127
    7.875    4.9078
    7.890    4.4760
    7.905    4.5498
    7.920    4.6656
    7.935    4.8236
    7.950    4.5076
    7.965    4.7499
    7.980    5.0342
    7.995    5.0237
    8.010    5.0237
    8.025    5.3291
    8.040    5.4766
    8.055    5.3607
    8.070    5.2975
    8.085    5.3397
    8.100    5.6872
    8.115    5.4660
    8.130    5.7188
    8.145    5.4555
    8.160    5.4028
    8.175    6.1085
    8.190    6.1295
    8.205    5.8557
    8.220    6.2665
    8.235    5.7399
    8.250    6.1611
    8.265    5.9084
    8.280    6.2875
    8.295    5.9716
    8.310    6.2770
    8.325    6.2243
    8.340    6.1506
    8.355    6.0242
    8.370    6.1927
    8.385    6.1295
    8.400    6.5719
    8.415    6.4350
    8.430    6.1401
    8.445    5.6451
    8.460    5.8662
    8.475    6.2981
    8.490    6.5824
    8.505    6.3612
    8.520    6.1295
    8.535    5.8557
    8.550    5.6661
    8.565    6.0453
    8.580    5.7083
    8.595    5.7504
    8.610    5.5398
    8.625    5.2975
    8.640    5.1606
    8.655    4.8552
    8.670    4.7920
    8.685    4.9394
    8.700    5.1711
    8.715    4.6761
    8.730    4.8657
    8.745    4.6656
    8.760    4.5708
    8.775    4.1496
    8.790    4.4128
    8.805    4.5287
    8.820    4.2338
    8.835    3.8441
    8.850    3.8652
    8.865    4.1390
    8.880    3.8125
    8.895    3.8231
    8.910    3.6124
    8.925    3.7388
    8.940    3.4860
    8.955    3.4229
    8.970    3.6124
    8.985    3.5071
    9.000    3.6440
    9.015    3.6335
    9.030    3.5282
    9.045    3.4018
    9.060    3.2543
    9.075    3.4439
    9.090    3.6019
    9.105    3.5492
    9.120    3.3597
    9.135    3.4544
    9.150    3.3913
    9.165    3.3386
    9.180    3.1069
    9.195    3.0437
    9.210    3.2438
    9.225    3.2227
    9.240    3.4544
    9.255    3.1280
    9.270    3.0964
    9.285    3.4018
    9.300    3.3807
    9.315    3.4018
    9.330    3.4229
    9.345    3.0648
    9.360    3.1701
    9.375    3.2543
    9.390    3.0016
    9.405    3.3597
    9.420    3.3070
    9.435    3.3702
    9.450    3.2122
    9.465    3.0437
    9.480    2.9279
    9.495    3.2227
    9.510    3.1280
    9.525    3.1385
    9.540    3.0648
    9.555    2.8857
    9.570    2.9595
    9.585    3.0121
    9.600    3.1490
    9.615    3.0121
    9.630    2.8752
    9.645    2.9700
    9.660    3.0858
    9.675    3.3070
    9.690    3.1490
    9.705    2.9910
    9.720    3.2965
    9.735    3.1912
    9.750    3.1490
    9.765    3.1069
    9.780    3.1069
    9.795    3.1385
    9.810    2.7909
    9.825    3.2859
    9.840    3.3175
    9.855    3.0542
    9.870    2.9700
    9.885    2.9279
    9.900    3.0858
    9.915    3.1912
    9.930    2.8963
    9.945    2.8436
    9.960    2.9489
    9.975    3.0648
    9.990    3.3070
   10.005    3.1385
   10.020    3.0542
   10.035    3.1385
   10.050    2.9700
   10.065    3.2017
   10.080    2.9279
   10.095    3.2859
   10.110    3.0121
   10.125    2.8120
   10.140    3.1490
   10.155    3.2754
   10.170    3.3175
   10.185    2.9910
   10.200    2.9384
   10.215    3.1069
   10.230    3.1490
   10.245    3.1280
   10.260    2.9173
   10.275    3.0121
   10.290    3.3913
   10.305    3.5282
   10.320    3.3281
   10.335    3.4966
   10.350    3.5071
   10.365    3.6124
   10.380    3.3913
   10.395    3.9810
   10.410    3.3702
   10.425    3.8547
   10.440    3.7599
   10.455    3.5176
   10.470    3.8757
   10.485    4.0337
   10.500    3.6756
   10.515    3.7177
   10.530    3.1280
   10.545    3.0332
   10.560    3.2754
   10.575    3.4229
   10.590    3.1069
   10.605    3.0332
   10.620    3.0121
   10.635    2.8963
   10.650    3.0753
   10.665    2.9700
   10.680    2.7067
   10.695    3.1701
   10.710    3.2438
   10.725    3.0121
   10.740    2.9595
   10.755    3.0121
   10.770    3.1385
   10.785    2.9910
   10.800    3.0753
   10.815    3.2333
   10.830    3.1280
   10.845    2.8752
   10.860    3.1280
   10.875    3.0332
   10.890    3.2754
   10.905    3.3175
   10.920    3.2227
   10.935    3.1806
   10.950    2.8225
   10.965    2.8541
   10.980    2.9595
   10.995    2.8752
   11.010    2.8857
   11.025    2.8331
   11.040    3.0648
   11.055    3.0226
   11.070    3.3070
   11.085    3.1701
   11.100    2.7699
   11.115    2.9489
   11.130    3.1069
   11.145    3.1596
   11.160    3.2333
   11.175    3.3281
   11.190    3.0016
   11.205    3.0542
   11.220    3.1069
   11.235    2.8541
   11.250    3.0332
   11.265    3.0542
   11.280    2.9279
   11.295    3.0437
   11.310    2.9700
   11.325    3.0332
   11.340    3.1280
   11.355    3.1596
   11.370    2.9700
   11.385    3.0648
   11.400    3.1912
   11.415    3.1596
   11.430    3.0964
   11.445    3.0437
   11.460    2.8647
   11.475    2.7488
   11.490    2.9595
   11.505    2.9700
   11.520    2.7383
   11.535    3.0753
   11.550    3.1174
   11.565    3.3386
   11.580    2.9700
   11.595    2.8963
   11.610    3.0226
   11.625    3.1280
   11.640    2.9068
   11.655    3.0753
   11.670    3.2754
   11.685    3.0121
   11.700    3.2122
   11.715    2.9279
   11.730    2.9805
   11.745    2.9595
   11.760    2.9805
   11.775    2.9489
   11.790    3.0226
   11.805    3.2649
   11.820    3.1806
   11.835    3.2017
   11.850    3.2017
   11.865    3.0964
   11.880    3.2122
   11.895    3.2859
   11.910    3.2227
   11.925    2.8857
   11.940    3.1912
   11.955    3.2965
   11.970    3.2859
   11.985    3.3386
   12.000    3.4755
   12.015    3.3281
   12.030    2.9489
   12.045    3.2017
   12.060    3.2438
   12.075    3.2543
   12.090    3.4860
   12.105    3.4229
   12.120    3.1806
   12.135    3.2227
   12.150    3.3175
   12.165    3.1385
   12.180    3.1280
   12.195    3.5176
   12.210    3.4650
   12.225    3.6967
   12.240    3.3175
   12.255    3.5282
   12.270    3.2649
   12.285    3.2859
   12.300    3.2859
   12.315    3.5598
   12.330    3.5387
   12.345    3.4650
   12.360    3.4966
   12.375    3.4334
   12.390    3.3175
   12.405    3.2754
   12.420    3.2754
   12.435    3.8125
   12.450    3.5598
   12.465    3.3281
   12.480    3.0437
   12.495    3.3913
   12.510    3.7177
   12.525    3.6651
   12.540    3.5176
   12.555    3.3175
   12.570    3.5071
   12.585    3.5071
   12.600    3.6230
   12.615    3.5703
   12.630    3.4966
   12.645    3.6019
   12.660    3.4334
   12.675    3.7809
   12.690    3.7599
   12.705    3.6862
   12.720    3.4229
   12.735    3.4860
   12.750    3.3702
   12.765    3.2859
   12.780    3.4860
   12.795    3.4439
   12.810    3.6230
   12.825    3.7388
   12.840    3.8863
   12.855    3.6440
   12.870    3.4334
   12.885    3.5808
   12.900    3.4966
   12.915    3.4966
   12.930    3.3175
   12.945    3.4860
   12.960    3.5914
   12.975    3.6967
   12.990    3.5071
   13.005    3.4650
   13.020    3.3175
   13.035    3.3702
   13.050    3.3913
   13.065    3.1280
   13.080    3.3175
   13.095    3.4860
   13.110    3.4650
   13.125    3.2965
   13.140    3.1490
   13.155    3.4229
   13.170    3.4544
   13.185    3.3070
   13.200    2.9173
   13.215    2.8331
   13.230    3.2965
   13.245    3.1596
   13.260    3.3807
   13.275    3.1174
   13.290    3.0437
   13.305    3.2227
   13.320    3.4018
   13.335    3.4860
   13.350    3.3597
   13.365    3.1912
   13.380    3.1490
   13.395    3.0226
   13.410    3.4334
   13.425    3.0858
   13.440    3.3386
   13.455    3.2438
   13.470    3.3913
   13.485    3.0648
   13.500    3.1385
   13.515    3.2543
   13.530    3.1490
   13.545    3.2965
   13.560    3.0858
   13.575    3.3386
   13.590    3.4650
   13.605    3.2649
   13.620    3.0964
   13.635    3.5071
   13.650    3.4860
   13.665    3.6124
   13.680    3.6019
   13.695    3.3491
   13.710    3.1069
   13.725    3.3913
   13.740    3.5071
   13.755    3.3281
   13.770    2.9805
   13.785    3.1596
   13.800    3.1806
   13.815    3.1280
   13.830    3.1174
   13.845    3.3702
   13.860    3.4650
   13.875    3.0016
   13.890    3.0437
   13.905    3.2543
   13.920    3.3597
   13.935    3.3491
   13.950    3.1596
   13.965    2.9489
   13.980    3.2333
   13.995    3.3070
   14.010    3.3491
   14.025    3.2859
   14.040    3.6546
   14.055    3.3070
   14.070    2.8541
   14.085    3.1596
   14.100    3.2227
   14.115    3.1596
   14.130    3.5071
   14.145    3.0964
   14.160    3.0226
   14.175    3.2649
   14.190    3.2649
   14.205    3.1596
   14.220    3.2227
   14.235    3.1912
   14.250    3.0964
   14.265    2.9595
   14.280    3.1174
   14.295    2.9068
   14.310    3.0542
   14.325    3.1174
   14.340    2.7278
   14.355    2.8331
   14.370    2.8331
   14.385    2.8647
   14.400    2.8752
   14.415    3.1069
   14.430    3.1069
   14.445    3.0332
   14.460    2.7383
   14.475    3.2333
   14.490    3.2017
   14.505    2.8331
   14.520    2.8752
   14.535    3.1490
   14.550    2.7172
   14.565    2.8541
   14.580    3.0226
   14.595    2.9384
   14.610    2.9279
   14.625    3.1490
   14.640    3.0226
   14.655    2.8752
   14.670    2.7909
   14.685    2.8963
   14.700    2.7488
   14.715    2.9595
   14.730    2.8541
   14.745    2.9384
   14.760    2.9595
   14.775    2.9279
   14.790    2.9700
   14.805    3.0858
   14.820    3.0858
   14.835    3.0437
   14.850    3.1596
   14.865    2.6540
   14.880    2.9279
   14.895    2.9489
   14.910    2.8647
   14.925    2.8963
   14.940    2.9595
   14.955    3.0753
   14.970    2.9700
   14.985    2.9384
   15.000    2.9700
   15.015    2.8015
   15.030    2.9279
   15.045    2.7804
   15.060    2.8436
   15.075    2.6751
   15.090    2.9279
   15.105    3.1174
   15.120    3.0016
   15.135    2.8331
   15.150    2.9068
   15.165    2.8647
   15.180    3.0648
   15.195    3.2965
   15.210    3.0964
   15.225    2.7172
   15.240    2.7278
   15.255    3.0226
   15.270    2.7593
   15.285    3.1280
   15.300    2.8120
   15.315    2.9279
   15.330    2.9910
   15.345    3.3702
   15.360    3.0016
   15.375    3.2017
   15.390    3.1490
   15.405    2.9489
   15.420    3.0121
   15.435    3.2438
   15.450    2.8963
   15.465    2.9173
   15.480    3.0753
   15.495    3.0753
   15.510    2.9910
   15.525    3.1806
   15.540    3.0226
   15.555    3.0016
   15.570    3.0858
   15.585    2.8752
   15.600    3.0753
   15.615    3.0753
   15.630    3.0753
   15.645    2.8541
   15.660    3.0753
   15.675    3.1490
   15.690    3.0542
   15.705    3.3175
   15.720    3.3913
   15.735    3.1280
   15.750    3.1912
   15.765    3.1280
   15.780    2.9173
   15.795    3.1280
   15.810    3.0016
   15.825    3.2227
   15.840    3.0016
   15.855    3.0121
   15.870    3.1174
   15.885    2.9068
   15.900    2.9068
   15.915    3.1490
   15.930    3.0332
   15.945    3.2754
   15.960    3.4123
   15.975    3.1912
   15.990    3.3175
   16.005    3.4755
   16.020    3.2965
   16.035    2.8647
   16.050    2.9700
   16.065    3.0332
   16.080    3.0648
   16.095    3.1596
   16.110    3.0016
   16.125    3.2227
   16.140    3.1596
   16.155    2.9384
   16.170    3.1280
   16.185    3.0753
   16.200    3.0964
   16.215    2.9595
   16.230    2.9279
   16.245    3.0121
   16.260    3.0964
   16.275    3.0753
   16.290    2.9068
   16.305    3.1174
   16.320    2.8436
   16.335    2.9279
   16.350    2.7488
   16.365    2.9489
   16.380    3.0753
   16.395    2.8225
   16.410    2.9489
   16.425    3.0648
   16.440    2.9595
   16.455    3.1385
   16.470    3.0858
   16.485    2.6646
   16.500    2.8963
   16.515    3.2017
   16.530    2.8436
   16.545    2.8225
   16.560    3.0858
   16.575    3.0437
   16.590    3.2543
   16.605    3.3070
   16.620    2.9595
   16.635    3.1069
   16.650    2.9384
   16.665    2.7699
   16.680    2.7488
   16.695    2.9805
   16.710    2.9805
   16.725    2.9700
   16.740    2.9384
   16.755    3.0121
   16.770    2.8225
   16.785    3.0016
   16.800    3.2122
   16.815    2.8120
   16.830    2.8015
   16.845    2.9910
   16.860    3.2122
   16.875    3.2227
   16.890    2.9279
   16.905    2.6224
   16.920    2.8963
   16.935    3.0226
   16.950    2.9489
   16.965    3.0226
   16.980    2.9489
   16.995    2.7278
   17.010    2.8436
   17.025    2.9068
   17.040    2.8752
   17.055    2.8752
   17.070    3.0016
   17.085    3.1490
   17.100    3.1385
   17.115    3.2227
   17.130    3.0121
   17.145    2.9595
   17.160    3.1069
   17.175    3.1069
   17.190    2.7909
   17.205    2.7804
   17.220    3.2227
   17.235    2.9279
   17.250    2.9805
   17.265    3.0332
   17.280    3.1596
   17.295    3.1174
   17.310    3.1174
   17.325    2.7383
   17.340    2.9805
   17.355    2.8541
   17.370    2.8963
   17.385    3.1806
   17.400    3.1069
   17.415    3.1596
   17.430    3.0121
   17.445    2.8541
   17.460    2.7804
   17.475    2.9805
   17.490    3.1806
   17.505    2.9595
   17.520    2.9595
   17.535    2.9595
   17.550    3.1596
   17.565    2.8436
   17.580    2.8752
   17.595    2.8647
   17.610    2.8015
   17.625    3.1596
   17.640    2.9910
   17.655    3.2543
   17.670    3.0753
   17.685    3.1806
   17.700    3.1806
   17.715    3.1912
   17.730    2.7593
   17.745    3.0121
   17.760    2.9805
   17.775    2.9173
   17.790    3.1385
   17.805    3.0332
   17.820    3.0332
   17.835    2.9805
   17.850    3.0121
   17.865    2.6856
   17.880    3.0016
   17.895    3.1174
   17.910    2.9805
   17.925    3.0964
   17.940    3.0016
   17.955    3.1069
   17.970    3.1806
   17.985    2.9279
   18.000    3.2017
   18.015    3.0542
   18.030    2.9910
   18.045    2.9595
   18.060    2.9173
   18.075    3.0016
   18.090    3.1069
   18.105    3.0121
   18.120    2.9173
   18.135    2.8331
   18.150    3.0858
   18.165    3.0121
   18.180    2.9910
   18.195    2.9384
   18.210    2.9489
   18.225    3.1280
   18.240    3.3070
   18.255    3.0964
   18.270    3.3702
   18.285    2.9805
   18.300    2.8752
   18.315    3.2649
   18.330    3.4123
   18.345    3.3807
   18.360    3.1490
   18.375    2.9384
   18.390    3.1806
   18.405    3.2438
   18.420    2.9700
   18.435    3.2754
   18.450    3.2333
   18.465    3.0648
   18.480    3.1069
   18.495    3.1069
   18.510    2.9805
   18.525    2.9910
   18.540    3.2754
   18.555    3.0332
   18.570    3.2017
   18.585    2.9279
   18.600    2.8436
   18.615    3.2333
   18.630    3.1912
   18.645    3.0437
   18.660    3.0437
   18.675    3.0648
   18.690    3.2333
   18.705    2.9173
   18.720    2.9173
   18.735    2.9910
   18.750    3.2965
   18.765    3.0542
   18.780    3.1174
   18.795    2.9595
   18.810    3.2017
   18.825    3.0437
   18.840    3.0964
   18.855    2.9173
   18.870    3.1912
   18.885    3.2227
   18.900    3.2543
   18.915    3.2227
   18.930    2.8857
   18.945    3.0016
   18.960    2.8647
   18.975    3.0858
   18.990    3.1174
   19.005    3.0121
   19.020    2.8647
   19.035    2.8647
   19.050    2.9279
   19.065    3.1806
   19.080    3.2438
   19.095    3.1806
   19.110    2.8120
   19.125    2.8963
   19.140    3.0753
   19.155    3.0648
   19.170    3.0016
   19.185    3.3070
   19.200    3.1280
   19.215    3.1069
   19.230    3.0016
   19.245    3.0437
   19.260    3.4229
   19.275    3.2017
   19.290    2.8541
   19.305    3.1385
   19.320    2.9595
   19.335    3.1490
   19.350    2.9910
   19.365    3.1174
   19.380    3.2122
   19.395    3.2649
   19.410    3.2754
   19.425    3.4123
   19.440    3.3281
   19.455    3.3175
   19.470    3.3702
   19.485    2.8752
   19.500    3.1701
   19.515    3.3070
   19.530    3.5492
   19.545    3.2543
   19.560    3.3491
   19.575    3.2754
   19.590    3.3175
   19.605    3.2754
   19.620    3.3175
   19.635    3.2227
   19.650    3.6756
   19.665    3.4544
   19.680    3.2965
   19.695    3.2438
   19.710    2.9910
   19.725    3.4439
   19.740    3.3386
   19.755    3.3491
   19.770    3.5914
   19.785    3.4018
   19.800    3.1385
   19.815    3.4229
   19.830    3.3597
   19.845    3.3281
   19.860    3.2859
   19.875    3.2649
   19.890    3.2649
   19.905    3.4334
   19.920    3.4334
   19.935    3.4755
   19.950    3.3913
   19.965    3.5387
   19.980    3.6440
   19.995    3.3913
   20.010    3.3913
   20.025    3.4018
   20.040    3.1701
   20.055    3.4544
   20.070    3.6335
   20.085    3.5598
   20.100    3.5387
   20.115    3.2438
   20.130    3.0964
   20.145    3.4860
   20.160    3.7493
   20.175    3.4650
   20.190    3.5703
   20.205    3.5387
   20.220    3.4755
   20.235    3.4439
   20.250    3.4334
   20.265    3.5914
   20.280    3.3597
   20.295    3.5282
   20.310    3.6651
   20.325    3.5598
   20.340    3.7493
   20.355    3.5071
   20.370    3.7915
   20.385    3.6862
   20.400    3.5703
   20.415    3.2754
   20.430    3.3386
   20.445    3.3807
   20.460    3.1912
   20.475    3.4860
   20.490    3.5598
   20.505    3.4650
   20.520    3.6756
   20.535    3.6335
   20.550    3.6230
   20.565    3.2754
   20.580    3.5703
   20.595    3.2965
   20.610    2.9489
   20.625    3.2227
   20.640    3.3702
   20.655    3.6230
   20.670    3.3070
   20.685    3.1490
   20.700    3.4439
   20.715    3.5176
   20.730    3.4229
   20.745    3.3702
   20.760    3.5071
   20.775    3.4544
   20.790    3.5703
   20.805    3.3386
   20.820    3.6546
   20.835    3.4018
   20.850    3.4544
   20.865    3.4966
   20.880    3.4334
   20.895    3.2543
   20.910    3.1596
   20.925    3.0542
   20.940    3.0437
   20.955    3.5703
   20.970    3.4650
   20.985    3.5071
   21.000    3.2122
   21.015    3.4544
   21.030    3.5071
   21.045    3.6230
   21.060    3.4966
   21.075    3.6546
   21.090    3.7388
   21.105    3.3702
   21.120    3.4650
   21.135    3.3597
   21.150    3.5071
   21.165    3.4439
   21.180    3.2754
   21.195    3.1280
   21.210    3.0964
   21.225    3.5282
   21.240    3.4439
   21.255    3.6335
   21.270    3.4123
   21.285    3.6967
   21.300    3.2859
   21.315    3.2649
   21.330    3.0016
   21.345    3.4755
   21.360    3.2438
   21.375    3.0121
   21.390    3.2649
   21.405    3.3807
   21.420    3.4229
   21.435    3.3175
   21.450    3.2754
   21.465    3.4334
   21.480    3.2543
   21.495    3.2122
   21.510    3.4123
   21.525    3.3913
   21.540    3.3386
   21.555    3.7388
   21.570    3.4544
   21.585    3.2227
   21.600    3.3597
   21.615    3.5282
   21.630    3.2438
   21.645    3.4123
   21.660    3.3597
   21.675    3.4439
   21.690    3.4650
   21.705    3.4650
   21.720    3.2859
   21.735    3.3070
   21.750    3.1806
   21.765    3.1701
   21.780    3.1385
   21.795    3.4229
   21.810    3.5492
   21.825    3.4544
   21.840    3.3491
   21.855    3.3597
   21.870    3.2438
   21.885    3.5387
   21.900    3.6756
   21.915    3.3281
   21.930    3.5914
   21.945    3.2649
   21.960    3.2649
   21.975    3.1069
   21.990    3.3702
   22.005    3.3070
   22.020    3.5703
   22.035    3.6019
   22.050    3.5071
   22.065    3.3386
   22.080    3.5387
   22.095    3.3070
   22.110    3.3070
   22.125    3.8336
   22.140    3.5598
   22.155    2.9068
   22.170    3.1806
   22.185    3.4544
   22.200    3.5282
   22.215    3.1490
   22.230    3.4650
   22.245    3.4544
   22.260    3.3913
   22.275    3.4966
   22.290    3.3386
   22.305    3.4544
   22.320    3.3281
   22.335    3.3070
   22.350    3.3281
   22.365    3.4650
   22.380    3.5808
   22.395    3.2017
   22.410    3.2122
   22.425    3.2017
   22.440    3.6440
   22.455    3.4860
   22.470    3.3702
   22.485    3.5071
   22.500    3.4018
   22.515    2.9595
   22.530    3.2017
   22.545    3.2543
   22.560    3.4439
   22.575    3.3702
   22.590    3.5598
   22.605    3.7809
   22.620    3.6335
   22.635    3.3913
   22.650    3.2017
   22.665    3.2227
   22.680    3.4650
   22.695    3.2754
   22.710    3.3491
   22.725    3.2859
   22.740    3.2543
   22.755    3.0648
   22.770    3.4123
   22.785    3.3913
   22.800    3.3702
   22.815    3.2122
   22.830    3.0858
   22.845    3.4650
   22.860    3.0332
   22.875    2.9910
   22.890    3.1174
   22.905    3.4018
   22.920    3.3386
   22.935    3.1912
   22.950    3.2017
   22.965    3.1596
   22.980    3.3491
   22.995    3.3386
   23.010    3.2227
   23.025    3.3175
   23.040    3.4544
   23.055    3.3491
   23.070    3.1701
   23.085    3.1596
   23.100    3.1596
   23.115    3.0964
   23.130    3.2859
   23.145    3.0226
   23.160    3.3070
   23.175    3.3702
   23.190    3.1385
   23.205    2.9595
   23.220    3.0542
   23.235    3.1806
   23.250    3.1385
   23.265    3.1806
   23.280    3.2649
   23.295    3.4018
   23.310    3.0858
   23.325    3.2965
   23.340    3.0753
   23.355    3.1385
   23.370    3.1596
   23.385    3.2543
   23.400    3.1490
   23.415    3.2649
   23.430    3.2649
   23.445    3.4439
   23.460    3.1806
   23.475    2.9595
   23.490    3.0753
   23.505    3.2649
   23.520    2.8436
   23.535    2.9279
   23.550    2.9384
   23.565    3.1385
   23.580    3.4650
   23.595    3.2122
   23.610    3.1174
   23.625    3.1385
   23.640    3.3597
   23.655    3.0858
   23.670    3.1596
   23.685    3.1069
   23.700    2.9489
   23.715    3.2227
   23.730    3.3597
   23.745    3.1174
   23.760    3.2017
   23.775    3.1806
   23.790    3.2227
   23.805    3.0226
   23.820    3.3913
   23.835    3.2227
   23.850    3.2333
   23.865    3.2859
   23.880    3.1806
   23.895    3.4018
   23.910    3.4018
   23.925    3.0016
   23.940    3.2017
   23.955    3.0226
   23.970    3.0964
   23.985    2.8963
   24.000    2.9279
   24.015    3.1596
   24.030    3.2543
   24.045    3.3702
   24.060    3.2859
   24.075    3.1174
   24.090    3.2333
   24.105    3.2438
   24.120    2.9595
   24.135    3.2017
   24.150    3.0332
   24.165    3.2333
   24.180    3.0226
   24.195    3.3175
   24.210    3.4544
   24.225    3.2543
   24.240    3.0542
   24.255    3.0542
   24.270    3.1280
   24.285    3.1385
   24.300    2.9805
   24.315    3.0332
   24.330    3.1701
   24.345    3.1701
   24.360    3.0437
   24.375    3.1701
   24.390    3.2965
   24.405    3.2754
   24.420    3.1174
   24.435    3.3491
   24.450    3.1701
   24.465    3.4544
   24.480    3.3702
   24.495    3.5176
   24.510    3.1701
   24.525    3.4755
   24.540    3.3281
   24.555    3.4439
   24.570    3.2333
   24.585    3.3175
   24.600    3.3702
   24.615    3.3281
   24.630    3.2017
   24.645    3.3913
   24.660    3.3281
   24.675    3.0121
   24.690    3.1174
   24.705    3.0016
   24.720    3.2543
   24.735    3.2122
   24.750    3.1596
   24.765    3.1385
   24.780    2.9910
   24.795    3.0753
   24.810    3.1912
   24.825    2.9910
   24.840    2.8857
   24.855    3.0332
   24.870    3.4018
   24.885    3.1701
   24.900    3.1701
   24.915    2.9068
   24.930    3.0437
   24.945    2.9068
   24.960    3.1385
   24.975    3.1069
   24.990    3.0121
   25.005    2.9384
   25.020    3.0753
   25.035    3.0648
   25.050    3.0226
   25.065    2.9595
   25.080    3.0332
   25.095    2.9279
   25.110    3.1596
   25.125    3.4018
   25.140    3.1069
   25.155    3.1806
   25.170    3.3281
   25.185    3.1912
   25.200    3.0964
   25.215    2.7278
   25.230    2.8015
   25.245    3.0753
   25.260    3.1069
   25.275    2.9384
   25.290    2.9173
   25.305    3.0121
   25.320    3.0226
   25.335    3.0121
   25.350    3.2122
   25.365    3.0226
   25.380    2.8015
   25.395    3.0542
   25.410    3.1701
   25.425    3.0226
   25.440    2.8752
   25.455    3.0753
   25.470    2.9068
   25.485    2.9700
   25.500    2.8120
   25.515    2.8120
   25.530    2.8436
   25.545    3.0753
   25.560    3.0121
   25.575    3.0858
   25.590    2.9068
   25.605    2.9805
   25.620    3.2649
   25.635    2.8015
   25.650    2.8857
   25.665    3.0648
   25.680    2.9910
   25.695    2.7699
   25.710    2.6330
   25.725    2.7593
   25.740    2.9173
   25.755    3.1701
   25.770    3.1490
   25.785    3.0858
   25.800    2.7909
   25.815    2.9910
   25.830    2.8015
   25.845    2.9279
   25.860    2.9489
   25.875    3.0121
   25.890    2.8120
   25.905    2.8541
   25.920    2.7699
   25.935    2.8647
   25.950    2.8752
   25.965    2.7909
   25.980    2.5908
   25.995    2.7172
   26.010    2.6856
   26.025    2.8541
   26.040    2.8963
   26.055    2.9068
   26.070    2.8120
   26.085    2.7488
   26.100    2.5803
   26.115    2.8541
   26.130    2.6435
   26.145    2.5276
   26.160    2.7383
   26.175    2.7909
   26.190    2.8120
   26.205    2.8225
   26.220    2.9173
   26.235    2.6540
   26.250    2.5908
   26.265    2.8225
   26.280    2.6540
   26.295    2.9173
   26.310    2.9173
   26.325    2.7699
   26.340    2.8857
   26.355    2.7278
   26.370    2.6751
   26.385    2.5803
   26.400    2.7804
   26.415    2.6224
   26.430    2.7909
   26.445    2.6540
   26.460    2.9384
   26.475    2.7172
   26.490    2.7909
   26.505    2.6856
   26.520    2.7804
   26.535    2.7593
   26.550    2.7909
   26.565    2.8647
   26.580    2.9910
   26.595    2.6330
   26.610    2.8120
   26.625    2.8963
   26.640    2.7804
   26.655    2.7593
   26.670    2.9700
   26.685    2.7278
   26.700    2.6856
   26.715    2.8857
   26.730    2.8015
   26.745    2.8015
   26.760    2.6856
   26.775    2.8331
   26.790    3.0753
   26.805    2.8541
   26.820    2.7593
   26.835    2.6751
   26.850    2.8857
   26.865    3.0226
   26.880    2.7804
   26.895    2.7488
   26.910    2.4539
   26.925    2.6540
   26.940    2.6646
   26.955    2.6856
   26.970    2.7278
   26.985    2.7804
   27.000    3.1174
   27.015    2.7278
   27.030    2.7804
   27.045    2.6751
   27.060    2.5908
   27.075    2.8436
   27.090    2.9173
   27.105    2.7278
   27.120    2.8436
   27.135    2.8225
   27.150    2.5803
   27.165    2.6856
   27.180    2.8752
   27.195    2.8015
   27.210    2.7488
   27.225    2.7593
   27.240    2.5908
   27.255    2.6751
   27.270    2.7383
   27.285    2.7488
   27.300    2.4961
   27.315    2.8331
   27.330    2.9595
   27.345    2.9910
   27.360    2.9068
   27.375    2.8647
   27.390    2.6435
   27.405    2.6330
   27.420    2.7804
   27.435    2.7909
   27.450    2.9384
   27.465    2.6540
   27.480    2.7067
   27.495    2.5908
   27.510    2.6224
   27.525    2.5487
   27.540    2.6751
   27.555    2.6856
   27.570    2.5276
   27.585    2.6856
   27.600    2.7278
   27.615    2.6646
   27.630    2.6751
   27.645    2.8015
   27.660    2.8963
   27.675    2.8436
   27.690    2.7278
   27.705    2.6856
   27.720    2.8963
   27.735    2.9068
   27.750    2.7172
   27.765    2.5171
   27.780    2.6540
   27.795    2.8015
   27.810    3.0226
   27.825    3.0332
   27.840    2.7067
   27.855    2.7383
   27.870    2.7172
   27.885    3.0332
   27.900    2.7699
   27.915    2.8752
   27.930    2.7067
   27.945    2.7278
   27.960    2.7278
   27.975    2.6751
   27.990    2.6540
   28.005    2.8225
   28.020    3.0226
   28.035    2.8436
   28.050    3.0016
   28.065    2.8857
   28.080    3.0437
   28.095    3.0226
   28.110    2.8541
   28.125    2.8752
   28.140    3.0542
   28.155    2.9279
   28.170    3.0858
   28.185    2.9489
   28.200    2.7067
   28.215    2.9384
   28.230    2.8647
   28.245    3.0332
   28.260    2.8541
   28.275    3.1490
   28.290    2.9910
   28.305    2.5908
   28.320    2.8436
   28.335    2.7278
   28.350    2.8436
   28.365    2.6962
   28.380    2.9700
   28.395    2.9068
   28.410    2.7172
   28.425    2.7278
   28.440    2.7699
   28.455    2.7909
   28.470    2.8015
   28.485    2.7804
   28.500    2.8436
   28.515    2.8963
   28.530    2.7067
   28.545    2.6856
   28.560    2.8436
   28.575    2.8331
   28.590    2.6751
   28.605    2.7488
   28.620    2.4434
   28.635    2.6540
   28.650    2.3802
   28.665    2.4750
   28.680    2.6330
   28.695    2.7067
   28.710    2.5908
   28.725    2.7593
   28.740    2.5066
   28.755    2.7067
   28.770    2.6751
   28.785    2.6014
   28.800    2.6646
   28.815    2.6646
   28.830    2.7172
   28.845    2.7909
   28.860    2.8857
   28.875    2.6014
   28.890    2.7699
   28.905    2.6856
   28.920    2.8647
   28.935    2.4539
   28.950    2.5803
   28.965    2.5276
   28.980    2.6540
   28.995    2.6119
   29.010    2.6119
   29.025    2.8015
   29.040    2.5803
   29.055    2.5908
   29.070    2.7488
   29.085    2.7067
   29.100    2.6646
   29.115    2.9173
   29.130    2.8015
   29.145    2.8647
   29.160    2.8225
   29.175    2.6119
   29.190    2.5171
   29.205    2.6435
   29.220    2.4750
   29.235    2.6119
   29.250    2.7699
   29.265    2.7593
   29.280    2.6856
   29.295    2.5698
   29.310    2.6435
   29.325    2.7909
   29.340    2.8120
   29.355    2.4013
   29.370    2.7067
   29.385    2.5698
   29.400    2.5276
   29.415    2.8647
   29.430    2.8857
   29.445    2.6119
   29.460    2.6751
   29.475    2.8752
   29.490    2.5908
   29.505    2.6119
   29.520    2.6751
   29.535    2.5382
   29.550    2.5908
   29.565    2.4961
   29.580    2.7488
   29.595    2.4645
   29.610    2.5066
   29.625    2.6962
   29.640    2.6224
   29.655    2.3697
   29.670    2.6856
   29.685    2.6856
   29.700    2.4223
   29.715    2.4539
   29.730    2.4118
   29.745    2.7383
   29.760    2.6751
   29.775    2.4539
   29.790    2.5592
   29.805    2.8647
   29.820    2.5487
   29.835    2.6646
   29.850    2.6962
   29.865    2.7488
   29.880    2.4961
   29.895    2.4013
   29.910    2.5803
   29.925    2.6540
   29.940    2.9595
   29.955    2.7804
   29.970    2.6751
   29.985    2.7804
   30.000    2.6646
   30.015    2.6330
   30.030    2.6751
   30.045    2.5803
   30.060    2.5171
   30.075    2.6224
   30.090    2.5382
   30.105    2.6856
   30.120    2.7067
   30.135    2.8647
   30.150    2.5803
   30.165    2.7278
   30.180    2.7278
   30.195    2.7172
   30.210    2.5698
   30.225    2.7383
   30.240    2.7067
   30.255    2.4118
   30.270    2.7278
   30.285    2.5382
   30.300    2.4539
   30.315    2.4434
   30.330    2.4750
   30.345    2.3065
   30.360    2.2643
   30.375    2.4329
   30.390    2.6540
   30.405    2.5276
   30.420    2.6856
   30.435    2.4329
   30.450    2.5171
   30.465    2.4118
   30.480    2.5803
   30.495    2.7383
   30.510    2.7067
   30.525    2.4855
   30.540    2.8225
   30.555    2.5171
   30.570    2.6014
   30.585    2.5698
   30.600    2.6014
   30.615    2.7172
   30.630    2.7488
   30.645    2.5171
   30.660    2.6224
   30.675    2.5698
   30.690    2.6540
   30.705    2.4961
   30.720    2.4118
   30.735    2.3907
   30.750    2.5276
   30.765    2.8857
   30.780    2.7278
   30.795    2.5908
   30.810    2.6330
   30.825    2.6540
   30.840    2.6751
   30.855    2.6330
   30.870    2.6119
   30.885    2.7172
   30.900    2.7278
   30.915    2.5487
   30.930    2.5171
   30.945    2.3065
   30.960    2.5908
   30.975    2.3802
   30.990    2.5171
   31.005    2.5908
   31.020    2.5171
   31.035    2.5803
   31.050    2.6119
   31.065    2.6119
   31.080    2.7699
   31.095    2.7593
   31.110    2.3591
   31.125    2.4223
   31.140    2.2117
   31.155    2.3275
   31.170    2.5382
   31.185    2.7593
   31.200    2.8331
   31.215    2.6224
   31.230    2.6330
   31.245    2.5487
   31.260    2.4750
   31.275    2.5066
   31.290    2.6540
   31.305    2.5803
   31.320    2.6330
   31.335    2.7488
   31.350    2.4750
   31.365    2.3170
   31.380    2.4434
   31.395    2.5803
   31.410    2.4961
   31.425    2.3907
   31.440    2.5908
   31.455    2.4434
   31.470    2.5276
   31.485    2.6751
   31.500    2.5487
   31.515    2.4961
   31.530    2.9173
   31.545    2.6751
   31.560    2.6856
   31.575    2.5592
   31.590    2.8015
   31.605    2.6014
   31.620    2.8120
   31.635    2.7172
   31.650    2.4961
   31.665    2.4750
   31.680    2.9595
   31.695    2.8120
   31.710    2.6646
   31.725    2.6435
   31.740    2.6751
   31.755    2.7383
   31.770    2.6856
   31.785    2.6014
   31.800    2.6856
   31.815    2.7699
   31.830    2.9384
   31.845    2.5592
   31.860    2.7172
   31.875    2.7278
   31.890    2.6646
   31.905    2.5803
   31.920    2.8857
   31.935    2.9068
   31.950    3.0226
   31.965    2.4223
   31.980    2.5066
   31.995    2.6646
   32.010    2.5487
   32.025    2.4855
   32.040    2.6014
   32.055    2.4750
   32.070    2.3802
   32.085    2.5487
   32.100    2.3802
   32.115    2.3170
   32.130    2.6224
   32.145    2.6540
   32.160    2.2328
   32.175    2.2854
   32.190    2.6014
   32.205    2.4750
   32.220    2.5382
   32.235    2.3486
   32.250    2.3065
   32.265    2.4329
   32.280    2.3907
   32.295    2.3802
   32.310    2.4434
   32.325    2.5276
   32.340    2.3907
   32.355    2.6119
   32.370    2.7278
   32.385    2.5698
   32.400    2.6751
   32.415    2.6435
   32.430    2.4118
   32.445    2.4961
   32.460    2.3591
   32.475    2.3697
   32.490    2.3591
   32.505    2.6330
   32.520    2.4645
   32.535    2.5698
   32.550    2.4750
   32.565    2.2854
   32.580    2.4013
   32.595    2.2854
   32.610    2.2222
   32.625    2.4118
   32.640    2.5276
   32.655    2.7172
   32.670    2.3381
   32.685    2.3381
   32.700    2.3697
   32.715    2.5171
   32.730    2.4118
   32.745    2.4223
   32.760    2.3697
   32.775    2.3802
   32.790    2.4118
   32.805    2.6014
   32.820    2.4223
   32.835    2.4855
   32.850    2.3697
   32.865    2.4434
   32.880    2.4223
   32.895    2.1801
   32.910    2.2012
   32.925    2.4855
   32.940    2.4961
   32.955    2.4329
   32.970    2.5171
   32.985    2.5066
   33.000    2.3697
   33.015    2.3486
   33.030    2.5276
   33.045    2.5171
   33.060    2.4539
   33.075    2.3170
   33.090    2.2433
   33.105    2.4013
   33.120    2.2854
   33.135    2.4645
   33.150    2.4539
   33.165    2.4434
   33.180    2.4434
   33.195    2.4118
   33.210    2.3591
   33.225    2.5171
   33.240    2.4750
   33.255    2.5066
   33.270    2.5698
   33.285    2.5592
   33.300    2.2854
   33.315    2.4539
   33.330    2.2643
   33.345    2.4645
   33.360    2.4855
   33.375    2.6435
   33.390    2.4013
   33.405    2.2328
   33.420    2.3907
   33.435    2.2538
   33.450    2.3591
   33.465    2.3907
   33.480    2.3170
   33.495    2.4855
   33.510    2.3591
   33.525    2.2328
   33.540    2.3486
   33.555    2.2959
   33.570    2.5171
   33.585    2.3802
   33.600    2.0958
   33.615    2.2222
   33.630    2.2854
   33.645    2.4539
   33.660    2.4750
   33.675    2.4013
   33.690    2.4434
   33.705    2.2433
   33.720    2.6014
   33.735    2.3170
   33.750    2.2749
   33.765    2.3907
   33.780    2.4434
   33.795    2.2012
   33.810    2.3275
   33.825    2.3697
   33.840    2.4329
   33.855    2.1696
   33.870    2.2538
   33.885    2.3170
   33.900    2.3591
   33.915    2.3486
   33.930    2.0853
   33.945    2.2328
   33.960    2.5066
   33.975    2.2959
   33.990    2.2749
   34.005    2.3275
   34.020    2.2749
   34.035    2.4539
   34.050    2.2959
   34.065    2.3591
   34.080    2.4013
   34.095    2.0537
   34.110    2.2433
   34.125    2.4855
   34.140    2.4223
   34.155    2.2328
   34.170    2.3065
   34.185    2.2538
   34.200    2.2433
   34.215    2.4434
   34.230    2.2328
   34.245    2.2433
   34.260    2.2433
   34.275    2.1169
   34.290    2.3486
   34.305    2.2328
   34.320    2.4855
   34.335    2.3381
   34.350    2.2959
   34.365    2.2433
   34.380    2.4223
   34.395    2.5382
   34.410    2.3170
   34.425    2.3486
   34.440    2.0748
   34.455    2.1274
   34.470    2.4329
   34.485    2.2012
   34.500    2.3486
   34.515    2.3170
   34.530    2.3486
   34.545    2.3381
   34.560    2.4750
   34.575    2.2117
   34.590    2.3170
   34.605    2.1696
   34.620    2.1169
   34.635    2.2328
   34.650    2.0958
   34.665    2.3381
   34.680    2.2749
   34.695    2.3591
   34.710    2.1906
   34.725    2.2749
   34.740    2.1485
   34.755    2.2538
   34.770    2.4223
   34.785    2.2959
   34.800    2.2959
   34.815    2.2959
   34.830    2.2012
   34.845    2.1696
   34.860    2.0853
   34.875    2.1064
   34.890    2.0958
   34.905    2.4434
   34.920    2.2643
   34.935    2.2538
   34.950    2.2433
   34.965    2.4118
   34.980    2.4013
   34.995    2.4434
   35.010    2.3381
   35.025    2.3275
   35.040    2.2854
   35.055    2.2643
   35.070    2.4223
   35.085    2.2222
   35.100    2.1906
   35.115    2.2117
   35.130    2.1590
   35.145    2.1590
   35.160    2.1906
   35.175    2.1590
   35.190    2.1801
   35.205    2.1801
   35.220    2.0642
   35.235    2.4434
   35.250    2.2433
   35.265    2.2222
   35.280    2.2643
   35.295    2.3170
   35.310    2.1906
   35.325    2.2643
   35.340    2.4223
   35.355    2.3170
   35.370    2.3907
   35.385    2.4118
   35.400    2.4539
   35.415    2.2222
   35.430    2.0221
   35.445    2.1380
   35.460    2.0853
   35.475    2.1274
   35.490    2.1380
   35.505    2.1380
   35.520    2.1906
   35.535    2.2117
   35.550    2.0432
   35.565    2.3697
   35.580    2.3591
   35.595    2.1696
   35.610    2.2959
   35.625    2.4434
   35.640    2.1064
   35.655    2.0748
   35.670    2.2538
   35.685    2.2012
   35.700    2.0748
   35.715    1.9695
   35.730    2.2222
   35.745    2.2538
   35.760    2.2854
   35.775    2.2222
   35.790    2.0853
   35.805    2.2012
   35.820    2.2328
   35.835    2.2117
   35.850    2.0958
   35.865    2.1274
   35.880    2.4539
   35.895    2.1485
   35.910    2.0958
   35.925    2.0748
   35.940    2.0116
   35.955    2.1380
   35.970    2.2328
   35.985    2.1590
   36.000    2.4013
   36.015    2.3275
   36.030    2.1169
   36.045    2.2222
   36.060    2.0432
   36.075    2.2117
   36.090    2.1169
   36.105    2.2749
   36.120    2.3486
   36.135    2.1485
   36.150    1.9800
   36.165    2.0958
   36.180    2.1590
   36.195    2.0642
   36.210    2.1696
   36.225    2.4329
   36.240    2.1380
   36.255    2.0432
   36.270    2.0642
   36.285    2.2012
   36.300    1.9905
   36.315    2.0432
   36.330    2.1696
   36.345    2.0537
   36.360    2.0748
   36.375    2.2854
   36.390    2.2749
   36.405    2.2012
   36.420    2.1801
   36.435    2.0116
   36.450    2.0116
   36.465    2.1274
   36.480    2.0958
   36.495    2.1169
   36.510    2.2117
   36.525    2.1485
   36.540    1.9695
   36.555    2.0958
   36.570    1.9589
   36.585    2.1906
   36.600    2.2328
   36.615    1.9800
   36.630    1.9800
   36.645    1.9905
   36.660    2.1906
   36.675    2.0853
   36.690    1.9063
   36.705    2.0537
   36.720    2.2854
   36.735    2.2012
   36.750    1.8325
   36.765    1.9484
   36.780    2.0642
   36.795    1.9905
   36.810    2.0116
   36.825    2.0326
   36.840    2.0958
   36.855    2.2643
   36.870    2.0642
   36.885    1.8536
   36.900    2.2959
   36.915    2.1590
   36.930    2.2538
   36.945    2.0432
   36.960    2.2012
   36.975    2.3275
   36.990    2.2854
   37.005    2.2433
   37.020    2.1169
   37.035    2.0748
   37.050    2.2433
   37.065    2.2749
   37.080    2.0116
   37.095    2.4329
   37.110    2.2538
   37.125    2.0221
   37.140    2.2328
   37.155    2.0221
   37.170    1.9484
   37.185    2.0221
   37.200    2.0537
   37.215    2.1906
   37.230    2.2854
   37.245    2.2117
   37.260    2.1906
   37.275    2.1485
   37.290    2.0958
   37.305    1.9273
   37.320    1.9589
   37.335    2.2117
   37.350    2.2117
   37.365    2.1064
   37.380    2.0432
   37.395    2.1064
   37.410    2.0958
   37.425    2.1064
   37.440    2.0326
   37.455    1.9063
   37.470    1.9379
   37.485    1.7904
   37.500    2.1064
   37.515    2.0537
   37.530    2.1906
   37.545    2.2117
   37.560    2.0432
   37.575    2.0537
   37.590    2.0642
   37.605    2.0326
   37.620    1.8957
   37.635    2.1696
   37.650    2.0642
   37.665    1.9063
   37.680    2.1485
   37.695    2.1064
   37.710    2.1274
   37.725    1.8852
   37.740    1.8747
   37.755    2.2749
   37.770    2.3275
   37.785    1.9800
   37.800    1.9905
   37.815    2.1169
   37.830    2.0537
   37.845    2.1380
   37.860    2.0221
   37.875    2.2222
   37.890    2.2854
   37.905    2.1590
   37.920    2.1064
   37.935    2.3065
   37.950    2.2749
   37.965    2.1169
   37.980    1.8220
   37.995    2.0748
   38.010    1.7588
   38.025    2.0326
   38.040    2.0642
   38.055    2.1801
   38.070    2.1590
   38.085    2.0326
   38.100    2.1485
   38.115    2.0853
   38.130    2.0432
   38.145    1.8431
   38.160    1.9800
   38.175    2.1590
   38.190    2.0116
   38.205    2.1590
   38.220    2.1906
   38.235    2.1696
   38.250    2.0221
   38.265    2.1696
   38.280    2.1801
   38.295    2.1590
   38.310    1.7588
   38.325    1.7904
   38.340    1.8747
   38.355    1.7904
   38.370    1.9589
   38.385    2.1696
   38.400    2.0642
   38.415    2.1590
   38.430    1.9168
   38.445    1.9063
   38.460    1.7167
   38.475    1.6956
   38.490    2.0326
   38.505    1.8220
   38.520    1.9063
   38.535    2.1064
   38.550    2.0958
   38.565    2.1064
   38.580    2.3381
   38.595    1.8957
   38.610    1.7378
   38.625    1.9063
   38.640    2.0642
   38.655    1.9905
   38.670    2.1590
   38.685    2.2749
   38.700    2.1485
   38.715    2.0326
   38.730    1.9800
   38.745    1.9905
   38.760    2.0537
   38.775    2.0958
   38.790    2.0748
   38.805    2.0011
   38.820    2.1590
   38.835    2.1590
   38.850    1.9379
   38.865    2.0011
   38.880    2.3486
   38.895    2.1274
   38.910    2.0326
   38.925    2.2117
   38.940    2.0537
   38.955    1.9589
   38.970    1.9905
   38.985    2.2959
   39.000    2.2643
   39.015    2.1380
   39.030    1.8536
   39.045    1.8115
   39.060    1.9695
   39.075    1.9273
   39.090    2.0116
   39.105    2.0221
   39.120    1.9589
   39.135    2.0748
   39.150    2.1590
   39.165    2.0853
   39.180    2.0326
   39.195    2.2749
   39.210    2.1906
   39.225    2.1274
   39.240    2.1590
   39.255    2.0432
   39.270    1.9800
   39.285    1.9273
   39.300    1.9695
   39.315    2.0958
   39.330    2.1906
   39.345    2.0432
   39.360    2.2538
   39.375    2.1064
   39.390    2.0432
   39.405    2.1590
   39.420    2.3486
   39.435    2.1801
   39.450    2.2643
   39.465    2.1274
   39.480    1.9063
   39.495    2.1590
   39.510    2.1064
   39.525    2.1906
   39.540    2.0642
   39.555    2.1485
   39.570    2.1696
   39.585    2.0116
   39.600    2.1169
   39.615    2.0221
   39.630    1.9273
   39.645    1.9379
   39.660    1.8641
   39.675    2.0537
   39.690    2.1064
   39.705    2.1064
   39.720    2.0853
   39.735    2.1485
   39.750    2.0642
   39.765    1.7799
   39.780    1.8641
   39.795    2.0958
   39.810    2.0011
   39.825    2.0748
   39.840    2.1380
   39.855    2.0853
   39.870    2.0537
   39.885    1.8957
   39.900    2.2538
   39.915    1.9273
   39.930    1.9905
   39.945    2.1064
   39.960    1.9905
   39.975    1.8431
   39.990    1.9905
