    1.500   16.7562
    1.515   16.5561
    1.530   16.9668
    1.545   16.4718
    1.560   16.0084
    1.575   15.9136
    1.590   15.2501
    1.605   15.7873
    1.620   15.1869
    1.635   14.5024
    1.650   13.9442
    1.665   14.2707
    1.680   13.7651
    1.695   13.8705
    1.710   14.1232
    1.725   13.2175
    1.740   13.1016
    1.755   12.6593
    1.770   13.3755
    1.785   12.8594
    1.800   12.5118
    1.815   12.1748
    1.830   11.7114
    1.845   11.6588
    1.860   11.5640
    1.875   11.4271
    1.890   11.0163
    1.905   10.8478
    1.920   10.6056
    1.935   10.7741
    1.950   10.7109
    1.965   10.2264
    1.980   10.2054
    1.995   10.6056
    2.010   10.8478
    2.025   10.4055
    2.040    9.9315
    2.055   10.1316
    2.070    9.4681
    2.085    9.3207
    2.100    9.3523
    2.115    9.0047
    2.130    9.1101
    2.145    8.8468
    2.160    8.9942
    2.175    8.9310
    2.190    8.4571
    2.205    8.7625
    2.220    8.6572
    2.235    8.5308
    2.250    8.3412
    2.265    8.1727
    2.280    7.9094
    2.295    8.1833
    2.310    8.1622
    2.325    8.2675
    2.340    7.7620
    2.355    7.7830
    2.370    7.7093
    2.385    7.4250
    2.400    7.4144
    2.415    7.3934
    2.430    7.0458
    2.445    7.1617
    2.460    7.0774
    2.475    6.7299
    2.490    6.9616
    2.505    6.7825
    2.520    7.2565
    2.535    6.6877
    2.550    6.8141
    2.565    6.9300
    2.580    6.9826
    2.595    7.1827
    2.610    6.6035
    2.625    6.4350
    2.640    6.2559
    2.655    6.3191
    2.670    6.3823
    2.685    6.5087
    2.700    6.2770
    2.715    6.5087
    2.730    6.0558
    2.745    5.8768
    2.760    6.1085
    2.775    6.1085
    2.790    5.7925
    2.805    6.0453
    2.820    5.9505
    2.835    5.9610
    2.850    5.6767
    2.865    5.6767
    2.880    5.8136
    2.895    5.7188
    2.910    5.6135
    2.925    5.5503
    2.940    5.4766
    2.955    5.4134
    2.970    5.3186
    2.985    5.3818
    3.000    5.3186
    3.015    5.0869
    3.030    4.9605
    3.045    5.2027
    3.060    5.3502
    3.075    5.3502
    3.090    5.2133
    3.105    5.1711
    3.120    4.8447
    3.135    5.1817
    3.150    5.2659
    3.165    5.0026
    3.180    4.8763
    3.195    5.0764
    3.210    5.1395
    3.225    4.8657
    3.240    4.8447
    3.255    4.7393
    3.270    4.7499
    3.285    5.1395
    3.300    4.6656
    3.315    5.1922
    3.330    4.8131
    3.345    4.5287
    3.360    4.5919
    3.375    4.7604
    3.390    4.6445
    3.405    4.5603
    3.420    4.6445
    3.435    4.8131
    3.450    4.6445
    3.465    4.4339
    3.480    4.5708
    3.495    4.6551
    3.510    4.2865
    3.525    4.2865
    3.540    4.3602
    3.555    4.6024
    3.570    4.5392
    3.585    4.4128
    3.600    4.3181
    3.615    4.2338
    3.630    4.2759
    3.645    4.5498
    3.660    4.4128
    3.675    4.3286
    3.690    4.4866
    3.705    4.3813
    3.720    4.1180
    3.735    4.0969
    3.750    4.1811
    3.765    4.2127
    3.780    4.1074
    3.795    4.1601
    3.810    4.0758
    3.825    4.1285
    3.840    4.0337
    3.855    4.0548
    3.870    3.9179
    3.885    3.8652
    3.900    3.9705
    3.915    4.1180
    3.930    3.6862
    3.945    4.1180
    3.960    4.1811
    3.975    4.3075
    3.990    4.0969
    4.005    4.1390
    4.020    4.2549
    4.035    3.8652
    4.050    4.1285
    4.065    4.1917
    4.080    4.1390
    4.095    3.8863
    4.110    4.0232
    4.125    3.9916
    4.140    4.0337
    4.155    4.1601
    4.170    4.2233
    4.185    3.9073
    4.200    3.7915
    4.215    3.7388
    4.230    4.0232
    4.245    4.1390
    4.260    3.9284
    4.275    3.8441
    4.290    3.7704
    4.305    3.8231
    4.320    3.9073
    4.335    3.9494
    4.350    3.9600
    4.365    4.2127
    4.380    4.1390
    4.395    4.1601
    4.410    3.8441
    4.425    4.0126
    4.440    4.1390
    4.455    3.8441
    4.470    4.2127
    4.485    3.7388
    4.500    3.8020
    4.515    4.0758
    4.530    4.0548
    4.545    3.6019
    4.560    3.9179
    4.575    3.9284
    4.590    4.1601
    4.605    3.7809
    4.620    3.5387
    4.635    3.6862
    4.650    3.9284
    4.665    3.5071
    4.680    3.3386
    4.695    3.5703
    4.710    3.5387
    4.725    3.5282
    4.740    3.4650
    4.755    3.5071
    4.770    3.5176
    4.785    3.4018
    4.800    3.3491
    4.815    3.5492
    4.830    3.6967
    4.845    3.5492
    4.860    3.5914
    4.875    3.4966
    4.890    3.6440
    4.905    3.5808
    4.920    3.3281
    4.935    3.4650
    4.950    3.6019
    4.965    3.5387
    4.980    3.4650
    4.995    3.5282
    5.010    3.4544
    5.025    3.5598
    5.040    3.5176
    5.055    3.4966
    5.070    3.3491
    5.085    3.2649
    5.100    3.4334
    5.115    3.3070
    5.130    3.1806
    5.145    3.3702
    5.160    3.6335
    5.175    2.9595
    5.190    3.2227
    5.205    3.0437
    5.220    3.4860
    5.235    3.6335
    5.250    3.3807
    5.265    3.4650
    5.280    3.3913
    5.295    3.5703
    5.310    3.4650
    5.325    3.0964
    5.340    3.4544
    5.355    3.4544
    5.370    3.4018
    5.385    3.4650
    5.400    3.2333
    5.415    3.4123
    5.430    3.2965
    5.445    3.2122
    5.460    3.3070
    5.475    3.4439
    5.490    3.2017
    5.505    3.2333
    5.520    2.8436
    5.535    3.0437
    5.550    3.2017
    5.565    2.9805
    5.580    2.9805
    5.595    3.2754
    5.610    3.3281
    5.625    3.0226
    5.640    3.2017
    5.655    3.1174
    5.670    3.0542
    5.685    3.2227
    5.700    3.2438
    5.715    2.9805
    5.730    3.1174
    5.745    3.3175
    5.760    3.0542
    5.775    3.1806
    5.790    3.2543
    5.805    3.3175
    5.820    3.1069
    5.835    3.2333
    5.850    3.3386
    5.865    3.0753
    5.880    2.8647
    5.895    3.0648
    5.910    2.9595
    5.925    2.8436
    5.940    3.0016
    5.955    3.3175
    5.970    3.3491
    5.985    3.1912
    6.000    3.0648
    6.015    3.1912
    6.030    3.0858
    6.045    2.9173
    6.060    3.2333
    6.075    2.8857
    6.090    2.8647
    6.105    3.0964
    6.120    3.1912
    6.135    3.1806
    6.150    3.1174
    6.165    2.8752
    6.180    3.0332
    6.195    3.1174
    6.210    2.9805
    6.225    3.0437
    6.240    3.0121
    6.255    2.8331
    6.270    2.7172
    6.285    2.8752
    6.300    3.3175
    6.315    3.1806
    6.330    3.1385
    6.345    3.1069
    6.360    3.1280
    6.375    3.2438
    6.390    3.0332
    6.405    3.1280
    6.420    3.0753
    6.435    3.0858
    6.450    2.9279
    6.465    2.9279
    6.480    2.8752
    6.495    2.8120
    6.510    2.8752
    6.525    2.9805
    6.540    2.9595
    6.555    2.7593
    6.570    2.8331
    6.585    3.0332
    6.600    3.1280
    6.615    3.2227
    6.630    2.9489
    6.645    2.9910
    6.660    3.2227
    6.675    3.2965
    6.690    3.1912
    6.705    3.0648
    6.720    2.9489
    6.735    3.1701
    6.750    2.9384
    6.765    2.8963
    6.780    3.0753
    6.795    2.8225
    6.810    3.0332
    6.825    3.1912
    6.840    2.8857
    6.855    2.9279
    6.870    2.9595
    6.885    2.8225
    6.900    3.0226
    6.915    3.0753
    6.930    2.7699
    6.945    2.9805
    6.960    2.8963
    6.975    3.0226
    6.990    2.9489
    7.005    3.0542
    7.020    3.2965
    7.035    3.1385
    7.050    3.1069
    7.065    3.0437
    7.080    2.7804
    7.095    2.9068
    7.110    3.1280
    7.125    3.2333
    7.140    3.0648
    7.155    2.9489
    7.170    3.1280
    7.185    3.1912
    7.200    3.0121
    7.215    3.0016
    7.230    2.9700
    7.245    2.8541
    7.260    2.9805
    7.275    2.8225
    7.290    3.0858
    7.305    2.9173
    7.320    2.8225
    7.335    2.9595
    7.350    2.9068
    7.365    2.6751
    7.380    2.9279
    7.395    3.1490
    7.410    3.0226
    7.425    3.1385
    7.440    3.3070
    7.455    3.0753
    7.470    3.0858
    7.485    2.9384
    7.500    3.0648
    7.515    3.1806
    7.530    3.2017
    7.545    3.0437
    7.560    3.0226
    7.575    3.0648
    7.590    2.9068
    7.605    3.0542
    7.620    3.1701
    7.635    2.8752
    7.650    2.9805
    7.665    3.3913
    7.680    3.1385
    7.695    3.0226
    7.710    2.9595
    7.725    2.7804
    7.740    2.9068
    7.755    3.0648
    7.770    2.8331
    7.785    2.9700
    7.800    2.9700
    7.815    3.2333
    7.830    3.0964
    7.845    2.9173
    7.860    3.1069
    7.875    3.2122
    7.890    3.1701
    7.905    3.0858
    7.920    3.2859
    7.935    3.1912
    7.950    3.0016
    7.965    3.0858
    7.980    2.8857
    7.995    2.8331
    8.010    2.8436
    8.025    2.9489
    8.040    3.0016
    8.055    2.7909
    8.070    2.8857
    8.085    2.7172
    8.100    2.9489
    8.115    3.0332
    8.130    2.8225
    8.145    2.9700
    8.160    2.7172
    8.175    2.9595
    8.190    3.0016
    8.205    2.9068
    8.220    3.0016
    8.235    2.8120
    8.250    2.8436
    8.265    2.9279
    8.280    2.8963
    8.295    3.0964
    8.310    2.8436
    8.325    2.8752
    8.340    2.9068
    8.355    3.0016
    8.370    3.0437
    8.385    2.8436
    8.400    2.9279
    8.415    2.9489
    8.430    3.0332
    8.445    2.7909
    8.460    2.7699
    8.475    2.9068
    8.490    2.8857
    8.505    2.8647
    8.520    2.9805
    8.535    3.0332
    8.550    2.9489
    8.565    2.8647
    8.580    2.9910
    8.595    2.6856
    8.610    2.7699
    8.625    3.1385
    8.640    3.0648
    8.655    2.8963
    8.670    3.0648
    8.685    2.9805
    8.700    2.8120
    8.715    2.9700
    8.730    3.0648
    8.745    2.9384
    8.760    2.8436
    8.775    2.6540
    8.790    3.0332
    8.805    3.0016
    8.820    3.0332
    8.835    3.1701
    8.850    2.8120
    8.865    2.8120
    8.880    2.6962
    8.895    2.6962
    8.910    3.0437
    8.925    2.8857
    8.940    3.0121
    8.955    2.7067
    8.970    2.6962
    8.985    3.1280
    9.000    2.9489
    9.015    2.9489
    9.030    2.8436
    9.045    2.6962
    9.060    2.9595
    9.075    2.8963
    9.090    2.9489
    9.105    2.7699
    9.120    2.7172
    9.135    3.0858
    9.150    2.8857
    9.165    2.6962
    9.180    2.8752
    9.195    3.0121
    9.210    2.8436
    9.225    2.6751
    9.240    2.7067
    9.255    2.7172
    9.270    2.8120
    9.285    2.7067
    9.300    2.8541
    9.315    2.5276
    9.330    2.7488
    9.345    2.7383
    9.360    2.8436
    9.375    2.7804
    9.390    2.9595
    9.405    2.6646
    9.420    2.8541
    9.435    2.7488
    9.450    2.8541
    9.465    2.9700
    9.480    2.8857
    9.495    2.8647
    9.510    2.9173
    9.525    2.5171
    9.540    2.7278
    9.555    2.6856
    9.570    2.6751
    9.585    2.9595
    9.600    2.9068
    9.615    2.8857
    9.630    2.6962
    9.645    2.6014
    9.660    2.6751
    9.675    2.7804
    9.690    2.6751
    9.705    2.6962
    9.720    2.6540
    9.735    2.6224
    9.750    2.5382
    9.765    2.7699
    9.780    2.8015
    9.795    2.4329
    9.810    2.6224
    9.825    2.8541
    9.840    2.7067
    9.855    2.8541
    9.870    2.7278
    9.885    2.5382
    9.900    2.7593
    9.915    2.7909
    9.930    2.5382
    9.945    2.5698
    9.960    2.6224
    9.975    2.8752
    9.990    2.5276
   10.005    2.7067
   10.020    2.7804
   10.035    2.7593
   10.050    2.8436
   10.065    2.6224
   10.080    2.6224
   10.095    2.8436
   10.110    2.5066
   10.125    2.6014
   10.140    2.8120
   10.155    2.6646
   10.170    2.5171
   10.185    2.7067
   10.200    2.9384
   10.215    2.9805
   10.230    3.0437
   10.245    2.6962
   10.260    2.9384
   10.275    3.0016
   10.290    2.7172
   10.305    2.8541
   10.320    2.6224
   10.335    2.7488
   10.350    2.8015
   10.365    3.0332
   10.380    2.9595
   10.395    3.0016
   10.410    2.5382
   10.425    2.7278
   10.440    2.5803
   10.455    2.8752
   10.470    2.6646
   10.485    2.8752
   10.500    2.7593
   10.515    2.8225
   10.530    2.8015
   10.545    2.7278
   10.560    2.6856
   10.575    2.8120
   10.590    2.8331
   10.605    2.8857
   10.620    2.8225
   10.635    2.9805
   10.650    2.8857
   10.665    3.0226
   10.680    3.0121
   10.695    2.8225
   10.710    2.4961
   10.725    2.6646
   10.740    2.6435
   10.755    2.6751
   10.770    2.7488
   10.785    2.5698
   10.800    2.7909
   10.815    2.9805
   10.830    2.9910
   10.845    2.9805
   10.860    2.8963
   10.875    2.5698
   10.890    2.6646
   10.905    2.7383
   10.920    2.6646
   10.935    2.6435
   10.950    2.8331
   10.965    2.9489
   10.980    2.8120
   10.995    3.0016
   11.010    2.6540
   11.025    2.7067
   11.040    2.9279
   11.055    2.7383
   11.070    2.4539
   11.085    2.4855
   11.100    2.8331
   11.115    2.8752
   11.130    2.8541
   11.145    2.8857
   11.160    2.8225
   11.175    2.4329
   11.190    2.5382
   11.205    2.7172
   11.220    2.7383
   11.235    2.7909
   11.250    2.9068
   11.265    2.8752
   11.280    2.5382
   11.295    2.6646
   11.310    2.9173
   11.325    2.9910
   11.340    2.7278
   11.355    2.8120
   11.370    2.7593
   11.385    3.0121
   11.400    3.0016
   11.415    2.6435
   11.430    2.7172
   11.445    2.6856
   11.460    2.9279
   11.475    2.6856
   11.490    2.6330
   11.505    2.6646
   11.520    2.7593
   11.535    2.8225
   11.550    2.7699
   11.565    2.7488
   11.580    2.7278
   11.595    2.6856
   11.610    2.4329
   11.625    2.5382
   11.640    2.8120
   11.655    2.8857
   11.670    2.5803
   11.685    2.6330
   11.700    2.6435
   11.715    2.7067
   11.730    2.7278
   11.745    2.7383
   11.760    2.5276
   11.775    2.6435
   11.790    2.8752
   11.805    2.6856
   11.820    2.7488
   11.835    2.6540
   11.850    2.6014
   11.865    2.6646
   11.880    2.5803
   11.895    2.6856
   11.910    2.6014
   11.925    2.7699
   11.940    2.6014
   11.955    2.6014
   11.970    2.4223
   11.985    2.6646
   12.000    2.6119
   12.015    2.6856
   12.030    2.7593
   12.045    2.8647
   12.060    2.9068
   12.075    2.6540
   12.090    2.4750
   12.105    2.5698
   12.120    2.7593
   12.135    2.7699
   12.150    3.0121
   12.165    2.8541
   12.180    2.5803
   12.195    2.8857
   12.210    2.6540
   12.225    2.7172
   12.240    2.8015
   12.255    2.6224
   12.270    2.4645
   12.285    2.6751
   12.300    2.4750
   12.315    2.5908
   12.330    2.6435
   12.345    2.3697
   12.360    2.4118
   12.375    2.5487
   12.390    2.6856
   12.405    2.6435
   12.420    2.7593
   12.435    2.6540
   12.450    2.6014
   12.465    2.6014
   12.480    2.3907
   12.495    2.6224
   12.510    2.6540
   12.525    2.8752
   12.540    2.6014
   12.555    2.4223
   12.570    2.4539
   12.585    2.4855
   12.600    2.7067
   12.615    2.4539
   12.630    2.4645
   12.645    2.8752
   12.660    2.8225
   12.675    2.4013
   12.690    2.6962
   12.705    2.7699
   12.720    2.5382
   12.735    2.4961
   12.750    2.5276
   12.765    2.5276
   12.780    2.6751
   12.795    2.7278
   12.810    2.8331
   12.825    2.4750
   12.840    2.5803
   12.855    2.7488
   12.870    2.7593
   12.885    2.5908
   12.900    2.7172
   12.915    2.6751
   12.930    2.5803
   12.945    2.6540
   12.960    2.6224
   12.975    2.5066
   12.990    2.7593
   13.005    2.8541
   13.020    2.6435
   13.035    2.6224
   13.050    2.5171
   13.065    2.5487
   13.080    2.6224
   13.095    2.6751
   13.110    2.6014
   13.125    2.6435
   13.140    2.6751
   13.155    2.7067
   13.170    2.5276
   13.185    2.6856
   13.200    2.3065
   13.215    2.5803
   13.230    2.5803
   13.245    2.5171
   13.260    2.8015
   13.275    2.4855
   13.290    2.6751
   13.305    2.6330
   13.320    2.8963
   13.335    2.5698
   13.350    2.2643
   13.365    2.4223
   13.380    2.5698
   13.395    2.5276
   13.410    2.5066
   13.425    2.3486
   13.440    2.4539
   13.455    2.4645
   13.470    2.6330
   13.485    2.6224
   13.500    2.5592
   13.515    2.5276
   13.530    2.6435
   13.545    2.8647
   13.560    2.4539
   13.575    2.5382
   13.590    2.6119
   13.605    2.6540
   13.620    2.5592
   13.635    2.6014
   13.650    2.5066
   13.665    2.7804
   13.680    2.6751
   13.695    2.5487
   13.710    2.5382
   13.725    2.5171
   13.740    2.5382
   13.755    2.4539
   13.770    2.4645
   13.785    2.6646
   13.800    2.7067
   13.815    2.7067
   13.830    2.5698
   13.845    2.3907
   13.860    2.5066
   13.875    2.5487
   13.890    2.4961
   13.905    2.6119
   13.920    2.5276
   13.935    2.6119
   13.950    2.5171
   13.965    2.6856
   13.980    2.5171
   13.995    2.3802
   14.010    2.2749
   14.025    2.3802
   14.040    2.5803
   14.055    2.2854
   14.070    2.0011
   14.085    2.2643
   14.100    2.5487
   14.115    2.7593
   14.130    2.7067
   14.145    2.7278
   14.160    2.6224
   14.175    2.5487
   14.190    2.7909
   14.205    2.6119
   14.220    2.5592
   14.235    2.5276
   14.250    2.5171
   14.265    2.5908
   14.280    2.5487
   14.295    2.6962
   14.310    2.6014
   14.325    2.5171
   14.340    2.5908
   14.355    2.3907
   14.370    2.2643
   14.385    2.6856
   14.400    2.6119
   14.415    2.5066
   14.430    2.4118
   14.445    2.5276
   14.460    2.3591
   14.475    2.2538
   14.490    2.4539
   14.505    2.8647
   14.520    2.5487
   14.535    2.6119
   14.550    2.3697
   14.565    2.2749
   14.580    2.6014
   14.595    2.4750
   14.610    2.2959
   14.625    2.3802
   14.640    2.4329
   14.655    2.6435
   14.670    2.6646
   14.685    2.6856
   14.700    2.4750
   14.715    2.6224
   14.730    2.8963
   14.745    2.6224
   14.760    2.5066
   14.775    2.3907
   14.790    2.6646
   14.805    2.6751
   14.820    2.7278
   14.835    2.4434
   14.850    2.4329
   14.865    2.3907
   14.880    2.3275
   14.895    2.6224
   14.910    2.6119
   14.925    2.4855
   14.940    2.5276
   14.955    2.5276
   14.970    2.4645
   14.985    2.4013
   15.000    2.6751
   15.015    2.1801
   15.030    2.1590
   15.045    2.6330
   15.060    2.5382
   15.075    2.7488
   15.090    2.7383
   15.105    2.6330
   15.120    2.4750
   15.135    2.6014
   15.150    2.7488
   15.165    2.6751
   15.180    2.5698
   15.195    2.5698
   15.210    2.6751
   15.225    2.6435
   15.240    2.3170
   15.255    2.3697
   15.270    2.3486
   15.285    2.4223
   15.300    2.7172
   15.315    2.5382
   15.330    2.5171
   15.345    2.8120
   15.360    2.6224
   15.375    2.5698
   15.390    2.4329
   15.405    2.5908
   15.420    2.6014
   15.435    2.6330
   15.450    2.7488
   15.465    2.9173
   15.480    2.6330
   15.495    2.5276
   15.510    2.5171
   15.525    2.5382
   15.540    2.5066
   15.555    2.7699
   15.570    2.5487
   15.585    2.7383
   15.600    2.7067
   15.615    2.4013
   15.630    2.5382
   15.645    2.5803
   15.660    2.5066
   15.675    2.5066
   15.690    2.5066
   15.705    2.7488
   15.720    2.5382
   15.735    2.5276
   15.750    2.4855
   15.765    2.6224
   15.780    2.7593
   15.795    2.6014
   15.810    2.5171
   15.825    2.4750
   15.840    2.4855
   15.855    2.6540
   15.870    2.4434
   15.885    2.6540
   15.900    2.4223
   15.915    2.4434
   15.930    2.5487
   15.945    2.8015
   15.960    2.5276
   15.975    2.5592
   15.990    2.6014
   16.005    2.3907
   16.020    2.5171
   16.035    2.4539
   16.050    2.3591
   16.065    2.5066
   16.080    2.5066
   16.095    2.5487
   16.110    2.3907
   16.125    2.5592
   16.140    2.5698
   16.155    2.8225
   16.170    2.8857
   16.185    2.5803
   16.200    2.4645
   16.215    2.6119
   16.230    2.2117
   16.245    2.5276
   16.260    2.2012
   16.275    2.4329
   16.290    2.5171
   16.305    2.6224
   16.320    2.6330
   16.335    2.8015
   16.350    2.6646
   16.365    2.5592
   16.380    2.5382
   16.395    2.4645
   16.410    2.6540
   16.425    2.7278
   16.440    2.6540
   16.455    2.5066
   16.470    2.5171
   16.485    2.4855
   16.500    2.5276
   16.515    2.5382
   16.530    2.5066
   16.545    2.4855
   16.560    2.4434
   16.575    2.6014
   16.590    2.5698
   16.605    2.2959
   16.620    2.3697
   16.635    2.5276
   16.650    2.5698
   16.665    2.5908
   16.680    2.5487
   16.695    2.6330
   16.710    2.5908
   16.725    2.5382
   16.740    2.7593
   16.755    2.7699
   16.770    2.6962
   16.785    2.4750
   16.800    2.6751
   16.815    2.5698
   16.830    2.5066
   16.845    2.3591
   16.860    2.5382
   16.875    2.6119
   16.890    2.6119
   16.905    2.7278
   16.920    2.5592
   16.935    2.8015
   16.950    2.6014
   16.965    2.5908
   16.980    2.4645
   16.995    2.6330
   17.010    2.6330
   17.025    2.6119
   17.040    2.5698
   17.055    2.5066
   17.070    2.6119
   17.085    2.4750
   17.100    2.7699
   17.115    2.7172
   17.130    2.8331
   17.145    2.7172
   17.160    2.5698
   17.175    2.4645
   17.190    2.5592
   17.205    2.4539
   17.220    2.5382
   17.235    2.4539
   17.250    2.4539
   17.265    2.7593
   17.280    2.4539
   17.295    2.4750
   17.310    2.4223
   17.325    2.3802
   17.340    2.4434
   17.355    2.3697
   17.370    2.5487
   17.385    2.4961
   17.400    2.4223
   17.415    2.8015
   17.430    2.7172
   17.445    2.4961
   17.460    2.4539
   17.475    2.5171
   17.490    2.4329
   17.505    2.6540
   17.520    2.6540
   17.535    2.6435
   17.550    2.6856
   17.565    2.7383
   17.580    2.8120
   17.595    2.6224
   17.610    2.5171
   17.625    2.5592
   17.640    2.6856
   17.655    2.5171
   17.670    2.6751
   17.685    2.6962
   17.700    2.5487
   17.715    2.5487
   17.730    2.4961
   17.745    2.5487
   17.760    2.4118
   17.775    2.7172
   17.790    2.5698
   17.805    2.6751
   17.820    2.5171
   17.835    2.6435
   17.850    2.6540
   17.865    2.5066
   17.880    2.4329
   17.895    2.4961
   17.910    2.6119
   17.925    2.8541
   17.940    2.6224
   17.955    2.5066
   17.970    2.8015
   17.985    2.7067
   18.000    2.5382
   18.015    2.6856
   18.030    2.7278
   18.045    2.6014
   18.060    2.5487
   18.075    2.6330
   18.090    2.6856
   18.105    2.6540
   18.120    2.6435
   18.135    2.8541
   18.150    2.8120
   18.165    2.4855
   18.180    2.7067
   18.195    2.4329
   18.210    2.4855
   18.225    2.6646
   18.240    2.9489
   18.255    2.6330
   18.270    2.4961
   18.285    2.3907
   18.300    2.5487
   18.315    2.7909
   18.330    2.6962
   18.345    2.8120
   18.360    2.4855
   18.375    2.3697
   18.390    2.8752
   18.405    2.6014
   18.420    2.5066
   18.435    2.5908
   18.450    2.6224
   18.465    2.4434
   18.480    2.8963
   18.495    2.6540
   18.510    2.6435
   18.525    2.3697
   18.540    2.5171
   18.555    2.4855
   18.570    2.6435
   18.585    2.4750
   18.600    2.5487
   18.615    2.5908
   18.630    2.5698
   18.645    2.4118
   18.660    2.2222
   18.675    2.4329
   18.690    2.7804
   18.705    2.6751
   18.720    2.5382
   18.735    2.5066
   18.750    2.8647
   18.765    2.6962
   18.780    2.8015
   18.795    2.5171
   18.810    2.5487
   18.825    2.5803
   18.840    2.9068
   18.855    2.8015
   18.870    2.5171
   18.885    2.6224
   18.900    2.4961
   18.915    2.6646
   18.930    2.5382
   18.945    2.4645
   18.960    2.4329
   18.975    2.5171
   18.990    2.4118
   19.005    2.6330
   19.020    2.7172
   19.035    2.5066
   19.050    2.4434
   19.065    2.5803
   19.080    2.6330
   19.095    2.8225
   19.110    2.7488
   19.125    2.3802
   19.140    2.8225
   19.155    2.5066
   19.170    2.4750
   19.185    2.7067
   19.200    2.6330
   19.215    2.6540
   19.230    2.4013
   19.245    2.4434
   19.260    2.4645
   19.275    2.6119
   19.290    2.5803
   19.305    2.7067
   19.320    2.6330
   19.335    2.5908
   19.350    2.5066
   19.365    2.8436
   19.380    2.7067
   19.395    2.4118
   19.410    2.5171
   19.425    2.6224
   19.440    2.5276
   19.455    2.6224
   19.470    2.8436
   19.485    2.5382
   19.500    2.6014
   19.515    2.4539
   19.530    2.5171
   19.545    2.8015
   19.560    2.6751
   19.575    2.7067
   19.590    2.6330
   19.605    2.5803
   19.620    2.9700
   19.635    2.4118
   19.650    2.7383
   19.665    2.7699
   19.680    2.7067
   19.695    2.5592
   19.710    2.7383
   19.725    2.6751
   19.740    2.8015
   19.755    2.4434
   19.770    2.6224
   19.785    2.6646
   19.800    2.6014
   19.815    2.4855
   19.830    2.4118
   19.845    2.4750
   19.860    2.8752
   19.875    2.7593
   19.890    2.7699
   19.905    2.5487
   19.920    2.5382
   19.935    2.9384
   19.950    2.8015
   19.965    2.5698
   19.980    2.4539
   19.995    2.6014
   20.010    2.8015
   20.025    2.5276
   20.040    2.4750
   20.055    2.8015
   20.070    2.5908
   20.085    2.6751
   20.100    2.5487
   20.115    2.6646
   20.130    2.6224
   20.145    2.5698
   20.160    2.6330
   20.175    2.6751
   20.190    2.4329
   20.205    2.7172
   20.220    2.4855
   20.235    2.7488
   20.250    2.7488
   20.265    2.7804
   20.280    2.6540
   20.295    2.6962
   20.310    2.5698
   20.325    2.6751
   20.340    2.7383
   20.355    2.7067
   20.370    2.7593
   20.385    2.5803
   20.400    2.7909
   20.415    2.8857
   20.430    2.6014
   20.445    2.3802
   20.460    2.5066
   20.475    2.5803
   20.490    2.6014
   20.505    2.7172
   20.520    2.4750
   20.535    2.5908
   20.550    2.5066
   20.565    2.5382
   20.580    2.5276
   20.595    2.5487
   20.610    2.4961
   20.625    2.4013
   20.640    2.6119
   20.655    2.6119
   20.670    2.4434
   20.685    2.5908
   20.700    2.7067
   20.715    2.8015
   20.730    2.5382
   20.745    2.4750
   20.760    2.6751
   20.775    2.6646
   20.790    2.4645
   20.805    2.5487
   20.820    2.5382
   20.835    2.9910
   20.850    2.4329
   20.865    2.7172
   20.880    2.5382
   20.895    2.6119
   20.910    2.7383
   20.925    2.8857
   20.940    2.7383
   20.955    2.7488
   20.970    2.7067
   20.985    2.6119
   21.000    2.4434
   21.015    2.6014
   21.030    2.4855
   21.045    2.5382
   21.060    2.5803
   21.075    2.8225
   21.090    2.8331
   21.105    2.3486
   21.120    2.6646
   21.135    2.5908
   21.150    2.6540
   21.165    2.6330
   21.180    2.7488
   21.195    2.6962
   21.210    2.4961
   21.225    2.4118
   21.240    2.8120
   21.255    2.5276
   21.270    2.7172
   21.285    2.7278
   21.300    2.6330
   21.315    2.6751
   21.330    2.7488
   21.345    2.8225
   21.360    2.5487
   21.375    2.4750
   21.390    2.5698
   21.405    2.5908
   21.420    2.5382
   21.435    2.8857
   21.450    2.6751
   21.465    2.7067
   21.480    2.7488
   21.495    2.6435
   21.510    2.5487
   21.525    2.8331
   21.540    2.6330
   21.555    2.5066
   21.570    2.6856
   21.585    2.9173
   21.600    2.8225
   21.615    2.7909
   21.630    3.0226
   21.645    2.6646
   21.660    2.7593
   21.675    2.7593
   21.690    2.7067
   21.705    2.5171
   21.720    2.8225
   21.735    2.5592
   21.750    2.7383
   21.765    2.6330
   21.780    2.4434
   21.795    2.7383
   21.810    2.7488
   21.825    2.7172
   21.840    2.7909
   21.855    2.5698
   21.870    2.5803
   21.885    2.6435
   21.900    2.4961
   21.915    2.6856
   21.930    2.4223
   21.945    2.6751
   21.960    2.5908
   21.975    2.6330
   21.990    2.6751
   22.005    2.6962
   22.020    2.5592
   22.035    2.5908
   22.050    2.8436
   22.065    2.4645
   22.080    2.8120
   22.095    2.7067
   22.110    2.6962
   22.125    2.6856
   22.140    2.9068
   22.155    2.3907
   22.170    2.7278
   22.185    2.7699
   22.200    2.3697
   22.215    2.8120
   22.230    2.7383
   22.245    2.5487
   22.260    2.5276
   22.275    2.7067
   22.290    2.6646
   22.305    2.5276
   22.320    2.5382
   22.335    2.5908
   22.350    2.7699
   22.365    2.7804
   22.380    2.4961
   22.395    2.5171
   22.410    2.5487
   22.425    2.6646
   22.440    2.4329
   22.455    2.8541
   22.470    2.6540
   22.485    2.5171
   22.500    2.3697
   22.515    2.4223
   22.530    2.5382
   22.545    2.5592
   22.560    2.7172
   22.575    2.5908
   22.590    2.5066
   22.605    2.4329
   22.620    2.6014
   22.635    2.5382
   22.650    2.8647
   22.665    2.6435
   22.680    2.6540
   22.695    2.6119
   22.710    2.7383
   22.725    2.8752
   22.740    2.6330
   22.755    2.4645
   22.770    2.6224
   22.785    2.8120
   22.800    2.4329
   22.815    2.4118
   22.830    2.3591
   22.845    2.6435
   22.860    2.7172
   22.875    2.3802
   22.890    2.3802
   22.905    2.4223
   22.920    2.5487
   22.935    2.6119
   22.950    2.6646
   22.965    2.7383
   22.980    2.7699
   22.995    2.7067
   23.010    2.6856
   23.025    2.4645
   23.040    2.6962
   23.055    2.4645
   23.070    2.5487
   23.085    2.5908
   23.100    2.4118
   23.115    2.5803
   23.130    2.4961
   23.145    2.4223
   23.160    2.5487
   23.175    2.6751
   23.190    2.8436
   23.205    2.6751
   23.220    2.4223
   23.235    2.6224
   23.250    2.7067
   23.265    2.4961
   23.280    2.5066
   23.295    2.5592
   23.310    2.5908
   23.325    2.5698
   23.340    2.7067
   23.355    2.6435
   23.370    2.5382
   23.385    2.4645
   23.400    2.6014
   23.415    2.6014
   23.430    2.6119
   23.445    2.4645
   23.460    2.5066
   23.475    2.4855
   23.490    2.4118
   23.505    2.6751
   23.520    2.5487
   23.535    2.4434
   23.550    2.3907
   23.565    2.4013
   23.580    2.6540
   23.595    2.5276
   23.610    2.4539
   23.625    2.5803
   23.640    2.5908
   23.655    2.5066
   23.670    2.4855
   23.685    2.5382
   23.700    2.4855
   23.715    2.6330
   23.730    2.5276
   23.745    2.6119
   23.760    2.4223
   23.775    2.3697
   23.790    2.4118
   23.805    2.4750
   23.820    2.3697
   23.835    2.5908
   23.850    2.6224
   23.865    2.6540
   23.880    2.8225
   23.895    2.7278
   23.910    2.6646
   23.925    2.7804
   23.940    2.5276
   23.955    2.6856
   23.970    2.7909
   23.985    2.5803
   24.000    2.7172
   24.015    2.5908
   24.030    2.4118
   24.045    2.5908
   24.060    2.4645
   24.075    2.7593
   24.090    2.5698
   24.105    2.3591
   24.120    2.4855
   24.135    2.6751
   24.150    2.7488
   24.165    2.6224
   24.180    2.2643
   24.195    2.4855
   24.210    2.5066
   24.225    2.4434
   24.240    2.5276
   24.255    2.4539
   24.270    2.3170
   24.285    2.6119
   24.300    2.7593
   24.315    2.5276
   24.330    2.5382
   24.345    2.6856
   24.360    2.7593
   24.375    2.6224
   24.390    2.8331
   24.405    2.7172
   24.420    2.3697
   24.435    2.5276
   24.450    2.5698
   24.465    2.4013
   24.480    2.5698
   24.495    2.3486
   24.510    2.5066
   24.525    2.6119
   24.540    2.5066
   24.555    2.7593
   24.570    2.5382
   24.585    2.5066
   24.600    2.4645
   24.615    2.6014
   24.630    2.7383
   24.645    2.7383
   24.660    2.6330
   24.675    2.2433
   24.690    2.4118
   24.705    2.5803
   24.720    2.6014
   24.735    2.5382
   24.750    2.4855
   24.765    2.4645
   24.780    2.4750
   24.795    2.8647
   24.810    2.5171
   24.825    2.4434
   24.840    2.4434
   24.855    2.4750
   24.870    2.5171
   24.885    2.6014
   24.900    2.6119
   24.915    2.5908
   24.930    2.5803
   24.945    2.5066
   24.960    2.3697
   24.975    2.3907
   24.990    2.5382
   25.005    2.7067
   25.020    2.3697
   25.035    2.2328
   25.050    2.4118
   25.065    2.5171
   25.080    2.5382
   25.095    2.4329
   25.110    2.3381
   25.125    2.4434
   25.140    2.2117
   25.155    2.4750
   25.170    2.4961
   25.185    2.4118
   25.200    2.2749
   25.215    2.5276
   25.230    2.4961
   25.245    2.6119
   25.260    2.5908
   25.275    2.6224
   25.290    2.3802
   25.305    2.6435
   25.320    2.6014
   25.335    2.3065
   25.350    2.4539
   25.365    2.5066
   25.380    2.5698
   25.395    2.4223
   25.410    2.1590
   25.425    2.3907
   25.440    2.4013
   25.455    2.3275
   25.470    2.4013
   25.485    2.4855
   25.500    2.3486
   25.515    2.5276
   25.530    2.4750
   25.545    2.5276
   25.560    2.3907
   25.575    2.4434
   25.590    2.3697
   25.605    2.3697
   25.620    2.3486
   25.635    2.6014
   25.650    2.6646
   25.665    2.5066
   25.680    2.5487
   25.695    2.1906
   25.710    2.3697
   25.725    2.4329
   25.740    2.4434
   25.755    2.2643
   25.770    2.1274
   25.785    2.3907
   25.800    2.4961
   25.815    2.4223
   25.830    2.6224
   25.845    2.3802
   25.860    2.3065
   25.875    2.5171
   25.890    2.3697
   25.905    2.5382
   25.920    2.3065
   25.935    2.2538
   25.950    2.3275
   25.965    2.2433
   25.980    2.2328
   25.995    2.3065
   26.010    2.3170
   26.025    2.6119
   26.040    2.4223
   26.055    2.5803
   26.070    2.4434
   26.085    2.4855
   26.100    2.7278
   26.115    2.6646
   26.130    2.2222
   26.145    2.5066
   26.160    2.5066
   26.175    2.4750
   26.190    2.3907
   26.205    2.3802
   26.220    2.6330
   26.235    2.4539
   26.250    2.5592
   26.265    2.4750
   26.280    2.4118
   26.295    2.4223
   26.310    2.3275
   26.325    2.4855
   26.340    2.2854
   26.355    2.6014
   26.370    2.5487
   26.385    2.4013
   26.400    2.3907
   26.415    2.4961
   26.430    2.5908
   26.445    2.2222
   26.460    2.2749
   26.475    2.3486
   26.490    2.5171
   26.505    2.3065
   26.520    2.4434
   26.535    2.3907
   26.550    2.5276
   26.565    2.6014
   26.580    2.4750
   26.595    2.3697
   26.610    2.1485
   26.625    2.3591
   26.640    2.4434
   26.655    2.2117
   26.670    2.1590
   26.685    2.3591
   26.700    2.2854
   26.715    2.3065
   26.730    2.4118
   26.745    2.4750
   26.760    2.3907
   26.775    2.4118
   26.790    2.3170
   26.805    2.3170
   26.820    2.2538
   26.835    2.5276
   26.850    2.5803
   26.865    2.4961
   26.880    2.5276
   26.895    2.4750
   26.910    2.2538
   26.925    2.3065
   26.940    2.3170
   26.955    2.1485
   26.970    2.1906
   26.985    2.4539
   27.000    2.2117
   27.015    2.3381
   27.030    2.3065
   27.045    2.2854
   27.060    2.2643
   27.075    2.4013
   27.090    2.1274
   27.105    2.3275
   27.120    2.0958
   27.135    2.1064
   27.150    2.4118
   27.165    2.1380
   27.180    2.3697
   27.195    2.4855
   27.210    2.3907
   27.225    2.3591
   27.240    2.4645
   27.255    2.3170
   27.270    2.4013
   27.285    2.1380
   27.300    2.2222
   27.315    2.3907
   27.330    2.4539
   27.345    2.3065
   27.360    2.3065
   27.375    2.3170
   27.390    2.3486
   27.405    2.1801
   27.420    2.5171
   27.435    2.4645
   27.450    2.3907
   27.465    2.3486
   27.480    2.3591
   27.495    2.2117
   27.510    2.3486
   27.525    2.2959
   27.540    2.4118
   27.555    2.2854
   27.570    1.9695
   27.585    2.0958
   27.600    2.1696
   27.615    2.1906
   27.630    2.1906
   27.645    2.3065
   27.660    2.4223
   27.675    2.0958
   27.690    2.2328
   27.705    2.1380
   27.720    2.2854
   27.735    2.2538
   27.750    2.2959
   27.765    2.1485
   27.780    2.1380
   27.795    2.3275
   27.810    2.2854
   27.825    2.4434
   27.840    2.4434
   27.855    2.1485
   27.870    2.2749
   27.885    2.3802
   27.900    2.3170
   27.915    2.2854
   27.930    2.2854
   27.945    2.1906
   27.960    2.3907
   27.975    2.4329
   27.990    2.1801
   28.005    2.4223
   28.020    2.2222
   28.035    2.0958
   28.050    2.2328
   28.065    2.3065
   28.080    2.3802
   28.095    2.2222
   28.110    2.1696
   28.125    2.0432
   28.140    2.3802
   28.155    2.1485
   28.170    2.4013
   28.185    2.2012
   28.200    2.3065
   28.215    2.2433
   28.230    2.2643
   28.245    2.3065
   28.260    2.2749
   28.275    2.2117
   28.290    2.4329
   28.305    2.2433
   28.320    2.2749
   28.335    2.2222
   28.350    2.0853
   28.365    2.2328
   28.380    2.2854
   28.395    2.2643
   28.410    2.3486
   28.425    2.4750
   28.440    2.2643
   28.455    2.5171
   28.470    2.0537
   28.485    2.1801
   28.500    2.1906
   28.515    2.1169
   28.530    2.3486
   28.545    2.1906
   28.560    2.3591
   28.575    2.0326
   28.590    2.2959
   28.605    2.0432
   28.620    2.1274
   28.635    2.0642
   28.650    2.0642
   28.665    1.8852
   28.680    2.0432
   28.695    2.2749
   28.710    2.2643
   28.725    2.2749
   28.740    2.0537
   28.755    2.2328
   28.770    2.0853
   28.785    2.2117
   28.800    2.2222
   28.815    2.0958
   28.830    2.1801
   28.845    2.3065
   28.860    2.2959
   28.875    2.4434
   28.890    2.2643
   28.905    1.9905
   28.920    2.2222
   28.935    2.1274
   28.950    2.2538
   28.965    2.0537
   28.980    2.3275
   28.995    2.3275
   29.010    2.3697
   29.025    2.1169
   29.040    2.1485
   29.055    2.2117
   29.070    2.2012
   29.085    2.1801
   29.100    2.2117
   29.115    2.1064
   29.130    2.1696
   29.145    2.4118
   29.160    2.1801
   29.175    2.1485
   29.190    2.1274
   29.205    2.2328
   29.220    2.1169
   29.235    1.8325
   29.250    2.2222
   29.265    2.0748
   29.280    1.9484
   29.295    2.1696
   29.310    2.0642
   29.325    2.2222
   29.340    2.3697
   29.355    2.1064
   29.370    2.2433
   29.385    2.1801
   29.400    2.1590
   29.415    2.1064
   29.430    2.0958
   29.445    2.0326
   29.460    2.0432
   29.475    2.2749
   29.490    2.2328
   29.505    2.0537
   29.520    2.2117
   29.535    1.9484
   29.550    1.9379
   29.565    2.1380
   29.580    2.2854
   29.595    2.0853
   29.610    2.0642
   29.625    2.3065
   29.640    2.0642
   29.655    2.0432
   29.670    2.2117
   29.685    2.0958
   29.700    2.0432
   29.715    2.0432
   29.730    1.8641
   29.745    2.0642
   29.760    2.0958
   29.775    2.1906
   29.790    2.2643
   29.805    2.4434
   29.820    2.2012
   29.835    2.1380
   29.850    2.1064
   29.865    2.2959
   29.880    2.1274
   29.895    2.0642
   29.910    2.0326
   29.925    2.0537
   29.940    1.9695
   29.955    2.0642
   29.970    1.9800
   29.985    2.0958
   30.000    1.9905
   30.015    2.1380
   30.030    2.2643
   30.045    2.1380
   30.060    2.1169
   30.075    2.1485
   30.090    2.2012
   30.105    2.1064
   30.120    2.2117
   30.135    2.4434
   30.150    2.2749
   30.165    2.2749
   30.180    2.2433
   30.195    2.4118
   30.210    2.2959
   30.225    2.1380
   30.240    2.0748
   30.255    2.0958
   30.270    2.1906
   30.285    2.1380
   30.300    1.9800
   30.315    2.1696
   30.330    2.0748
   30.345    2.0011
   30.360    2.1169
   30.375    1.9589
   30.390    1.7694
   30.405    1.8536
   30.420    1.9484
   30.435    2.1380
   30.450    2.2222
   30.465    2.1380
   30.480    2.0221
   30.495    2.0011
   30.510    2.0011
   30.525    2.0432
   30.540    2.2749
   30.555    1.9484
   30.570    1.8325
   30.585    2.0326
   30.600    2.0748
   30.615    2.0642
   30.630    1.8431
   30.645    1.9273
   30.660    1.9589
   30.675    2.0432
   30.690    2.1064
   30.705    2.1169
   30.720    1.9484
   30.735    2.0958
   30.750    2.0537
   30.765    1.9589
   30.780    2.2538
   30.795    2.0958
   30.810    1.8852
   30.825    2.1064
   30.840    1.9905
   30.855    2.0853
   30.870    2.0432
   30.885    2.3591
   30.900    1.9905
   30.915    1.9905
   30.930    1.7272
   30.945    1.8747
   30.960    2.0221
   30.975    2.0116
   30.990    1.7694
   31.005    1.8852
   31.020    2.1274
   31.035    2.2749
   31.050    2.0642
   31.065    2.0853
   31.080    2.1696
   31.095    2.0326
   31.110    1.9168
   31.125    1.9273
   31.140    2.2222
   31.155    2.0116
   31.170    2.1485
   31.185    2.1906
   31.200    1.9695
   31.215    1.9379
   31.230    2.1696
   31.245    2.0748
   31.260    2.0537
   31.275    1.8115
   31.290    2.0537
   31.305    2.0011
   31.320    2.0748
   31.335    2.0642
   31.350    2.0326
   31.365    1.9905
   31.380    1.9273
   31.395    2.1590
   31.410    2.1380
   31.425    1.8115
   31.440    1.9800
   31.455    2.2012
   31.470    2.0642
   31.485    1.9168
   31.500    1.8325
   31.515    1.8641
   31.530    1.8325
   31.545    1.9063
   31.560    1.8957
   31.575    1.9800
   31.590    2.0958
   31.605    1.9379
   31.620    1.7799
   31.635    2.0748
   31.650    1.9695
   31.665    2.0221
   31.680    1.9695
   31.695    2.1064
   31.710    2.0221
   31.725    2.0116
   31.740    2.1801
   31.755    2.1064
   31.770    2.1064
   31.785    1.8431
   31.800    1.9905
   31.815    2.0642
   31.830    1.9379
   31.845    1.8747
   31.860    2.0221
   31.875    1.8325
   31.890    1.9589
   31.905    1.7062
   31.920    1.9273
   31.935    1.8641
   31.950    1.8431
   31.965    1.9800
   31.980    1.8115
   31.995    1.8325
   32.010    2.0011
   32.025    1.9589
   32.040    1.8536
   32.055    1.8536
   32.070    1.5903
   32.085    1.9063
   32.100    2.0432
   32.115    2.0326
   32.130    1.8115
   32.145    1.9379
   32.160    1.8641
   32.175    1.8957
   32.190    1.8115
   32.205    1.8220
   32.220    1.8747
   32.235    2.0011
   32.250    2.0642
   32.265    2.1064
   32.280    2.0432
   32.295    1.9273
   32.310    1.9063
   32.325    1.8641
   32.340    2.0011
   32.355    1.8009
   32.370    1.9273
   32.385    1.7904
   32.400    1.8641
   32.415    1.9273
   32.430    2.0326
   32.445    1.8641
   32.460    1.8009
   32.475    1.7694
   32.490    1.7483
   32.505    1.8325
   32.520    2.0432
   32.535    2.0221
   32.550    1.7904
   32.565    1.7272
   32.580    1.6535
   32.595    1.6956
   32.610    1.8957
   32.625    1.9800
   32.640    1.8852
   32.655    1.8536
   32.670    1.6746
   32.685    1.8115
   32.700    1.6956
   32.715    1.7588
   32.730    1.8536
   32.745    1.7378
   32.760    1.7483
   32.775    2.0011
   32.790    1.8009
   32.805    1.8536
   32.820    1.8325
   32.835    1.8431
   32.850    1.7167
   32.865    1.8957
   32.880    1.8536
   32.895    1.7904
   32.910    1.8957
   32.925    1.8009
   32.940    1.7588
   32.955    1.7799
   32.970    1.8852
   32.985    2.1380
   33.000    1.9800
   33.015    1.8325
   33.030    1.8220
   33.045    2.0642
   33.060    1.8009
   33.075    1.7588
   33.090    1.7378
   33.105    1.6640
   33.120    1.7272
   33.135    1.9589
   33.150    1.8747
   33.165    1.9168
   33.180    1.9063
   33.195    1.8115
   33.210    1.9063
   33.225    1.9379
   33.240    1.9695
   33.255    1.8641
   33.270    1.8536
   33.285    1.9168
   33.300    1.5377
   33.315    1.7062
   33.330    1.6746
   33.345    1.8009
   33.360    1.7378
   33.375    1.7694
   33.390    2.0748
   33.405    1.6746
   33.420    1.8957
   33.435    1.6746
   33.450    1.8431
   33.465    1.9484
   33.480    1.6746
   33.495    1.5587
   33.510    1.7694
   33.525    1.6851
   33.540    1.6746
   33.555    1.7799
   33.570    1.7378
   33.585    1.7378
   33.600    1.8852
   33.615    1.8220
   33.630    1.8009
   33.645    1.8957
   33.660    1.6956
   33.675    2.0642
   33.690    2.0221
   33.705    1.8115
   33.720    1.5587
   33.735    1.5061
   33.750    1.7167
   33.765    1.7588
   33.780    1.7588
   33.795    1.8009
   33.810    1.5903
   33.825    1.7378
   33.840    1.7904
   33.855    1.7904
   33.870    1.8431
   33.885    1.7378
   33.900    1.7272
   33.915    1.7904
   33.930    1.6746
   33.945    1.6640
   33.960    1.7694
   33.975    1.8747
   33.990    1.8115
   34.005    1.9273
   34.020    1.9063
   34.035    1.7694
   34.050    1.6535
   34.065    1.5692
   34.080    1.8747
   34.095    1.8536
   34.110    1.6956
   34.125    1.5903
   34.140    1.7904
   34.155    1.7062
   34.170    1.6956
   34.185    1.8009
   34.200    1.8115
   34.215    1.7378
   34.230    1.6851
   34.245    1.8641
   34.260    1.9484
   34.275    1.7167
   34.290    1.9379
   34.305    1.8009
   34.320    1.7062
   34.335    1.5692
   34.350    1.7062
   34.365    1.4745
   34.380    2.0221
   34.395    1.8957
   34.410    1.8431
   34.425    1.7062
   34.440    1.7588
   34.455    1.7588
   34.470    1.6219
   34.485    1.6008
   34.500    1.7694
   34.515    1.6219
   34.530    1.6956
   34.545    1.7799
   34.560    1.8115
   34.575    1.8431
   34.590    1.9589
   34.605    1.7167
   34.620    1.7378
   34.635    1.7799
   34.650    1.7062
   34.665    1.7062
   34.680    1.7483
   34.695    1.4639
   34.710    1.5377
   34.725    1.6219
   34.740    1.6640
   34.755    1.7062
   34.770    1.6219
   34.785    1.6535
   34.800    1.6535
   34.815    1.5482
   34.830    1.6535
   34.845    1.6324
   34.860    1.7483
   34.875    1.6956
   34.890    1.7904
   34.905    1.7272
   34.920    1.4218
   34.935    1.4007
   34.950    1.6430
   34.965    1.5903
   34.980    1.6640
   34.995    1.6746
   35.010    1.7378
   35.025    1.4534
   35.040    1.5482
   35.055    1.5271
   35.070    1.5692
   35.085    1.6746
   35.100    1.6114
   35.115    1.7904
   35.130    1.7272
   35.145    1.7378
   35.160    1.6746
   35.175    1.6746
   35.190    1.6324
   35.205    1.5692
   35.220    1.6114
   35.235    1.5166
   35.250    1.5377
   35.265    1.7378
   35.280    1.5482
   35.295    1.5903
   35.310    1.5271
   35.325    1.6324
   35.340    1.7483
   35.355    1.7272
   35.370    1.7062
   35.385    1.7062
   35.400    1.5587
   35.415    1.5271
   35.430    1.7483
   35.445    1.6430
   35.460    1.5271
   35.475    1.4429
   35.490    1.4218
   35.505    1.6746
   35.520    1.7062
   35.535    1.7378
   35.550    1.7062
   35.565    1.6535
   35.580    1.7799
   35.595    1.5587
   35.610    1.5061
   35.625    1.6535
   35.640    1.6114
   35.655    1.5903
   35.670    1.6114
   35.685    1.7799
   35.700    1.7062
   35.715    1.6746
   35.730    1.5798
   35.745    1.5903
   35.760    1.4113
   35.775    1.4429
   35.790    1.5271
   35.805    1.5692
   35.820    1.5692
   35.835    1.6956
   35.850    1.5692
   35.865    1.7799
   35.880    1.7799
   35.895    1.5692
   35.910    1.5377
   35.925    1.7062
   35.940    1.6535
   35.955    1.7694
   35.970    1.5798
   35.985    1.5377
   36.000    1.7272
   36.015    1.4955
   36.030    1.5903
   36.045    1.6219
   36.060    1.6114
   36.075    1.6535
   36.090    1.7799
   36.105    1.7062
   36.120    1.7799
   36.135    1.5482
   36.150    1.3270
   36.165    1.3797
   36.180    1.6008
   36.195    1.5587
   36.210    1.6640
   36.225    1.4323
   36.240    1.3797
   36.255    1.6219
   36.270    1.6535
   36.285    1.8325
   36.300    1.7167
   36.315    1.5166
   36.330    1.6008
   36.345    1.5061
   36.360    1.3691
   36.375    1.6008
   36.390    1.4745
   36.405    1.6114
   36.420    1.4850
   36.435    1.8325
   36.450    1.7694
   36.465    1.7062
   36.480    1.5798
   36.495    1.7272
   36.510    1.4850
   36.525    1.5692
   36.540    1.5377
   36.555    1.5377
   36.570    1.6746
   36.585    1.6956
   36.600    1.4850
   36.615    1.5798
   36.630    1.7378
   36.645    1.6956
   36.660    1.5482
   36.675    1.4639
   36.690    1.4007
   36.705    1.6219
   36.720    1.4429
   36.735    1.5692
   36.750    1.6640
   36.765    1.6324
   36.780    1.8641
   36.795    1.7904
   36.810    1.6008
   36.825    1.4218
   36.840    1.5061
   36.855    1.6430
   36.870    1.5482
   36.885    1.3060
   36.900    1.4429
   36.915    1.5377
   36.930    1.7272
   36.945    1.5903
   36.960    1.4113
   36.975    1.4850
   36.990    1.5271
   37.005    1.4639
   37.020    1.4113
   37.035    1.4534
   37.050    1.5903
   37.065    1.5798
   37.080    1.4850
   37.095    1.5377
   37.110    1.5903
   37.125    1.4113
   37.140    1.6114
   37.155    1.6956
   37.170    1.4850
   37.185    1.2744
   37.200    1.5692
   37.215    1.4850
   37.230    1.4113
   37.245    1.4534
   37.260    1.7272
   37.275    1.6640
   37.290    1.5798
   37.305    1.4323
   37.320    1.6219
   37.335    1.6746
   37.350    1.6956
   37.365    1.5798
   37.380    1.4745
   37.395    1.4639
   37.410    1.6956
   37.425    1.5692
   37.440    1.5271
   37.455    1.4323
   37.470    1.4955
   37.485    1.5377
   37.500    1.6219
   37.515    1.6746
   37.530    1.5482
   37.545    1.5377
   37.560    1.5798
   37.575    1.4534
   37.590    1.4639
   37.605    1.6008
   37.620    1.4429
   37.635    1.7062
   37.650    1.4745
   37.665    1.5692
   37.680    1.6430
   37.695    1.5482
   37.710    1.4007
   37.725    1.5482
   37.740    1.6640
   37.755    1.3797
   37.770    1.6746
   37.785    1.4745
   37.800    1.5587
   37.815    1.5482
   37.830    1.5061
   37.845    1.4639
   37.860    1.5903
   37.875    1.5903
   37.890    1.4639
   37.905    1.6114
   37.920    1.5482
   37.935    1.4639
   37.950    1.5271
   37.965    1.4955
   37.980    1.4534
   37.995    1.3481
   38.010    1.5798
   38.025    1.4323
   38.040    1.4007
   38.055    1.4955
   38.070    1.6324
   38.085    1.6851
   38.100    1.4955
   38.115    1.4639
   38.130    1.5903
   38.145    1.4745
   38.160    1.5482
   38.175    1.5482
   38.190    1.5482
   38.205    1.4745
   38.220    1.4955
   38.235    1.6851
   38.250    1.3797
   38.265    1.3586
   38.280    1.3797
   38.295    1.4745
   38.310    1.5061
   38.325    1.7062
   38.340    1.7167
   38.355    1.4429
   38.370    1.2849
   38.385    1.4745
   38.400    1.4218
   38.415    1.5061
   38.430    1.4639
   38.445    1.5271
   38.460    1.5377
   38.475    1.5692
   38.490    1.6535
   38.505    1.6114
   38.520    1.5798
   38.535    1.4429
   38.550    1.2954
   38.565    1.4850
   38.580    1.4429
   38.595    1.4113
   38.610    1.6114
   38.625    1.6430
   38.640    1.6008
   38.655    1.6956
   38.670    1.5166
   38.685    1.5377
   38.700    1.3270
   38.715    1.4850
   38.730    1.5271
   38.745    1.7167
   38.760    1.5798
   38.775    1.3375
   38.790    1.7272
   38.805    1.5271
   38.820    1.7272
   38.835    1.6324
   38.850    1.4218
   38.865    1.4639
   38.880    1.6219
   38.895    1.4850
   38.910    1.4745
   38.925    1.6114
   38.940    1.6535
   38.955    1.5482
   38.970    1.4323
   38.985    1.6114
   39.000    1.4955
   39.015    1.6008
   39.030    1.4955
   39.045    1.6640
   39.060    1.6008
   39.075    1.3481
   39.090    1.3902
   39.105    1.5482
   39.120    1.5271
   39.135    1.5482
   39.150    1.5482
   39.165    1.5166
   39.180    1.3481
   39.195    1.6219
   39.210    1.4429
   39.225    1.5798
   39.240    1.5482
   39.255    1.5061
   39.270    1.6640
   39.285    1.4218
   39.300    1.5271
   39.315    1.3797
   39.330    1.5587
   39.345    1.4323
   39.360    1.5798
   39.375    1.5903
   39.390    1.3691
   39.405    1.4007
   39.420    1.2954
   39.435    1.2954
   39.450    1.4745
   39.465    1.3481
   39.480    1.5692
   39.495    1.5798
   39.510    1.4218
   39.525    1.4955
   39.540    1.5166
   39.555    1.5271
   39.570    1.4429
   39.585    1.3165
   39.600    1.5271
   39.615    1.6851
   39.630    1.4639
   39.645    1.3270
   39.660    1.3797
   39.675    1.3481
   39.690    1.5798
   39.705    1.5377
   39.720    1.5271
   39.735    1.4007
   39.750    1.5903
   39.765    1.4745
   39.780    1.5271
   39.795    1.5798
   39.810    1.5061
   39.825    1.4113
   39.840    1.5482
   39.855    1.4955
   39.870    1.5587
   39.885    1.5061
   39.900    1.3691
   39.915    1.3691
   39.930    1.6114
   39.945    1.5377
   39.960    1.2849
   39.975    1.4218
   39.990    1.4955
