    1.500   10.3585
    1.515   10.3264
    1.530   10.3906
    1.545    9.9411
    1.560   10.1552
    1.575    9.3954
    1.590    9.7699
    1.605    8.9460
    1.620    9.0530
    1.635    8.6356
    1.650    8.6998
    1.665    8.5714
    1.680    8.9995
    1.695    8.4858
    1.710    8.4002
    1.725    8.1755
    1.740    7.7903
    1.755    7.6083
    1.770    7.8438
    1.785    7.2980
    1.800    7.2873
    1.815    7.5227
    1.830    6.8486
    1.845    6.7844
    1.860    7.2445
    1.875    7.0519
    1.890    6.6132
    1.905    6.4419
    1.920    6.3777
    1.935    6.5062
    1.950    6.4741
    1.965    6.2065
    1.980    5.7357
    1.995    6.1851
    2.010    6.1102
    2.025    6.1637
    2.040    5.8427
    2.055    5.8320
    2.070    5.7036
    2.085    5.2970
    2.100    5.6608
    2.115    5.8962
    2.130    5.2970
    2.145    5.3719
    2.160    5.2862
    2.175    5.2113
    2.190    5.3933
    2.205    5.4682
    2.220    4.9331
    2.235    4.8582
    2.250    4.9224
    2.265    5.1043
    2.280    5.0508
    2.295    4.7726
    2.310    4.7512
    2.325    4.9438
    2.340    4.6549
    2.355    4.3981
    2.370    4.5907
    2.385    4.6121
    2.400    4.6014
    2.415    4.0235
    2.430    4.1841
    2.445    4.2269
    2.460    4.4302
    2.475    4.5693
    2.490    4.2376
    2.505    4.0449
    2.520    3.9165
    2.535    4.1627
    2.550    4.1948
    2.565    4.0128
    2.580    3.9807
    2.595    4.1199
    2.610    3.8309
    2.625    3.7453
    2.640    3.9486
    2.655    4.0342
    2.670    4.1520
    2.685    4.1413
    2.700    3.8630
    2.715    3.8737
    2.730    3.9700
    2.745    3.9700
    2.760    3.9593
    2.775    4.0449
    2.790    3.8630
    2.805    4.0663
    2.820    3.9807
    2.835    4.0021
    2.850    3.8202
    2.865    3.9165
    2.880    4.1306
    2.895    4.0342
    2.910    4.0449
    2.925    3.8630
    2.940    3.7239
    2.955    3.9272
    2.970    3.9486
    2.985    3.8309
    3.000    3.9165
    3.015    3.8095
    3.030    3.9058
    3.045    3.7774
    3.060    3.9700
    3.075    4.3446
    3.090    4.3018
    3.105    4.1948
    3.120    3.7667
    3.135    4.4944
    3.150    4.3553
    3.165    4.6442
    3.180    4.6549
    3.195    4.6763
    3.210    4.6977
    3.225    4.9010
    3.240    4.5586
    3.255    4.7512
    3.270    4.7619
    3.285    4.9010
    3.300    5.0187
    3.315    5.1043
    3.330    4.7405
    3.345    5.2648
    3.360    5.5431
    3.375    5.2113
    3.390    5.8106
    3.405    5.6715
    3.420    5.6929
    3.435    5.9925
    3.450    6.1209
    3.465    6.3884
    3.480    6.2065
    3.495    6.4955
    3.510    6.8379
    3.525    7.1803
    3.540    7.1482
    3.555    6.9663
    3.570    7.7047
    3.585    7.8331
    3.600    8.2183
    3.615    7.9829
    3.630    8.8497
    3.645    8.8604
    3.660    8.7747
    3.675    8.8604
    3.690    9.5452
    3.705    9.7592
    3.720   10.1766
    3.735   11.0540
    3.750   11.0326
    3.765   11.7389
    3.780   12.2846
    3.795   12.5201
    3.810   12.9909
    3.825   14.2001
    3.840   14.9171
    3.855   14.5746
    3.870   16.2547
    3.885   16.8646
    3.900   17.8491
    3.915   18.5340
    3.930   20.0535
    3.945   21.4232
    3.960   21.9369
    3.975   23.2959
    3.990   23.9272
    4.005   24.4516
    4.020   25.4789
    4.035   24.5800
    4.050   22.8678
    4.065   22.1295
    4.080   20.4815
    4.095   18.2451
    4.110   16.9074
    4.125   15.0027
    4.140   14.2964
    4.155   13.3547
    4.170   12.7020
    4.185   12.3596
    4.200   12.4987
    4.215   12.5308
    4.230   12.0813
    4.245   12.4773
    4.260   12.4666
    4.275   13.1086
    4.290   13.9326
    4.305   13.8470
    4.320   14.3927
    4.335   15.0776
    4.350   16.1584
    4.365   17.2927
    4.380   18.5019
    4.395   18.8550
    4.410   19.9679
    4.425   21.4018
    4.440   24.2376
    4.455   26.1851
    4.470   29.3205
    4.485   35.0669
    4.500   39.8930
    4.515   46.4955
    4.530   50.7223
    4.545   41.9155
    4.560   25.4361
    4.575   14.9813
    4.590   10.5190
    4.605    9.3847
    4.620    9.1386
    4.635    8.6356
    4.650    8.2718
    4.665    8.5714
    4.680    8.3253
    4.695    8.4323
    4.710    9.0530
    4.725    8.5607
    4.740    8.2932
    4.755    8.3253
    4.770    8.7426
    4.785    8.3895
    4.800    8.4430
    4.815    8.3681
    4.830    8.3146
    4.845    8.6035
    4.860    8.4751
    4.875    8.3039
    4.890    7.9294
    4.905    8.1006
    4.920    8.0685
    4.935    7.5655
    4.950    7.0305
    4.965    7.0091
    4.980    6.7095
    4.995    6.2600
    5.010    5.8855
    5.025    5.7892
    5.040    5.6287
    5.055    5.4896
    5.070    4.7298
    5.085    4.9224
    5.100    4.3874
    5.115    3.7346
    5.130    3.7774
    5.145    3.5313
    5.160    3.2852
    5.175    3.2745
    5.190    2.8357
    5.205    2.6431
    5.220    2.6324
    5.235    2.5361
    5.250    2.3542
    5.265    2.3221
    5.280    2.3221
    5.295    2.3649
    5.310    2.0011
    5.325    1.8727
    5.340    1.8941
    5.355    1.7978
    5.370    1.9476
    5.385    1.8299
    5.400    1.8620
    5.415    1.7442
    5.430    1.6265
    5.445    1.6800
    5.460    1.4767
    5.475    1.4446
    5.490    1.5944
    5.505    1.5623
    5.520    1.4874
    5.535    1.3162
    5.550    1.4018
    5.565    1.4660
    5.580    1.3055
    5.595    1.3269
    5.610    1.4874
    5.625    1.5944
    5.640    1.4553
    5.655    1.3376
    5.670    1.4232
    5.685    1.3162
    5.700    1.2734
    5.715    1.2199
    5.730    1.5623
    5.745    1.4446
    5.760    1.4767
    5.775    1.3697
    5.790    1.4446
    5.805    1.4660
    5.820    1.4018
    5.835    1.3376
    5.850    1.4446
    5.865    1.3483
    5.880    1.0808
    5.895    1.4446
    5.910    1.3162
    5.925    1.4232
    5.940    1.2627
    5.955    1.2948
    5.970    1.5195
    5.985    1.5195
    6.000    1.5730
    6.015    1.4553
    6.030    1.6051
    6.045    1.4553
    6.060    1.6372
    6.075    1.8192
    6.090    1.7549
    6.105    1.8299
    6.120    1.7871
    6.135    1.8192
    6.150    1.9904
    6.165    1.9262
    6.180    2.0974
    6.195    2.0546
    6.210    2.0225
    6.225    2.3221
    6.240    2.4612
    6.255    2.4719
    6.270    2.6217
    6.285    2.7608
    6.300    3.1889
    6.315    3.0712
    6.330    3.5206
    6.345    4.0449
    6.360    4.2804
    6.375    4.8796
    6.390    5.9283
    6.405    6.6560
    6.420    6.8807
    6.435    5.0294
    6.450    3.2638
    6.465    2.0332
    6.480    1.5623
    6.495    1.4446
    6.510    1.1236
    6.525    1.1985
    6.540    1.0915
    6.555    1.1236
    6.570    1.0487
    6.585    1.1022
    6.600    1.1129
    6.615    0.9845
    6.630    1.0273
    6.645    0.9845
    6.660    0.9845
    6.675    1.0915
    6.690    1.1664
    6.705    0.9524
    6.720    1.0166
    6.735    0.9952
    6.750    1.0166
    6.765    0.9738
    6.780    0.9845
    6.795    0.9631
    6.810    0.9738
    6.825    0.9738
    6.840    1.0273
    6.855    1.0701
    6.870    0.9631
    6.885    0.8882
    6.900    1.0166
    6.915    0.8989
    6.930    1.0380
    6.945    1.0487
    6.960    1.0701
    6.975    0.9631
    6.990    1.1557
    7.005    0.9845
    7.020    1.0273
    7.035    0.9417
    7.050    0.9417
    7.065    1.0594
    7.080    0.9952
    7.095    0.9096
    7.110    1.1985
    7.125    0.9738
    7.140    0.8454
    7.155    1.0166
    7.170    1.0380
    7.185    0.9524
    7.200    0.9952
    7.215    0.9417
    7.230    0.8668
    7.245    1.0059
    7.260    0.8775
    7.275    1.0487
    7.290    1.0166
    7.305    1.0487
    7.320    0.9738
    7.335    0.9952
    7.350    0.9631
    7.365    0.8347
    7.380    1.0273
    7.395    1.1450
    7.410    0.8775
    7.425    0.9631
    7.440    0.9845
    7.455    1.0166
    7.470    0.9096
    7.485    0.9310
    7.500    1.0808
    7.515    1.0059
    7.530    1.0273
    7.545    1.1771
    7.560    1.0166
    7.575    0.9096
    7.590    1.1557
    7.605    1.2520
    7.620    1.3483
    7.635    1.1450
    7.650    1.2841
    7.665    1.2948
    7.680    1.1557
    7.695    1.1664
    7.710    1.2199
    7.725    1.1878
    7.740    1.3376
    7.755    1.2948
    7.770    1.4339
    7.785    1.5195
    7.800    1.6158
    7.815    1.6693
    7.830    1.7871
    7.845    1.8192
    7.860    2.0653
    7.875    2.0653
    7.890    1.6158
    7.905    1.7871
    7.920    1.9155
    7.935    1.9904
    7.950    2.2365
    7.965    2.1616
    7.980    2.3649
    7.995    2.3007
    8.010    2.6217
    8.025    2.6110
    8.040    2.8678
    8.055    3.0177
    8.070    2.8678
    8.085    2.6003
    8.100    2.9749
    8.115    2.6645
    8.130    2.5254
    8.145    2.4077
    8.160    2.0225
    8.175    2.0974
    8.190    1.7549
    8.205    1.4874
    8.220    1.5837
    8.235    1.2841
    8.250    1.3697
    8.265    1.5302
    8.280    1.3804
    8.295    1.1557
    8.310    1.0166
    8.325    1.1343
    8.340    1.1343
    8.355    1.0701
    8.370    1.1022
    8.385    0.8989
    8.400    1.1022
    8.415    1.0273
    8.430    1.0380
    8.445    0.9738
    8.460    0.8882
    8.475    0.8668
    8.490    1.0273
    8.505    0.9524
    8.520    1.0166
    8.535    1.0273
    8.550    0.9417
    8.565    1.0273
    8.580    0.9524
    8.595    0.9524
    8.610    1.0915
    8.625    1.0808
    8.640    0.9845
    8.655    1.0166
    8.670    1.0273
    8.685    0.9524
    8.700    1.1022
    8.715    1.0273
    8.730    0.9845
    8.745    0.9417
    8.760    1.0166
    8.775    1.2092
    8.790    1.1343
    8.805    1.1129
    8.820    1.1985
    8.835    1.1985
    8.850    1.0701
    8.865    1.1985
    8.880    1.1771
    8.895    1.3590
    8.910    1.2199
    8.925    1.3055
    8.940    1.6693
    8.955    1.7764
    8.970    1.8085
    8.985    1.6800
    9.000    1.7228
    9.015    2.0974
    9.030    2.1937
    9.045    2.0974
    9.060    2.5575
    9.075    3.0926
    9.090    2.8892
    9.105    2.4719
    9.120    1.9690
    9.135    1.3804
    9.150    1.2092
    9.165    1.0166
    9.180    1.1771
    9.195    1.0915
    9.210    1.1878
    9.225    1.1022
    9.240    1.1343
    9.255    1.1129
    9.270    1.2199
    9.285    1.2841
    9.300    1.3055
    9.315    1.1236
    9.330    1.2413
    9.345    1.2092
    9.360    1.2841
    9.375    1.2413
    9.390    1.1129
    9.405    1.0594
    9.420    1.1878
    9.435    1.2948
    9.450    1.2734
    9.465    1.2092
    9.480    1.2734
    9.495    1.3055
    9.510    1.2627
    9.525    1.3055
    9.540    1.3590
    9.555    1.3804
    9.570    1.4232
    9.585    1.2948
    9.600    1.5730
    9.615    1.4232
    9.630    1.4232
    9.645    1.4018
    9.660    1.3055
    9.675    1.4660
    9.690    1.6158
    9.705    1.4018
    9.720    1.3911
    9.735    1.4339
    9.750    1.5088
    9.765    1.5302
    9.780    1.4553
    9.795    1.4767
    9.810    1.4981
    9.825    1.4232
    9.840    1.5088
    9.855    1.3483
    9.870    1.3055
    9.885    1.5195
    9.900    1.4767
    9.915    1.3162
    9.930    1.4446
    9.945    1.5837
    9.960    1.7549
    9.975    1.5837
    9.990    1.3269
   10.005    1.4874
   10.020    1.5302
   10.035    1.5944
   10.050    1.3804
   10.065    1.5195
   10.080    1.5409
   10.095    1.4660
   10.110    1.5409
   10.125    1.3269
   10.140    1.4339
   10.155    1.5516
   10.170    1.4553
   10.185    1.2627
   10.200    1.2520
   10.215    1.1771
   10.230    1.1985
   10.245    1.0380
   10.260    1.1664
   10.275    1.1129
   10.290    1.0915
   10.305    1.1557
   10.320    1.1664
   10.335    1.0594
   10.350    0.9310
   10.365    1.1236
   10.380    0.9952
   10.395    0.8775
   10.410    0.8775
   10.425    0.8882
   10.440    0.8454
   10.455    1.2092
   10.470    1.1022
   10.485    0.8775
   10.500    0.8775
   10.515    0.9631
   10.530    0.8133
   10.545    0.9952
   10.560    0.7384
   10.575    1.0915
   10.590    1.0059
   10.605    0.8668
   10.620    0.9738
   10.635    1.0380
   10.650    0.9952
   10.665    0.8454
   10.680    0.9203
   10.695    0.8775
   10.710    0.9845
   10.725    0.9738
   10.740    1.0915
   10.755    1.1022
   10.770    0.8775
   10.785    0.9845
   10.800    0.8240
   10.815    0.9738
   10.830    1.0273
   10.845    1.0701
   10.860    1.1450
   10.875    1.0273
   10.890    1.0594
   10.905    0.9952
   10.920    1.0594
   10.935    1.3055
   10.950    1.3483
   10.965    1.3911
   10.980    1.4660
   10.995    1.6586
   11.010    1.5516
   11.025    1.6265
   11.040    1.8727
   11.055    1.8727
   11.070    1.9155
   11.085    2.4184
   11.100    2.9642
   11.115    3.2852
   11.130    4.0128
   11.145    3.3173
   11.160    2.6324
   11.175    2.1188
   11.190    1.5944
   11.205    1.0166
   11.220    1.0273
   11.235    1.1129
   11.250    0.7598
   11.265    0.8561
   11.280    0.8775
   11.295    0.8989
   11.310    0.8668
   11.325    0.7919
   11.340    0.9417
   11.355    0.9203
   11.370    0.9203
   11.385    0.8775
   11.400    0.6314
   11.415    0.7812
   11.430    0.7063
   11.445    0.7598
   11.460    0.8454
   11.475    0.7491
   11.490    0.8454
   11.505    0.7598
   11.520    0.8026
   11.535    0.8989
   11.550    1.0059
   11.565    0.7277
   11.580    0.7063
   11.595    0.7063
   11.610    0.8454
   11.625    0.7491
   11.640    0.7705
   11.655    0.9417
   11.670    0.8882
   11.685    0.7812
   11.700    0.9417
   11.715    0.8240
   11.730    0.7812
   11.745    0.9096
   11.760    0.8347
   11.775    0.8668
   11.790    0.8240
   11.805    0.9096
   11.820    0.8454
   11.835    0.9417
   11.850    1.0273
   11.865    0.8775
   11.880    0.8561
   11.895    0.9524
   11.910    0.9738
   11.925    1.1343
   11.940    1.0915
   11.955    1.1236
   11.970    1.1985
   11.985    1.3483
   12.000    1.4553
   12.015    1.6693
   12.030    1.8513
   12.045    1.6479
   12.060    1.5195
   12.075    1.1343
   12.090    1.0808
   12.105    1.0701
   12.120    0.9952
   12.135    1.0380
   12.150    0.8454
   12.165    0.9203
   12.180    1.1129
   12.195    1.0166
   12.210    0.9631
   12.225    0.9952
   12.240    0.7812
   12.255    0.8347
   12.270    0.6528
   12.285    0.7598
   12.300    0.9310
   12.315    0.8133
   12.330    0.8347
   12.345    0.7384
   12.360    0.9310
   12.375    0.8561
   12.390    0.9096
   12.405    0.8882
   12.420    0.8240
   12.435    0.8775
   12.450    0.7812
   12.465    0.8026
   12.480    0.8026
   12.495    0.8347
   12.510    0.9631
   12.525    0.8989
   12.540    0.8133
   12.555    0.7063
   12.570    0.9524
   12.585    0.9417
   12.600    0.7705
   12.615    0.7705
   12.630    0.6635
   12.645    0.9845
   12.660    0.9096
   12.675    0.8240
   12.690    0.7384
   12.705    0.8989
   12.720    0.9524
   12.735    1.1129
   12.750    0.9524
   12.765    1.1771
   12.780    1.1236
   12.795    0.9952
   12.810    1.3055
   12.825    1.3055
   12.840    1.4125
   12.855    1.5195
   12.870    1.7121
   12.885    1.6265
   12.900    1.2841
   12.915    1.0808
   12.930    0.9952
   12.945    0.8133
   12.960    0.8668
   12.975    0.8347
   12.990    0.8454
   13.005    0.7919
   13.020    0.8347
   13.035    0.9524
   13.050    0.8347
   13.065    0.7598
   13.080    0.6742
   13.095    0.6207
   13.110    0.7705
   13.125    0.7705
   13.140    0.8240
   13.155    0.9310
   13.170    0.7277
   13.185    0.7812
   13.200    0.8347
   13.215    0.6742
   13.230    0.7277
   13.245    0.6956
   13.260    0.7170
   13.275    0.7277
   13.290    0.6742
   13.305    0.8026
   13.320    0.8989
   13.335    0.8133
   13.350    0.9738
   13.365    0.7384
   13.380    0.7170
   13.395    0.7384
   13.410    0.8240
   13.425    0.8882
   13.440    0.8882
   13.455    0.8989
   13.470    0.9845
   13.485    1.0273
   13.500    0.9203
   13.515    0.9524
   13.530    1.0487
   13.545    1.0273
   13.560    1.1022
   13.575    1.0808
   13.590    1.0594
   13.605    1.2199
   13.620    1.5623
   13.635    1.5944
   13.650    1.7657
   13.665    1.8620
   13.680    1.4767
   13.695    1.2734
   13.710    1.0273
   13.725    0.8775
   13.740    0.8347
   13.755    0.7919
   13.770    0.7170
   13.785    0.7063
   13.800    0.7598
   13.815    0.6635
   13.830    0.6100
   13.845    0.7812
   13.860    0.6849
   13.875    0.9203
   13.890    0.6207
   13.905    0.6849
   13.920    0.8347
   13.935    0.7919
   13.950    0.8989
   13.965    0.8882
   13.980    0.8347
   13.995    0.8026
   14.010    0.8133
   14.025    0.9310
   14.040    0.8133
   14.055    0.8026
   14.070    0.7598
   14.085    0.9310
   14.100    0.7170
   14.115    0.7277
   14.130    0.8026
   14.145    0.8561
   14.160    0.9203
   14.175    0.8133
   14.190    0.8775
   14.205    0.8775
   14.220    0.8347
   14.235    0.7384
   14.250    0.7277
   14.265    0.7919
   14.280    0.8668
   14.295    0.9096
   14.310    0.7598
   14.325    0.9524
   14.340    1.1236
   14.355    1.0487
   14.370    1.0380
   14.385    0.8240
   14.400    0.9845
   14.415    0.9952
   14.430    0.8882
   14.445    1.0059
   14.460    0.8882
   14.475    0.8347
   14.490    0.7598
   14.505    0.8454
   14.520    0.8133
   14.535    0.9096
   14.550    0.8668
   14.565    0.7491
   14.580    0.9524
   14.595    0.8989
   14.610    0.9631
   14.625    0.9417
   14.640    0.8775
   14.655    0.9524
   14.670    0.8240
   14.685    0.7812
   14.700    0.7812
   14.715    0.9310
   14.730    0.8454
   14.745    0.8668
   14.760    0.8026
   14.775    0.8561
   14.790    0.8026
   14.805    0.8989
   14.820    0.9417
   14.835    0.9631
   14.850    0.8240
   14.865    0.9524
   14.880    0.9417
   14.895    0.9417
   14.910    0.9738
   14.925    0.9631
   14.940    0.9417
   14.955    0.9310
   14.970    0.8133
   14.985    0.9631
   15.000    1.0380
   15.015    1.0273
   15.030    1.0487
   15.045    1.0487
   15.060    1.3804
   15.075    1.3697
   15.090    1.5623
   15.105    1.6479
   15.120    1.5730
   15.135    1.2520
   15.150    1.1129
   15.165    1.0166
   15.180    0.9952
   15.195    0.8989
   15.210    0.7919
   15.225    0.7384
   15.240    0.8026
   15.255    0.9738
   15.270    0.8989
   15.285    0.8347
   15.300    0.7170
   15.315    0.9524
   15.330    0.8026
   15.345    0.7598
   15.360    0.8133
   15.375    0.8347
   15.390    0.8347
   15.405    0.8026
   15.420    0.7063
   15.435    0.7598
   15.450    0.7919
   15.465    0.5671
   15.480    0.6528
   15.495    0.7277
   15.510    0.7919
   15.525    0.8240
   15.540    0.8240
   15.555    0.8347
   15.570    0.7598
   15.585    0.7491
   15.600    0.7491
   15.615    0.8347
   15.630    0.8026
   15.645    0.8561
   15.660    0.8133
   15.675    0.6956
   15.690    0.7705
   15.705    0.8347
   15.720    1.0059
   15.735    1.1450
   15.750    1.2627
   15.765    1.1557
   15.780    1.2520
   15.795    1.2734
   15.810    0.8668
   15.825    0.7919
   15.840    0.7598
   15.855    0.7277
   15.870    0.8882
   15.885    0.8882
   15.900    0.7598
   15.915    0.6528
   15.930    0.7598
   15.945    0.8561
   15.960    0.8347
   15.975    0.9096
   15.990    0.8347
   16.005    0.6849
   16.020    0.7384
   16.035    0.8882
   16.050    0.8026
   16.065    0.5993
   16.080    0.7277
   16.095    0.8561
   16.110    0.8561
   16.125    0.9096
   16.140    0.7063
   16.155    0.7598
   16.170    0.7919
   16.185    0.8668
   16.200    0.7491
   16.215    0.9096
   16.230    0.8347
   16.245    0.9524
   16.260    0.9203
   16.275    0.7812
   16.290    0.8026
   16.305    0.9203
   16.320    0.8668
   16.335    1.0701
   16.350    0.9631
   16.365    1.0594
   16.380    1.0487
   16.395    1.1878
   16.410    1.2841
   16.425    1.2092
   16.440    1.3804
   16.455    1.1664
   16.470    0.9845
   16.485    1.0594
   16.500    0.8026
   16.515    0.7705
   16.530    0.7812
   16.545    0.6100
   16.560    0.8026
   16.575    0.6742
   16.590    0.8026
   16.605    0.6742
   16.620    0.6421
   16.635    0.7170
   16.650    0.6528
   16.665    0.6421
   16.680    0.6635
   16.695    0.7598
   16.710    0.7919
   16.725    0.6742
   16.740    0.6956
   16.755    0.8454
   16.770    0.8347
   16.785    0.7384
   16.800    0.8026
   16.815    0.7919
   16.830    0.7812
   16.845    0.8133
   16.860    0.7919
   16.875    0.6314
   16.890    0.6100
   16.905    0.6207
   16.920    0.6849
   16.935    0.6314
   16.950    0.6528
   16.965    0.5564
   16.980    0.5350
   16.995    0.7277
   17.010    0.6849
   17.025    0.6849
   17.040    0.8133
   17.055    0.7277
   17.070    0.5993
   17.085    0.6421
   17.100    0.8026
   17.115    0.7170
   17.130    0.6635
   17.145    0.7598
   17.160    0.6849
   17.175    0.6421
   17.190    0.7063
   17.205    0.5993
   17.220    0.6207
   17.235    0.6421
   17.250    0.7063
   17.265    0.6849
   17.280    0.5457
   17.295    0.5993
   17.310    0.5457
   17.325    0.6314
   17.340    0.6742
   17.355    0.6742
   17.370    0.5886
   17.385    0.6314
   17.400    0.8454
   17.415    0.8347
   17.430    0.7277
   17.445    0.7384
   17.460    0.6849
   17.475    0.6742
   17.490    0.7598
   17.505    0.7170
   17.520    0.7705
   17.535    0.7919
   17.550    0.8882
   17.565    0.8240
   17.580    0.8454
   17.595    0.7277
   17.610    0.6421
   17.625    0.6314
   17.640    0.8561
   17.655    0.9096
   17.670    0.8561
   17.685    0.9096
   17.700    0.9203
   17.715    0.8026
   17.730    0.7063
   17.745    0.8454
   17.760    0.8240
   17.775    0.6956
   17.790    0.7491
   17.805    0.7598
   17.820    0.7598
   17.835    0.7063
   17.850    0.8454
   17.865    0.6742
   17.880    0.7919
   17.895    0.7598
   17.910    0.6421
   17.925    0.6528
   17.940    0.5564
   17.955    0.7277
   17.970    0.6742
   17.985    0.6956
   18.000    0.6849
   18.015    0.6849
   18.030    0.6742
   18.045    0.6849
   18.060    0.7384
   18.075    0.6421
   18.090    0.6956
   18.105    0.6314
   18.120    0.7170
   18.135    0.7384
   18.150    0.6421
   18.165    0.6635
   18.180    0.7705
   18.195    0.7919
   18.210    0.7063
   18.225    0.6528
   18.240    0.7277
   18.255    0.6956
   18.270    0.6528
   18.285    0.7277
   18.300    0.7919
   18.315    0.8026
   18.330    0.8240
   18.345    0.7598
   18.360    0.5886
   18.375    0.7705
   18.390    0.7919
   18.405    0.6528
   18.420    0.8026
   18.435    0.7384
   18.450    0.7705
   18.465    0.7598
   18.480    0.7170
   18.495    0.7491
   18.510    0.6314
   18.525    0.6421
   18.540    0.5671
   18.555    0.7170
   18.570    0.8240
   18.585    0.7491
   18.600    0.7598
   18.615    0.7812
   18.630    0.7919
   18.645    0.7384
   18.660    0.7277
   18.675    0.8240
   18.690    0.8775
   18.705    0.8775
   18.720    0.8454
   18.735    0.8989
   18.750    0.7812
   18.765    0.8561
   18.780    0.8989
   18.795    0.9524
   18.810    0.8668
   18.825    0.8026
   18.840    0.9738
   18.855    0.8561
   18.870    0.8989
   18.885    0.8561
   18.900    0.7384
   18.915    0.6100
   18.930    0.6849
   18.945    0.5993
   18.960    0.7170
   18.975    0.7384
   18.990    0.8561
   19.005    0.7277
   19.020    0.7384
   19.035    0.7919
   19.050    0.7919
   19.065    0.7812
   19.080    0.7705
   19.095    0.7170
   19.110    0.8133
   19.125    0.7063
   19.140    0.8882
   19.155    0.7705
   19.170    0.7919
   19.185    0.8775
   19.200    0.7919
   19.215    0.7170
   19.230    0.7384
   19.245    0.7170
   19.260    0.8026
   19.275    0.7384
   19.290    0.8561
   19.305    0.8775
   19.320    0.7812
   19.335    0.8668
   19.350    0.9096
   19.365    0.8668
   19.380    0.8240
   19.395    0.8989
   19.410    0.8133
   19.425    0.6956
   19.440    0.7277
   19.455    0.7277
   19.470    0.6314
   19.485    0.7170
   19.500    0.6314
   19.515    0.7384
   19.530    0.7812
   19.545    0.5993
   19.560    0.7491
   19.575    0.7812
   19.590    0.7598
   19.605    0.6314
   19.620    0.8561
   19.635    0.6956
   19.650    0.7812
   19.665    0.7277
   19.680    0.7705
   19.695    0.7277
   19.710    0.8882
   19.725    0.8133
   19.740    0.6635
   19.755    0.6314
   19.770    0.8240
   19.785    0.8882
   19.800    0.7277
   19.815    0.9952
   19.830    1.0487
   19.845    0.9631
   19.860    1.1557
   19.875    1.1450
   19.890    1.2092
   19.905    1.2948
   19.920    1.3162
   19.935    1.0487
   19.950    0.7919
   19.965    0.6849
   19.980    0.8347
   19.995    0.8347
   20.010    0.6742
   20.025    0.9631
   20.040    0.7170
   20.055    0.7277
   20.070    0.7384
   20.085    0.9096
   20.100    0.6956
   20.115    0.5243
   20.130    0.6207
   20.145    0.8347
   20.160    0.6742
   20.175    0.6742
   20.190    0.7277
   20.205    0.7063
   20.220    0.7384
   20.235    0.7384
   20.250    0.8561
   20.265    0.7598
   20.280    0.7705
   20.295    0.7277
   20.310    0.7170
   20.325    0.8026
   20.340    0.8240
   20.355    0.7384
   20.370    0.6100
   20.385    0.7170
   20.400    0.9310
   20.415    0.6742
   20.430    0.7170
   20.445    0.7170
   20.460    0.8454
   20.475    0.8240
   20.490    0.6635
   20.505    0.7063
   20.520    0.6100
   20.535    0.8347
   20.550    0.8026
   20.565    0.8133
   20.580    0.7277
   20.595    0.7598
   20.610    0.7705
   20.625    0.6635
   20.640    0.7598
   20.655    0.8240
   20.670    0.6100
   20.685    0.7063
   20.700    0.7598
   20.715    0.7277
   20.730    0.5886
   20.745    0.6742
   20.760    0.6956
   20.775    0.7705
   20.790    0.6956
   20.805    0.7277
   20.820    0.7277
   20.835    0.7170
   20.850    0.8133
   20.865    0.8561
   20.880    0.6635
   20.895    0.6956
   20.910    0.7384
   20.925    0.8026
   20.940    0.7170
   20.955    0.8668
   20.970    0.8775
   20.985    0.6207
   21.000    0.6421
   21.015    0.6956
   21.030    0.6528
   21.045    0.5886
   21.060    0.6742
   21.075    0.7170
   21.090    0.6528
   21.105    0.7170
   21.120    0.6742
   21.135    0.6956
   21.150    0.7598
   21.165    0.6849
   21.180    0.6849
   21.195    0.7063
   21.210    0.7705
   21.225    0.6742
   21.240    0.6849
   21.255    0.6635
   21.270    0.6100
   21.285    0.5993
   21.300    0.6207
   21.315    0.7491
   21.330    0.8347
   21.345    0.7063
   21.360    0.7705
   21.375    0.8133
   21.390    0.6742
   21.405    0.8775
   21.420    0.9631
   21.435    0.9310
   21.450    0.8240
   21.465    0.9631
   21.480    0.6742
   21.495    0.8026
   21.510    0.7812
   21.525    0.5993
   21.540    0.5671
   21.555    0.6742
   21.570    0.5993
   21.585    0.7384
   21.600    0.6956
   21.615    0.7277
   21.630    0.7491
   21.645    0.7277
   21.660    0.7598
   21.675    0.6849
   21.690    0.6528
   21.705    0.6742
   21.720    0.7277
   21.735    0.6956
   21.750    0.6314
   21.765    0.6100
   21.780    0.7170
   21.795    0.7705
   21.810    0.6635
   21.825    0.5886
   21.840    0.9203
   21.855    0.6849
   21.870    0.6314
   21.885    0.7170
   21.900    0.8347
   21.915    0.7384
   21.930    0.8133
   21.945    0.6742
   21.960    0.7277
   21.975    0.8668
   21.990    0.8347
   22.005    0.7170
   22.020    0.7705
   22.035    0.6956
   22.050    0.6207
   22.065    0.7598
   22.080    0.6421
   22.095    0.7277
   22.110    0.7598
   22.125    0.7812
   22.140    0.6635
   22.155    0.6207
   22.170    0.7919
   22.185    0.7919
   22.200    0.7277
   22.215    0.7277
   22.230    0.6528
   22.245    0.7063
   22.260    0.5778
   22.275    0.5243
   22.290    0.5993
   22.305    0.8882
   22.320    0.9203
   22.335    0.6956
   22.350    0.7919
   22.365    0.7919
   22.380    0.7170
   22.395    0.7705
   22.410    0.7598
   22.425    0.7170
   22.440    0.6849
   22.455    0.8133
   22.470    0.8775
   22.485    0.9096
   22.500    0.9096
   22.515    0.8133
   22.530    0.8668
   22.545    0.7384
   22.560    0.6956
   22.575    0.6956
   22.590    0.7919
   22.605    0.8454
   22.620    0.8347
   22.635    0.8775
   22.650    0.8668
   22.665    0.7384
   22.680    0.6528
   22.695    0.8240
   22.710    0.7812
   22.725    0.8133
   22.740    0.8561
   22.755    0.8240
   22.770    0.8026
   22.785    0.7705
   22.800    0.8882
   22.815    0.9310
   22.830    0.8347
   22.845    1.0380
   22.860    1.1557
   22.875    1.0487
   22.890    1.0380
   22.905    1.0166
   22.920    0.8989
   22.935    0.9096
   22.950    0.8133
   22.965    0.9310
   22.980    0.8882
   22.995    0.6421
   23.010    0.7919
   23.025    0.6956
   23.040    0.8026
   23.055    0.8026
   23.070    0.8240
   23.085    0.7384
   23.100    0.7919
   23.115    0.5671
   23.130    0.7598
   23.145    0.7170
   23.160    0.7491
   23.175    0.7812
   23.190    0.7384
   23.205    0.8454
   23.220    0.8026
   23.235    0.7919
   23.250    0.8347
   23.265    0.6849
   23.280    0.8133
   23.295    0.8775
   23.310    0.7063
   23.325    0.8561
   23.340    0.8133
   23.355    0.8775
   23.370    0.7170
   23.385    0.8240
   23.400    0.7812
   23.415    0.7170
   23.430    0.7384
   23.445    0.8561
   23.460    0.7919
   23.475    0.6421
   23.490    0.6956
   23.505    0.7812
   23.520    0.8240
   23.535    0.8775
   23.550    0.8561
   23.565    0.7277
   23.580    0.8561
   23.595    0.7063
   23.610    0.8240
   23.625    0.8561
   23.640    0.8882
   23.655    0.8989
   23.670    0.9417
   23.685    1.0059
   23.700    0.9524
   23.715    0.9952
   23.730    1.1664
   23.745    1.1771
   23.760    1.2306
   23.775    1.1985
   23.790    1.2199
   23.805    0.9738
   23.820    0.9310
   23.835    1.0487
   23.850    0.8989
   23.865    0.9952
   23.880    0.7705
   23.895    0.7170
   23.910    0.7705
   23.925    0.8454
   23.940    0.5886
   23.955    0.6421
   23.970    0.6421
   23.985    0.7705
   24.000    0.8347
   24.015    0.7384
   24.030    0.9738
   24.045    0.8882
   24.060    0.8454
   24.075    0.9631
   24.090    0.7491
   24.105    0.7170
   24.120    0.9310
   24.135    0.8240
   24.150    0.8026
   24.165    0.8775
   24.180    0.8775
   24.195    0.8775
   24.210    0.7384
   24.225    0.6849
   24.240    0.8026
   24.255    0.8668
   24.270    0.7384
   24.285    0.7919
   24.300    0.8454
   24.315    0.7491
   24.330    0.9310
   24.345    0.8026
   24.360    0.7919
   24.375    0.8026
   24.390    0.8026
   24.405    0.7491
   24.420    0.8347
   24.435    0.8989
   24.450    0.8882
   24.465    0.7491
   24.480    0.7170
   24.495    0.6956
   24.510    0.8561
   24.525    0.7919
   24.540    0.7705
   24.555    0.8347
   24.570    0.9096
   24.585    0.8026
   24.600    0.8133
   24.615    0.7598
   24.630    0.6528
   24.645    0.7384
   24.660    0.6849
   24.675    0.7063
   24.690    0.8882
   24.705    0.6207
   24.720    0.6207
   24.735    0.8454
   24.750    0.8026
   24.765    0.7384
   24.780    0.7170
   24.795    0.7598
   24.810    0.8240
   24.825    0.9417
   24.840    0.8561
   24.855    0.7491
   24.870    0.8240
   24.885    0.8133
   24.900    0.7170
   24.915    0.6742
   24.930    0.8775
   24.945    0.7705
   24.960    0.9952
   24.975    0.8561
   24.990    0.8240
   25.005    0.7491
   25.020    0.8026
   25.035    0.6742
   25.050    0.8240
   25.065    0.7063
   25.080    0.7919
   25.095    0.6849
   25.110    0.7598
   25.125    0.7598
   25.140    0.7919
   25.155    0.7170
   25.170    0.7491
   25.185    0.7277
   25.200    0.8989
   25.215    0.8668
   25.230    0.8775
   25.245    0.7277
   25.260    0.7170
   25.275    0.8133
   25.290    0.8347
   25.305    0.7277
   25.320    0.8561
   25.335    0.7705
   25.350    0.7384
   25.365    0.9203
   25.380    0.7812
   25.395    0.7812
   25.410    0.8347
   25.425    0.7598
   25.440    0.8775
   25.455    0.8240
   25.470    0.9096
   25.485    0.9096
   25.500    0.8668
   25.515    1.0166
   25.530    0.9203
   25.545    0.7919
   25.560    0.8240
   25.575    0.8026
   25.590    0.8240
   25.605    0.8240
   25.620    0.7063
   25.635    0.8133
   25.650    0.6849
   25.665    0.8775
   25.680    0.8347
   25.695    0.7491
   25.710    0.7277
   25.725    0.8133
   25.740    0.8882
   25.755    0.6421
   25.770    0.8240
   25.785    0.8240
   25.800    0.8133
   25.815    0.7277
   25.830    0.7491
   25.845    0.7919
   25.860    0.9203
   25.875    0.8347
   25.890    0.9631
   25.905    0.9524
   25.920    0.7812
   25.935    0.7598
   25.950    0.8775
   25.965    0.8561
   25.980    0.9845
   25.995    0.7705
   26.010    0.7598
   26.025    0.9203
   26.040    0.7705
   26.055    0.8026
   26.070    0.9310
   26.085    0.7491
   26.100    0.8133
   26.115    0.9310
   26.130    0.8026
   26.145    0.7705
   26.160    0.6956
   26.175    1.0380
   26.190    0.9417
   26.205    1.0594
   26.220    0.9631
   26.235    1.0487
   26.250    0.8347
   26.265    1.0166
   26.280    1.1236
   26.295    1.1022
   26.310    1.2306
   26.325    1.1557
   26.340    1.1664
   26.355    1.2413
   26.370    0.9845
   26.385    1.0808
   26.400    1.0487
   26.415    0.9524
   26.430    1.0166
   26.445    0.8347
   26.460    0.7919
   26.475    0.7384
   26.490    0.9203
   26.505    0.7277
   26.520    0.7277
   26.535    0.7491
   26.550    0.8775
   26.565    0.8347
   26.580    0.8775
   26.595    0.8882
   26.610    0.8133
   26.625    0.9203
   26.640    0.9845
   26.655    0.9631
   26.670    0.9952
   26.685    1.2306
   26.700    1.2413
   26.715    1.1236
   26.730    1.2199
   26.745    1.1022
   26.760    1.1343
   26.775    1.4018
   26.790    0.9952
   26.805    1.0487
   26.820    0.9631
   26.835    0.9096
   26.850    0.7491
   26.865    0.6956
   26.880    0.5886
   26.895    0.7598
   26.910    0.8240
   26.925    0.6849
   26.940    0.8240
   26.955    0.7919
   26.970    0.7919
   26.985    0.7919
   27.000    0.8882
   27.015    0.7384
   27.030    0.7277
   27.045    0.8026
   27.060    0.8561
   27.075    0.7384
   27.090    0.8668
   27.105    0.9417
   27.120    0.8026
   27.135    0.8347
   27.150    0.7919
   27.165    0.8775
   27.180    0.8347
   27.195    0.8133
   27.210    0.8882
   27.225    0.7919
   27.240    0.7277
   27.255    0.8668
   27.270    0.7919
   27.285    0.8133
   27.300    0.7063
   27.315    0.7384
   27.330    0.8347
   27.345    0.7491
   27.360    0.7812
   27.375    0.6528
   27.390    0.6956
   27.405    0.8133
   27.420    0.7491
   27.435    0.8240
   27.450    0.8668
   27.465    0.7063
   27.480    0.8133
   27.495    0.7598
   27.510    0.8454
   27.525    0.7812
   27.540    0.7491
   27.555    0.7812
   27.570    0.8026
   27.585    0.8240
   27.600    0.6421
   27.615    0.7919
   27.630    0.7063
   27.645    0.7812
   27.660    0.7919
   27.675    0.6100
   27.690    0.8240
   27.705    0.7598
   27.720    0.6742
   27.735    0.8561
   27.750    0.7384
   27.765    0.8240
   27.780    0.8775
   27.795    0.8026
   27.810    0.8347
   27.825    0.7491
   27.840    0.8347
   27.855    0.8240
   27.870    0.8989
   27.885    0.8668
   27.900    0.9631
   27.915    0.7384
   27.930    0.8026
   27.945    0.9631
   27.960    0.8668
   27.975    0.8454
   27.990    0.8882
   28.005    0.6956
   28.020    0.5778
   28.035    0.6421
   28.050    0.8133
   28.065    0.7277
   28.080    0.7598
   28.095    0.5993
   28.110    0.8026
   28.125    0.8989
   28.140    0.7277
   28.155    0.8240
   28.170    0.7384
   28.185    0.7384
   28.200    0.7491
   28.215    0.6956
   28.230    0.8775
   28.245    0.7384
   28.260    0.6528
   28.275    0.7063
   28.290    0.8668
   28.305    0.8882
   28.320    0.8026
   28.335    0.7598
   28.350    0.7491
   28.365    0.7812
   28.380    0.7705
   28.395    0.6742
   28.410    0.7491
   28.425    0.7063
   28.440    0.7277
   28.455    0.7598
   28.470    0.7491
   28.485    0.6314
   28.500    0.6421
   28.515    0.7063
   28.530    0.7491
   28.545    0.6635
   28.560    0.7384
   28.575    0.7063
   28.590    0.7705
   28.605    0.6207
   28.620    0.8026
   28.635    0.8454
   28.650    0.7919
   28.665    0.9203
   28.680    0.7063
   28.695    0.8240
   28.710    0.8668
   28.725    0.8347
   28.740    0.7491
   28.755    0.7384
   28.770    0.7812
   28.785    0.8561
   28.800    0.8026
   28.815    0.7812
   28.830    0.7384
   28.845    0.7705
   28.860    0.7812
   28.875    0.7170
   28.890    0.6742
   28.905    0.6742
   28.920    0.7598
   28.935    0.7384
   28.950    0.7919
   28.965    0.6742
   28.980    0.6956
   28.995    0.6742
   29.010    0.8347
   29.025    0.7277
   29.040    0.5564
   29.055    0.6849
   29.070    0.7812
   29.085    0.6956
   29.100    0.6421
   29.115    0.8240
   29.130    0.7170
   29.145    0.8026
   29.160    0.7812
   29.175    0.7598
   29.190    0.7277
   29.205    0.6421
   29.220    0.6849
   29.235    0.7919
   29.250    0.7170
   29.265    0.6421
   29.280    0.5778
   29.295    0.6207
   29.310    0.8240
   29.325    0.7919
   29.340    0.8454
   29.355    0.8775
   29.370    0.8133
   29.385    0.6956
   29.400    0.7812
   29.415    0.7812
   29.430    0.6528
   29.445    0.7384
   29.460    0.7384
   29.475    0.5778
   29.490    0.7063
   29.505    0.6742
   29.520    0.7705
   29.535    0.7170
   29.550    0.7705
   29.565    0.5886
   29.580    0.6314
   29.595    0.6849
   29.610    0.7277
   29.625    0.7384
   29.640    0.7705
   29.655    0.6421
   29.670    0.7491
   29.685    0.7812
   29.700    0.6849
   29.715    0.8240
   29.730    0.7812
   29.745    0.5886
   29.760    0.7705
   29.775    0.8133
   29.790    0.6742
   29.805    0.5671
   29.820    0.6314
   29.835    0.6528
   29.850    0.6635
   29.865    0.6956
   29.880    0.6528
   29.895    0.6528
   29.910    0.5993
   29.925    0.7598
   29.940    0.8240
   29.955    0.7491
   29.970    0.6528
   29.985    0.7277
   30.000    0.6849
   30.015    0.6635
   30.030    0.6742
   30.045    0.6742
   30.060    0.8133
   30.075    0.7598
   30.090    0.8561
   30.105    0.9096
   30.120    0.8882
   30.135    0.9524
   30.150    0.8989
   30.165    0.7919
   30.180    0.9631
   30.195    0.9738
   30.210    0.8347
   30.225    0.8561
   30.240    0.8133
   30.255    0.7812
   30.270    0.6956
   30.285    0.5778
   30.300    0.5886
   30.315    0.6421
   30.330    0.6742
   30.345    0.5886
   30.360    0.5564
   30.375    0.7277
   30.390    0.6635
   30.405    0.6635
   30.420    0.6528
   30.435    0.7598
   30.450    0.6314
   30.465    0.6314
   30.480    0.6635
   30.495    0.6207
   30.510    0.5671
   30.525    0.7384
   30.540    0.5993
   30.555    0.6100
   30.570    0.6635
   30.585    0.6421
   30.600    0.5671
   30.615    0.5993
   30.630    0.7598
   30.645    0.5993
   30.660    0.5671
   30.675    0.6635
   30.690    0.5886
   30.705    0.6635
   30.720    0.6421
   30.735    0.5564
   30.750    0.7491
   30.765    0.6421
   30.780    0.7491
   30.795    0.6207
   30.810    0.7063
   30.825    0.8454
   30.840    0.8454
   30.855    0.7170
   30.870    0.7598
   30.885    0.6635
   30.900    0.5993
   30.915    0.7277
   30.930    0.5136
   30.945    0.6100
   30.960    0.6528
   30.975    0.6100
   30.990    0.6314
   31.005    0.7277
   31.020    0.6207
   31.035    0.6528
   31.050    0.6207
   31.065    0.6421
   31.080    0.6956
   31.095    0.5993
   31.110    0.5886
   31.125    0.6314
   31.140    0.5671
   31.155    0.5778
   31.170    0.5778
   31.185    0.6528
   31.200    0.6528
   31.215    0.5457
   31.230    0.7063
   31.245    0.5350
   31.260    0.5243
   31.275    0.5886
   31.290    0.6742
   31.305    0.5136
   31.320    0.6100
   31.335    0.5457
   31.350    0.6849
   31.365    0.6314
   31.380    0.8133
   31.395    0.6849
   31.410    0.6314
   31.425    0.6956
   31.440    0.6635
   31.455    0.7277
   31.470    0.6528
   31.485    0.7812
   31.500    0.7277
   31.515    0.6849
   31.530    0.7384
   31.545    0.7491
   31.560    0.7812
   31.575    0.7170
   31.590    0.8454
   31.605    0.7491
   31.620    0.7170
   31.635    0.6421
   31.650    0.5778
   31.665    0.6956
   31.680    0.7598
   31.695    0.8347
   31.710    0.5886
   31.725    0.6742
   31.740    0.6849
   31.755    0.6849
   31.770    0.6849
   31.785    0.6314
   31.800    0.6100
   31.815    0.5029
   31.830    0.5564
   31.845    0.5350
   31.860    0.5457
   31.875    0.7705
   31.890    0.5993
   31.905    0.6635
   31.920    0.7277
   31.935    0.5564
   31.950    0.5029
   31.965    0.6635
   31.980    0.6207
   31.995    0.7277
   32.010    0.7063
   32.025    0.5886
   32.040    0.5886
   32.055    0.5243
   32.070    0.6314
   32.085    0.6207
   32.100    0.6207
   32.115    0.6421
   32.130    0.6956
   32.145    0.5778
   32.160    0.5350
   32.175    0.6421
   32.190    0.6635
   32.205    0.6956
   32.220    0.6528
   32.235    0.6314
   32.250    0.6100
   32.265    0.5564
   32.280    0.6100
   32.295    0.7919
   32.310    0.6956
   32.325    0.6849
   32.340    0.7812
   32.355    0.6742
   32.370    0.5671
   32.385    0.5029
   32.400    0.6100
   32.415    0.6742
   32.430    0.6849
   32.445    0.6100
   32.460    0.4815
   32.475    0.6421
   32.490    0.5136
   32.505    0.6421
   32.520    0.5778
   32.535    0.6528
   32.550    0.6100
   32.565    0.6849
   32.580    0.6100
   32.595    0.7063
   32.610    0.7063
   32.625    0.6100
   32.640    0.5993
   32.655    0.6207
   32.670    0.5350
   32.685    0.6956
   32.700    0.6421
   32.715    0.5993
   32.730    0.5778
   32.745    0.5993
   32.760    0.5993
   32.775    0.5671
   32.790    0.6100
   32.805    0.5778
   32.820    0.6635
   32.835    0.6742
   32.850    0.6528
   32.865    0.7491
   32.880    0.7598
   32.895    0.8561
   32.910    0.7598
   32.925    0.7919
   32.940    0.7384
   32.955    0.7812
   32.970    0.6421
   32.985    0.5778
   33.000    0.5886
   33.015    0.5778
   33.030    0.6956
   33.045    0.6100
   33.060    0.6421
   33.075    0.5671
   33.090    0.6528
   33.105    0.7384
   33.120    0.6742
   33.135    0.6421
   33.150    0.5564
   33.165    0.6635
   33.180    0.6956
   33.195    0.6742
   33.210    0.7277
   33.225    0.5671
   33.240    0.8026
   33.255    0.8026
   33.270    0.6100
   33.285    0.5564
   33.300    0.6207
   33.315    0.6100
   33.330    0.5886
   33.345    0.5457
   33.360    0.5671
   33.375    0.5671
   33.390    0.5136
   33.405    0.7277
   33.420    0.5886
   33.435    0.6314
   33.450    0.5993
   33.465    0.6207
   33.480    0.5993
   33.495    0.5993
   33.510    0.5993
   33.525    0.5457
   33.540    0.5671
   33.555    0.6421
   33.570    0.5243
   33.585    0.5457
   33.600    0.5350
   33.615    0.4708
   33.630    0.4601
   33.645    0.4708
   33.660    0.4280
   33.675    0.6207
   33.690    0.6207
   33.705    0.6528
   33.720    0.6421
   33.735    0.6100
   33.750    0.5243
   33.765    0.5243
   33.780    0.5350
   33.795    0.5671
   33.810    0.4601
   33.825    0.5564
   33.840    0.5029
   33.855    0.6100
   33.870    0.5778
   33.885    0.5457
   33.900    0.5564
   33.915    0.6314
   33.930    0.5886
   33.945    0.5671
   33.960    0.5243
   33.975    0.4280
   33.990    0.4066
   34.005    0.5564
   34.020    0.5350
   34.035    0.5350
   34.050    0.4708
   34.065    0.5350
   34.080    0.5671
   34.095    0.5350
   34.110    0.6207
   34.125    0.5886
   34.140    0.5671
   34.155    0.6207
   34.170    0.6849
   34.185    0.5671
   34.200    0.7598
   34.215    0.6421
   34.230    0.5671
   34.245    0.6314
   34.260    0.5457
   34.275    0.5778
   34.290    0.6635
   34.305    0.6421
   34.320    0.4922
   34.335    0.5778
   34.350    0.5243
   34.365    0.5243
   34.380    0.6314
   34.395    0.5457
   34.410    0.4601
   34.425    0.5136
   34.440    0.5029
   34.455    0.5564
   34.470    0.4708
   34.485    0.5029
   34.500    0.5243
   34.515    0.6421
   34.530    0.6207
   34.545    0.5564
   34.560    0.5778
   34.575    0.5243
   34.590    0.5564
   34.605    0.4815
   34.620    0.5136
   34.635    0.5886
   34.650    0.6207
   34.665    0.5564
   34.680    0.5671
   34.695    0.4815
   34.710    0.5029
   34.725    0.5136
   34.740    0.6314
   34.755    0.5136
   34.770    0.4387
   34.785    0.6207
   34.800    0.6314
   34.815    0.5350
   34.830    0.5564
   34.845    0.4601
   34.860    0.5886
   34.875    0.5778
   34.890    0.5350
   34.905    0.4922
   34.920    0.5136
   34.935    0.5778
   34.950    0.5778
   34.965    0.6100
   34.980    0.5136
   34.995    0.5778
   35.010    0.5029
   35.025    0.4280
   35.040    0.4922
   35.055    0.5457
   35.070    0.6207
   35.085    0.4601
   35.100    0.3745
   35.115    0.3852
   35.130    0.5243
   35.145    0.5778
   35.160    0.6207
   35.175    0.7384
   35.190    0.6635
   35.205    0.5671
   35.220    0.5029
   35.235    0.4922
   35.250    0.5671
   35.265    0.5243
   35.280    0.5457
   35.295    0.4601
   35.310    0.5243
   35.325    0.4601
   35.340    0.4815
   35.355    0.5350
   35.370    0.4494
   35.385    0.4815
   35.400    0.6100
   35.415    0.4601
   35.430    0.4922
   35.445    0.5886
   35.460    0.5993
   35.475    0.5564
   35.490    0.5564
   35.505    0.4601
   35.520    0.4280
   35.535    0.3745
   35.550    0.6956
   35.565    0.4494
   35.580    0.5243
   35.595    0.5778
   35.610    0.5350
   35.625    0.5243
   35.640    0.4922
   35.655    0.3638
   35.670    0.5350
   35.685    0.4922
   35.700    0.4815
   35.715    0.5350
   35.730    0.5564
   35.745    0.6207
   35.760    0.6421
   35.775    0.6742
   35.790    0.5029
   35.805    0.6100
   35.820    0.5029
   35.835    0.5671
   35.850    0.6207
   35.865    0.4494
   35.880    0.4815
   35.895    0.4708
   35.910    0.5136
   35.925    0.4173
   35.940    0.4280
   35.955    0.5029
   35.970    0.4601
   35.985    0.4494
   36.000    0.4708
   36.015    0.5886
   36.030    0.5993
   36.045    0.5350
   36.060    0.5350
   36.075    0.5350
   36.090    0.4708
   36.105    0.5993
   36.120    0.5671
   36.135    0.5029
   36.150    0.5136
   36.165    0.4708
   36.180    0.5457
   36.195    0.4708
   36.210    0.5029
   36.225    0.6742
   36.240    0.6207
   36.255    0.4922
   36.270    0.4922
   36.285    0.4494
   36.300    0.4494
   36.315    0.5243
   36.330    0.4708
   36.345    0.6207
   36.360    0.4601
   36.375    0.4494
   36.390    0.4280
   36.405    0.5136
   36.420    0.5029
   36.435    0.4708
   36.450    0.4066
   36.465    0.4173
   36.480    0.5457
   36.495    0.3852
   36.510    0.4387
   36.525    0.5457
   36.540    0.5029
   36.555    0.5564
   36.570    0.5564
   36.585    0.4280
   36.600    0.5029
   36.615    0.6207
   36.630    0.6314
   36.645    0.5350
   36.660    0.4601
   36.675    0.5457
   36.690    0.5029
   36.705    0.6528
   36.720    0.7170
   36.735    0.5243
   36.750    0.5564
   36.765    0.5993
   36.780    0.5564
   36.795    0.6100
   36.810    0.5886
   36.825    0.5029
   36.840    0.5243
   36.855    0.4922
   36.870    0.4280
   36.885    0.5243
   36.900    0.6100
   36.915    0.5564
   36.930    0.5136
   36.945    0.5993
   36.960    0.5136
   36.975    0.5778
   36.990    0.4708
   37.005    0.5350
   37.020    0.6635
   37.035    0.5350
   37.050    0.3852
   37.065    0.6100
   37.080    0.5886
   37.095    0.5457
   37.110    0.5778
   37.125    0.4708
   37.140    0.5350
   37.155    0.5671
   37.170    0.5564
   37.185    0.4815
   37.200    0.5778
   37.215    0.5671
   37.230    0.4815
   37.245    0.5564
   37.260    0.5350
   37.275    0.5136
   37.290    0.4494
   37.305    0.5136
   37.320    0.5457
   37.335    0.5564
   37.350    0.4601
   37.365    0.3638
   37.380    0.4066
   37.395    0.5136
   37.410    0.5350
   37.425    0.5671
   37.440    0.4387
   37.455    0.4815
   37.470    0.5136
   37.485    0.5243
   37.500    0.4708
   37.515    0.5778
   37.530    0.4708
   37.545    0.4173
   37.560    0.4280
   37.575    0.5243
   37.590    0.5136
   37.605    0.3852
   37.620    0.4815
   37.635    0.4708
   37.650    0.4815
   37.665    0.5136
   37.680    0.4708
   37.695    0.3745
   37.710    0.4494
   37.725    0.4922
   37.740    0.4173
   37.755    0.3531
   37.770    0.3745
   37.785    0.3745
   37.800    0.2889
   37.815    0.3745
   37.830    0.4173
   37.845    0.4387
   37.860    0.4494
   37.875    0.5029
   37.890    0.4494
   37.905    0.3959
   37.920    0.4815
   37.935    0.4708
   37.950    0.4066
   37.965    0.4601
   37.980    0.3424
   37.995    0.4387
   38.010    0.4815
   38.025    0.3959
   38.040    0.4280
   38.055    0.4280
   38.070    0.4387
   38.085    0.3959
   38.100    0.4173
   38.115    0.4066
   38.130    0.3852
   38.145    0.3959
   38.160    0.4922
   38.175    0.3959
   38.190    0.4708
   38.205    0.4815
   38.220    0.5350
   38.235    0.4280
   38.250    0.4173
   38.265    0.3852
   38.280    0.4173
   38.295    0.4601
   38.310    0.4922
   38.325    0.4387
   38.340    0.3852
   38.355    0.4066
   38.370    0.4601
   38.385    0.4922
   38.400    0.3959
   38.415    0.3852
   38.430    0.5350
   38.445    0.4708
   38.460    0.4708
   38.475    0.4280
   38.490    0.3959
   38.505    0.4173
   38.520    0.5243
   38.535    0.4922
   38.550    0.4280
   38.565    0.4280
   38.580    0.4280
   38.595    0.4708
   38.610    0.5029
   38.625    0.4815
   38.640    0.4387
   38.655    0.4173
   38.670    0.4494
   38.685    0.3638
   38.700    0.4815
   38.715    0.3638
   38.730    0.4173
   38.745    0.3959
   38.760    0.4922
   38.775    0.3638
   38.790    0.4601
   38.805    0.4280
   38.820    0.4922
   38.835    0.4387
   38.850    0.4173
   38.865    0.4066
   38.880    0.4494
   38.895    0.4494
   38.910    0.3638
   38.925    0.4922
   38.940    0.4815
   38.955    0.5671
   38.970    0.4280
   38.985    0.3959
   39.000    0.4280
   39.015    0.5136
   39.030    0.4494
   39.045    0.4387
   39.060    0.4708
   39.075    0.5029
   39.090    0.4601
   39.105    0.3103
   39.120    0.3959
   39.135    0.3852
   39.150    0.3531
   39.165    0.3210
   39.180    0.3531
   39.195    0.3959
   39.210    0.3424
   39.225    0.3531
   39.240    0.3959
   39.255    0.4387
   39.270    0.3638
   39.285    0.4173
   39.300    0.4066
   39.315    0.4494
   39.330    0.5029
   39.345    0.4387
   39.360    0.4708
   39.375    0.4173
   39.390    0.3210
   39.405    0.3745
   39.420    0.3317
   39.435    0.3424
   39.450    0.4601
   39.465    0.4066
   39.480    0.4066
   39.495    0.3959
   39.510    0.3959
   39.525    0.5029
   39.540    0.4387
   39.555    0.3424
   39.570    0.4280
   39.585    0.4815
   39.600    0.4387
   39.615    0.3745
   39.630    0.4280
   39.645    0.4494
   39.660    0.4387
   39.675    0.3959
   39.690    0.4173
   39.705    0.4387
   39.720    0.5243
   39.735    0.3317
   39.750    0.3531
   39.765    0.4173
   39.780    0.4066
   39.795    0.3745
   39.810    0.4815
   39.825    0.4066
   39.840    0.3210
   39.855    0.3852
   39.870    0.3959
   39.885    0.4708
   39.900    0.4173
   39.915    0.3852
   39.930    0.3745
   39.945    0.4922
   39.960    0.4387
   39.975    0.3103
   39.990    0.3531
