    1.500    9.1101
    1.515    8.9310
    1.530    9.2786
    1.545    9.3418
    1.560    9.4050
    1.575    8.8784
    1.590    9.3312
    1.605    9.0679
    1.620    8.6888
    1.635    8.7520
    1.650    8.5835
    1.665    8.3834
    1.680    8.5203
    1.695    8.4571
    1.710    8.7414
    1.725    8.2254
    1.740    8.2675
    1.755    7.7514
    1.770    7.9094
    1.785    8.0569
    1.800    7.7199
    1.815    7.6145
    1.830    7.7725
    1.845    7.8146
    1.860    7.8041
    1.875    7.6461
    1.890    7.8252
    1.905    7.5829
    1.920    7.7514
    1.935    7.4776
    1.950    7.7304
    1.965    7.0458
    1.980    7.1722
    1.995    7.3196
    2.010    7.3407
    2.025    7.2986
    2.040    7.2459
    2.055    7.4144
    2.070    7.5092
    2.085    7.0353
    2.100    7.1511
    2.115    7.4039
    2.130    7.0669
    2.145    6.8036
    2.160    6.6667
    2.175    6.9194
    2.190    7.1722
    2.205    7.0142
    2.220    6.5298
    2.235    6.8246
    2.250    7.0037
    2.265    6.8141
    2.280    6.6351
    2.295    6.7509
    2.310    6.3507
    2.325    6.6035
    2.340    6.2665
    2.355    6.7299
    2.370    6.5403
    2.385    6.3928
    2.400    6.5087
    2.415    6.3718
    2.430    6.2770
    2.445    6.5719
    2.460    6.0348
    2.475    5.8768
    2.490    6.4244
    2.505    6.4771
    2.520    6.4455
    2.535    5.9716
    2.550    6.3191
    2.565    6.4244
    2.580    6.5087
    2.595    6.2243
    2.610    6.3718
    2.625    6.3507
    2.640    6.2981
    2.655    6.1506
    2.670    6.2665
    2.685    6.1190
    2.700    5.8662
    2.715    6.2349
    2.730    6.1611
    2.745    5.8978
    2.760    6.2243
    2.775    6.0558
    2.790    5.9926
    2.805    5.8557
    2.820    6.1611
    2.835    5.9294
    2.850    6.2243
    2.865    5.8978
    2.880    5.7820
    2.895    6.0032
    2.910    6.1717
    2.925    6.0348
    2.940    6.1822
    2.955    6.2454
    2.970    6.1927
    2.985    6.1611
    3.000    5.8978
    3.015    6.0032
    3.030    5.8241
    3.045    6.2875
    3.060    6.2454
    3.075    6.4034
    3.090    6.2770
    3.105    6.3402
    3.120    6.3507
    3.135    6.2875
    3.150    6.2243
    3.165    6.4876
    3.180    6.5824
    3.195    6.2665
    3.210    6.4455
    3.225    6.1717
    3.240    6.1190
    3.255    6.2454
    3.270    6.2981
    3.285    6.4244
    3.300    6.5719
    3.315    6.1822
    3.330    6.5508
    3.345    6.4666
    3.360    7.0353
    3.375    6.8036
    3.390    7.1195
    3.405    7.2143
    3.420    6.9721
    3.435    7.4460
    3.450    7.4355
    3.465    7.7199
    3.480    7.8357
    3.495    7.7199
    3.510    7.6356
    3.525    7.6672
    3.540    7.2249
    3.555    7.4250
    3.570    6.9826
    3.585    6.8562
    3.600    6.8141
    3.615    6.4876
    3.630    6.3191
    3.645    6.4771
    3.660    6.0979
    3.675    6.2243
    3.690    6.8562
    3.705    6.2665
    3.720    6.2454
    3.735    5.8873
    3.750    6.1401
    3.765    6.4034
    3.780    6.4876
    3.795    6.4666
    3.810    6.2875
    3.825    6.1717
    3.840    5.8557
    3.855    6.1506
    3.870    6.6772
    3.885    6.4455
    3.900    6.4139
    3.915    6.2875
    3.930    6.5298
    3.945    6.4350
    3.960    6.7930
    3.975    6.5719
    3.990    6.1822
    4.005    5.8978
    4.020    6.2033
    4.035    6.4034
    4.050    6.3718
    4.065    5.9189
    4.080    5.9926
    4.095    5.8873
    4.110    6.0242
    4.125    5.7715
    4.140    5.4766
    4.155    5.7293
    4.170    5.9189
    4.185    5.7399
    4.200    5.9084
    4.215    5.8557
    4.230    5.5292
    4.245    5.9084
    4.260    5.9400
    4.275    5.7083
    4.290    5.9821
    4.305    5.7609
    4.320    5.9084
    4.335    5.5187
    4.350    5.6451
    4.365    5.9821
    4.380    5.9926
    4.395    5.7715
    4.410    5.9505
    4.425    5.7504
    4.440    6.1401
    4.455    6.0348
    4.470    5.8136
    4.485    6.2349
    4.500    5.9926
    4.515    5.8873
    4.530    5.9505
    4.545    5.9610
    4.560    5.8241
    4.575    6.1190
    4.590    5.9084
    4.605    5.9189
    4.620    6.0137
    4.635    5.9400
    4.650    6.0874
    4.665    5.9610
    4.680    6.2454
    4.695    6.1085
    4.710    6.1717
    4.725    6.2243
    4.740    6.0769
    4.755    5.8978
    4.770    5.5292
    4.785    5.7293
    4.800    5.9716
    4.815    6.1295
    4.830    5.8873
    4.845    6.3191
    4.860    6.4350
    4.875    6.3612
    4.890    6.4455
    4.905    6.0137
    4.920    5.6345
    4.935    6.0979
    4.950    6.0558
    4.965    6.1295
    4.980    6.3086
    4.995    6.1190
    5.010    6.4139
    5.025    6.1295
    5.040    6.4560
    5.055    6.2875
    5.070    6.0979
    5.085    6.4244
    5.100    6.4244
    5.115    6.7930
    5.130    6.5298
    5.145    6.5824
    5.160    6.9300
    5.175    6.8036
    5.190    6.6877
    5.205    7.0248
    5.220    6.6561
    5.235    6.8773
    5.250    7.3302
    5.265    7.2354
    5.280    7.3407
    5.295    7.1511
    5.310    6.9300
    5.325    7.5513
    5.340    7.6883
    5.355    7.5619
    5.370    7.4039
    5.385    7.4987
    5.400    7.5408
    5.415    7.7725
    5.430    7.5724
    5.445    7.5829
    5.460    7.8462
    5.475    7.9516
    5.490    8.0042
    5.505    7.4144
    5.520    7.6145
    5.535    8.2254
    5.550    8.3939
    5.565    7.8778
    5.580    7.8884
    5.595    7.9305
    5.610    8.3202
    5.625    8.2043
    5.640    8.0885
    5.655    8.0885
    5.670    7.8041
    5.685    8.0569
    5.700    7.8041
    5.715    7.5197
    5.730    7.5724
    5.745    7.7936
    5.760    7.5197
    5.775    7.3723
    5.790    7.2249
    5.805    7.3302
    5.820    7.0458
    5.835    7.0353
    5.850    7.3302
    5.865    7.1827
    5.880    7.2354
    5.895    6.6140
    5.910    6.9089
    5.925    6.9826
    5.940    6.7930
    5.955    6.6877
    5.970    6.5719
    5.985    6.2138
    6.000    6.2770
    6.015    5.7609
    6.030    6.4244
    6.045    6.1927
    6.060    5.8347
    6.075    5.9716
    6.090    6.1927
    6.105    6.0979
    6.120    6.0874
    6.135    5.9294
    6.150    5.8452
    6.165    6.1190
    6.180    5.7399
    6.195    5.7504
    6.210    5.7925
    6.225    5.8768
    6.240    5.6556
    6.255    5.5292
    6.270    5.8662
    6.285    6.0453
    6.300    5.7083
    6.315    5.6556
    6.330    5.6451
    6.345    5.4450
    6.360    5.4344
    6.375    5.6029
    6.390    5.8873
    6.405    5.7925
    6.420    5.4766
    6.435    5.3291
    6.450    5.5924
    6.465    5.6135
    6.480    5.3712
    6.495    5.3818
    6.510    5.5714
    6.525    5.1080
    6.540    5.3291
    6.555    5.7504
    6.570    5.2765
    6.585    5.1290
    6.600    5.2133
    6.615    5.5187
    6.630    5.3712
    6.645    5.4766
    6.660    5.3607
    6.675    4.9816
    6.690    5.1290
    6.705    5.4239
    6.720    5.2238
    6.735    5.0658
    6.750    4.9921
    6.765    5.4134
    6.780    5.0237
    6.795    5.2133
    6.810    5.0658
    6.825    5.2027
    6.840    5.3607
    6.855    5.0764
    6.870    5.2975
    6.885    5.5398
    6.900    5.7083
    6.915    5.3186
    6.930    5.1501
    6.945    5.3712
    6.960    4.9184
    6.975    5.3712
    6.990    5.1817
    7.005    5.4871
    7.020    5.4239
    7.035    4.8763
    7.050    4.7604
    7.065    5.0658
    7.080    4.9289
    7.095    4.6340
    7.110    4.7815
    7.125    4.8236
    7.140    5.3607
    7.155    4.9078
    7.170    4.8657
    7.185    4.6656
    7.200    5.0658
    7.215    4.9500
    7.230    4.6235
    7.245    4.5919
    7.260    4.6340
    7.275    4.6130
    7.290    4.4866
    7.305    4.6656
    7.320    4.3602
    7.335    4.2549
    7.350    4.3391
    7.365    4.2549
    7.380    4.2970
    7.395    4.2022
    7.410    4.2549
    7.425    4.4760
    7.440    4.2549
    7.455    4.2865
    7.470    4.0758
    7.485    4.3075
    7.500    4.4128
    7.515    4.1496
    7.530    3.9389
    7.545    4.4971
    7.560    4.2022
    7.575    4.2022
    7.590    4.3813
    7.605    4.2549
    7.620    4.1601
    7.635    3.9284
    7.650    4.2865
    7.665    4.2759
    7.680    4.3391
    7.695    3.8968
    7.710    3.9284
    7.725    4.1390
    7.740    3.8441
    7.755    3.9705
    7.770    4.3497
    7.785    4.3075
    7.800    4.2549
    7.815    4.1917
    7.830    4.0864
    7.845    4.1601
    7.860    4.2865
    7.875    4.4339
    7.890    4.2865
    7.905    4.0126
    7.920    4.1601
    7.935    4.0864
    7.950    4.0864
    7.965    4.2549
    7.980    4.0758
    7.995    4.2022
    8.010    4.2443
    8.025    4.2654
    8.040    4.1285
    8.055    3.9916
    8.070    4.1180
    8.085    4.0337
    8.100    4.0758
    8.115    4.2654
    8.130    3.8652
    8.145    3.5282
    8.160    3.6967
    8.175    3.7809
    8.190    4.0653
    8.205    3.7072
    8.220    4.0969
    8.235    4.0758
    8.250    4.0337
    8.265    4.0021
    8.280    3.5703
    8.295    3.7493
    8.310    3.4860
    8.325    3.6019
    8.340    3.6862
    8.355    3.9494
    8.370    3.7493
    8.385    3.7072
    8.400    3.9600
    8.415    3.6335
    8.430    3.5282
    8.445    3.6756
    8.460    3.7704
    8.475    3.5387
    8.490    3.5071
    8.505    3.8757
    8.520    3.8863
    8.535    3.5703
    8.550    3.5282
    8.565    3.7704
    8.580    3.4544
    8.595    3.6124
    8.610    3.7493
    8.625    3.6124
    8.640    3.2333
    8.655    3.4755
    8.670    3.3070
    8.685    3.5808
    8.700    3.5387
    8.715    3.6124
    8.730    3.8020
    8.745    3.9705
    8.760    3.5808
    8.775    3.4755
    8.790    3.2859
    8.805    3.4123
    8.820    3.2543
    8.835    3.3702
    8.850    3.6967
    8.865    3.3913
    8.880    3.5176
    8.895    3.4860
    8.910    3.3702
    8.925    3.4544
    8.940    3.5387
    8.955    3.3070
    8.970    3.6124
    8.985    3.2017
    9.000    3.4018
    9.015    3.3386
    9.030    3.4439
    9.045    3.4334
    9.060    3.5071
    9.075    3.5176
    9.090    3.2543
    9.105    3.2859
    9.120    3.5176
    9.135    3.4229
    9.150    3.2859
    9.165    3.3913
    9.180    3.4018
    9.195    3.2333
    9.210    3.1490
    9.225    3.1490
    9.240    3.2017
    9.255    3.4439
    9.270    3.7704
    9.285    3.3913
    9.300    3.5387
    9.315    3.2227
    9.330    3.2754
    9.345    3.5387
    9.360    3.3491
    9.375    3.0437
    9.390    3.2227
    9.405    3.2965
    9.420    3.5387
    9.435    3.3175
    9.450    3.2649
    9.465    3.5387
    9.480    3.2649
    9.495    3.4123
    9.510    3.4755
    9.525    3.2017
    9.540    3.1385
    9.555    2.9489
    9.570    3.0753
    9.585    3.3702
    9.600    3.1701
    9.615    3.1806
    9.630    3.0016
    9.645    3.1912
    9.660    3.3386
    9.675    3.3597
    9.690    3.3070
    9.705    3.4650
    9.720    3.3807
    9.735    3.4123
    9.750    3.4966
    9.765    3.3491
    9.780    3.0648
    9.795    3.2017
    9.810    3.4123
    9.825    3.0858
    9.840    3.0858
    9.855    3.2333
    9.870    3.5071
    9.885    3.2859
    9.900    3.3175
    9.915    3.2965
    9.930    3.0964
    9.945    3.4334
    9.960    3.4123
    9.975    3.4018
    9.990    3.3175
   10.005    3.4334
   10.020    3.2543
   10.035    3.1701
   10.050    3.4544
   10.065    3.3702
   10.080    3.3597
   10.095    3.4229
   10.110    3.6124
   10.125    3.4123
   10.140    3.4755
   10.155    3.2438
   10.170    3.2122
   10.185    3.5071
   10.200    3.1490
   10.215    3.5176
   10.230    3.1385
   10.245    3.2122
   10.260    3.3386
   10.275    3.4755
   10.290    3.3597
   10.305    3.3702
   10.320    3.3386
   10.335    3.4229
   10.350    3.4650
   10.365    3.5176
   10.380    3.5282
   10.395    3.6335
   10.410    3.4860
   10.425    3.5176
   10.440    3.6230
   10.455    3.7493
   10.470    3.2543
   10.485    3.5176
   10.500    3.5071
   10.515    3.5703
   10.530    3.2227
   10.545    3.2649
   10.560    3.4860
   10.575    3.8125
   10.590    3.9179
   10.605    3.6862
   10.620    3.5808
   10.635    3.8231
   10.650    3.7177
   10.665    3.6230
   10.680    3.6335
   10.695    3.4755
   10.710    3.6230
   10.725    3.8757
   10.740    3.7177
   10.755    3.5492
   10.770    3.5492
   10.785    3.4966
   10.800    3.7599
   10.815    3.6862
   10.830    3.7704
   10.845    3.5176
   10.860    3.5598
   10.875    3.5176
   10.890    3.6335
   10.905    3.3386
   10.920    3.4018
   10.935    3.8652
   10.950    3.6019
   10.965    3.7809
   10.980    3.5176
   10.995    3.6335
   11.010    3.7493
   11.025    4.0126
   11.040    3.7072
   11.055    3.3702
   11.070    3.7283
   11.085    3.6546
   11.100    3.3386
   11.115    3.7072
   11.130    3.7388
   11.145    3.5492
   11.160    3.2333
   11.175    3.6335
   11.190    4.0864
   11.205    3.8020
   11.220    3.5598
   11.235    3.9179
   11.250    3.8547
   11.265    3.6546
   11.280    3.5808
   11.295    3.5492
   11.310    3.5598
   11.325    3.8231
   11.340    3.6019
   11.355    3.2859
   11.370    3.6756
   11.385    3.6756
   11.400    3.8020
   11.415    3.6019
   11.430    3.5808
   11.445    3.7599
   11.460    3.8231
   11.475    3.4755
   11.490    3.7072
   11.505    3.5703
   11.520    3.4650
   11.535    3.5703
   11.550    3.6230
   11.565    3.7493
   11.580    3.7915
   11.595    3.8441
   11.610    3.6967
   11.625    3.4123
   11.640    3.6335
   11.655    3.5914
   11.670    3.6862
   11.685    3.9284
   11.700    3.7072
   11.715    3.4123
   11.730    3.4123
   11.745    3.3491
   11.760    3.5282
   11.775    3.4755
   11.790    3.3807
   11.805    3.5282
   11.820    3.6440
   11.835    3.2543
   11.850    3.3070
   11.865    3.3913
   11.880    3.5071
   11.895    3.6019
   11.910    3.8652
   11.925    3.6335
   11.940    3.3175
   11.955    3.2227
   11.970    3.6019
   11.985    3.6862
   12.000    3.5387
   12.015    3.4334
   12.030    3.6019
   12.045    3.2649
   12.060    3.2438
   12.075    3.2438
   12.090    3.6230
   12.105    3.5176
   12.120    3.2543
   12.135    3.4439
   12.150    3.6019
   12.165    3.2965
   12.180    3.4123
   12.195    3.3807
   12.210    3.4755
   12.225    3.4966
   12.240    3.6335
   12.255    3.6124
   12.270    3.3702
   12.285    3.7072
   12.300    3.5914
   12.315    3.2543
   12.330    3.4018
   12.345    3.2122
   12.360    3.1490
   12.375    3.4334
   12.390    3.3913
   12.405    3.1806
   12.420    3.4439
   12.435    3.3175
   12.450    3.6124
   12.465    3.5914
   12.480    3.3913
   12.495    3.4439
   12.510    3.2543
   12.525    3.2965
   12.540    3.1701
   12.555    3.5703
   12.570    3.5598
   12.585    3.2122
   12.600    3.4229
   12.615    3.5703
   12.630    3.3597
   12.645    3.5282
   12.660    3.5071
   12.675    3.4439
   12.690    3.3597
   12.705    3.4123
   12.720    3.4334
   12.735    3.5492
   12.750    3.5914
   12.765    3.3597
   12.780    3.3702
   12.795    3.1596
   12.810    3.3491
   12.825    3.4650
   12.840    3.3070
   12.855    3.4123
   12.870    3.1490
   12.885    3.0858
   12.900    3.5703
   12.915    3.5282
   12.930    3.0858
   12.945    3.1912
   12.960    3.2965
   12.975    3.0437
   12.990    3.0332
   13.005    3.4334
   13.020    3.2333
   13.035    3.1174
   13.050    3.2017
   13.065    3.2859
   13.080    3.3702
   13.095    3.4860
   13.110    3.4544
   13.125    3.3597
   13.140    3.2543
   13.155    3.2965
   13.170    3.3070
   13.185    3.3070
   13.200    3.3386
   13.215    3.1069
   13.230    3.3913
   13.245    3.4544
   13.260    3.2438
   13.275    3.3913
   13.290    3.6862
   13.305    3.4334
   13.320    3.3386
   13.335    3.2122
   13.350    3.1069
   13.365    3.2649
   13.380    3.2859
   13.395    3.2859
   13.410    3.3386
   13.425    3.3386
   13.440    3.0858
   13.455    3.4334
   13.470    3.5492
   13.485    3.4860
   13.500    3.4229
   13.515    3.4439
   13.530    3.5914
   13.545    3.0964
   13.560    3.1701
   13.575    3.1174
   13.590    3.3491
   13.605    3.0121
   13.620    2.9910
   13.635    3.5492
   13.650    3.7177
   13.665    3.2965
   13.680    3.2965
   13.695    3.2543
   13.710    3.2227
   13.725    3.4650
   13.740    3.2754
   13.755    3.3702
   13.770    3.1701
   13.785    3.0332
   13.800    3.4650
   13.815    3.1912
   13.830    3.0437
   13.845    3.4439
   13.860    3.1701
   13.875    3.3702
   13.890    3.1596
   13.905    3.2649
   13.920    3.3597
   13.935    3.3913
   13.950    3.2543
   13.965    3.3597
   13.980    3.3913
   13.995    3.5598
   14.010    3.4860
   14.025    3.8547
   14.040    3.4123
   14.055    3.5492
   14.070    3.6651
   14.085    3.6862
   14.100    3.6967
   14.115    3.5808
   14.130    3.4439
   14.145    3.5071
   14.160    3.7072
   14.175    3.4229
   14.190    3.5914
   14.205    3.4650
   14.220    3.4123
   14.235    3.5598
   14.250    3.4334
   14.265    3.5387
   14.280    3.4755
   14.295    3.5808
   14.310    3.5598
   14.325    3.6862
   14.340    3.8125
   14.355    3.9389
   14.370    3.8968
   14.385    3.5492
   14.400    3.5914
   14.415    3.6967
   14.430    3.7177
   14.445    3.8231
   14.460    3.7704
   14.475    3.6651
   14.490    3.7388
   14.505    3.6756
   14.520    3.6862
   14.535    3.7388
   14.550    3.4966
   14.565    3.5176
   14.580    3.5703
   14.595    3.8020
   14.610    3.8968
   14.625    3.8652
   14.640    3.7177
   14.655    3.6124
   14.670    3.8547
   14.685    3.5492
   14.700    3.4966
   14.715    3.6756
   14.730    3.8441
   14.745    3.6440
   14.760    3.6546
   14.775    3.5492
   14.790    3.5071
   14.805    3.3913
   14.820    3.2859
   14.835    3.3807
   14.850    3.4123
   14.865    3.3281
   14.880    3.5387
   14.895    3.5598
   14.910    3.2122
   14.925    3.2122
   14.940    3.4334
   14.955    3.3070
   14.970    3.4650
   14.985    3.6019
   15.000    3.5808
   15.015    3.4334
   15.030    3.3386
   15.045    3.3281
   15.060    3.4229
   15.075    3.5176
   15.090    3.4439
   15.105    3.4650
   15.120    3.3597
   15.135    3.4018
   15.150    3.3702
   15.165    3.3913
   15.180    3.4650
   15.195    3.1490
   15.210    3.2017
   15.225    3.0016
   15.240    3.0648
   15.255    3.2965
   15.270    3.2965
   15.285    3.3807
   15.300    3.2859
   15.315    3.1596
   15.330    3.3702
   15.345    3.3281
   15.360    3.4860
   15.375    3.3491
   15.390    3.2754
   15.405    3.3070
   15.420    3.5703
   15.435    3.5387
   15.450    3.1912
   15.465    3.2649
   15.480    3.1596
   15.495    3.1069
   15.510    3.2859
   15.525    3.0964
   15.540    3.4123
   15.555    3.2122
   15.570    2.9595
   15.585    3.0437
   15.600    3.0016
   15.615    3.2122
   15.630    3.4229
   15.645    3.5176
   15.660    3.1280
   15.675    2.9595
   15.690    3.3175
   15.705    3.2754
   15.720    3.1174
   15.735    3.2122
   15.750    3.3597
   15.765    3.2754
   15.780    3.1806
   15.795    3.4018
   15.810    3.1806
   15.825    3.3281
   15.840    3.4544
   15.855    3.1280
   15.870    3.3070
   15.885    3.1701
   15.900    3.3702
   15.915    3.7283
   15.930    3.3070
   15.945    3.1174
   15.960    3.2227
   15.975    3.3175
   15.990    3.2543
   16.005    3.2649
   16.020    3.0753
   16.035    3.1280
   16.050    3.4018
   16.065    3.2649
   16.080    3.2438
   16.095    3.4966
   16.110    3.5703
   16.125    3.6124
   16.140    3.1596
   16.155    3.2333
   16.170    3.3175
   16.185    3.3386
   16.200    3.3913
   16.215    3.1069
   16.230    3.4123
   16.245    3.2438
   16.260    3.2754
   16.275    3.1912
   16.290    3.2333
   16.305    3.0964
   16.320    3.3281
   16.335    3.4334
   16.350    3.4860
   16.365    3.3491
   16.380    3.1069
   16.395    3.2438
   16.410    3.0648
   16.425    3.2965
   16.440    3.2227
   16.455    3.2438
   16.470    3.3281
   16.485    3.0753
   16.500    3.6019
   16.515    3.3491
   16.530    3.5176
   16.545    3.3175
   16.560    3.2543
   16.575    3.3913
   16.590    3.1701
   16.605    3.0753
   16.620    3.3491
   16.635    3.1912
   16.650    3.0964
   16.665    2.8963
   16.680    3.1596
   16.695    3.1596
   16.710    3.2859
   16.725    3.1701
   16.740    3.2965
   16.755    3.2649
   16.770    3.0858
   16.785    3.0648
   16.800    3.0858
   16.815    3.3597
   16.830    3.4650
   16.845    3.2754
   16.860    3.3913
   16.875    3.0964
   16.890    3.1385
   16.905    2.9384
   16.920    3.0542
   16.935    2.9489
   16.950    3.2333
   16.965    3.4334
   16.980    3.3597
   16.995    3.4123
   17.010    3.0964
   17.025    3.1069
   17.040    3.1385
   17.055    3.1280
   17.070    3.1701
   17.085    3.1385
   17.100    3.3491
   17.115    3.3070
   17.130    3.4334
   17.145    3.3597
   17.160    3.1174
   17.175    3.1701
   17.190    3.2438
   17.205    3.2754
   17.220    3.0858
   17.235    3.3913
   17.250    3.1385
   17.265    3.1280
   17.280    3.1701
   17.295    3.0226
   17.310    3.2017
   17.325    3.0332
   17.340    3.2649
   17.355    3.3281
   17.370    3.2438
   17.385    3.2122
   17.400    3.3702
   17.415    3.2333
   17.430    3.2543
   17.445    3.2333
   17.460    3.1174
   17.475    3.4334
   17.490    3.2859
   17.505    3.3386
   17.520    3.1806
   17.535    3.2227
   17.550    3.0121
   17.565    3.2859
   17.580    3.2859
   17.595    3.5071
   17.610    3.3281
   17.625    3.1806
   17.640    3.1280
   17.655    3.3070
   17.670    3.4544
   17.685    3.3386
   17.700    3.0121
   17.715    3.0648
   17.730    2.8857
   17.745    3.1806
   17.760    3.5914
   17.775    3.3281
   17.790    3.2543
   17.805    3.0016
   17.820    3.0542
   17.835    3.1490
   17.850    3.0858
   17.865    3.3175
   17.880    3.0964
   17.895    3.1385
   17.910    2.9910
   17.925    3.2017
   17.940    3.1701
   17.955    3.0858
   17.970    3.0437
   17.985    3.4439
   18.000    3.2227
   18.015    3.1280
   18.030    2.9173
   18.045    3.1280
   18.060    2.9805
   18.075    3.1490
   18.090    3.1806
   18.105    3.1596
   18.120    3.0753
   18.135    2.8857
   18.150    2.9595
   18.165    3.3386
   18.180    3.2333
   18.195    3.1174
   18.210    3.2017
   18.225    3.2017
   18.240    3.0964
   18.255    3.1596
   18.270    2.9489
   18.285    3.2438
   18.300    3.2438
   18.315    2.8857
   18.330    3.1806
   18.345    3.3281
   18.360    3.0648
   18.375    3.0542
   18.390    3.3597
   18.405    3.2543
   18.420    3.1490
   18.435    3.3070
   18.450    3.2754
   18.465    2.7699
   18.480    2.9805
   18.495    3.1280
   18.510    3.3175
   18.525    2.8963
   18.540    3.1596
   18.555    3.2859
   18.570    3.0542
   18.585    3.0648
   18.600    3.2754
   18.615    3.2543
   18.630    2.9173
   18.645    3.1069
   18.660    3.0858
   18.675    2.9700
   18.690    2.9279
   18.705    3.4123
   18.720    2.9700
   18.735    3.0437
   18.750    3.0437
   18.765    3.2333
   18.780    3.2122
   18.795    3.1069
   18.810    3.2965
   18.825    2.9805
   18.840    3.0016
   18.855    2.9910
   18.870    3.1490
   18.885    3.1596
   18.900    2.7804
   18.915    2.9595
   18.930    2.9279
   18.945    3.1385
   18.960    3.1701
   18.975    3.0437
   18.990    3.3913
   19.005    3.3913
   19.020    3.2859
   19.035    3.3702
   19.050    3.0648
   19.065    3.1806
   19.080    3.1069
   19.095    3.0121
   19.110    3.2227
   19.125    2.7699
   19.140    2.8015
   19.155    2.9910
   19.170    3.1912
   19.185    3.1280
   19.200    3.2017
   19.215    3.0226
   19.230    3.2333
   19.245    3.2227
   19.260    3.0437
   19.275    3.0121
   19.290    2.8225
   19.305    2.8963
   19.320    2.9068
   19.335    2.9700
   19.350    3.1174
   19.365    2.8857
   19.380    2.9805
   19.395    2.9489
   19.410    3.0858
   19.425    2.9910
   19.440    2.9595
   19.455    3.0542
   19.470    2.9805
   19.485    2.8963
   19.500    3.1069
   19.515    3.1385
   19.530    3.0964
   19.545    2.9068
   19.560    3.0016
   19.575    3.1069
   19.590    3.1701
   19.605    3.1701
   19.620    3.0226
   19.635    2.9910
   19.650    3.1280
   19.665    3.1490
   19.680    2.8963
   19.695    2.9279
   19.710    2.9805
   19.725    2.7488
   19.740    2.7067
   19.755    3.1174
   19.770    3.0648
   19.785    2.8647
   19.800    2.8857
   19.815    3.1701
   19.830    2.9595
   19.845    3.1174
   19.860    3.1174
   19.875    2.7804
   19.890    2.7804
   19.905    2.7383
   19.920    2.9805
   19.935    2.8225
   19.950    2.7699
   19.965    2.9489
   19.980    3.0332
   19.995    2.9384
   20.010    2.8857
   20.025    2.9068
   20.040    3.0121
   20.055    2.8541
   20.070    3.0332
   20.085    2.6014
   20.100    2.6435
   20.115    2.7593
   20.130    2.9279
   20.145    2.8120
   20.160    2.8963
   20.175    3.0648
   20.190    2.9173
   20.205    2.8647
   20.220    3.0121
   20.235    2.8752
   20.250    2.7804
   20.265    2.8857
   20.280    3.0858
   20.295    3.3070
   20.310    3.1912
   20.325    2.9700
   20.340    2.8436
   20.355    2.8120
   20.370    2.9384
   20.385    2.7593
   20.400    2.6435
   20.415    2.6962
   20.430    2.4855
   20.445    2.7593
   20.460    3.1490
   20.475    2.9384
   20.490    2.8647
   20.505    2.9489
   20.520    2.6540
   20.535    2.9068
   20.550    2.8647
   20.565    2.8857
   20.580    2.9068
   20.595    2.7488
   20.610    2.7067
   20.625    2.8752
   20.640    2.6330
   20.655    2.7488
   20.670    2.6962
   20.685    2.8541
   20.700    2.6330
   20.715    2.5592
   20.730    2.7804
   20.745    2.9279
   20.760    2.7172
   20.775    2.7067
   20.790    2.8331
   20.805    2.6014
   20.820    2.7804
   20.835    2.7067
   20.850    2.6540
   20.865    2.6435
   20.880    2.7383
   20.895    2.6330
   20.910    2.7067
   20.925    2.7593
   20.940    2.8120
   20.955    2.7804
   20.970    2.8647
   20.985    2.6751
   21.000    2.7278
   21.015    2.6330
   21.030    2.7383
   21.045    2.6962
   21.060    2.8857
   21.075    2.8647
   21.090    2.7488
   21.105    2.7909
   21.120    2.7383
   21.135    2.6962
   21.150    3.1280
   21.165    2.8963
   21.180    2.7278
   21.195    2.7699
   21.210    2.8436
   21.225    2.8225
   21.240    2.6224
   21.255    2.8225
   21.270    2.8120
   21.285    2.9279
   21.300    2.8225
   21.315    2.8225
   21.330    2.6751
   21.345    3.1280
   21.360    2.8436
   21.375    2.5276
   21.390    2.9805
   21.405    2.9910
   21.420    2.6540
   21.435    2.7699
   21.450    2.8436
   21.465    2.7593
   21.480    2.7699
   21.495    2.8120
   21.510    2.6856
   21.525    2.6751
   21.540    2.7909
   21.555    2.9595
   21.570    2.8225
   21.585    2.7067
   21.600    2.7488
   21.615    2.6330
   21.630    2.7909
   21.645    2.8120
   21.660    2.7699
   21.675    2.8541
   21.690    2.7488
   21.705    2.6330
   21.720    2.7067
   21.735    2.8120
   21.750    2.6014
   21.765    2.7909
   21.780    2.9173
   21.795    2.9489
   21.810    2.8015
   21.825    2.5803
   21.840    2.4750
   21.855    2.6751
   21.870    2.6330
   21.885    2.5382
   21.900    2.6014
   21.915    2.7699
   21.930    2.5487
   21.945    2.6856
   21.960    2.9279
   21.975    2.7909
   21.990    2.6224
   22.005    2.6646
   22.020    2.6751
   22.035    2.6962
   22.050    2.8436
   22.065    2.7383
   22.080    2.6119
   22.095    2.6540
   22.110    2.9384
   22.125    2.8120
   22.140    2.7909
   22.155    2.6224
   22.170    2.6751
   22.185    2.4961
   22.200    2.4118
   22.215    2.7278
   22.230    2.8225
   22.245    2.5276
   22.260    2.4013
   22.275    2.6646
   22.290    2.6119
   22.305    2.4855
   22.320    2.6856
   22.335    2.5171
   22.350    2.4013
   22.365    2.6962
   22.380    2.4855
   22.395    2.5487
   22.410    2.5487
   22.425    2.6224
   22.440    2.8225
   22.455    2.5908
   22.470    2.4118
   22.485    2.4013
   22.500    2.6540
   22.515    2.5908
   22.530    2.5803
   22.545    2.3170
   22.560    2.6330
   22.575    2.7172
   22.590    2.5171
   22.605    2.6856
   22.620    2.6540
   22.635    2.5171
   22.650    2.3591
   22.665    2.6330
   22.680    2.5487
   22.695    2.6119
   22.710    2.5066
   22.725    2.3697
   22.740    2.4645
   22.755    2.5592
   22.770    2.5382
   22.785    2.6856
   22.800    2.7488
   22.815    2.7488
   22.830    2.6856
   22.845    2.3697
   22.860    2.5171
   22.875    2.6119
   22.890    2.9068
   22.905    2.6435
   22.920    2.4223
   22.935    2.6224
   22.950    2.4750
   22.965    2.4539
   22.980    2.4961
   22.995    2.6119
   23.010    2.5276
   23.025    2.5276
   23.040    2.5803
   23.055    2.5803
   23.070    2.7699
   23.085    2.5276
   23.100    2.4645
   23.115    2.5803
   23.130    2.7699
   23.145    2.4750
   23.160    2.2433
   23.175    2.4645
   23.190    2.5276
   23.205    2.6856
   23.220    2.6330
   23.235    2.6224
   23.250    2.4855
   23.265    2.5066
   23.280    2.4013
   23.295    2.6014
   23.310    2.3591
   23.325    2.6330
   23.340    2.5382
   23.355    2.4750
   23.370    2.4645
   23.385    2.6224
   23.400    2.2538
   23.415    2.1169
   23.430    2.2854
   23.445    2.3591
   23.460    2.4855
   23.475    2.3802
   23.490    2.6014
   23.505    2.3486
   23.520    2.4329
   23.535    2.4013
   23.550    2.3802
   23.565    2.4118
   23.580    2.4434
   23.595    2.3591
   23.610    2.6119
   23.625    2.7278
   23.640    2.3907
   23.655    2.4118
   23.670    2.2854
   23.685    2.5171
   23.700    2.4645
   23.715    2.4855
   23.730    2.3486
   23.745    2.2117
   23.760    2.4961
   23.775    2.3065
   23.790    2.3381
   23.805    2.2854
   23.820    2.1590
   23.835    2.3486
   23.850    2.1590
   23.865    2.3275
   23.880    2.4539
   23.895    2.2328
   23.910    2.4855
   23.925    2.5908
   23.940    2.4961
   23.955    2.3802
   23.970    2.4539
   23.985    2.3381
   24.000    2.1906
   24.015    2.4961
   24.030    2.5276
   24.045    2.0537
   24.060    2.2012
   24.075    2.4223
   24.090    2.3065
   24.105    2.2749
   24.120    2.2222
   24.135    2.3486
   24.150    2.3065
   24.165    2.2117
   24.180    2.2538
   24.195    2.3381
   24.210    2.1801
   24.225    2.1485
   24.240    2.2012
   24.255    2.4329
   24.270    2.3170
   24.285    2.4645
   24.300    2.3802
   24.315    2.2538
   24.330    2.1485
   24.345    2.2643
   24.360    2.6224
   24.375    2.3275
   24.390    2.2012
   24.405    2.1274
   24.420    2.3170
   24.435    2.2222
   24.450    2.2538
   24.465    2.4961
   24.480    2.4223
   24.495    2.1906
   24.510    2.2643
   24.525    2.1696
   24.540    2.4118
   24.555    2.3802
   24.570    2.4645
   24.585    2.2433
   24.600    2.2328
   24.615    2.3275
   24.630    2.1801
   24.645    2.1169
   24.660    2.3170
   24.675    2.6330
   24.690    2.1696
   24.705    2.3486
   24.720    2.0432
   24.735    2.1485
   24.750    2.3381
   24.765    2.3381
   24.780    2.2643
   24.795    2.3381
   24.810    2.4434
   24.825    2.2328
   24.840    2.3802
   24.855    2.3486
   24.870    2.2538
   24.885    2.3065
   24.900    2.2854
   24.915    1.9379
   24.930    2.0432
   24.945    2.2433
   24.960    2.3802
   24.975    2.1064
   24.990    2.3591
   25.005    2.3381
   25.020    2.1590
   25.035    2.3170
   25.050    2.2854
   25.065    2.2117
   25.080    2.2643
   25.095    2.4013
   25.110    2.2433
   25.125    2.3486
   25.140    2.1801
   25.155    2.0642
   25.170    1.9800
   25.185    2.1696
   25.200    2.3065
   25.215    2.0642
   25.230    2.0116
   25.245    2.3486
   25.260    2.2959
   25.275    2.4223
   25.290    2.2959
   25.305    2.0748
   25.320    1.9379
   25.335    2.1906
   25.350    2.1696
   25.365    2.3275
   25.380    2.4750
   25.395    2.3486
   25.410    2.0537
   25.425    2.1801
   25.440    1.9800
   25.455    2.0326
   25.470    2.1485
   25.485    2.2854
   25.500    2.1696
   25.515    2.0642
   25.530    1.9905
   25.545    2.1906
   25.560    2.2117
   25.575    2.0537
   25.590    2.2012
   25.605    2.2433
   25.620    2.4961
   25.635    2.3486
   25.650    2.0537
   25.665    2.0748
   25.680    2.4118
   25.695    2.2959
   25.710    2.2959
   25.725    2.4013
   25.740    2.0642
   25.755    2.1696
   25.770    1.9379
   25.785    2.0853
   25.800    2.2117
   25.815    2.1801
   25.830    2.1696
   25.845    2.3275
   25.860    2.2854
   25.875    2.1274
   25.890    2.1274
   25.905    1.9379
   25.920    2.1906
   25.935    2.3275
   25.950    2.0748
   25.965    2.0958
   25.980    2.0958
   25.995    2.2959
   26.010    2.2433
   26.025    2.2012
   26.040    2.3065
   26.055    2.0221
   26.070    2.0642
   26.085    2.2643
   26.100    2.0748
   26.115    2.0221
   26.130    1.9273
   26.145    2.0537
   26.160    2.2222
   26.175    2.1696
   26.190    1.9273
   26.205    2.2538
   26.220    1.9800
   26.235    2.1380
   26.250    2.0432
   26.265    2.1380
   26.280    2.0537
   26.295    2.1590
   26.310    2.0958
   26.325    1.9695
   26.340    2.0221
   26.355    2.2117
   26.370    2.1274
   26.385    2.0116
   26.400    1.8957
   26.415    2.0326
   26.430    2.0642
   26.445    2.1801
   26.460    2.0958
   26.475    2.1485
   26.490    2.0537
   26.505    2.0432
   26.520    2.0011
   26.535    2.0116
   26.550    2.0958
   26.565    2.0853
   26.580    1.9800
   26.595    2.1590
   26.610    2.1274
   26.625    2.1169
   26.640    2.1380
   26.655    2.1274
   26.670    2.0748
   26.685    2.1485
   26.700    2.0642
   26.715    2.4118
   26.730    2.2117
   26.745    1.9695
   26.760    2.0011
   26.775    2.3381
   26.790    2.0537
   26.805    2.0221
   26.820    2.0116
   26.835    1.8115
   26.850    2.0116
   26.865    2.1485
   26.880    1.9379
   26.895    1.8747
   26.910    1.8641
   26.925    1.8747
   26.940    1.9484
   26.955    1.9168
   26.970    2.1380
   26.985    2.0748
   27.000    2.2538
   27.015    2.0326
   27.030    2.0432
   27.045    2.1274
   27.060    2.0432
   27.075    1.9379
   27.090    1.9063
   27.105    1.7904
   27.120    1.9063
   27.135    2.1274
   27.150    1.8852
   27.165    1.8325
   27.180    1.9063
   27.195    2.0326
   27.210    1.9063
   27.225    1.9484
   27.240    1.9273
   27.255    1.7272
   27.270    1.8747
   27.285    1.7694
   27.300    1.8220
   27.315    1.8220
   27.330    2.0011
   27.345    2.0432
   27.360    1.7799
   27.375    1.9273
   27.390    1.9379
   27.405    2.1274
   27.420    1.9168
   27.435    1.8641
   27.450    1.9695
   27.465    2.0748
   27.480    1.8957
   27.495    1.9063
   27.510    2.2012
   27.525    1.8957
   27.540    1.7062
   27.555    1.8431
   27.570    1.6640
   27.585    1.9484
   27.600    1.7904
   27.615    1.6535
   27.630    1.9800
   27.645    2.0537
   27.660    1.9800
   27.675    1.7904
   27.690    1.8852
   27.705    1.7694
   27.720    1.7904
   27.735    1.9379
   27.750    1.8536
   27.765    1.9695
   27.780    1.9484
   27.795    1.9484
   27.810    1.7272
   27.825    1.8852
   27.840    1.9589
   27.855    1.8220
   27.870    1.7378
   27.885    1.9063
   27.900    1.8325
   27.915    1.8325
   27.930    1.9800
   27.945    2.1380
   27.960    1.9589
   27.975    1.8431
   27.990    1.8325
   28.005    1.7904
   28.020    1.6956
   28.035    1.7167
   28.050    1.8747
   28.065    1.6640
   28.080    1.5587
   28.095    1.6956
   28.110    1.7588
   28.125    1.7272
   28.140    1.9273
   28.155    1.7483
   28.170    1.8431
   28.185    1.7904
   28.200    1.6219
   28.215    1.7799
   28.230    1.8325
   28.245    1.8536
   28.260    1.8115
   28.275    1.8325
   28.290    1.7062
   28.305    1.4745
   28.320    1.6324
   28.335    1.8536
   28.350    1.9063
   28.365    1.7378
   28.380    1.6640
   28.395    1.8325
   28.410    1.8431
   28.425    1.7904
   28.440    1.6640
   28.455    1.6851
   28.470    1.7694
   28.485    1.8220
   28.500    1.7272
   28.515    1.8325
   28.530    2.0642
   28.545    1.8115
   28.560    1.7378
   28.575    1.8325
   28.590    1.7483
   28.605    1.7062
   28.620    1.9063
   28.635    1.9695
   28.650    2.0642
   28.665    2.0221
   28.680    1.9589
   28.695    1.8115
   28.710    1.7799
   28.725    1.8009
   28.740    1.7378
   28.755    1.9379
   28.770    1.8009
   28.785    1.8115
   28.800    1.8957
   28.815    1.8220
   28.830    1.7062
   28.845    1.6640
   28.860    1.6008
   28.875    1.7694
   28.890    1.9273
   28.905    1.7799
   28.920    1.8431
   28.935    1.8431
   28.950    1.7062
   28.965    1.7483
   28.980    1.7272
   28.995    1.8536
   29.010    1.9800
   29.025    2.0537
   29.040    1.9273
   29.055    1.9063
   29.070    1.8536
   29.085    1.7588
   29.100    1.7483
   29.115    1.7167
   29.130    1.8431
   29.145    1.7588
   29.160    1.7588
   29.175    1.8957
   29.190    1.9273
   29.205    1.7483
   29.220    1.7483
   29.235    1.7272
   29.250    1.6851
   29.265    1.8325
   29.280    1.8747
   29.295    1.8115
   29.310    1.8220
   29.325    2.0221
   29.340    1.6851
   29.355    1.6114
   29.370    1.6746
   29.385    1.7378
   29.400    1.8641
   29.415    1.8325
   29.430    1.6746
   29.445    1.5903
   29.460    1.8009
   29.475    1.8220
   29.490    1.8431
   29.505    1.7904
   29.520    1.6851
   29.535    1.5271
   29.550    1.6430
   29.565    1.6640
   29.580    1.7378
   29.595    1.7799
   29.610    1.8009
   29.625    1.7062
   29.640    1.6219
   29.655    1.6430
   29.670    1.7272
   29.685    1.5482
   29.700    1.4850
   29.715    1.4218
   29.730    1.6114
   29.745    1.6324
   29.760    1.6008
   29.775    1.6008
   29.790    1.5587
   29.805    1.4007
   29.820    1.6008
   29.835    1.6956
   29.850    1.4850
   29.865    1.3481
   29.880    1.5587
   29.895    1.7272
   29.910    1.4850
   29.925    1.4745
   29.940    1.6535
   29.955    1.7378
   29.970    1.5377
   29.985    1.4323
   30.000    1.5166
   30.015    1.5061
   30.030    1.5587
   30.045    1.6219
   30.060    1.5482
   30.075    1.4639
   30.090    1.5166
   30.105    1.5166
   30.120    1.5482
   30.135    1.5903
   30.150    1.4850
   30.165    1.6008
   30.180    1.4955
   30.195    1.4534
   30.210    1.5166
   30.225    1.5271
   30.240    1.4007
   30.255    1.4534
   30.270    1.5482
   30.285    1.4850
   30.300    1.7694
   30.315    1.4323
   30.330    1.4745
   30.345    1.4534
   30.360    1.2849
   30.375    1.5587
   30.390    1.5061
   30.405    1.5166
   30.420    1.6219
   30.435    1.7062
   30.450    1.4639
   30.465    1.3691
   30.480    1.5482
   30.495    1.6008
   30.510    1.4429
   30.525    1.3270
   30.540    1.5166
   30.555    1.5903
   30.570    1.5798
   30.585    1.5798
   30.600    1.4429
   30.615    1.6008
   30.630    1.4534
   30.645    1.4850
   30.660    1.6324
   30.675    1.3586
   30.690    1.3902
   30.705    1.5587
   30.720    1.5482
   30.735    1.5166
   30.750    1.5061
   30.765    1.4955
   30.780    1.4323
   30.795    1.4007
   30.810    1.5061
   30.825    1.4429
   30.840    1.3060
   30.855    1.4850
   30.870    1.4534
   30.885    1.4850
   30.900    1.5798
   30.915    1.5482
   30.930    1.7062
   30.945    1.5587
   30.960    1.4745
   30.975    1.4639
   30.990    1.5061
   31.005    1.2006
   31.020    1.4113
   31.035    1.3902
   31.050    1.3797
   31.065    1.4534
   31.080    1.4639
   31.095    1.4218
   31.110    1.5061
   31.125    1.4113
   31.140    1.2533
   31.155    1.5061
   31.170    1.4850
   31.185    1.5482
   31.200    1.5271
   31.215    1.5587
   31.230    1.3586
   31.245    1.4639
   31.260    1.2112
   31.275    1.3270
   31.290    1.3060
   31.305    1.3270
   31.320    1.3270
   31.335    1.1901
   31.350    1.1796
   31.365    1.4218
   31.380    1.4007
   31.395    1.2638
   31.410    1.3902
   31.425    1.4850
   31.440    1.3586
   31.455    1.4218
   31.470    1.4534
   31.485    1.4323
   31.500    1.2744
   31.515    1.1374
   31.530    1.3165
   31.545    1.2533
   31.560    1.3165
   31.575    1.3586
   31.590    1.2849
   31.605    1.3481
   31.620    1.4534
   31.635    1.2533
   31.650    1.2322
   31.665    1.3797
   31.680    1.2006
   31.695    1.3481
   31.710    1.5271
   31.725    1.3481
   31.740    1.3375
   31.755    1.2849
   31.770    1.3586
   31.785    1.2533
   31.800    1.3060
   31.815    1.3481
   31.830    1.2954
   31.845    1.3375
   31.860    1.3060
   31.875    1.3902
   31.890    1.3902
   31.905    1.4745
   31.920    1.1164
   31.935    1.2954
   31.950    1.3060
   31.965    1.4113
   31.980    1.2428
   31.995    1.2744
   32.010    1.1690
   32.025    1.2428
   32.040    1.2849
   32.055    1.1480
   32.070    1.2849
   32.085    1.1796
   32.100    1.1269
   32.115    1.0848
   32.130    1.2006
   32.145    1.1480
   32.160    1.3165
   32.175    1.2112
   32.190    1.1901
   32.205    1.2006
   32.220    1.2533
   32.235    1.1269
   32.250    1.2849
   32.265    1.4850
   32.280    1.3902
   32.295    1.3691
   32.310    1.1164
   32.325    1.3060
   32.340    1.2954
   32.355    1.2217
   32.370    1.2322
   32.385    1.3797
   32.400    1.3270
   32.415    1.3375
   32.430    1.2849
   32.445    1.1269
   32.460    1.1374
   32.475    1.2638
   32.490    1.2217
   32.505    1.3691
   32.520    1.3270
   32.535    1.2217
   32.550    1.2322
   32.565    1.1585
   32.580    1.2849
   32.595    1.2006
   32.610    1.2849
   32.625    1.2428
   32.640    1.2744
   32.655    1.2954
   32.670    1.2744
   32.685    1.3165
   32.700    0.9900
   32.715    1.2849
   32.730    1.2428
   32.745    1.2744
   32.760    1.3060
   32.775    1.3165
   32.790    1.3902
   32.805    1.3481
   32.820    1.3375
   32.835    1.2638
   32.850    1.3586
   32.865    1.3375
   32.880    1.1374
   32.895    1.0742
   32.910    1.1901
   32.925    1.1690
   32.940    1.0953
   32.955    1.1058
   32.970    1.1585
   32.985    1.2322
   33.000    1.4534
   33.015    1.1901
   33.030    1.1796
   33.045    1.3586
   33.060    1.3481
   33.075    1.4218
   33.090    1.2744
   33.105    1.2006
   33.120    1.2849
   33.135    1.2744
   33.150    1.2638
   33.165    1.1901
   33.180    1.2638
   33.195    1.2638
   33.210    1.1480
   33.225    1.1480
   33.240    1.1796
   33.255    1.2744
   33.270    1.1585
   33.285    1.2112
   33.300    1.2849
   33.315    1.2638
   33.330    1.2428
   33.345    1.4113
   33.360    1.3586
   33.375    1.4007
   33.390    1.2638
   33.405    1.3165
   33.420    1.4639
   33.435    1.2744
   33.450    1.1901
   33.465    1.1901
   33.480    1.2533
   33.495    1.2217
   33.510    1.1164
   33.525    1.1690
   33.540    1.2954
   33.555    1.5482
   33.570    1.4429
   33.585    1.3270
   33.600    1.1901
   33.615    1.1796
   33.630    1.3165
   33.645    1.1480
   33.660    1.1164
   33.675    1.0111
   33.690    1.1164
   33.705    1.1690
   33.720    1.2638
   33.735    1.1690
   33.750    1.3270
   33.765    1.1269
   33.780    1.2849
   33.795    1.3375
   33.810    1.4218
   33.825    1.0953
   33.840    1.0953
   33.855    1.2322
   33.870    1.1901
   33.885    1.1269
   33.900    1.1058
   33.915    0.9900
   33.930    1.2849
   33.945    1.0321
   33.960    1.1585
   33.975    1.0111
   33.990    1.1690
   34.005    1.1796
   34.020    1.2954
   34.035    1.2217
   34.050    1.1585
   34.065    1.1374
   34.080    1.1585
   34.095    1.2112
   34.110    1.3165
   34.125    1.3375
   34.140    1.0321
   34.155    1.2849
   34.170    1.1374
   34.185    1.2112
   34.200    1.2533
   34.215    1.1480
   34.230    1.1269
   34.245    1.1901
   34.260    1.1374
   34.275    1.0742
   34.290    1.2638
   34.305    1.2112
   34.320    1.2533
   34.335    1.2322
   34.350    1.0427
   34.365    1.1269
   34.380    1.1480
   34.395    1.1585
   34.410    1.0321
   34.425    1.0953
   34.440    1.2006
   34.455    1.1058
   34.470    1.1058
   34.485    1.0216
   34.500    1.0848
   34.515    1.1480
   34.530    1.1164
   34.545    1.0848
   34.560    1.1901
   34.575    1.1164
   34.590    1.1901
   34.605    1.2849
   34.620    1.2638
   34.635    1.1374
   34.650    1.2006
   34.665    1.2954
   34.680    1.1690
   34.695    1.1480
   34.710    1.0005
   34.725    1.1374
   34.740    1.1796
   34.755    1.1480
   34.770    1.1164
   34.785    1.1796
   34.800    1.1164
   34.815    1.1164
   34.830    1.1374
   34.845    1.1269
   34.860    1.0427
   34.875    0.9479
   34.890    1.0427
   34.905    1.0848
   34.920    1.0742
   34.935    1.2006
   34.950    1.2006
   34.965    1.1690
   34.980    1.2217
   34.995    1.1690
   35.010    1.0848
   35.025    1.0742
   35.040    1.0532
   35.055    1.1269
   35.070    1.1269
   35.085    1.1901
   35.100    1.2006
   35.115    1.0742
   35.130    1.2112
   35.145    1.2217
   35.160    1.2006
   35.175    1.0005
   35.190    1.0953
   35.205    1.0005
   35.220    1.1058
   35.235    1.1901
   35.250    1.0532
   35.265    1.1796
   35.280    1.2112
   35.295    1.1269
   35.310    1.1901
   35.325    1.1058
   35.340    1.0637
   35.355    1.0742
   35.370    1.0532
   35.385    1.1058
   35.400    1.0427
   35.415    1.2428
   35.430    1.1796
   35.445    1.0532
   35.460    0.8952
   35.475    1.0637
   35.490    1.1690
   35.505    1.1585
   35.520    1.1690
   35.535    1.0742
   35.550    1.1480
   35.565    1.2849
   35.580    1.0321
   35.595    1.0848
   35.610    1.2217
   35.625    1.1796
   35.640    1.1374
   35.655    1.2322
   35.670    1.1796
   35.685    1.1164
   35.700    1.1796
   35.715    1.0216
   35.730    1.1164
   35.745    1.1058
   35.760    1.2217
   35.775    1.1058
   35.790    1.0637
   35.805    1.2322
   35.820    1.1269
   35.835    1.1480
   35.850    1.0742
   35.865    1.1269
   35.880    1.1796
   35.895    1.1374
   35.910    1.1058
   35.925    1.0216
   35.940    0.9057
   35.955    1.0427
   35.970    0.9163
   35.985    1.1901
   36.000    1.2428
   36.015    1.1690
   36.030    1.2217
   36.045    1.1164
   36.060    1.1269
   36.075    1.0216
   36.090    1.1796
   36.105    1.1058
   36.120    1.0637
   36.135    1.1164
   36.150    1.1901
   36.165    1.1585
   36.180    1.2112
   36.195    1.1058
   36.210    1.1585
   36.225    1.3691
   36.240    1.1058
   36.255    1.1269
   36.270    1.2954
   36.285    1.2744
   36.300    1.1374
   36.315    1.0953
   36.330    0.9689
   36.345    1.1164
   36.360    1.1585
   36.375    0.8952
   36.390    1.1269
   36.405    0.9900
   36.420    1.0111
   36.435    1.0321
   36.450    1.1374
   36.465    1.1690
   36.480    1.2006
   36.495    1.0637
   36.510    1.0953
   36.525    0.9689
   36.540    1.0953
   36.555    1.0532
   36.570    1.0637
   36.585    0.9689
   36.600    1.0953
   36.615    1.1901
   36.630    1.1374
   36.645    1.1480
   36.660    1.3060
   36.675    1.2322
   36.690    1.1690
   36.705    1.2533
   36.720    1.0321
   36.735    1.0321
   36.750    1.0216
   36.765    1.1901
   36.780    1.1269
   36.795    1.1269
   36.810    1.0111
   36.825    1.2217
   36.840    1.0848
   36.855    1.0005
   36.870    1.1058
   36.885    1.1164
   36.900    1.1164
   36.915    1.1374
   36.930    0.9268
   36.945    0.9373
   36.960    1.1269
   36.975    1.0637
   36.990    1.0321
   37.005    1.1480
   37.020    1.0953
   37.035    1.2533
   37.050    1.2428
   37.065    1.1374
   37.080    1.0111
   37.095    0.9268
   37.110    0.9795
   37.125    1.1058
   37.140    0.9689
   37.155    1.0005
   37.170    0.9268
   37.185    1.1480
   37.200    1.1058
   37.215    1.1374
   37.230    1.0953
   37.245    1.2112
   37.260    1.1480
   37.275    1.1374
   37.290    1.0848
   37.305    1.2006
   37.320    0.9795
   37.335    1.0005
   37.350    1.0111
   37.365    0.9584
   37.380    1.0111
   37.395    1.0532
   37.410    0.9900
   37.425    1.0848
   37.440    1.0321
   37.455    0.9689
   37.470    1.0848
   37.485    1.0742
   37.500    1.0111
   37.515    1.0005
   37.530    1.1269
   37.545    1.0532
   37.560    1.0637
   37.575    1.1269
   37.590    1.1585
   37.605    1.0427
   37.620    1.0427
   37.635    0.8215
   37.650    1.0321
   37.665    1.0848
   37.680    0.9795
   37.695    1.1269
   37.710    1.0848
   37.725    1.0427
   37.740    1.0742
   37.755    1.0427
   37.770    0.9900
   37.785    1.0427
   37.800    1.0427
   37.815    0.9584
   37.830    1.0216
   37.845    0.9689
   37.860    0.9900
   37.875    0.8847
   37.890    1.1796
   37.905    1.0427
   37.920    0.8531
   37.935    1.0005
   37.950    0.9900
   37.965    0.9479
   37.980    1.0111
   37.995    1.0321
   38.010    1.1058
   38.025    1.0005
   38.040    1.0532
   38.055    0.9163
   38.070    0.9163
   38.085    1.0532
   38.100    0.9373
   38.115    1.0532
   38.130    1.0111
   38.145    0.8847
   38.160    0.9584
   38.175    1.1269
   38.190    0.9479
   38.205    0.9268
   38.220    1.0427
   38.235    0.8847
   38.250    1.0742
   38.265    1.1796
   38.280    1.0216
   38.295    1.1164
   38.310    1.1585
   38.325    1.0637
   38.340    1.0532
   38.355    1.0216
   38.370    0.9900
   38.385    0.9268
   38.400    1.1374
   38.415    1.0848
   38.430    1.0953
   38.445    1.0216
   38.460    1.1585
   38.475    0.9795
   38.490    0.9795
   38.505    1.0532
   38.520    0.9900
   38.535    1.0637
   38.550    1.0953
   38.565    0.9795
   38.580    0.9057
   38.595    0.9373
   38.610    1.0427
   38.625    0.9584
   38.640    1.0953
   38.655    0.9268
   38.670    1.0848
   38.685    1.0637
   38.700    0.9057
   38.715    1.0216
   38.730    0.9373
   38.745    0.9689
   38.760    0.9373
   38.775    0.9795
   38.790    1.0532
   38.805    0.9795
   38.820    0.9163
   38.835    1.1374
   38.850    0.9689
   38.865    1.0532
   38.880    1.0111
   38.895    1.1164
   38.910    1.0848
   38.925    1.0637
   38.940    1.1269
   38.955    1.0321
   38.970    1.0216
   38.985    0.9795
   39.000    1.1164
   39.015    1.0216
   39.030    1.0953
   39.045    1.0216
   39.060    0.9268
   39.075    0.9163
   39.090    0.9057
   39.105    0.9163
   39.120    0.8952
   39.135    0.9163
   39.150    0.9689
   39.165    0.9268
   39.180    0.8741
   39.195    1.0848
   39.210    1.0005
   39.225    0.8847
   39.240    1.0321
   39.255    0.9584
   39.270    0.9479
   39.285    1.0637
   39.300    0.8531
   39.315    1.1164
   39.330    1.0742
   39.345    1.1269
   39.360    1.1480
   39.375    1.1164
   39.390    1.1585
   39.405    0.9900
   39.420    1.0216
   39.435    0.9479
   39.450    1.0005
   39.465    1.0005
   39.480    0.8741
   39.495    0.9584
   39.510    1.0005
   39.525    0.8636
   39.540    1.0532
   39.555    0.9268
   39.570    0.9373
   39.585    0.9268
   39.600    1.0216
   39.615    1.0005
   39.630    0.9163
   39.645    0.8741
   39.660    0.9268
   39.675    0.9268
   39.690    0.8847
   39.705    0.9584
   39.720    1.0005
   39.735    0.9795
   39.750    0.8531
   39.765    1.0111
   39.780    1.0532
   39.795    1.0111
   39.810    1.0532
   39.825    1.0216
   39.840    0.9900
   39.855    1.1480
   39.870    0.9900
   39.885    0.9163
   39.900    0.8531
   39.915    0.9689
   39.930    1.0637
   39.945    0.9795
   39.960    0.9479
   39.975    0.9689
   39.990    1.0953
