    1.500   18.5571
    1.515   18.8310
    1.530   18.2833
    1.545   18.5887
    1.560   17.7883
    1.575   17.6198
    1.590   17.9463
    1.605   18.0305
    1.620   17.5671
    1.635   17.2617
    1.650   17.4513
    1.665   16.6614
    1.680   17.3565
    1.695   17.2933
    1.710   16.6087
    1.725   16.8194
    1.740   17.2301
    1.755   17.0195
    1.770   16.3244
    1.785   16.1453
    1.800   16.2612
    1.815   16.0295
    1.830   16.2612
    1.845   16.5350
    1.860   16.6614
    1.875   16.6193
    1.890   15.9136
    1.905   15.7451
    1.920   16.3244
    1.935   16.3244
    1.950   15.7241
    1.965   15.3765
    1.980   16.1348
    1.995   15.9768
    2.010   16.3665
    2.025   15.9874
    2.040   15.7030
    2.055   16.0716
    2.070   15.6293
    2.085   15.7241
    2.100   15.9136
    2.115   15.7346
    2.130   16.3876
    2.145   15.9558
    2.160   15.3765
    2.175   15.5450
    2.190   15.6503
    2.205   16.1453
    2.220   16.1664
    2.235   15.5556
    2.250   15.7451
    2.265   16.5140
    2.280   16.8299
    2.295   16.4297
    2.310   16.6087
    2.325   16.6193
    2.340   16.9984
    2.355   17.5040
    2.370   16.6825
    2.385   16.5456
    2.400   17.4618
    2.415   17.1985
    2.430   16.7983
    2.445   17.3038
    2.460   17.3776
    2.475   17.8831
    2.490   17.9463
    2.505   17.8936
    2.520   17.1037
    2.535   18.2201
    2.550   18.4623
    2.565   18.7994
    2.580   18.6519
    2.595   19.5998
    2.610   19.6103
    2.625   20.1264
    2.640   19.9789
    2.655   20.1369
    2.670   20.9268
    2.685   21.1585
    2.700   21.5903
    2.715   20.9584
    2.730   21.2006
    2.745   21.9484
    2.760   22.1696
    2.775   22.9595
    2.790   24.0021
    2.805   24.1917
    2.820   24.3707
    2.835   24.3075
    2.850   25.2238
    2.865   25.6556
    2.880   26.5824
    2.895   26.8668
    2.910   27.0669
    2.925   28.0885
    2.940   28.7941
    2.955   29.3418
    2.970   29.3312
    2.985   30.7109
    3.000   31.5956
    3.015   32.6593
    3.030   33.8073
    3.045   35.4502
    3.060   35.6187
    3.075   36.4613
    3.090   38.2306
    3.105   38.8310
    3.120   39.7788
    3.135   41.2428
    3.150   43.5387
    3.165   44.9184
    3.180   47.2038
    3.195   47.8989
    3.210   50.5529
    3.225   52.5013
    3.240   53.7651
    3.255   56.3139
    3.270   59.4313
    3.285   62.4645
    3.300   65.2975
    3.315   68.8362
    3.330   72.7120
    3.345   76.7035
    3.360   81.0953
    3.375   86.0453
    3.390   90.8268
    3.405   96.7351
    3.420  101.9589
    3.435  105.7820
    3.450  107.8884
    3.465  106.9932
    3.480  103.4123
    3.495   97.5145
    3.510   90.4687
    3.525   80.6214
    3.540   71.7746
    3.555   62.9595
    3.570   54.3339
    3.585   49.6472
    3.600   44.8552
    3.615   41.7483
    3.630   38.7046
    3.645   37.4408
    3.660   36.9668
    3.675   35.9347
    3.690   35.8820
    3.705   36.0190
    3.720   35.9452
    3.735   34.8921
    3.750   34.9868
    3.765   35.3870
    3.780   36.6403
    3.795   36.7878
    3.810   37.0300
    3.825   37.3670
    3.840   37.7988
    3.855   39.2101
    3.870   40.0737
    3.885   41.3165
    3.900   41.4850
    3.915   42.8647
    3.930   43.1806
    3.945   43.7809
    3.960   43.7493
    3.975   44.7288
    3.990   45.3397
    4.005   44.6446
    4.020   44.9078
    4.035   45.7715
    4.050   45.2554
    4.065   44.9921
    4.080   44.3391
    4.095   44.6761
    4.110   42.9805
    4.125   41.3375
    4.140   40.3370
    4.155   40.4950
    4.170   38.9784
    4.185   37.8831
    4.200   34.9763
    4.215   32.9121
    4.230   31.4481
    4.245   30.0263
    4.260   27.2986
    4.275   26.2981
    4.290   24.6235
    4.305   23.0437
    4.320   21.1585
    4.335   19.8736
    4.350   18.8942
    4.365   17.7883
    4.380   16.4824
    4.395   15.4818
    4.410   14.7867
    4.425   13.8178
    4.440   13.5334
    4.455   12.8699
    4.470   11.8694
    4.485   11.4587
    4.500   11.2375
    4.515   11.1111
    4.530   10.4897
    4.545   10.0790
    4.560    9.7630
    4.575    9.6472
    4.590    8.7098
    4.605    8.9205
    4.620    9.1101
    4.635    8.9415
    4.650    8.5729
    4.665    8.6783
    4.680    8.5835
    4.695    8.6045
    4.710    8.1517
    4.725    8.2359
    4.740    8.0779
    4.755    7.8989
    4.770    8.1306
    4.785    7.8884
    4.800    7.8989
    4.815    7.8884
    4.830    7.5829
    4.845    7.6356
    4.860    7.4355
    4.875    7.3407
    4.890    7.0669
    4.905    7.1090
    4.920    7.3828
    4.935    6.8984
    4.950    6.9194
    4.965    6.9826
    4.980    6.8246
    4.995    6.9194
    5.010    6.8352
    5.025    7.0142
    5.040    7.0458
    5.055    6.8246
    5.070    6.9405
    5.085    6.6877
    5.100    6.9089
    5.115    7.2670
    5.130    6.5403
    5.145    6.4139
    5.160    6.6877
    5.175    6.6667
    5.190    6.4876
    5.205    6.4771
    5.220    6.5087
    5.235    6.8352
    5.250    6.6140
    5.265    6.4244
    5.280    6.4666
    5.295    6.5508
    5.310    6.8246
    5.325    6.7825
    5.340    6.4244
    5.355    6.1295
    5.370    6.4982
    5.385    6.4771
    5.400    6.5824
    5.415    6.5613
    5.430    6.5403
    5.445    6.6667
    5.460    6.2875
    5.475    6.4350
    5.490    6.3823
    5.505    6.2981
    5.520    6.0664
    5.535    6.0558
    5.550    6.3402
    5.565    6.2138
    5.580    5.8557
    5.595    6.3402
    5.610    6.1611
    5.625    5.9189
    5.640    5.8978
    5.655    5.6661
    5.670    5.6556
    5.685    5.6767
    5.700    5.8347
    5.715    6.0242
    5.730    5.9400
    5.745    5.9400
    5.760    6.2033
    5.775    5.8031
    5.790    5.7715
    5.805    6.0032
    5.820    5.8978
    5.835    6.2454
    5.850    5.7399
    5.865    5.8557
    5.880    6.0664
    5.895    6.0769
    5.910    5.6345
    5.925    6.1927
    5.940    5.9084
    5.955    5.7293
    5.970    5.9400
    5.985    6.0242
    6.000    5.5082
    6.015    5.8241
    6.030    6.1611
    6.045    5.6977
    6.060    5.9189
    6.075    5.9400
    6.090    5.9821
    6.105    5.5819
    6.120    5.5608
    6.135    5.7188
    6.150    5.5924
    6.165    6.1085
    6.180    6.3402
    6.195    5.9400
    6.210    6.1085
    6.225    5.8662
    6.240    5.8768
    6.255    6.2349
    6.270    6.1506
    6.285    6.1927
    6.300    6.1401
    6.315    5.8557
    6.330    6.1190
    6.345    5.8768
    6.360    6.3086
    6.375    6.4982
    6.390    6.1611
    6.405    6.4982
    6.420    6.3086
    6.435    6.5192
    6.450    6.9932
    6.465    6.4876
    6.480    6.6667
    6.495    6.6245
    6.510    6.9510
    6.525    6.7615
    6.540    6.5087
    6.555    7.0037
    6.570    6.9089
    6.585    6.6877
    6.600    7.4144
    6.615    7.4566
    6.630    7.5935
    6.645    7.7409
    6.660    8.0147
    6.675    7.8778
    6.690    8.1201
    6.705    8.0569
    6.720    8.5097
    6.735    8.5413
    6.750    8.9837
    6.765    8.9626
    6.780    9.4892
    6.795    9.4155
    6.810   10.0369
    6.825   10.5108
    6.840   11.3639
    6.855   11.9537
    6.870   12.2170
    6.885   12.8067
    6.900   12.8805
    6.915   13.4808
    6.930   15.0079
    6.945   15.2396
    6.960   15.1343
    6.975   14.7551
    6.990   14.0811
    7.005   13.7335
    7.020   13.1648
    7.035   12.7436
    7.050   10.9847
    7.065    9.5945
    7.080    9.3418
    7.095    9.1206
    7.110    8.5308
    7.125    7.6567
    7.140    7.7093
    7.155    7.7936
    7.170    7.3196
    7.185    7.3196
    7.200    6.7930
    7.215    6.5192
    7.230    6.7930
    7.245    6.9721
    7.260    6.6877
    7.275    7.0458
    7.290    6.4139
    7.305    6.4455
    7.320    6.6035
    7.335    6.6245
    7.350    6.7088
    7.365    6.6245
    7.380    6.4139
    7.395    6.5613
    7.410    6.2875
    7.425    6.4455
    7.440    6.4982
    7.455    6.6035
    7.470    7.0669
    7.485    7.0879
    7.500    6.9721
    7.515    6.8668
    7.530    7.2038
    7.545    6.7193
    7.560    6.7299
    7.575    6.5719
    7.590    6.6983
    7.605    6.7720
    7.620    7.0248
    7.635    7.1617
    7.650    6.9616
    7.665    6.6561
    7.680    7.0669
    7.695    6.9721
    7.710    7.0353
    7.725    7.0985
    7.740    7.1617
    7.755    7.6672
    7.770    7.6356
    7.785    7.6040
    7.800    7.2565
    7.815    7.0774
    7.830    7.5724
    7.845    7.5935
    7.860    7.5303
    7.875    7.9831
    7.890    7.7199
    7.905    7.6883
    7.920    7.6567
    7.935    7.8462
    7.950    8.3623
    7.965    7.8357
    7.980    8.3518
    7.995    8.0569
    8.010    8.0990
    8.025    8.0463
    8.040    8.7309
    8.055    8.6045
    8.070    8.3202
    8.085    8.4676
    8.100    8.7941
    8.115    8.6045
    8.130    8.3623
    8.145    8.4466
    8.160    8.1622
    8.175    8.4360
    8.190    8.6888
    8.205    8.7309
    8.220    9.0995
    8.235    8.8678
    8.250    8.9731
    8.265    8.4571
    8.280    8.5413
    8.295    8.7836
    8.310    9.0363
    8.325    8.5203
    8.340    8.4992
    8.355    8.7625
    8.370    8.8889
    8.385    8.4887
    8.400    8.4887
    8.415    8.2254
    8.430    8.0358
    8.445    7.9726
    8.460    7.7620
    8.475    8.0042
    8.490    7.8146
    8.505    8.1411
    8.520    7.8041
    8.535    7.3618
    8.550    7.4460
    8.565    7.5197
    8.580    7.9831
    8.595    7.4882
    8.610    7.4039
    8.625    7.2880
    8.640    7.0458
    8.655    7.1722
    8.670    6.5719
    8.685    6.8352
    8.700    6.7615
    8.715    6.3928
    8.730    6.8878
    8.745    6.6035
    8.760    6.0979
    8.775    6.3928
    8.790    6.3296
    8.805    6.3507
    8.820    6.2875
    8.835    5.8347
    8.850    6.0558
    8.865    6.0664
    8.880    5.9294
    8.895    5.8347
    8.910    5.8662
    8.925    6.0453
    8.940    5.6977
    8.955    5.8031
    8.970    6.2138
    8.985    5.7293
    9.000    5.6872
    9.015    5.6977
    9.030    5.7715
    9.045    5.6240
    9.060    5.8241
    9.075    5.9400
    9.090    5.5924
    9.105    5.7715
    9.120    5.8031
    9.135    5.9926
    9.150    5.8662
    9.165    5.4871
    9.180    6.0032
    9.195    5.4871
    9.210    5.5187
    9.225    5.7399
    9.240    5.7188
    9.255    5.7820
    9.270    5.8873
    9.285    5.3923
    9.300    5.6135
    9.315    5.5503
    9.330    5.6451
    9.345    5.7925
    9.360    5.8557
    9.375    5.4766
    9.390    5.8031
    9.405    5.2554
    9.420    5.6872
    9.435    5.4239
    9.450    5.6135
    9.465    5.3923
    9.480    5.6767
    9.495    5.3607
    9.510    5.6135
    9.525    5.5608
    9.540    5.3818
    9.555    5.6556
    9.570    5.5924
    9.585    5.0448
    9.600    5.3186
    9.615    5.3291
    9.630    5.2870
    9.645    5.3502
    9.660    5.1817
    9.675    5.6240
    9.690    5.6977
    9.705    5.2343
    9.720    5.2765
    9.735    5.4660
    9.750    5.7083
    9.765    5.5819
    9.780    5.3291
    9.795    5.4766
    9.810    5.4660
    9.825    5.5819
    9.840    5.4766
    9.855    5.2870
    9.870    5.3081
    9.885    5.3818
    9.900    5.3923
    9.915    5.2449
    9.930    5.6029
    9.945    5.5819
    9.960    5.5924
    9.975    5.6872
    9.990    5.5503
   10.005    5.1501
   10.020    5.2975
   10.035    5.2975
   10.050    5.4028
   10.065    5.6135
   10.080    5.7820
   10.095    5.6135
   10.110    5.3923
   10.125    5.3818
   10.140    5.5924
   10.155    5.1395
   10.170    5.3397
   10.185    5.2449
   10.200    5.3291
   10.215    5.6767
   10.230    5.7820
   10.245    5.8873
   10.260    6.0664
   10.275    5.7715
   10.290    5.2343
   10.305    5.8452
   10.320    5.9926
   10.335    5.7715
   10.350    5.7399
   10.365    5.5924
   10.380    5.7609
   10.395    5.7715
   10.410    6.2981
   10.425    5.8452
   10.440    5.6135
   10.455    5.6135
   10.470    5.9716
   10.485    5.5398
   10.500    5.8031
   10.515    6.0874
   10.530    5.6767
   10.545    5.5292
   10.560    5.8662
   10.575    5.8347
   10.590    5.7925
   10.605    5.7820
   10.620    5.8557
   10.635    5.5608
   10.650    5.0026
   10.665    5.2449
   10.680    5.6135
   10.695    5.5292
   10.710    5.3818
   10.725    5.5608
   10.740    5.4028
   10.755    5.2133
   10.770    5.5398
   10.785    5.4450
   10.800    5.4555
   10.815    5.5187
   10.830    5.6556
   10.845    5.2870
   10.860    5.4344
   10.875    5.3607
   10.890    5.4028
   10.905    5.5398
   10.920    5.3186
   10.935    5.3397
   10.950    5.5819
   10.965    5.4976
   10.980    5.2659
   10.995    5.6135
   11.010    5.5292
   11.025    5.2238
   11.040    5.4766
   11.055    5.5292
   11.070    4.9605
   11.085    5.5398
   11.100    5.3607
   11.115    5.8136
   11.130    5.4344
   11.145    5.4239
   11.160    5.5292
   11.175    5.8241
   11.190    5.4450
   11.205    5.2659
   11.220    5.2238
   11.235    5.4239
   11.250    5.4555
   11.265    5.2449
   11.280    5.3607
   11.295    5.1817
   11.310    5.2975
   11.325    5.3081
   11.340    5.2449
   11.355    5.2343
   11.370    5.3081
   11.385    5.6767
   11.400    5.3291
   11.415    5.2975
   11.430    5.6451
   11.445    5.4239
   11.460    5.6872
   11.475    5.5187
   11.490    5.4344
   11.505    5.5292
   11.520    5.3081
   11.535    5.5082
   11.550    5.5608
   11.565    5.7188
   11.580    5.3607
   11.595    5.2659
   11.610    5.6661
   11.625    5.2027
   11.640    5.7188
   11.655    5.5503
   11.670    5.1922
   11.685    5.2027
   11.700    5.3502
   11.715    5.4976
   11.730    5.4660
   11.745    5.7083
   11.760    5.8347
   11.775    5.6135
   11.790    5.6661
   11.805    5.3712
   11.820    5.6345
   11.835    5.8873
   11.850    5.7504
   11.865    5.6135
   11.880    5.8768
   11.895    5.5398
   11.910    5.6135
   11.925    5.9926
   11.940    5.7504
   11.955    5.3502
   11.970    5.9189
   11.985    5.6977
   12.000    5.6451
   12.015    5.7293
   12.030    5.6451
   12.045    5.9400
   12.060    5.7925
   12.075    5.9084
   12.090    5.9610
   12.105    5.9821
   12.120    5.4134
   12.135    5.6135
   12.150    5.4766
   12.165    5.9294
   12.180    5.6977
   12.195    5.8662
   12.210    5.9084
   12.225    5.8031
   12.240    5.6977
   12.255    6.0558
   12.270    5.8662
   12.285    5.4976
   12.300    5.5924
   12.315    6.1401
   12.330    5.7820
   12.345    5.6872
   12.360    5.6872
   12.375    5.9189
   12.390    5.7399
   12.405    5.7925
   12.420    5.5398
   12.435    5.8452
   12.450    5.9084
   12.465    5.6556
   12.480    5.7820
   12.495    5.9716
   12.510    5.4555
   12.525    5.8347
   12.540    5.8768
   12.555    6.2138
   12.570    6.2243
   12.585    5.8031
   12.600    5.4555
   12.615    5.8031
   12.630    6.0137
   12.645    5.7293
   12.660    5.4660
   12.675    5.4028
   12.690    5.5714
   12.705    5.5187
   12.720    5.4028
   12.735    5.8241
   12.750    6.0453
   12.765    5.8452
   12.780    5.7820
   12.795    5.5924
   12.810    5.5082
   12.825    5.4660
   12.840    5.9610
   12.855    5.7504
   12.870    6.0348
   12.885    5.5398
   12.900    5.8452
   12.915    5.4450
   12.930    5.3502
   12.945    5.6135
   12.960    5.8662
   12.975    5.3397
   12.990    5.3923
   13.005    5.4871
   13.020    5.4344
   13.035    5.4344
   13.050    5.5924
   13.065    5.4134
   13.080    5.6240
   13.095    5.3607
   13.110    5.3502
   13.125    5.4660
   13.140    5.7925
   13.155    5.5082
   13.170    5.2133
   13.185    5.7188
   13.200    5.6451
   13.215    5.6240
   13.230    5.5187
   13.245    5.4134
   13.260    5.4028
   13.275    5.7293
   13.290    5.6872
   13.305    5.6556
   13.320    5.7609
   13.335    5.6345
   13.350    5.6661
   13.365    5.5187
   13.380    5.4134
   13.395    5.5292
   13.410    5.6872
   13.425    5.3502
   13.440    5.3502
   13.455    5.2027
   13.470    5.4450
   13.485    5.2975
   13.500    5.5082
   13.515    5.6345
   13.530    5.7399
   13.545    5.5292
   13.560    5.4555
   13.575    5.4555
   13.590    5.5714
   13.605    5.4450
   13.620    5.3291
   13.635    5.4450
   13.650    5.5503
   13.665    5.4344
   13.680    5.4976
   13.695    5.3712
   13.710    5.5292
   13.725    5.3712
   13.740    5.6345
   13.755    5.6135
   13.770    5.5187
   13.785    5.2765
   13.800    5.5292
   13.815    5.5608
   13.830    5.5187
   13.845    5.5292
   13.860    5.6345
   13.875    5.6029
   13.890    5.2133
   13.905    5.6556
   13.920    5.2343
   13.935    5.7293
   13.950    5.4555
   13.965    5.4134
   13.980    5.4555
   13.995    5.4555
   14.010    5.5398
   14.025    5.6977
   14.040    5.4028
   14.055    5.3397
   14.070    5.0658
   14.085    5.3607
   14.100    5.3818
   14.115    5.7609
   14.130    5.7293
   14.145    5.4344
   14.160    5.0237
   14.175    5.3081
   14.190    5.4450
   14.205    5.1290
   14.220    5.2765
   14.235    5.1922
   14.250    5.6029
   14.265    5.5187
   14.280    5.1817
   14.295    5.3502
   14.310    5.0237
   14.325    5.2659
   14.340    5.5082
   14.355    5.2659
   14.370    5.5187
   14.385    5.2870
   14.400    4.9816
   14.415    5.2870
   14.430    5.1185
   14.445    5.3607
   14.460    5.5608
   14.475    5.5714
   14.490    5.5819
   14.505    5.5714
   14.520    5.1711
   14.535    5.4344
   14.550    5.0764
   14.565    5.3081
   14.580    5.2133
   14.595    5.1922
   14.610    5.2133
   14.625    5.1817
   14.640    5.2449
   14.655    5.2449
   14.670    5.3291
   14.685    5.2765
   14.700    5.3502
   14.715    5.0237
   14.730    5.1501
   14.745    5.3291
   14.760    5.0026
   14.775    5.0764
   14.790    5.3502
   14.805    5.5714
   14.820    5.0132
   14.835    5.1290
   14.850    5.2870
   14.865    5.0237
   14.880    5.3397
   14.895    5.3502
   14.910    5.1185
   14.925    5.1711
   14.940    5.2975
   14.955    5.2659
   14.970    5.2133
   14.985    5.0764
   15.000    5.4028
   15.015    5.5187
   15.030    5.3923
   15.045    5.2870
   15.060    5.0869
   15.075    5.1395
   15.090    5.2133
   15.105    5.2554
   15.120    5.2449
   15.135    4.8552
   15.150    5.0553
   15.165    5.4766
   15.180    5.2238
   15.195    5.2765
   15.210    5.2975
   15.225    5.7504
   15.240    5.4871
   15.255    5.0026
   15.270    5.3081
   15.285    5.1290
   15.300    5.2027
   15.315    5.2975
   15.330    5.2554
   15.345    5.3081
   15.360    5.4134
   15.375    5.4028
   15.390    5.4976
   15.405    5.4239
   15.420    5.2765
   15.435    5.1080
   15.450    5.4660
   15.465    4.9921
   15.480    5.2870
   15.495    5.2133
   15.510    5.5082
   15.525    5.4555
   15.540    5.4028
   15.555    5.3607
   15.570    5.1606
   15.585    5.2449
   15.600    5.2870
   15.615    5.2554
   15.630    5.1817
   15.645    5.3607
   15.660    5.5082
   15.675    5.7504
   15.690    5.4450
   15.705    5.3397
   15.720    5.2027
   15.735    5.4976
   15.750    5.3607
   15.765    5.1711
   15.780    5.1817
   15.795    5.4660
   15.810    5.5082
   15.825    5.1922
   15.840    5.2133
   15.855    5.2133
   15.870    5.5082
   15.885    5.7399
   15.900    5.3923
   15.915    5.4871
   15.930    5.5187
   15.945    5.5187
   15.960    5.3291
   15.975    5.4450
   15.990    5.2133
   16.005    5.3081
   16.020    5.5082
   16.035    5.4766
   16.050    5.1080
   16.065    5.4450
   16.080    5.4028
   16.095    5.4976
   16.110    5.4239
   16.125    5.4028
   16.140    5.4450
   16.155    5.4344
   16.170    5.3081
   16.185    5.6345
   16.200    5.5819
   16.215    5.3607
   16.230    5.1080
   16.245    5.2659
   16.260    5.2449
   16.275    5.4028
   16.290    5.3291
   16.305    5.0869
   16.320    5.0553
   16.335    5.0658
   16.350    5.2133
   16.365    5.0764
   16.380    5.6135
   16.395    5.5292
   16.410    5.1606
   16.425    5.6872
   16.440    5.5819
   16.455    5.2343
   16.470    5.1922
   16.485    5.6345
   16.500    5.7083
   16.515    5.0342
   16.530    5.5714
   16.545    5.3186
   16.560    5.1606
   16.575    5.0132
   16.590    5.2449
   16.605    5.0869
   16.620    5.3186
   16.635    5.3397
   16.650    5.4028
   16.665    5.5608
   16.680    4.9184
   16.695    5.2027
   16.710    5.3397
   16.725    5.2027
   16.740    5.3607
   16.755    5.2659
   16.770    4.9289
   16.785    5.0869
   16.800    5.0658
   16.815    5.4871
   16.830    5.1501
   16.845    5.1185
   16.860    5.0132
   16.875    5.5608
   16.890    5.2765
   16.905    5.2238
   16.920    5.3502
   16.935    4.7920
   16.950    5.2027
   16.965    5.2343
   16.980    5.0026
   16.995    5.2343
   17.010    5.3502
   17.025    5.4555
   17.040    4.8447
   17.055    4.9816
   17.070    4.7604
   17.085    5.1606
   17.100    5.3081
   17.115    5.1080
   17.130    5.3818
   17.145    4.8868
   17.160    5.0237
   17.175    5.5187
   17.190    5.2975
   17.205    5.1080
   17.220    5.2449
   17.235    5.3818
   17.250    5.2765
   17.265    5.4660
   17.280    5.4239
   17.295    5.0237
   17.310    5.1395
   17.325    5.5608
   17.340    5.4239
   17.355    5.2343
   17.370    5.4766
   17.385    5.2027
   17.400    5.4555
   17.415    5.3818
   17.430    5.3291
   17.445    5.2343
   17.460    5.1395
   17.475    5.1922
   17.490    5.2027
   17.505    5.2554
   17.520    5.4239
   17.535    5.7715
   17.550    5.4976
   17.565    5.1501
   17.580    5.1606
   17.595    5.0658
   17.610    5.1080
   17.625    5.4766
   17.640    5.4450
   17.655    5.4871
   17.670    5.6661
   17.685    5.6872
   17.700    5.4871
   17.715    4.9184
   17.730    5.2449
   17.745    5.4976
   17.760    5.6240
   17.775    5.2238
   17.790    5.3923
   17.805    5.0448
   17.820    5.3923
   17.835    5.3081
   17.850    5.3712
   17.865    5.4976
   17.880    5.2554
   17.895    5.2659
   17.910    5.2659
   17.925    5.1290
   17.940    5.2554
   17.955    5.2765
   17.970    5.3818
   17.985    5.1290
   18.000    5.1395
   18.015    5.2975
   18.030    5.0764
   18.045    5.2343
   18.060    5.2870
   18.075    5.4344
   18.090    5.2975
   18.105    5.4344
   18.120    5.4344
   18.135    5.1185
   18.150    5.3923
   18.165    5.1817
   18.180    5.7188
   18.195    5.1711
   18.210    5.0869
   18.225    5.1501
   18.240    5.4028
   18.255    5.2133
   18.270    5.3186
   18.285    5.2554
   18.300    5.1711
   18.315    5.1922
   18.330    5.4344
   18.345    5.0869
   18.360    5.4344
   18.375    5.0974
   18.390    5.4134
   18.405    5.5503
   18.420    5.4028
   18.435    5.6135
   18.450    5.1817
   18.465    5.2449
   18.480    5.0132
   18.495    5.4344
   18.510    5.1922
   18.525    5.1711
   18.540    5.3081
   18.555    5.4660
   18.570    5.6029
   18.585    5.1711
   18.600    5.4976
   18.615    5.6029
   18.630    5.3081
   18.645    5.3081
   18.660    5.1606
   18.675    5.5292
   18.690    5.3818
   18.705    5.5714
   18.720    5.6977
   18.735    5.4028
   18.750    5.6029
   18.765    5.4028
   18.780    5.2238
   18.795    5.4766
   18.810    5.4028
   18.825    5.3607
   18.840    5.5292
   18.855    5.4028
   18.870    5.4871
   18.885    5.8768
   18.900    5.9294
   18.915    5.9084
   18.930    5.9084
   18.945    6.0664
   18.960    6.1717
   18.975    6.1085
   18.990    6.3191
   19.005    6.4139
   19.020    6.3402
   19.035    6.6983
   19.050    5.9400
   19.065    5.6977
   19.080    5.7820
   19.095    5.9716
   19.110    5.7293
   19.125    5.5503
   19.140    5.4555
   19.155    5.5924
   19.170    5.6977
   19.185    5.5292
   19.200    5.3291
   19.215    5.3923
   19.230    5.4660
   19.245    5.5714
   19.260    5.5924
   19.275    5.3923
   19.290    5.3397
   19.305    5.4660
   19.320    5.6661
   19.335    5.6767
   19.350    5.7293
   19.365    5.4871
   19.380    5.8136
   19.395    5.5503
   19.410    5.4976
   19.425    5.4134
   19.440    5.5608
   19.455    5.6767
   19.470    5.6661
   19.485    5.4871
   19.500    5.8452
   19.515    5.7820
   19.530    5.6556
   19.545    5.8136
   19.560    6.0137
   19.575    6.0979
   19.590    5.1922
   19.605    5.6029
   19.620    6.0348
   19.635    5.9926
   19.650    5.6451
   19.665    5.4871
   19.680    5.6556
   19.695    5.5503
   19.710    5.7293
   19.725    5.6240
   19.740    5.8452
   19.755    5.5398
   19.770    5.7504
   19.785    5.7609
   19.800    5.5714
   19.815    5.6767
   19.830    5.9610
   19.845    5.8347
   19.860    6.2349
   19.875    5.6977
   19.890    5.5082
   19.905    5.6872
   19.920    5.9716
   19.935    5.8241
   19.950    5.6240
   19.965    5.5398
   19.980    5.4450
   19.995    5.7609
   20.010    5.6135
   20.025    5.5398
   20.040    5.5292
   20.055    5.6977
   20.070    5.8136
   20.085    5.8031
   20.100    5.9189
   20.115    6.0769
   20.130    5.8768
   20.145    6.0558
   20.160    5.5819
   20.175    5.8031
   20.190    5.9084
   20.205    5.8978
   20.220    5.7293
   20.235    6.2138
   20.250    6.1085
   20.265    5.8347
   20.280    5.9821
   20.295    6.3402
   20.310    5.8557
   20.325    5.8873
   20.340    5.8768
   20.355    5.8136
   20.370    5.4344
   20.385    6.0348
   20.400    5.7504
   20.415    5.7820
   20.430    6.0979
   20.445    5.5714
   20.460    5.6661
   20.475    5.5608
   20.490    5.7083
   20.505    5.8347
   20.520    5.9189
   20.535    5.9821
   20.550    5.7504
   20.565    5.4134
   20.580    5.7083
   20.595    5.8978
   20.610    5.5924
   20.625    5.4766
   20.640    5.3186
   20.655    5.6872
   20.670    5.8557
   20.685    5.6767
   20.700    5.7399
   20.715    5.5608
   20.730    5.6556
   20.745    5.6345
   20.760    5.9926
   20.775    5.6240
   20.790    5.6556
   20.805    5.5503
   20.820    5.9926
   20.835    5.6872
   20.850    5.6977
   20.865    6.1295
   20.880    6.2665
   20.895    5.6556
   20.910    5.8978
   20.925    6.1717
   20.940    6.1401
   20.955    5.9505
   20.970    5.8241
   20.985    5.9610
   21.000    5.8347
   21.015    5.8768
   21.030    5.7925
   21.045    5.7715
   21.060    5.9926
   21.075    5.9400
   21.090    5.4976
   21.105    5.8873
   21.120    5.6240
   21.135    5.2870
   21.150    5.7399
   21.165    5.6767
   21.180    5.4555
   21.195    5.6135
   21.210    5.5714
   21.225    5.3712
   21.240    5.8241
   21.255    6.1927
   21.270    5.9505
   21.285    5.7820
   21.300    5.7399
   21.315    6.1506
   21.330    5.6661
   21.345    5.6240
   21.360    5.8241
   21.375    5.7293
   21.390    6.0242
   21.405    5.9610
   21.420    5.6135
   21.435    5.6029
   21.450    5.9505
   21.465    5.8347
   21.480    5.9189
   21.495    6.1085
   21.510    5.8452
   21.525    5.6556
   21.540    6.0769
   21.555    5.4344
   21.570    5.4766
   21.585    5.7715
   21.600    6.0453
   21.615    5.9400
   21.630    5.8241
   21.645    5.7188
   21.660    5.7925
   21.675    6.0979
   21.690    6.2875
   21.705    5.8452
   21.720    5.4766
   21.735    5.7399
   21.750    5.7293
   21.765    5.5924
   21.780    5.8662
   21.795    5.5819
   21.810    5.6767
   21.825    5.6767
   21.840    5.8452
   21.855    5.8557
   21.870    5.7715
   21.885    5.9084
   21.900    6.1506
   21.915    6.0348
   21.930    6.0979
   21.945    5.8768
   21.960    5.9084
   21.975    5.9716
   21.990    5.7925
   22.005    5.7609
   22.020    5.9400
   22.035    6.0979
   22.050    6.0348
   22.065    5.6977
   22.080    5.6872
   22.095    5.9400
   22.110    5.7188
   22.125    5.7083
   22.140    5.7504
   22.155    5.8241
   22.170    5.8241
   22.185    5.9926
   22.200    5.6240
   22.215    6.0664
   22.230    5.7715
   22.245    5.8557
   22.260    5.8031
   22.275    5.6556
   22.290    6.0664
   22.305    6.0032
   22.320    5.6661
   22.335    5.5819
   22.350    5.6661
   22.365    5.7820
   22.380    5.9821
   22.395    6.2770
   22.410    5.9505
   22.425    6.1611
   22.440    5.4028
   22.455    5.6029
   22.470    5.7609
   22.485    6.1717
   22.500    5.6029
   22.515    6.1190
   22.530    6.1717
   22.545    5.9400
   22.560    6.1927
   22.575    6.3928
   22.590    5.8452
   22.605    5.6556
   22.620    5.6240
   22.635    5.7504
   22.650    5.7083
   22.665    5.6135
   22.680    5.7293
   22.695    6.0664
   22.710    5.8347
   22.725    5.9400
   22.740    6.0453
   22.755    5.6872
   22.770    5.9084
   22.785    5.9294
   22.800    5.9610
   22.815    5.7925
   22.830    5.5398
   22.845    5.4450
   22.860    5.7609
   22.875    5.6451
   22.890    5.7820
   22.905    5.8452
   22.920    5.7504
   22.935    5.7083
   22.950    5.5292
   22.965    5.4450
   22.980    5.7083
   22.995    6.2243
   23.010    5.5608
   23.025    5.5924
   23.040    5.6977
   23.055    5.8662
   23.070    5.6240
   23.085    5.8768
   23.100    6.0032
   23.115    6.1822
   23.130    6.1190
   23.145    5.8978
   23.160    6.1190
   23.175    5.9505
   23.190    5.5924
   23.205    5.7925
   23.220    5.6029
   23.235    5.9716
   23.250    6.1611
   23.265    5.5924
   23.280    5.2659
   23.295    5.5398
   23.310    5.4028
   23.325    5.6345
   23.340    5.6767
   23.355    5.4028
   23.370    5.7715
   23.385    5.6135
   23.400    5.3397
   23.415    5.0658
   23.430    5.5819
   23.445    6.0979
   23.460    6.0558
   23.475    5.6451
   23.490    5.6661
   23.505    5.9400
   23.520    6.0032
   23.535    5.4660
   23.550    5.2765
   23.565    5.6767
   23.580    5.3818
   23.595    5.8136
   23.610    5.5608
   23.625    6.0769
   23.640    5.5819
   23.655    5.4976
   23.670    5.8347
   23.685    5.7083
   23.700    5.3607
   23.715    5.5714
   23.730    5.8136
   23.745    5.6135
   23.760    5.3397
   23.775    5.4134
   23.790    5.4239
   23.805    5.5292
   23.820    5.4134
   23.835    5.4134
   23.850    5.2765
   23.865    5.6240
   23.880    5.8452
   23.895    5.8031
   23.910    5.7083
   23.925    5.8768
   23.940    5.5503
   23.955    5.4976
   23.970    5.4766
   23.985    5.8136
   24.000    5.9189
   24.015    5.8557
   24.030    5.7293
   24.045    5.4871
   24.060    5.2975
   24.075    5.6977
   24.090    5.6135
   24.105    5.4134
   24.120    5.4871
   24.135    5.5714
   24.150    5.8978
   24.165    5.8031
   24.180    5.6345
   24.195    5.6345
   24.210    5.6029
   24.225    5.3291
   24.240    5.3923
   24.255    5.2554
   24.270    5.1817
   24.285    5.5714
   24.300    5.4766
   24.315    5.4871
   24.330    5.5924
   24.345    5.4344
   24.360    5.0869
   24.375    5.3081
   24.390    5.3712
   24.405    5.4660
   24.420    5.5503
   24.435    5.5608
   24.450    5.5819
   24.465    5.3397
   24.480    5.3502
   24.495    5.5714
   24.510    5.1922
   24.525    5.4555
   24.540    5.5082
   24.555    5.4344
   24.570    5.5924
   24.585    5.7820
   24.600    5.7820
   24.615    5.7188
   24.630    5.6556
   24.645    5.6029
   24.660    5.4028
   24.675    5.6977
   24.690    5.5924
   24.705    5.4239
   24.720    5.9821
   24.735    5.4239
   24.750    5.2027
   24.765    5.4976
   24.780    5.7293
   24.795    5.3502
   24.810    5.0553
   24.825    5.4555
   24.840    5.2659
   24.855    5.5082
   24.870    5.4976
   24.885    5.3291
   24.900    5.5187
   24.915    5.4766
   24.930    5.3186
   24.945    5.2765
   24.960    5.3818
   24.975    5.1711
   24.990    5.4766
   25.005    5.4028
   25.020    5.3502
   25.035    5.1080
   25.050    5.1290
   25.065    5.0342
   25.080    5.0448
   25.095    5.6345
   25.110    5.5082
   25.125    5.2870
   25.140    5.0974
   25.155    4.9289
   25.170    4.7077
   25.185    5.0869
   25.200    5.3081
   25.215    5.3291
   25.230    5.3712
   25.245    5.3712
   25.260    5.1711
   25.275    5.3081
   25.290    5.1185
   25.305    4.9500
   25.320    5.4766
   25.335    5.4134
   25.350    5.3607
   25.365    5.5714
   25.380    5.3081
   25.395    5.2554
   25.410    5.5714
   25.425    5.0764
   25.440    5.1711
   25.455    5.4555
   25.470    5.0448
   25.485    5.3502
   25.500    5.4976
   25.515    5.4239
   25.530    5.5714
   25.545    5.4660
   25.560    5.4976
   25.575    5.1606
   25.590    5.5292
   25.605    5.3712
   25.620    5.4871
   25.635    5.4555
   25.650    5.0026
   25.665    5.5608
   25.680    5.3291
   25.695    5.1080
   25.710    5.1711
   25.725    5.1290
   25.740    5.4450
   25.755    5.3186
   25.770    5.2554
   25.785    5.1817
   25.800    5.3397
   25.815    5.0658
   25.830    5.1501
   25.845    5.1395
   25.860    5.3923
   25.875    5.1501
   25.890    5.1817
   25.905    5.1501
   25.920    5.2027
   25.935    5.1711
   25.950    5.1290
   25.965    5.0237
   25.980    5.2133
   25.995    5.1185
   26.010    5.0553
   26.025    4.8973
   26.040    4.8657
   26.055    4.7604
   26.070    5.1395
   26.085    5.0237
   26.100    5.0974
   26.115    4.9605
   26.130    5.1501
   26.145    5.3502
   26.160    5.4766
   26.175    5.1185
   26.190    5.3081
   26.205    5.2554
   26.220    5.4976
   26.235    5.5187
   26.250    5.1711
   26.265    5.0448
   26.280    5.0869
   26.295    4.9605
   26.310    4.9710
   26.325    4.9605
   26.340    5.3818
   26.355    4.9605
   26.370    5.2027
   26.385    5.0237
   26.400    5.2133
   26.415    4.9921
   26.430    5.1185
   26.445    5.0026
   26.460    5.1922
   26.475    5.3186
   26.490    5.1817
   26.505    5.1606
   26.520    5.2554
   26.535    5.3502
   26.550    5.2027
   26.565    5.1290
   26.580    5.0658
   26.595    5.0342
   26.610    5.4555
   26.625    4.8868
   26.640    5.0448
   26.655    4.8447
   26.670    5.1501
   26.685    5.2765
   26.700    4.9184
   26.715    4.8763
   26.730    4.7183
   26.745    4.8657
   26.760    4.6130
   26.775    4.9816
   26.790    5.1606
   26.805    5.0974
   26.820    5.2343
   26.835    5.0237
   26.850    4.9605
   26.865    4.7393
   26.880    4.9710
   26.895    5.0132
   26.910    4.8868
   26.925    4.7815
   26.940    4.9289
   26.955    4.9921
   26.970    5.0658
   26.985    4.8763
   27.000    5.1080
   27.015    5.0237
   27.030    4.7604
   27.045    4.9816
   27.060    4.8763
   27.075    5.1817
   27.090    5.2027
   27.105    5.0132
   27.120    4.8868
   27.135    5.1080
   27.150    4.9710
   27.165    4.8552
   27.180    5.0869
   27.195    4.7920
   27.210    4.9184
   27.225    4.7288
   27.240    5.1080
   27.255    5.0869
   27.270    5.2554
   27.285    4.7920
   27.300    4.8763
   27.315    4.7288
   27.330    4.6761
   27.345    4.6445
   27.360    5.0026
   27.375    4.8025
   27.390    5.1185
   27.405    4.9184
   27.420    4.9710
   27.435    4.8763
   27.450    4.7393
   27.465    4.5708
   27.480    4.8552
   27.495    5.1395
   27.510    4.8868
   27.525    4.8131
   27.540    4.6972
   27.555    5.0764
   27.570    5.1080
   27.585    4.7815
   27.600    4.9500
   27.615    4.9816
   27.630    4.8447
   27.645    4.9710
   27.660    4.7920
   27.675    4.6972
   27.690    5.2765
   27.705    4.9289
   27.720    5.1395
   27.735    5.0237
   27.750    4.9078
   27.765    4.8552
   27.780    4.6972
   27.795    5.0974
   27.810    5.0342
   27.825    5.0658
   27.840    4.8341
   27.855    4.9078
   27.870    4.8973
   27.885    4.7815
   27.900    5.0974
   27.915    5.1080
   27.930    5.0237
   27.945    5.0974
   27.960    5.5503
   27.975    5.2870
   27.990    5.6556
   28.005    5.8768
   28.020    5.5503
   28.035    5.5608
   28.050    5.1922
   28.065    5.2870
   28.080    5.1080
   28.095    5.2870
   28.110    5.0448
   28.125    4.7183
   28.140    4.6340
   28.155    5.1501
   28.170    5.0342
   28.185    4.7393
   28.200    4.7815
   28.215    4.4234
   28.230    4.8025
   28.245    5.3923
   28.260    4.9184
   28.275    5.2238
   28.290    5.0448
   28.305    4.9394
   28.320    4.9816
   28.335    5.0974
   28.350    5.0553
   28.365    5.2238
   28.380    5.5714
   28.395    5.3712
   28.410    4.8657
   28.425    5.0026
   28.440    5.1817
   28.455    5.0237
   28.470    4.7815
   28.485    4.7393
   28.500    5.0132
   28.515    5.2238
   28.530    5.3712
   28.545    4.7709
   28.560    5.1922
   28.575    5.1185
   28.590    4.8657
   28.605    4.6867
   28.620    5.0342
   28.635    4.9500
   28.650    4.9184
   28.665    5.3502
   28.680    4.9394
   28.695    5.1501
   28.710    4.9500
   28.725    5.1922
   28.740    5.0448
   28.755    4.8131
   28.770    4.9921
   28.785    4.9394
   28.800    4.8025
   28.815    4.8236
   28.830    4.9394
   28.845    4.7183
   28.860    4.7604
   28.875    4.8341
   28.890    4.9078
   28.905    5.1185
   28.920    5.1290
   28.935    5.4976
   28.950    5.4450
   28.965    5.7188
   28.980    5.4028
   28.995    5.2659
   29.010    5.8241
   29.025    5.2238
   29.040    4.9921
   29.055    5.0764
   29.070    5.1711
   29.085    4.7393
   29.100    4.6235
   29.115    4.8341
   29.130    4.8131
   29.145    4.9605
   29.160    4.7183
   29.175    4.6761
   29.190    4.6972
   29.205    4.6235
   29.220    4.9605
   29.235    5.0869
   29.250    4.9710
   29.265    4.8763
   29.280    5.0974
   29.295    4.9710
   29.310    4.9500
   29.325    5.2343
   29.340    5.4239
   29.355    5.5924
   29.370    5.2870
   29.385    5.4660
   29.400    5.7609
   29.415    5.6451
   29.430    5.0026
   29.445    4.9394
   29.460    5.0026
   29.475    4.9710
   29.490    4.8131
   29.505    4.8447
   29.520    4.8236
   29.535    4.6340
   29.550    5.0658
   29.565    4.6761
   29.580    4.9289
   29.595    4.7288
   29.610    4.6445
   29.625    4.7077
   29.640    4.5919
   29.655    4.6024
   29.670    4.8025
   29.685    4.7077
   29.700    4.7709
   29.715    4.6235
   29.730    4.4866
   29.745    4.3602
   29.760    4.8236
   29.775    4.6445
   29.790    4.5498
   29.805    4.8657
   29.820    4.5392
   29.835    4.7183
   29.850    4.5182
   29.865    4.4234
   29.880    4.8657
   29.895    4.7920
   29.910    5.0342
   29.925    5.0342
   29.940    4.6761
   29.955    4.5919
   29.970    4.5603
   29.985    4.4760
   30.000    4.6761
   30.015    4.7393
   30.030    4.5498
   30.045    4.6340
   30.060    4.5498
   30.075    4.3286
   30.090    4.5076
   30.105    4.6235
   30.120    4.6972
   30.135    4.6656
   30.150    4.3918
   30.165    4.4655
   30.180    4.4128
   30.195    4.5919
   30.210    5.0132
   30.225    4.6340
   30.240    4.6445
   30.255    4.5603
   30.270    4.9605
   30.285    5.0132
   30.300    4.5182
   30.315    5.0026
   30.330    4.4655
   30.345    4.5814
   30.360    4.7288
   30.375    4.8025
   30.390    4.8973
   30.405    4.4444
   30.420    4.6340
   30.435    4.6445
   30.450    4.3497
   30.465    4.2654
   30.480    4.4550
   30.495    4.4234
   30.510    4.5182
   30.525    4.2654
   30.540    4.3813
   30.555    4.4866
   30.570    4.4339
   30.585    4.5814
   30.600    4.7288
   30.615    4.6551
   30.630    4.3707
   30.645    4.4971
   30.660    4.6656
   30.675    4.7604
   30.690    4.6235
   30.705    4.2654
   30.720    4.4444
   30.735    4.8131
   30.750    4.4444
   30.765    4.5814
   30.780    4.3813
   30.795    4.4760
   30.810    4.6867
   30.825    4.3391
   30.840    4.4550
   30.855    4.7288
   30.870    4.6551
   30.885    4.6867
   30.900    4.4339
   30.915    4.5919
   30.930    4.2654
   30.945    4.5392
   30.960    4.7077
   30.975    4.4866
   30.990    4.1811
   31.005    4.4444
   31.020    4.7077
   31.035    4.7604
   31.050    4.4550
   31.065    4.3497
   31.080    4.6340
   31.095    4.6235
   31.110    4.4339
   31.125    4.5182
   31.140    4.6024
   31.155    4.5498
   31.170    4.6867
   31.185    4.5182
   31.200    4.6340
   31.215    4.1074
   31.230    4.5498
   31.245    4.5076
   31.260    4.8236
   31.275    4.5182
   31.290    4.1496
   31.305    4.0758
   31.320    4.5182
   31.335    4.2022
   31.350    4.4760
   31.365    4.5708
   31.380    4.3075
   31.395    4.3918
   31.410    4.8973
   31.425    4.8552
   31.440    4.8131
   31.455    4.7815
   31.470    4.8131
   31.485    4.2338
   31.500    4.5076
   31.515    4.7604
   31.530    4.5392
   31.545    4.4971
   31.560    4.5182
   31.575    4.4655
   31.590    4.2654
   31.605    4.3286
   31.620    4.7709
   31.635    4.9289
   31.650    4.5392
   31.665    4.5076
   31.680    4.7183
   31.695    4.7920
   31.710    4.6551
   31.725    4.8025
   31.740    4.8025
   31.755    4.9500
   31.770    5.0869
   31.785    4.8236
   31.800    4.6551
   31.815    4.9710
   31.830    4.8868
   31.845    4.8236
   31.860    4.7077
   31.875    4.5392
   31.890    4.6656
   31.905    4.6445
   31.920    5.0658
   31.935    4.8025
   31.950    4.5182
   31.965    4.6551
   31.980    4.5814
   31.995    4.7183
   32.010    4.8131
   32.025    4.9078
   32.040    5.3081
   32.055    5.5292
   32.070    5.8768
   32.085    5.9400
   32.100    5.8768
   32.115    5.6872
   32.130    5.8452
   32.145    5.4660
   32.160    5.5819
   32.175    5.2133
   32.190    4.9500
   32.205    4.7604
   32.220    4.6024
   32.235    4.2970
   32.250    4.5919
   32.265    4.2022
   32.280    4.0548
   32.295    4.4550
   32.310    4.4339
   32.325    4.1811
   32.340    4.3391
   32.355    4.6445
   32.370    4.2549
   32.385    4.3813
   32.400    4.4128
   32.415    4.5287
   32.430    4.3813
   32.445    4.3497
   32.460    4.3075
   32.475    4.1811
   32.490    4.4866
   32.505    4.6235
   32.520    4.1496
   32.535    4.3813
   32.550    4.4550
   32.565    4.2549
   32.580    4.4023
   32.595    4.5076
   32.610    4.3918
   32.625    4.2338
   32.640    4.0758
   32.655    4.3813
   32.670    4.3286
   32.685    4.8552
   32.700    4.4866
   32.715    4.4550
   32.730    4.3075
   32.745    4.4128
   32.760    4.6972
   32.775    4.3391
   32.790    4.5708
   32.805    4.2127
   32.820    4.1811
   32.835    4.3181
   32.850    4.3181
   32.865    4.2443
   32.880    4.1180
   32.895    4.0548
   32.910    4.2338
   32.925    4.5814
   32.940    4.4234
   32.955    4.1496
   32.970    4.0653
   32.985    4.3497
   33.000    4.4023
   33.015    4.0758
   33.030    4.4444
   33.045    4.2233
   33.060    4.2654
   33.075    4.3181
   33.090    3.9600
   33.105    4.0021
   33.120    4.4339
   33.135    4.0758
   33.150    4.1496
   33.165    4.2970
   33.180    4.3286
   33.195    4.3286
   33.210    4.1285
   33.225    4.2549
   33.240    4.3075
   33.255    3.9810
   33.270    4.1285
   33.285    4.2338
   33.300    3.8968
   33.315    4.2233
   33.330    4.2549
   33.345    4.2127
   33.360    4.1811
   33.375    3.8652
   33.390    4.1390
   33.405    4.0548
   33.420    4.3918
   33.435    4.1180
   33.450    4.2443
   33.465    4.3497
   33.480    4.1601
   33.495    4.2654
   33.510    4.2127
   33.525    4.0126
   33.540    3.9705
   33.555    3.9916
   33.570    4.1074
   33.585    4.0864
   33.600    3.8231
   33.615    4.3181
   33.630    3.8125
   33.645    3.9810
   33.660    4.4444
   33.675    4.3181
   33.690    4.1074
   33.705    4.4023
   33.720    4.6235
   33.735    4.3497
   33.750    4.4444
   33.765    4.5076
   33.780    4.4655
   33.795    5.0342
   33.810    4.6867
   33.825    4.8552
   33.840    4.7499
   33.855    4.7393
   33.870    4.3286
   33.885    4.5182
   33.900    4.7604
   33.915    4.3813
   33.930    4.2127
   33.945    4.4550
   33.960    4.1917
   33.975    4.4234
   33.990    4.5708
   34.005    4.5603
   34.020    4.1917
   34.035    4.1180
   34.050    4.2654
   34.065    4.2759
   34.080    4.2127
   34.095    4.1285
   34.110    4.1601
   34.125    4.2443
   34.140    4.0337
   34.155    4.1180
   34.170    3.9600
   34.185    4.0442
   34.200    4.2022
   34.215    4.1917
   34.230    4.0864
   34.245    3.8020
   34.260    3.7599
   34.275    3.8336
   34.290    4.2443
   34.305    4.2443
   34.320    3.8336
   34.335    3.9916
   34.350    3.8863
   34.365    4.1285
   34.380    4.2865
   34.395    3.9389
   34.410    4.1285
   34.425    4.0232
   34.440    3.9494
   34.455    4.1285
   34.470    3.9916
   34.485    3.8863
   34.500    3.9284
   34.515    3.7704
   34.530    3.9600
   34.545    3.9600
   34.560    4.2233
   34.575    4.1706
   34.590    4.1180
   34.605    3.8757
   34.620    3.7915
   34.635    3.9494
   34.650    4.2338
   34.665    3.9389
   34.680    4.0337
   34.695    4.2759
   34.710    3.9179
   34.725    3.8441
   34.740    4.0126
   34.755    4.0548
   34.770    3.8441
   34.785    3.9810
   34.800    3.9179
   34.815    4.1811
   34.830    4.2759
   34.845    3.7599
   34.860    4.2127
   34.875    3.8231
   34.890    3.8652
   34.905    3.8968
   34.920    3.7493
   34.935    4.1180
   34.950    3.8757
   34.965    4.0758
   34.980    4.4444
   34.995    4.2127
   35.010    4.1601
   35.025    4.0232
   35.040    4.2970
   35.055    4.0232
   35.070    4.1811
   35.085    3.9284
   35.100    3.7599
   35.115    3.8652
   35.130    4.2233
   35.145    4.0653
   35.160    3.9810
   35.175    3.7283
   35.190    3.8652
   35.205    3.9179
   35.220    4.2127
   35.235    4.0653
   35.250    3.9179
   35.265    3.9916
   35.280    3.8441
   35.295    3.4860
   35.310    3.6756
   35.325    3.9600
   35.340    4.0548
   35.355    4.0969
   35.370    4.2338
   35.385    4.1917
   35.400    3.7177
   35.415    3.8968
   35.430    4.0864
   35.445    4.1074
   35.460    3.8441
   35.475    3.9810
   35.490    3.8652
   35.505    3.8757
   35.520    3.8125
   35.535    3.5282
   35.550    4.0864
   35.565    4.3707
   35.580    4.0653
   35.595    3.8020
   35.610    3.9705
   35.625    3.7283
   35.640    3.5387
   35.655    3.8020
   35.670    3.7493
   35.685    3.8125
   35.700    3.8441
   35.715    4.1917
   35.730    4.0864
   35.745    3.9073
   35.760    3.8757
   35.775    3.9916
   35.790    3.7809
   35.805    3.7493
   35.820    4.0337
   35.835    3.7599
   35.850    3.8968
   35.865    3.8547
   35.880    3.9073
   35.895    3.9705
   35.910    4.0232
   35.925    3.8652
   35.940    4.0021
   35.955    3.6230
   35.970    3.7177
   35.985    4.1601
   36.000    4.1074
   36.015    3.9705
   36.030    3.8652
   36.045    4.0126
   36.060    4.0442
   36.075    3.8757
   36.090    3.9073
   36.105    3.9179
   36.120    3.7704
   36.135    3.5387
   36.150    3.7915
   36.165    3.8336
   36.180    3.7704
   36.195    4.0758
   36.210    3.8231
   36.225    3.7072
   36.240    3.6756
   36.255    3.6124
   36.270    3.6230
   36.285    3.6019
   36.300    3.6756
   36.315    3.6862
   36.330    3.5282
   36.345    3.7388
   36.360    3.6967
   36.375    3.8652
   36.390    3.7915
   36.405    3.8231
   36.420    3.9600
   36.435    3.5808
   36.450    3.5703
   36.465    3.7493
   36.480    3.7493
   36.495    3.8441
   36.510    3.8336
   36.525    3.8441
   36.540    3.9179
   36.555    3.8968
   36.570    3.7599
   36.585    3.5808
   36.600    3.6335
   36.615    3.8231
   36.630    3.7704
   36.645    3.7388
   36.660    3.7599
   36.675    3.5703
   36.690    3.8441
   36.705    4.0126
   36.720    3.5914
   36.735    3.6967
   36.750    3.6651
   36.765    3.5282
   36.780    3.7493
   36.795    3.9494
   36.810    3.7072
   36.825    3.7915
   36.840    3.8652
   36.855    3.8336
   36.870    3.8020
   36.885    3.4860
   36.900    3.6124
   36.915    3.6862
   36.930    3.8231
   36.945    3.5387
   36.960    3.3702
   36.975    3.2017
   36.990    3.6440
   37.005    3.8547
   37.020    3.3597
   37.035    3.9179
   37.050    3.9705
   37.065    3.9810
   37.080    3.8547
   37.095    3.5703
   37.110    3.7388
   37.125    3.8547
   37.140    3.6546
   37.155    3.5914
   37.170    3.7915
   37.185    3.9179
   37.200    3.7283
   37.215    3.6862
   37.230    3.4229
   37.245    3.8757
   37.260    3.7072
   37.275    3.6967
   37.290    3.5914
   37.305    3.8020
   37.320    3.7177
   37.335    3.9073
   37.350    3.7915
   37.365    3.3597
   37.380    3.9494
   37.395    3.8125
   37.410    4.0548
   37.425    3.9284
   37.440    3.8020
   37.455    3.9600
   37.470    3.6967
   37.485    3.3070
   37.500    3.8125
   37.515    3.8968
   37.530    3.6124
   37.545    3.5176
   37.560    3.6335
   37.575    3.8336
   37.590    3.4966
   37.605    3.5176
   37.620    3.4544
   37.635    3.6756
   37.650    3.5808
   37.665    3.8652
   37.680    3.5914
   37.695    3.6124
   37.710    3.9705
   37.725    3.9494
   37.740    3.5176
   37.755    3.4650
   37.770    3.6651
   37.785    3.6862
   37.800    3.5282
   37.815    3.8757
   37.830    3.4860
   37.845    3.5914
   37.860    3.9916
   37.875    3.7177
   37.890    3.5282
   37.905    3.6335
   37.920    3.6440
   37.935    3.8125
   37.950    3.6230
   37.965    3.6019
   37.980    3.7072
   37.995    3.9389
   38.010    3.8020
   38.025    3.7599
   38.040    3.4439
   38.055    3.6124
   38.070    3.4650
   38.085    3.6651
   38.100    3.8441
   38.115    3.4755
   38.130    3.4966
   38.145    3.6124
   38.160    3.5387
   38.175    3.7072
   38.190    3.9600
   38.205    3.5703
   38.220    3.3597
   38.235    4.0969
   38.250    3.5914
   38.265    3.6756
   38.280    3.6019
   38.295    3.7493
   38.310    3.6651
   38.325    3.6967
   38.340    3.4018
   38.355    3.5808
   38.370    3.7283
   38.385    3.7599
   38.400    3.6651
   38.415    3.7599
   38.430    3.7283
   38.445    3.6230
   38.460    3.6756
   38.475    3.5176
   38.490    3.8757
   38.505    3.8547
   38.520    3.6651
   38.535    3.6967
   38.550    3.7704
   38.565    3.9916
   38.580    4.2443
   38.595    4.1285
   38.610    3.9389
   38.625    4.0548
   38.640    3.6862
   38.655    3.7388
   38.670    3.9179
   38.685    3.7915
   38.700    3.4123
   38.715    3.5387
   38.730    3.6862
   38.745    3.6019
   38.760    3.3175
   38.775    3.6230
   38.790    3.6440
   38.805    3.5387
   38.820    3.4966
   38.835    3.6019
   38.850    3.8757
   38.865    4.1285
   38.880    3.7704
   38.895    3.6230
   38.910    3.8231
   38.925    3.8441
   38.940    3.6335
   38.955    3.6967
   38.970    3.6230
   38.985    3.7493
   39.000    3.5598
   39.015    3.4755
   39.030    3.6019
   39.045    3.8547
   39.060    3.6967
   39.075    3.5387
   39.090    3.3913
   39.105    3.5914
   39.120    3.7177
   39.135    3.7915
   39.150    3.5387
   39.165    3.6862
   39.180    3.7283
   39.195    3.4650
   39.210    3.7493
   39.225    3.7915
   39.240    3.8652
   39.255    3.5071
   39.270    3.6546
   39.285    3.7388
   39.300    3.7072
   39.315    3.7915
   39.330    3.8231
   39.345    3.7177
   39.360    3.7915
   39.375    3.6862
   39.390    3.9916
   39.405    4.0969
   39.420    3.8336
   39.435    3.9179
   39.450    3.8441
   39.465    3.7915
   39.480    3.6019
   39.495    3.4650
   39.510    3.7177
   39.525    3.9389
   39.540    3.7072
   39.555    3.6862
   39.570    3.6230
   39.585    3.4018
   39.600    3.5492
   39.615    3.7809
   39.630    3.2965
   39.645    3.3913
   39.660    3.6440
   39.675    3.7599
   39.690    3.7072
   39.705    3.5808
   39.720    3.4334
   39.735    3.7177
   39.750    3.7493
   39.765    3.5176
   39.780    3.5071
   39.795    3.7704
   39.810    3.8441
   39.825    3.4650
   39.840    3.7072
   39.855    3.5176
   39.870    3.4544
   39.885    3.7177
   39.900    3.8125
   39.915    3.8020
   39.930    3.6335
   39.945    3.5598
   39.960    3.7599
   39.975    3.5703
   39.990    3.4755
