    1.500   33.1964
    1.515   32.6066
    1.530   33.7757
    1.545   32.9121
    1.560   32.8173
    1.575   32.3012
    1.590   31.2059
    1.605   31.4165
    1.620   31.1532
    1.635   30.7109
    1.650   30.8162
    1.665   30.8268
    1.680   29.8999
    1.695   29.9315
    1.710   29.3207
    1.725   29.7209
    1.740   28.8468
    1.755   28.5624
    1.770   28.5835
    1.785   27.7514
    1.800   27.8778
    1.815   26.6351
    1.830   26.2665
    1.845   26.1506
    1.860   26.6772
    1.875   26.5508
    1.890   26.6035
    1.905   25.6661
    1.920   25.4450
    1.935   25.9610
    1.950   24.7183
    1.965   24.8341
    1.980   25.0658
    1.995   24.0758
    2.010   23.8231
    2.025   24.3602
    2.040   24.6867
    2.055   24.5392
    2.070   23.9389
    2.085   23.3913
    2.100   22.7699
    2.115   23.3386
    2.130   22.8015
    2.145   22.3802
    2.160   23.3070
    2.175   22.7067
    2.190   22.4539
    2.205   22.1801
    2.220   22.4434
    2.235   22.0537
    2.250   20.8426
    2.265   21.7483
    2.280   21.1796
    2.295   21.2322
    2.310   21.5166
    2.325   20.9584
    2.340   20.4002
    2.355   20.6530
    2.370   21.0111
    2.385   21.2533
    2.400   21.1585
    2.415   20.4950
    2.430   19.8315
    2.445   20.4950
    2.460   20.8636
    2.475   20.3370
    2.490   19.9684
    2.505   20.2106
    2.520   20.3897
    2.535   20.1159
    2.550   20.5055
    2.565   20.8320
    2.580   20.7478
    2.595   20.6635
    2.610   20.6951
    2.625   20.8215
    2.640   20.3581
    2.655   20.2633
    2.670   20.4845
    2.685   19.7156
    2.700   20.4950
    2.715   20.7056
    2.730   21.0743
    2.745   20.6319
    2.760   20.4318
    2.775   20.8110
    2.790   21.0321
    2.805   20.5687
    2.820   20.9163
    2.835   20.9689
    2.850   21.3270
    2.865   21.3586
    2.880   20.9268
    2.895   22.0116
    2.910   21.3586
    2.925   21.5798
    2.940   21.9168
    2.955   22.1696
    2.970   22.1485
    2.985   21.8957
    3.000   21.8431
    3.015   21.9168
    3.030   22.8015
    3.045   23.4123
    3.060   23.4123
    3.075   23.6967
    3.090   23.9600
    3.105   24.0021
    3.120   24.6024
    3.135   24.9500
    3.150   24.9184
    3.165   25.4660
    3.180   25.9610
    3.195   26.6140
    3.210   26.6245
    3.225   26.6351
    3.240   27.7199
    3.255   28.0463
    3.270   28.0463
    3.285   29.6367
    3.300   30.1211
    3.315   30.2686
    3.330   30.6266
    3.345   31.1532
    3.360   31.9747
    3.375   33.0384
    3.390   33.4176
    3.405   34.9763
    3.420   34.8078
    3.435   35.8083
    3.450   37.3881
    3.465   38.4939
    3.480   39.6840
    3.495   41.0216
    3.510   41.0743
    3.525   41.9273
    3.540   42.9384
    3.555   45.2765
    3.570   47.6567
    3.585   48.4992
    3.600   50.1211
    3.615   52.0485
    3.630   54.6182
    3.645   57.1459
    3.660   59.4629
    3.675   61.4850
    3.690   66.1611
    3.705   68.9100
    3.720   70.7530
    3.735   75.4608
    3.750   78.6730
    3.765   83.2333
    3.780   87.5935
    3.795   94.5445
    3.810  102.3486
    3.825  111.9010
    3.840  120.4529
    3.855  134.4603
    3.870  148.0464
    3.885  168.0569
    3.900  176.0506
    3.915  176.7562
    3.930  162.2012
    3.945  137.8304
    3.960  101.3376
    3.975   67.6672
    3.990   43.8125
    4.005   31.8483
    4.020   24.9184
    4.035   21.0005
    4.050   18.5255
    4.065   17.0300
    4.080   15.7135
    4.095   14.4813
    4.110   13.4176
    4.125   13.2807
    4.140   13.3228
    4.155   12.3644
    4.170   11.7641
    4.185   11.8694
    4.200   12.0379
    4.215   11.6693
    4.230   11.3007
    4.245   11.3323
    4.260   11.0585
    4.275   11.0585
    4.290   11.1216
    4.305   10.8268
    4.320    9.9315
    4.335   10.3633
    4.350   10.0053
    4.365   10.2054
    4.380    9.8157
    4.395    9.7420
    4.410   10.0895
    4.425   10.2475
    4.440    9.7525
    4.455   10.0158
    4.470   10.0369
    4.485   10.0685
    4.500    9.9631
    4.515   10.2264
    4.530   10.4055
    4.545   10.1001
    4.560    9.9421
    4.575   10.0263
    4.590   10.4371
    4.605   10.2686
    4.620   10.1316
    4.635   10.4160
    4.650   10.3107
    4.665   10.3633
    4.680   10.8162
    4.695   10.1948
    4.710   10.3002
    4.725   10.5213
    4.740   10.4581
    4.755   10.4897
    4.770   10.3633
    4.785   10.4476
    4.800   10.9005
    4.815   10.5740
    4.830   10.6688
    4.845   11.4587
    4.860   11.6272
    4.875   11.0690
    4.890   11.1743
    4.905   11.4903
    4.920   11.6272
    4.935   11.5956
    4.950   12.0484
    4.965   12.0274
    4.980   12.1116
    4.995   12.2907
    5.010   12.2275
    5.025   12.3539
    5.040   12.5329
    5.055   12.8594
    5.070   13.5334
    5.085   14.0284
    5.100   13.8705
    5.115   14.5550
    5.130   14.8605
    5.145   15.3976
    5.160   15.1343
    5.175   15.9663
    5.190   16.0821
    5.205   16.3770
    5.220   16.4086
    5.235   17.5566
    5.250   18.2938
    5.265   18.9995
    5.280   19.4313
    5.295   20.6740
    5.310   21.1058
    5.325   22.6014
    5.340   23.3597
    5.355   23.5282
    5.370   25.1817
    5.385   27.2354
    5.400   29.2891
    5.415   30.9110
    5.430   32.3117
    5.445   35.5345
    5.460   38.5571
    5.475   43.3491
    5.490   47.7725
    5.505   51.8483
    5.520   55.5766
    5.535   55.8610
    5.550   52.3749
    5.565   45.6135
    5.580   34.6498
    5.595   25.0132
    5.610   18.3149
    5.625   14.0284
    5.640   12.4171
    5.655   10.9531
    5.670   10.2475
    5.685    9.4050
    5.700    9.3312
    5.715    9.6577
    5.730    9.4576
    5.745    8.6888
    5.760    8.6361
    5.775    8.8994
    5.790    8.4044
    5.805    8.5203
    5.820    8.4255
    5.835    7.9726
    5.850    7.8252
    5.865    8.0042
    5.880    8.1411
    5.895    7.9621
    5.910    8.1833
    5.925    8.2149
    5.940    7.9410
    5.955    7.8673
    5.970    7.8146
    5.985    8.0358
    6.000    8.0358
    6.015    7.8673
    6.030    8.3096
    6.045    8.2991
    6.060    7.7304
    6.075    7.3723
    6.090    7.6145
    6.105    7.7409
    6.120    8.2149
    6.135    8.0569
    6.150    7.8568
    6.165    7.9200
    6.180    8.1517
    6.195    7.8778
    6.210    8.1938
    6.225    8.3728
    6.240    7.7620
    6.255    8.3834
    6.270    7.8252
    6.285    7.8357
    6.300    7.8357
    6.315    8.2254
    6.330    8.7098
    6.345    8.7730
    6.360    8.7204
    6.375    8.6467
    6.390    8.6361
    6.405    9.0785
    6.420    8.7204
    6.435    9.0469
    6.450    8.8994
    6.465    9.7420
    6.480    9.0153
    6.495    9.7525
    6.510    9.5313
    6.525   10.2159
    6.540   10.0053
    6.555   10.1001
    6.570   10.6161
    6.585   10.5003
    6.600   11.4587
    6.615   11.5008
    6.630   11.2796
    6.645   11.7852
    6.660   12.2170
    6.675   13.2385
    6.690   14.1548
    6.705   14.9868
    6.720   16.5034
    6.735   17.3986
    6.750   18.4308
    6.765   19.3049
    6.780   19.3576
    6.795   18.9679
    6.810   17.7778
    6.825   14.9342
    6.840   12.2696
    6.855   10.6372
    6.870    9.3418
    6.885    8.3096
    6.900    7.9831
    6.915    8.1411
    6.930    8.1833
    6.945    7.7725
    6.960    7.6777
    6.975    8.0990
    6.990    7.8884
    7.005    7.3302
    7.020    7.3934
    7.035    7.5724
    7.050    7.6461
    7.065    7.4776
    7.080    7.6356
    7.095    7.7409
    7.110    7.7304
    7.125    7.5619
    7.140    7.2670
    7.155    7.8252
    7.170    7.6883
    7.185    7.4987
    7.200    7.6251
    7.215    7.7093
    7.230    7.9200
    7.245    7.7199
    7.260    7.5619
    7.275    7.6145
    7.290    7.7936
    7.305    7.6145
    7.320    7.7830
    7.335    7.8041
    7.350    7.7093
    7.365    7.9726
    7.380    7.8989
    7.395    7.9937
    7.410    7.9937
    7.425    7.8989
    7.440    8.4781
    7.455    8.2991
    7.470    8.6993
    7.485    8.8678
    7.500    8.6783
    7.515    8.5308
    7.530    9.0363
    7.545    8.8994
    7.560    9.0679
    7.575    9.2891
    7.590    9.1943
    7.605    9.8473
    7.620    9.6367
    7.635    9.4050
    7.650   10.4581
    7.665   10.6898
    7.680   11.0585
    7.695   11.7220
    7.710   11.9537
    7.725   11.6693
    7.740   12.7541
    7.755   13.4281
    7.770   14.1969
    7.785   15.3765
    7.800   16.4192
    7.815   17.3354
    7.830   17.5145
    7.845   15.9874
    7.860   15.5029
    7.875   13.7967
    7.890   11.7430
    7.905    9.7525
    7.920    9.1732
    7.935    8.4676
    7.950    8.0674
    7.965    8.2254
    7.980    7.9410
    7.995    7.8673
    8.010    7.3091
    8.025    7.5408
    8.040    7.5092
    8.055    7.5935
    8.070    7.3302
    8.085    7.4776
    8.100    7.3512
    8.115    7.4039
    8.130    7.4250
    8.145    7.3302
    8.160    7.3828
    8.175    7.0774
    8.190    7.1722
    8.205    6.9089
    8.220    7.2880
    8.235    7.2670
    8.250    7.4250
    8.265    7.6040
    8.280    7.6145
    8.295    7.7620
    8.310    7.4144
    8.325    7.5197
    8.340    7.6251
    8.355    7.4460
    8.370    7.4882
    8.385    7.1722
    8.400    7.4144
    8.415    7.1722
    8.430    7.2459
    8.445    7.3723
    8.460    7.5619
    8.475    7.5303
    8.490    7.5619
    8.505    7.4039
    8.520    6.9826
    8.535    7.2880
    8.550    7.3934
    8.565    7.0985
    8.580    7.5619
    8.595    7.4355
    8.610    7.8357
    8.625    7.6672
    8.640    7.7830
    8.655    7.9200
    8.670    7.5829
    8.685    7.9094
    8.700    7.9937
    8.715    8.2675
    8.730    8.0569
    8.745    8.6361
    8.760    8.4887
    8.775    8.1095
    8.790    8.3834
    8.805    7.8778
    8.820    8.2675
    8.835    7.5619
    8.850    7.4776
    8.865    7.6672
    8.880    7.6251
    8.895    7.4460
    8.910    7.0774
    8.925    7.5829
    8.940    7.5724
    8.955    7.5303
    8.970    7.5619
    8.985    7.8778
    9.000    7.4882
    9.015    7.6883
    9.030    7.4882
    9.045    7.0563
    9.060    7.4566
    9.075    7.9410
    9.090    7.9410
    9.105    7.6356
    9.120    8.2149
    9.135    8.3939
    9.150    8.2570
    9.165    7.6672
    9.180    8.1622
    9.195    8.2570
    9.210    8.4255
    9.225    8.5097
    9.240    9.0785
    9.255    9.1627
    9.270    9.0258
    9.285    8.9100
    9.300    9.1943
    9.315   10.3107
    9.330    9.8473
    9.345    9.7209
    9.360   10.4055
    9.375   11.2586
    9.390   11.5113
    9.405   12.1116
    9.420   12.0484
    9.435   13.0700
    9.450   13.0806
    9.465   14.2075
    9.480   15.2817
    9.495   16.8826
    9.510   17.8410
    9.525   19.8420
    9.540   21.1480
    9.555   23.5071
    9.570   26.1822
    9.585   25.8031
    9.600   26.1717
    9.615   24.9710
    9.630   22.0853
    9.645   18.4623
    9.660   14.6709
    9.675   11.2796
    9.690   10.0263
    9.705    9.3523
    9.720    8.7204
    9.735    8.6467
    9.750    8.8152
    9.765    8.3202
    9.780    8.1727
    9.795    7.7304
    9.810    7.6988
    9.825    7.1090
    9.840    8.0147
    9.855    7.9516
    9.870    7.9621
    9.885    7.4776
    9.900    7.0248
    9.915    7.1195
    9.930    7.5935
    9.945    7.4882
    9.960    7.7409
    9.975    7.3618
    9.990    7.3091
   10.005    7.5935
   10.020    7.8041
   10.035    7.6251
   10.050    7.4882
   10.065    8.4781
   10.080    8.1517
   10.095    7.6672
   10.110    8.3728
   10.125    8.1411
   10.140    8.5097
   10.155    8.4466
   10.170    8.4887
   10.185    8.9205
   10.200    8.8257
   10.215    9.0047
   10.230    9.3102
   10.245   10.0895
   10.260   10.4792
   10.275   10.8268
   10.290   11.3217
   10.305   11.4903
   10.320   12.3117
   10.335   13.4071
   10.350   14.0074
   10.365   13.8283
   10.380   13.3017
   10.395   12.6804
   10.410   11.5113
   10.425   10.3739
   10.440    9.4471
   10.455    8.7204
   10.470    7.7199
   10.485    7.7936
   10.500    7.6567
   10.515    7.3407
   10.530    7.7725
   10.545    7.5092
   10.560    7.3512
   10.575    7.5197
   10.590    7.0248
   10.605    7.0248
   10.620    7.2249
   10.635    7.1933
   10.650    7.1722
   10.665    7.0353
   10.680    7.0142
   10.695    7.2459
   10.710    7.4776
   10.725    7.6777
   10.740    7.1195
   10.755    7.5513
   10.770    7.4460
   10.785    7.6461
   10.800    7.7936
   10.815    7.8252
   10.830    7.8252
   10.845    7.9937
   10.860    8.1938
   10.875    8.7098
   10.890    8.6677
   10.905    8.9626
   10.920    8.5624
   10.935    8.4781
   10.950    8.9731
   10.965    9.2364
   10.980   10.0895
   10.995   10.3739
   11.010   11.0479
   11.025   11.3112
   11.040   12.1327
   11.055   12.6277
   11.070   12.9015
   11.085   12.9015
   11.100   13.1016
   11.115   12.1011
   11.130   10.7320
   11.145    9.3944
   11.160    8.5835
   11.175    7.6461
   11.190    7.8568
   11.205    7.4355
   11.220    7.0037
   11.235    6.5613
   11.250    6.4982
   11.265    6.7825
   11.280    7.0353
   11.295    7.0248
   11.310    6.8878
   11.325    7.1617
   11.340    7.1617
   11.355    7.0879
   11.370    7.5513
   11.385    7.3302
   11.400    7.0774
   11.415    6.8562
   11.430    7.2354
   11.445    7.3196
   11.460    7.2459
   11.475    7.2775
   11.490    7.6461
   11.505    7.5619
   11.520    8.0463
   11.535    7.6145
   11.550    8.1095
   11.565    8.3412
   11.580    8.4150
   11.595    8.5097
   11.610    9.0469
   11.625    9.1732
   11.640    9.0995
   11.655    9.7946
   11.670   10.1211
   11.685   11.3744
   11.700   11.9431
   11.715   12.3117
   11.730   12.9015
   11.745   13.3228
   11.760   13.7967
   11.775   13.0595
   11.790   12.0800
   11.805   11.5956
   11.820    9.7314
   11.835    8.7309
   11.850    7.8462
   11.865    8.1727
   11.880    7.6356
   11.895    7.3723
   11.910    7.2459
   11.925    6.8773
   11.940    6.5613
   11.955    6.8141
   11.970    6.6351
   11.985    6.4876
   12.000    6.7509
   12.015    6.4455
   12.030    6.5087
   12.045    6.5508
   12.060    6.8246
   12.075    6.9089
   12.090    6.9510
   12.105    6.8457
   12.120    6.3823
   12.135    6.5929
   12.150    6.6667
   12.165    6.4560
   12.180    6.7299
   12.195    6.8668
   12.210    7.0669
   12.225    6.7615
   12.240    6.8668
   12.255    6.5719
   12.270    6.8352
   12.285    6.7509
   12.300    6.9089
   12.315    7.0879
   12.330    6.8246
   12.345    6.8457
   12.360    7.1195
   12.375    7.4250
   12.390    7.6145
   12.405    7.8568
   12.420    7.4039
   12.435    7.2565
   12.450    6.9826
   12.465    6.7404
   12.480    6.6772
   12.495    6.9510
   12.510    6.7299
   12.525    6.4560
   12.540    6.5298
   12.555    6.5087
   12.570    6.1085
   12.585    6.6035
   12.600    7.0985
   12.615    6.7088
   12.630    6.3402
   12.645    6.4139
   12.660    6.9300
   12.675    6.8352
   12.690    6.6877
   12.705    6.6877
   12.720    7.0037
   12.735    6.5929
   12.750    6.8246
   12.765    6.8036
   12.780    7.0037
   12.795    6.9932
   12.810    7.1617
   12.825    7.3828
   12.840    6.9405
   12.855    7.2986
   12.870    7.4566
   12.885    7.4250
   12.900    7.6567
   12.915    8.4676
   12.930    8.9415
   12.945    9.7841
   12.960    9.6367
   12.975   10.4687
   12.990   11.2270
   13.005   10.5635
   13.020   10.2370
   13.035    9.9947
   13.050    9.3312
   13.065    8.6572
   13.080    7.8462
   13.095    7.0353
   13.110    7.4355
   13.125    7.1301
   13.140    6.8141
   13.155    6.5298
   13.170    6.6035
   13.185    6.9510
   13.200    6.9089
   13.215    6.8457
   13.230    6.7720
   13.245    6.6456
   13.260    6.5824
   13.275    6.3086
   13.290    6.2875
   13.305    6.4666
   13.320    6.5403
   13.335    6.7720
   13.350    6.8246
   13.365    6.7509
   13.380    6.6245
   13.395    6.8036
   13.410    6.8457
   13.425    6.9194
   13.440    7.1301
   13.455    6.8773
   13.470    7.1511
   13.485    7.2249
   13.500    7.2670
   13.515    7.4250
   13.530    7.6777
   13.545    8.0990
   13.560    8.2570
   13.575    8.9100
   13.590    8.9100
   13.605    7.9094
   13.620    7.4987
   13.635    7.6251
   13.650    7.4355
   13.665    6.8352
   13.680    6.9300
   13.695    6.3402
   13.710    6.3928
   13.725    6.5613
   13.740    6.7509
   13.755    6.8457
   13.770    6.1927
   13.785    6.4350
   13.800    6.4982
   13.815    6.4139
   13.830    6.5192
   13.845    6.5508
   13.860    6.7825
   13.875    6.8352
   13.890    6.5403
   13.905    6.5824
   13.920    6.9616
   13.935    6.7930
   13.950    6.9616
   13.965    6.7615
   13.980    7.2775
   13.995    7.0563
   14.010    7.3512
   14.025    7.7936
   14.040    7.9726
   14.055    8.6993
   14.070    8.3939
   14.085    8.4571
   14.100    9.1732
   14.115   10.0579
   14.130   10.5845
   14.145   10.2580
   14.160    9.6261
   14.175    9.4365
   14.190    8.5624
   14.205    7.7936
   14.220    7.6251
   14.235    6.8141
   14.250    6.8668
   14.265    6.6983
   14.280    6.7193
   14.295    6.6351
   14.310    6.7088
   14.325    6.3823
   14.340    6.5087
   14.355    6.9616
   14.370    6.3086
   14.385    6.3191
   14.400    6.2875
   14.415    6.2138
   14.430    6.1717
   14.445    6.1506
   14.460    6.3296
   14.475    6.4244
   14.490    6.1401
   14.505    6.1506
   14.520    5.9084
   14.535    6.5613
   14.550    6.6561
   14.565    6.5719
   14.580    6.2138
   14.595    6.1295
   14.610    6.2349
   14.625    5.8557
   14.640    5.9189
   14.655    6.2770
   14.670    6.4350
   14.685    6.0348
   14.700    6.1927
   14.715    6.2875
   14.730    6.2033
   14.745    6.1085
   14.760    6.5087
   14.775    6.8036
   14.790    6.3402
   14.805    5.9294
   14.820    6.0348
   14.835    6.5508
   14.850    6.5508
   14.865    6.2981
   14.880    6.4034
   14.895    6.6772
   14.910    6.3718
   14.925    6.2981
   14.940    5.9821
   14.955    6.1085
   14.970    6.1822
   14.985    6.3507
   15.000    6.3823
   15.015    6.0874
   15.030    6.2770
   15.045    6.7193
   15.060    6.4982
   15.075    6.4771
   15.090    6.5613
   15.105    6.8246
   15.120    6.8036
   15.135    6.7615
   15.150    7.1617
   15.165    6.8457
   15.180    6.4455
   15.195    7.1722
   15.210    7.6988
   15.225    7.4987
   15.240    6.8457
   15.255    6.7930
   15.270    6.4771
   15.285    6.5613
   15.300    6.3086
   15.315    6.4244
   15.330    6.2454
   15.345    6.3086
   15.360    6.3402
   15.375    6.4876
   15.390    6.5087
   15.405    6.5298
   15.420    6.1295
   15.435    6.2875
   15.450    6.1295
   15.465    6.3086
   15.480    6.1717
   15.495    6.2559
   15.510    5.9821
   15.525    6.4350
   15.540    6.3823
   15.555    6.2875
   15.570    6.3086
   15.585    6.2665
   15.600    6.2138
   15.615    6.6140
   15.630    6.1717
   15.645    6.0348
   15.660    5.9716
   15.675    6.1401
   15.690    6.2243
   15.705    6.3823
   15.720    6.0874
   15.735    6.0453
   15.750    6.4244
   15.765    6.5087
   15.780    6.3718
   15.795    6.4350
   15.810    6.2138
   15.825    6.2243
   15.840    5.9400
   15.855    6.4771
   15.870    6.5403
   15.885    6.2033
   15.900    6.2559
   15.915    6.4244
   15.930    6.2559
   15.945    6.5508
   15.960    6.4034
   15.975    6.2243
   15.990    6.3612
   16.005    6.2033
   16.020    6.4876
   16.035    6.3296
   16.050    6.7193
   16.065    6.4034
   16.080    6.6140
   16.095    6.8036
   16.110    6.8457
   16.125    6.7299
   16.140    6.8036
   16.155    6.9405
   16.170    7.2354
   16.185    7.0142
   16.200    7.2775
   16.215    6.5613
   16.230    6.6456
   16.245    6.9932
   16.260    6.7720
   16.275    6.4455
   16.290    6.9616
   16.305    6.5508
   16.320    6.2770
   16.335    6.3823
   16.350    6.2875
   16.365    6.4666
   16.380    6.6351
   16.395    6.2454
   16.410    6.2033
   16.425    6.4244
   16.440    6.4244
   16.455    6.9616
   16.470    6.8457
   16.485    6.4560
   16.500    6.0769
   16.515    6.2875
   16.530    7.0248
   16.545    6.5824
   16.560    6.2875
   16.575    6.4455
   16.590    7.2775
   16.605    7.4566
   16.620    7.7304
   16.635    7.8884
   16.650    7.8778
   16.665    7.0879
   16.680    7.0563
   16.695    7.0248
   16.710    7.1301
   16.725    6.8562
   16.740    6.8246
   16.755    7.1301
   16.770    6.5508
   16.785    6.4771
   16.800    6.5192
   16.815    6.5403
   16.830    6.5403
   16.845    6.8036
   16.860    6.6351
   16.875    6.6561
   16.890    6.8668
   16.905    7.0774
   16.920    6.5929
   16.935    6.8668
   16.950    7.0985
   16.965    7.0142
   16.980    6.7930
   16.995    7.1933
   17.010    7.5829
   17.025    7.8041
   17.040    8.2570
   17.055    8.5835
   17.070    9.0469
   17.085    9.5313
   17.100    9.6577
   17.115    9.6051
   17.130    9.7209
   17.145    9.1943
   17.160    8.7625
   17.175    8.1622
   17.190    7.8357
   17.205    7.3723
   17.220    6.8562
   17.235    6.5719
   17.250    7.0142
   17.265    6.7088
   17.280    6.4455
   17.295    6.5403
   17.310    6.6351
   17.325    6.2243
   17.340    6.5508
   17.355    6.6035
   17.370    6.4560
   17.385    6.5508
   17.400    6.3296
   17.415    6.5929
   17.430    6.4350
   17.445    6.5298
   17.460    6.6667
   17.475    7.0669
   17.490    6.8562
   17.505    6.6351
   17.520    7.1406
   17.535    7.0037
   17.550    7.0669
   17.565    7.2565
   17.580    6.7615
   17.595    6.5824
   17.610    6.5613
   17.625    6.8668
   17.640    6.6140
   17.655    6.6877
   17.670    6.3718
   17.685    6.4666
   17.700    6.3612
   17.715    6.4771
   17.730    6.4139
   17.745    6.4034
   17.760    6.5087
   17.775    6.8773
   17.790    6.8773
   17.805    6.3086
   17.820    6.4560
   17.835    6.6561
   17.850    6.4771
   17.865    6.5298
   17.880    6.2349
   17.895    6.5192
   17.910    7.0353
   17.925    6.8036
   17.940    6.5824
   17.955    6.6877
   17.970    6.6456
   17.985    6.7404
   18.000    6.9405
   18.015    6.9300
   18.030    6.4350
   18.045    6.5613
   18.060    6.7720
   18.075    6.7615
   18.090    6.3507
   18.105    6.1295
   18.120    5.9400
   18.135    5.9926
   18.150    6.5613
   18.165    6.6983
   18.180    6.7088
   18.195    6.2770
   18.210    6.0242
   18.225    6.2770
   18.240    6.3507
   18.255    6.2981
   18.270    7.1406
   18.285    6.5508
   18.300    6.3296
   18.315    6.6035
   18.330    6.8246
   18.345    6.9510
   18.360    7.0879
   18.375    7.2143
   18.390    7.0353
   18.405    7.3618
   18.420    7.0774
   18.435    7.2038
   18.450    7.1195
   18.465    7.1617
   18.480    7.3618
   18.495    7.0142
   18.510    6.7193
   18.525    7.0142
   18.540    6.7088
   18.555    6.6140
   18.570    6.1085
   18.585    6.4560
   18.600    6.6140
   18.615    6.2349
   18.630    6.2981
   18.645    6.3928
   18.660    6.8246
   18.675    5.9610
   18.690    6.5929
   18.705    6.5824
   18.720    6.8457
   18.735    6.2033
   18.750    6.5824
   18.765    6.6561
   18.780    6.6877
   18.795    6.9405
   18.810    6.5824
   18.825    6.8562
   18.840    7.3091
   18.855    7.1195
   18.870    6.7404
   18.885    6.3823
   18.900    6.6667
   18.915    6.8141
   18.930    7.0458
   18.945    7.0458
   18.960    7.1195
   18.975    7.0985
   18.990    7.2565
   19.005    8.1411
   19.020    7.6672
   19.035    7.4671
   19.050    7.7199
   19.065    8.1622
   19.080    7.5092
   19.095    7.0563
   19.110    6.8457
   19.125    6.4666
   19.140    6.5192
   19.155    6.1506
   19.170    6.0664
   19.185    6.2665
   19.200    6.4876
   19.215    6.2559
   19.230    6.4455
   19.245    6.7509
   19.260    6.6140
   19.275    6.6140
   19.290    6.4560
   19.305    6.4455
   19.320    6.3507
   19.335    6.5719
   19.350    6.3928
   19.365    6.6035
   19.380    6.5929
   19.395    6.6351
   19.410    6.5192
   19.425    6.6245
   19.440    6.4455
   19.455    6.5298
   19.470    6.4244
   19.485    6.6561
   19.500    6.6561
   19.515    6.6772
   19.530    6.3823
   19.545    6.8352
   19.560    6.6772
   19.575    6.8036
   19.590    6.9089
   19.605    7.0985
   19.620    7.1722
   19.635    6.7299
   19.650    7.5303
   19.665    7.2249
   19.680    7.1511
   19.695    7.2249
   19.710    6.9300
   19.725    6.7193
   19.740    6.6140
   19.755    7.1406
   19.770    6.5508
   19.785    6.2349
   19.800    6.6140
   19.815    6.7404
   19.830    6.3402
   19.845    6.3507
   19.860    6.2770
   19.875    6.7720
   19.890    6.5824
   19.905    6.5719
   19.920    6.7193
   19.935    6.6351
   19.950    6.2665
   19.965    6.8457
   19.980    6.8457
   19.995    7.0037
   20.010    6.4455
   20.025    6.6667
   20.040    6.4666
   20.055    6.1506
   20.070    6.6140
   20.085    6.5403
   20.100    6.4034
   20.115    6.7404
   20.130    6.8562
   20.145    6.5192
   20.160    6.1085
   20.175    6.3402
   20.190    6.5192
   20.205    6.3507
   20.220    6.7193
   20.235    6.9616
   20.250    6.7615
   20.265    6.8878
   20.280    6.8878
   20.295    6.7720
   20.310    6.8878
   20.325    7.5619
   20.340    7.5303
   20.355    7.6883
   20.370    7.6145
   20.385    8.1938
   20.400    8.1095
   20.415    8.6045
   20.430    8.9310
   20.445    8.6572
   20.460    8.3412
   20.475    8.5097
   20.490    8.6045
   20.505    7.8884
   20.520    7.4355
   20.535    7.0248
   20.550    6.6245
   20.565    6.4876
   20.580    6.7825
   20.595    6.9510
   20.610    6.8668
   20.625    6.8352
   20.640    6.6035
   20.655    6.5613
   20.670    6.3718
   20.685    6.6456
   20.700    6.6772
   20.715    6.5613
   20.730    6.3086
   20.745    6.5929
   20.760    6.4244
   20.775    6.6035
   20.790    6.5719
   20.805    6.6035
   20.820    6.4666
   20.835    6.4771
   20.850    6.7299
   20.865    6.4139
   20.880    6.4771
   20.895    6.2559
   20.910    6.5719
   20.925    6.6772
   20.940    6.4560
   20.955    6.5929
   20.970    6.5087
   20.985    6.5403
   21.000    6.2981
   21.015    6.3823
   21.030    6.8141
   21.045    6.3296
   21.060    6.3507
   21.075    6.5824
   21.090    6.4666
   21.105    6.5192
   21.120    6.4034
   21.135    6.3086
   21.150    6.5719
   21.165    6.8141
   21.180    6.6140
   21.195    6.7299
   21.210    6.6667
   21.225    6.6877
   21.240    6.6877
   21.255    6.6983
   21.270    6.7930
   21.285    7.0669
   21.300    6.8668
   21.315    6.6667
   21.330    6.4876
   21.345    6.5613
   21.360    6.4876
   21.375    6.5508
   21.390    6.4560
   21.405    6.6772
   21.420    7.0353
   21.435    6.6245
   21.450    6.4666
   21.465    6.5824
   21.480    6.4982
   21.495    6.4455
   21.510    6.7509
   21.525    7.1827
   21.540    6.6877
   21.555    6.4982
   21.570    6.7299
   21.585    6.5613
   21.600    6.3823
   21.615    6.3086
   21.630    6.6245
   21.645    6.7404
   21.660    6.6983
   21.675    6.5824
   21.690    6.5087
   21.705    6.8036
   21.720    6.8457
   21.735    6.8141
   21.750    6.4982
   21.765    6.4560
   21.780    6.7930
   21.795    6.6035
   21.810    6.7404
   21.825    7.1511
   21.840    7.1195
   21.855    6.9194
   21.870    7.2249
   21.885    7.2880
   21.900    7.4250
   21.915    7.6145
   21.930    7.5829
   21.945    7.4144
   21.960    7.0458
   21.975    6.6877
   21.990    7.0563
   22.005    7.2565
   22.020    7.0248
   22.035    6.3612
   22.050    7.0037
   22.065    7.2775
   22.080    7.0353
   22.095    6.6140
   22.110    6.6667
   22.125    6.4034
   22.140    6.7299
   22.155    6.8668
   22.170    6.8141
   22.185    7.1617
   22.200    7.2565
   22.215    7.2670
   22.230    7.0037
   22.245    6.9616
   22.260    7.1722
   22.275    7.6145
   22.290    7.2354
   22.305    7.1195
   22.320    7.2565
   22.335    7.1090
   22.350    7.2565
   22.365    7.2880
   22.380    7.0985
   22.395    6.8457
   22.410    6.7299
   22.425    6.7509
   22.440    7.1301
   22.455    7.3934
   22.470    7.4882
   22.485    7.6251
   22.500    7.6040
   22.515    7.8041
   22.530    7.9094
   22.545    8.1517
   22.560    8.6256
   22.575    8.9626
   22.590    9.1522
   22.605    9.5524
   22.620    9.4260
   22.635    9.4681
   22.650    8.7204
   22.665    8.8468
   22.680    8.5519
   22.695    7.9831
   22.710    7.7936
   22.725    7.5092
   22.740    7.0458
   22.755    7.0669
   22.770    7.1301
   22.785    7.3512
   22.800    7.4776
   22.815    7.4250
   22.830    7.1511
   22.845    7.5408
   22.860    7.5197
   22.875    7.6672
   22.890    8.3202
   22.905    8.7625
   22.920    8.8573
   22.935    8.8046
   22.950    9.2575
   22.965    9.4471
   22.980    9.0469
   22.995    8.8046
   23.010    8.8994
   23.025    8.5624
   23.040    8.4887
   23.055    7.8989
   23.070    7.6777
   23.085    7.5197
   23.100    7.2986
   23.115    7.0037
   23.130    7.0353
   23.145    7.1090
   23.160    6.8457
   23.175    7.3302
   23.190    7.2670
   23.205    7.5724
   23.220    7.6672
   23.235    7.2565
   23.250    7.1933
   23.265    7.5935
   23.280    6.9721
   23.295    7.4460
   23.310    7.7514
   23.325    8.0885
   23.340    7.2459
   23.355    7.1827
   23.370    6.7615
   23.385    6.8668
   23.400    7.0248
   23.415    6.7088
   23.430    6.6561
   23.445    6.8141
   23.460    6.4666
   23.475    6.4455
   23.490    6.8562
   23.505    6.5929
   23.520    6.4244
   23.535    6.6561
   23.550    6.6772
   23.565    6.6983
   23.580    6.4560
   23.595    7.1195
   23.610    7.1722
   23.625    6.8668
   23.640    6.5929
   23.655    6.6561
   23.670    7.0774
   23.685    6.8984
   23.700    6.4139
   23.715    6.6140
   23.730    6.7299
   23.745    6.8141
   23.760    6.4034
   23.775    6.6245
   23.790    6.7088
   23.805    6.8457
   23.820    6.6667
   23.835    7.0563
   23.850    6.9405
   23.865    6.9932
   23.880    6.8773
   23.895    7.3302
   23.910    7.2354
   23.925    7.0563
   23.940    7.2459
   23.955    7.0353
   23.970    7.5724
   23.985    7.1406
   24.000    7.3723
   24.015    6.9405
   24.030    7.2038
   24.045    7.0563
   24.060    6.6140
   24.075    6.5298
   24.090    7.0037
   24.105    6.7509
   24.120    6.6877
   24.135    6.6140
   24.150    6.4560
   24.165    6.4350
   24.180    6.4244
   24.195    6.2875
   24.210    6.4666
   24.225    6.8246
   24.240    6.2770
   24.255    6.5403
   24.270    6.4455
   24.285    6.4982
   24.300    6.4982
   24.315    6.5298
   24.330    6.3507
   24.345    6.3823
   24.360    6.5929
   24.375    6.3612
   24.390    6.1717
   24.405    6.4876
   24.420    6.4666
   24.435    6.2349
   24.450    6.5824
   24.465    6.8352
   24.480    6.6245
   24.495    6.3296
   24.510    6.4034
   24.525    6.1927
   24.540    6.4350
   24.555    6.6772
   24.570    6.7193
   24.585    6.8668
   24.600    7.1406
   24.615    6.5403
   24.630    6.6983
   24.645    6.3718
   24.660    6.2875
   24.675    6.2875
   24.690    6.3718
   24.705    6.7404
   24.720    6.4876
   24.735    6.6877
   24.750    6.5508
   24.765    6.5192
   24.780    6.5087
   24.795    6.5298
   24.810    6.5824
   24.825    6.8984
   24.840    6.4139
   24.855    6.6877
   24.870    6.5192
   24.885    6.4350
   24.900    6.2665
   24.915    6.7615
   24.930    7.0458
   24.945    6.3296
   24.960    6.1401
   24.975    6.4455
   24.990    6.4560
   25.005    6.4666
   25.020    6.3612
   25.035    6.1085
   25.050    6.3823
   25.065    6.4455
   25.080    6.1611
   25.095    6.4244
   25.110    6.3612
   25.125    6.4771
   25.140    6.6245
   25.155    6.6035
   25.170    6.7088
   25.185    6.5613
   25.200    6.5824
   25.215    6.3718
   25.230    6.5824
   25.245    6.5403
   25.260    7.0458
   25.275    6.7299
   25.290    6.5929
   25.305    6.6140
   25.320    6.4560
   25.335    6.5192
   25.350    6.2243
   25.365    6.2875
   25.380    6.0453
   25.395    6.3296
   25.410    7.1195
   25.425    6.8352
   25.440    6.8352
   25.455    6.9405
   25.470    6.7720
   25.485    6.7088
   25.500    6.8457
   25.515    6.4771
   25.530    6.6456
   25.545    6.6140
   25.560    6.7299
   25.575    6.5192
   25.590    6.6983
   25.605    6.7720
   25.620    6.6035
   25.635    6.7509
   25.650    6.6667
   25.665    6.6772
   25.680    6.7193
   25.695    6.5508
   25.710    7.0669
   25.725    7.1195
   25.740    6.9826
   25.755    7.2565
   25.770    6.7404
   25.785    7.1301
   25.800    7.1617
   25.815    7.1195
   25.830    7.9831
   25.845    8.6045
   25.860    8.2570
   25.875    8.0042
   25.890    8.2464
   25.905    8.2043
   25.920    7.7304
   25.935    7.3723
   25.950    7.7725
   25.965    7.3828
   25.980    6.9510
   25.995    6.7930
   26.010    6.5929
   26.025    6.3718
   26.040    6.2349
   26.055    6.5403
   26.070    6.3718
   26.085    6.4876
   26.100    6.2875
   26.115    6.0874
   26.130    6.2243
   26.145    6.5403
   26.160    6.4455
   26.175    6.5403
   26.190    6.4771
   26.205    6.0137
   26.220    6.2349
   26.235    6.4876
   26.250    6.4034
   26.265    6.5403
   26.280    6.2665
   26.295    6.5719
   26.310    6.3191
   26.325    6.1190
   26.340    6.3823
   26.355    6.7825
   26.370    6.0242
   26.385    6.3086
   26.400    6.8773
   26.415    6.5719
   26.430    6.8562
   26.445    7.0563
   26.460    6.8984
   26.475    6.7193
   26.490    6.9616
   26.505    6.7088
   26.520    6.6456
   26.535    6.4982
   26.550    6.7404
   26.565    6.5403
   26.580    6.4455
   26.595    6.3928
   26.610    6.1295
   26.625    6.2559
   26.640    6.7088
   26.655    6.1190
   26.670    5.8347
   26.685    5.9821
   26.700    6.6351
   26.715    6.4034
   26.730    6.3928
   26.745    6.0979
   26.760    6.2981
   26.775    6.0558
   26.790    5.8768
   26.805    6.4244
   26.820    6.3296
   26.835    6.1611
   26.850    6.3086
   26.865    6.2981
   26.880    6.4034
   26.895    6.2243
   26.910    6.2770
   26.925    6.1927
   26.940    6.6351
   26.955    6.3086
   26.970    6.3507
   26.985    6.5403
   27.000    6.7825
   27.015    6.7509
   27.030    6.6877
   27.045    6.7088
   27.060    6.9826
   27.075    6.8141
   27.090    6.5613
   27.105    6.7404
   27.120    6.8984
   27.135    6.9721
   27.150    6.6772
   27.165    6.0032
   27.180    6.7720
   27.195    6.8984
   27.210    6.4244
   27.225    6.1506
   27.240    5.9716
   27.255    5.9716
   27.270    6.0979
   27.285    6.2665
   27.300    6.4455
   27.315    6.3928
   27.330    6.2349
   27.345    6.0032
   27.360    6.0032
   27.375    5.8873
   27.390    5.9189
   27.405    6.0348
   27.420    6.2243
   27.435    6.3086
   27.450    6.1822
   27.465    6.2033
   27.480    6.6035
   27.495    6.2981
   27.510    6.2033
   27.525    6.1190
   27.540    5.9716
   27.555    6.2454
   27.570    6.2665
   27.585    6.7615
   27.600    6.3507
   27.615    6.2138
   27.630    6.5403
   27.645    6.4455
   27.660    6.7825
   27.675    6.7615
   27.690    6.7825
   27.705    6.4771
   27.720    6.3507
   27.735    6.0348
   27.750    6.2349
   27.765    5.9716
   27.780    6.3296
   27.795    6.1822
   27.810    6.1506
   27.825    6.0242
   27.840    6.1822
   27.855    6.4139
   27.870    6.4244
   27.885    6.3718
   27.900    6.2243
   27.915    6.3612
   27.930    6.5613
   27.945    6.8352
   27.960    7.0037
   27.975    6.6877
   27.990    7.1933
   28.005    7.5092
   28.020    7.3828
   28.035    7.3196
   28.050    7.6461
   28.065    7.2249
   28.080    6.9405
   28.095    6.7299
   28.110    7.1722
   28.125    7.0037
   28.140    7.2038
   28.155    6.8773
   28.170    6.8984
   28.185    6.6140
   28.200    6.4034
   28.215    6.7404
   28.230    6.9721
   28.245    6.7930
   28.260    6.6667
   28.275    6.9932
   28.290    6.6140
   28.305    6.2454
   28.320    6.2033
   28.335    6.5929
   28.350    6.4771
   28.365    6.5298
   28.380    6.4244
   28.395    6.5403
   28.410    6.5824
   28.425    6.3823
   28.440    6.3402
   28.455    6.3928
   28.470    6.8246
   28.485    6.9826
   28.500    6.8352
   28.515    6.8036
   28.530    6.6667
   28.545    7.1090
   28.560    6.5508
   28.575    6.1717
   28.590    6.1295
   28.605    6.7615
   28.620    6.4034
   28.635    6.3928
   28.650    6.1927
   28.665    5.9821
   28.680    6.2875
   28.695    6.3086
   28.710    6.2665
   28.725    5.9716
   28.740    6.2981
   28.755    6.0874
   28.770    6.5087
   28.785    6.0032
   28.800    6.0137
   28.815    6.2981
   28.830    6.0664
   28.845    6.2981
   28.860    6.4139
   28.875    6.2981
   28.890    5.9505
   28.905    5.9084
   28.920    6.4876
   28.935    6.3612
   28.950    6.8773
   28.965    6.9300
   28.980    6.9194
   28.995    6.9616
   29.010    6.8878
   29.025    6.6877
   29.040    6.8036
   29.055    6.7299
   29.070    6.6351
   29.085    6.3823
   29.100    6.2243
   29.115    6.3296
   29.130    6.2349
   29.145    6.3296
   29.160    6.4455
   29.175    6.4139
   29.190    6.0874
   29.205    6.1822
   29.220    5.6872
   29.235    6.5719
   29.250    6.3086
   29.265    6.0769
   29.280    5.9610
   29.295    6.1190
   29.310    6.6561
   29.325    6.6561
   29.340    6.3086
   29.355    6.4560
   29.370    6.9089
   29.385    6.3718
   29.400    6.2665
   29.415    6.3823
   29.430    5.9294
   29.445    6.0453
   29.460    5.9926
   29.475    6.0242
   29.490    5.7188
   29.505    5.9505
   29.520    5.9610
   29.535    5.8557
   29.550    5.6661
   29.565    5.7820
   29.580    5.8768
   29.595    5.5924
   29.610    5.8557
   29.625    5.9610
   29.640    6.0032
   29.655    5.8241
   29.670    6.0874
   29.685    5.8662
   29.700    6.0348
   29.715    6.2665
   29.730    6.0137
   29.745    5.9294
   29.760    5.9294
   29.775    6.0769
   29.790    5.8768
   29.805    6.1190
   29.820    6.0242
   29.835    5.9610
   29.850    6.3086
   29.865    6.0453
   29.880    5.9505
   29.895    5.9610
   29.910    5.9400
   29.925    6.0453
   29.940    5.7083
   29.955    6.1927
   29.970    6.1927
   29.985    6.0348
   30.000    6.3086
   30.015    5.8662
   30.030    5.7925
   30.045    6.1506
   30.060    6.2665
   30.075    5.6661
   30.090    5.9294
   30.105    5.7609
   30.120    5.6029
   30.135    5.8347
   30.150    6.1927
   30.165    5.9400
   30.180    5.9505
   30.195    6.2033
   30.210    6.0769
   30.225    5.8031
   30.240    5.4766
   30.255    5.7188
   30.270    5.8347
   30.285    5.8873
   30.300    5.7715
   30.315    6.1295
   30.330    5.6872
   30.345    5.5714
   30.360    6.1822
   30.375    5.9716
   30.390    5.6135
   30.405    5.8873
   30.420    5.6345
   30.435    5.6872
   30.450    5.7715
   30.465    5.8978
   30.480    6.0664
   30.495    5.7399
   30.510    5.8136
   30.525    6.0664
   30.540    6.0558
   30.555    5.7925
   30.570    5.9505
   30.585    5.8873
   30.600    6.0874
   30.615    6.0032
   30.630    6.0664
   30.645    6.1822
   30.660    5.8768
   30.675    6.0874
   30.690    5.9610
   30.705    6.1190
   30.720    5.7083
   30.735    5.4766
   30.750    5.8452
   30.765    5.6240
   30.780    5.6661
   30.795    5.9716
   30.810    5.7293
   30.825    5.4871
   30.840    5.4871
   30.855    5.8452
   30.870    5.8031
   30.885    5.7293
   30.900    6.0664
   30.915    5.7925
   30.930    5.6977
   30.945    6.0769
   30.960    5.7925
   30.975    5.7925
   30.990    5.5819
   31.005    5.3712
   31.020    5.7399
   31.035    5.6977
   31.050    5.5503
   31.065    5.5187
   31.080    5.4660
   31.095    5.6135
   31.110    5.7188
   31.125    5.7715
   31.140    5.6767
   31.155    6.1927
   31.170    5.8557
   31.185    5.8241
   31.200    5.6029
   31.215    5.5398
   31.230    5.3397
   31.245    5.6240
   31.260    5.5292
   31.275    5.6661
   31.290    5.6556
   31.305    5.6029
   31.320    5.9400
   31.335    5.6451
   31.350    5.8662
   31.365    5.8452
   31.380    5.9821
   31.395    5.8452
   31.410    5.7925
   31.425    6.1295
   31.440    6.1611
   31.455    6.0242
   31.470    5.6872
   31.485    5.7715
   31.500    6.1085
   31.515    5.9505
   31.530    5.7188
   31.545    5.6661
   31.560    5.3923
   31.575    5.5292
   31.590    5.5714
   31.605    5.3291
   31.620    5.5503
   31.635    5.9294
   31.650    5.7925
   31.665    5.8241
   31.680    5.5714
   31.695    5.5608
   31.710    5.8978
   31.725    6.0348
   31.740    5.8557
   31.755    5.7820
   31.770    5.9084
   31.785    6.0242
   31.800    5.8873
   31.815    6.0769
   31.830    6.5613
   31.845    6.5192
   31.860    6.4876
   31.875    6.3191
   31.890    5.9189
   31.905    6.0453
   31.920    6.0664
   31.935    5.9189
   31.950    6.1085
   31.965    6.0769
   31.980    6.1822
   31.995    6.0769
   32.010    5.9189
   32.025    6.1295
   32.040    6.8984
   32.055    6.6351
   32.070    7.2354
   32.085    7.4882
   32.100    7.3618
   32.115    7.6040
   32.130    7.4882
   32.145    7.9305
   32.160    7.7514
   32.175    7.4776
   32.190    7.2880
   32.205    7.0879
   32.220    6.4244
   32.235    6.6456
   32.250    5.9821
   32.265    5.8662
   32.280    5.9821
   32.295    5.8136
   32.310    5.5714
   32.325    5.4134
   32.340    5.5608
   32.355    5.9505
   32.370    5.3818
   32.385    5.4871
   32.400    5.3291
   32.415    5.4871
   32.430    5.4028
   32.445    5.4976
   32.460    4.9394
   32.475    5.3712
   32.490    5.2343
   32.505    5.4450
   32.520    5.4660
   32.535    5.2765
   32.550    5.5608
   32.565    5.5398
   32.580    5.6767
   32.595    5.4555
   32.610    5.0658
   32.625    5.2975
   32.640    5.3186
   32.655    5.4555
   32.670    5.6872
   32.685    5.3923
   32.700    5.3502
   32.715    5.2870
   32.730    5.4871
   32.745    5.7715
   32.760    5.3818
   32.775    5.5924
   32.790    5.0974
   32.805    5.4028
   32.820    5.0869
   32.835    5.0658
   32.850    5.1395
   32.865    5.0974
   32.880    5.6872
   32.895    5.4766
   32.910    5.5187
   32.925    5.4766
   32.940    5.4028
   32.955    5.4134
   32.970    5.5398
   32.985    5.2133
   33.000    5.6240
   33.015    5.9505
   33.030    5.5503
   33.045    5.3607
   33.060    5.4976
   33.075    5.1922
   33.090    5.1817
   33.105    5.0764
   33.120    5.6451
   33.135    5.5503
   33.150    5.2659
   33.165    4.9394
   33.180    5.4028
   33.195    5.1922
   33.210    5.2343
   33.225    5.2343
   33.240    5.0764
   33.255    5.2765
   33.270    4.9921
   33.285    4.9921
   33.300    5.1395
   33.315    5.2133
   33.330    5.0974
   33.345    5.3291
   33.360    5.4134
   33.375    5.5503
   33.390    5.1395
   33.405    5.0869
   33.420    5.5082
   33.435    5.2133
   33.450    5.1922
   33.465    5.4028
   33.480    5.3081
   33.495    5.5608
   33.510    5.3818
   33.525    5.5398
   33.540    5.4344
   33.555    5.1080
   33.570    4.9921
   33.585    5.2765
   33.600    5.1080
   33.615    5.4766
   33.630    5.5398
   33.645    5.2238
   33.660    5.6767
   33.675    5.7609
   33.690    5.3291
   33.705    5.2343
   33.720    5.6556
   33.735    5.7188
   33.750    5.8452
   33.765    5.7715
   33.780    5.4239
   33.795    6.2559
   33.810    6.4350
   33.825    6.4350
   33.840    6.4139
   33.855    6.6772
   33.870    6.9089
   33.885    6.6772
   33.900    6.0664
   33.915    6.2033
   33.930    6.2454
   33.945    5.8452
   33.960    6.0348
   33.975    6.3718
   33.990    6.5508
   34.005    6.1401
   34.020    6.0032
   34.035    5.7399
   34.050    5.7609
   34.065    5.8768
   34.080    5.7083
   34.095    5.2765
   34.110    5.2133
   34.125    5.2765
   34.140    5.2027
   34.155    5.2238
   34.170    5.2449
   34.185    5.3397
   34.200    5.1185
   34.215    5.5608
   34.230    5.4555
   34.245    5.2975
   34.260    5.5608
   34.275    5.5503
   34.290    5.2343
   34.305    5.5714
   34.320    5.3607
   34.335    5.1817
   34.350    5.2659
   34.365    5.4134
   34.380    5.4239
   34.395    5.6872
   34.410    5.5924
   34.425    5.3607
   34.440    5.1606
   34.455    5.1922
   34.470    5.1185
   34.485    5.3081
   34.500    5.3502
   34.515    5.1185
   34.530    4.8552
   34.545    5.1922
   34.560    5.0658
   34.575    5.1185
   34.590    5.0869
   34.605    5.0974
   34.620    5.1711
   34.635    4.9605
   34.650    5.2027
   34.665    5.2027
   34.680    4.9816
   34.695    5.1395
   34.710    5.3818
   34.725    5.3818
   34.740    5.0026
   34.755    4.9184
   34.770    4.9816
   34.785    5.4028
   34.800    5.2870
   34.815    5.2238
   34.830    5.2975
   34.845    5.4239
   34.860    5.3081
   34.875    5.6451
   34.890    5.4871
   34.905    5.1080
   34.920    5.4028
   34.935    5.3607
   34.950    5.1395
   34.965    4.8131
   34.980    4.9710
   34.995    5.0553
   35.010    5.0237
   35.025    5.1290
   35.040    5.0553
   35.055    4.8447
   35.070    5.0237
   35.085    5.2554
   35.100    5.0869
   35.115    4.6551
   35.130    4.9921
   35.145    5.2343
   35.160    4.9500
   35.175    4.9816
   35.190    5.0237
   35.205    4.7920
   35.220    4.7815
   35.235    4.7183
   35.250    4.8657
   35.265    5.3186
   35.280    5.1501
   35.295    4.7604
   35.310    4.9605
   35.325    5.2449
   35.340    5.0237
   35.355    5.0974
   35.370    5.5398
   35.385    5.1711
   35.400    5.1606
   35.415    5.0026
   35.430    5.0553
   35.445    5.0448
   35.460    4.9921
   35.475    5.0132
   35.490    4.8657
   35.505    4.8131
   35.520    5.0974
   35.535    4.9394
   35.550    4.6551
   35.565    4.8763
   35.580    5.1711
   35.595    5.2133
   35.610    5.0237
   35.625    5.1185
   35.640    4.9500
   35.655    5.1817
   35.670    4.7920
   35.685    4.8657
   35.700    4.7604
   35.715    5.1922
   35.730    5.1395
   35.745    4.9394
   35.760    5.1922
   35.775    5.0026
   35.790    4.9289
   35.805    5.2343
   35.820    5.3607
   35.835    5.1395
   35.850    4.9605
   35.865    5.1817
   35.880    5.2238
   35.895    5.3291
   35.910    5.1711
   35.925    5.1711
   35.940    5.1395
   35.955    5.2554
   35.970    5.1711
   35.985    5.2238
   36.000    4.9816
   36.015    5.4239
   36.030    5.0448
   36.045    4.9184
   36.060    4.9394
   36.075    4.8657
   36.090    4.8236
   36.105    5.0237
   36.120    5.1501
   36.135    4.9816
   36.150    5.2343
   36.165    5.1395
   36.180    5.0658
   36.195    5.2870
   36.210    5.0764
   36.225    4.9500
   36.240    5.0553
   36.255    4.8447
   36.270    5.1922
   36.285    5.2659
   36.300    5.4344
   36.315    5.0237
   36.330    4.6761
   36.345    5.0658
   36.360    4.7499
   36.375    4.9078
   36.390    5.1922
   36.405    5.2133
   36.420    4.8341
   36.435    4.6761
   36.450    4.9816
   36.465    4.9289
   36.480    5.1080
   36.495    4.9184
   36.510    4.9921
   36.525    5.3818
   36.540    5.0237
   36.555    5.1711
   36.570    5.0974
   36.585    4.8236
   36.600    5.0658
   36.615    5.1290
   36.630    5.3923
   36.645    5.1606
   36.660    5.2133
   36.675    5.2449
   36.690    4.9605
   36.705    4.8552
   36.720    4.9605
   36.735    4.9605
   36.750    5.4660
   36.765    5.3923
   36.780    5.0026
   36.795    4.9078
   36.810    5.0132
   36.825    4.8236
   36.840    4.6340
   36.855    4.9816
   36.870    4.7288
   36.885    5.0764
   36.900    5.1606
   36.915    4.9710
   36.930    5.0553
   36.945    5.2133
   36.960    5.0869
   36.975    5.0448
   36.990    4.8763
   37.005    5.0448
   37.020    5.3818
   37.035    5.3607
   37.050    5.2133
   37.065    5.2659
   37.080    4.7604
   37.095    4.9394
   37.110    5.1395
   37.125    5.6029
   37.140    5.3081
   37.155    5.3081
   37.170    5.3607
   37.185    5.2765
   37.200    5.2870
   37.215    5.0974
   37.230    5.1501
   37.245    5.2870
   37.260    4.9500
   37.275    5.1290
   37.290    4.7183
   37.305    5.0132
   37.320    5.0764
   37.335    4.9921
   37.350    4.7288
   37.365    4.9394
   37.380    4.8341
   37.395    5.0974
   37.410    5.0026
   37.425    4.8657
   37.440    4.6340
   37.455    4.7077
   37.470    5.1606
   37.485    4.9078
   37.500    5.0132
   37.515    5.2027
   37.530    4.9710
   37.545    5.0448
   37.560    5.0132
   37.575    5.1395
   37.590    5.0658
   37.605    4.9184
   37.620    5.1185
   37.635    5.1922
   37.650    4.9605
   37.665    5.0342
   37.680    4.8341
   37.695    5.0974
   37.710    5.1501
   37.725    5.1080
   37.740    4.8868
   37.755    4.8763
   37.770    4.9394
   37.785    4.8341
   37.800    5.1185
   37.815    4.8131
   37.830    4.7393
   37.845    5.0448
   37.860    4.8341
   37.875    4.9394
   37.890    5.2133
   37.905    4.9500
   37.920    5.0553
   37.935    5.2027
   37.950    5.1606
   37.965    5.1290
   37.980    4.9921
   37.995    5.1080
   38.010    4.9184
   38.025    5.0342
   38.040    4.9816
   38.055    4.6972
   38.070    4.8973
   38.085    4.8868
   38.100    5.1290
   38.115    5.0342
   38.130    4.8341
   38.145    5.1606
   38.160    4.8973
   38.175    4.6867
   38.190    4.8763
   38.205    4.7709
   38.220    5.0764
   38.235    5.0026
   38.250    4.8236
   38.265    4.9921
   38.280    4.9078
   38.295    5.0237
   38.310    4.7288
   38.325    4.8025
   38.340    4.8868
   38.355    5.1185
   38.370    5.2343
   38.385    4.8657
   38.400    4.9500
   38.415    5.0132
   38.430    5.2870
   38.445    5.1711
   38.460    5.3186
   38.475    5.2343
   38.490    4.9289
   38.505    4.4023
   38.520    4.9078
   38.535    5.0237
   38.550    4.9078
   38.565    5.1395
   38.580    5.2133
   38.595    4.9394
   38.610    4.8447
   38.625    5.1501
   38.640    5.1501
   38.655    5.3818
   38.670    5.1606
   38.685    4.8341
   38.700    4.9289
   38.715    5.1501
   38.730    5.0764
   38.745    4.9184
   38.760    4.7393
   38.775    4.7709
   38.790    4.7709
   38.805    4.6656
   38.820    4.9605
   38.835    4.8025
   38.850    4.7393
   38.865    4.6972
   38.880    4.9078
   38.895    4.4550
   38.910    4.4655
   38.925    4.4760
   38.940    4.5603
   38.955    4.7920
   38.970    4.6024
   38.985    4.8447
   39.000    4.7288
   39.015    4.4234
   39.030    4.6130
   39.045    5.1606
   39.060    4.8341
   39.075    4.6551
   39.090    4.7393
   39.105    4.2759
   39.120    4.8341
   39.135    4.6551
   39.150    5.0448
   39.165    4.9394
   39.180    4.7815
   39.195    4.8341
   39.210    4.7393
   39.225    4.9816
   39.240    4.8131
   39.255    4.9816
   39.270    4.6761
   39.285    4.6130
   39.300    4.9500
   39.315    5.2975
   39.330    4.7920
   39.345    4.6972
   39.360    4.6867
   39.375    4.7920
   39.390    4.7709
   39.405    5.1395
   39.420    5.2870
   39.435    4.7604
   39.450    4.7183
   39.465    4.7288
   39.480    4.7499
   39.495    4.6761
   39.510    4.9710
   39.525    4.6972
   39.540    4.6445
   39.555    4.3918
   39.570    4.6761
   39.585    4.8657
   39.600    4.9289
   39.615    4.6656
   39.630    4.5603
   39.645    4.7288
   39.660    4.9184
   39.675    5.0237
   39.690    5.0764
   39.705    4.6445
   39.720    4.9710
   39.735    4.7288
   39.750    4.9184
   39.765    5.1080
   39.780    4.9184
   39.795    4.8657
   39.810    4.8341
   39.825    4.7288
   39.840    4.8868
   39.855    4.7077
   39.870    4.5814
   39.885    4.6867
   39.900    4.5919
   39.915    4.7920
   39.930    4.7499
   39.945    4.6445
   39.960    4.8657
   39.975    4.7393
   39.990    4.6235
