    1.500   50.7071
    1.515   51.4189
    1.530   49.9952
    1.545   48.7399
    1.560   47.5563
    1.575   46.3967
    1.590   45.1556
    1.605   43.9673
    1.620   42.7199
    1.635   41.7414
    1.650   40.8869
    1.665   39.7738
    1.680   38.8852
    1.695   38.0372
    1.710   37.1656
    1.725   36.2815
    1.740   35.4646
    1.755   34.6125
    1.770   33.8817
    1.785   33.1580
    1.800   32.4323
    1.815   31.8029
    1.830   31.2106
    1.845   30.5120
    1.860   29.8958
    1.875   29.2590
    1.890   28.6835
    1.905   28.1556
    1.920   27.6068
    1.935   27.0442
    1.950   26.6182
    1.965   26.0862
    1.980   25.6487
    1.995   25.1540
    2.010   24.7896
    2.025   24.2669
    2.040   23.9016
    2.055   23.5332
    2.070   23.1400
    2.085   22.7082
    2.100   22.3569
    2.115   21.9686
    2.130   21.6417
    2.145   21.3691
    2.160   20.9696
    2.175   20.6370
    2.190   20.3294
    2.205   20.0689
    2.220   19.7894
    2.235   19.5049
    2.250   19.2322
    2.265   18.9680
    2.280   18.7221
    2.295   18.4805
    2.310   18.2013
    2.325   17.9763
    2.340   17.7667
    2.355   17.5238
    2.370   17.3745
    2.385   17.1008
    2.400   16.8982
    2.415   16.6517
    2.430   16.4769
    2.445   16.3443
    2.460   16.1518
    2.475   15.9558
    2.490   15.7538
    2.505   15.5441
    2.520   15.4486
    2.535   15.3228
    2.550   15.1689
    2.565   14.9547
    2.580   14.8373
    2.595   14.7229
    2.610   14.5408
    2.625   14.4501
    2.640   14.3516
    2.655   14.2149
    2.670   14.1349
    2.685   13.9605
    2.700   13.8749
    2.715   13.8134
    2.730   13.6909
    2.745   13.6042
    2.760   13.5523
    2.775   13.4921
    2.790   13.4011
    2.805   13.3283
    2.820   13.2452
    2.835   13.2120
    2.850   13.1362
    2.865   13.1256
    2.880   13.0688
    2.895   13.0602
    2.910   13.0668
    2.925   13.0322
    2.940   13.0169
    2.955   13.0268
    2.970   13.0876
    2.985   13.1583
    3.000   13.1670
    3.015   13.2296
    3.030   13.3485
    3.045   13.4681
    3.060   13.5628
    3.075   13.6609
    3.090   13.8151
    3.105   13.9393
    3.120   14.1338
    3.135   14.3671
    3.150   14.6308
    3.165   14.8176
    3.180   15.1020
    3.195   15.4271
    3.210   15.7154
    3.225   16.1070
    3.240   16.4780
    3.255   16.8856
    3.270   17.3052
    3.285   17.8113
    3.300   18.3926
    3.315   19.0224
    3.330   19.5709
    3.345   20.2216
    3.360   20.9956
    3.375   21.7590
    3.390   22.6123
    3.405   23.5191
    3.420   24.5477
    3.435   25.6400
    3.450   26.7544
    3.465   28.0696
    3.480   29.3353
    3.495   30.8119
    3.510   32.4433
    3.525   34.1959
    3.540   36.0269
    3.555   38.1130
    3.570   40.3585
    3.585   42.7839
    3.600   45.4364
    3.615   48.4208
    3.630   51.7077
    3.645   55.4325
    3.660   59.4751
    3.675   64.1046
    3.690   69.3624
    3.705   75.1847
    3.720   82.0096
    3.735   90.0813
    3.750   99.5479
    3.765  110.9558
    3.780  125.3353
    3.795  144.0415
    3.810  168.3253
    3.825  195.8103
    3.840  214.6882
    3.855  214.9054
    3.870  194.9626
    3.885  159.4458
    3.900  114.4341
    3.915   71.1219
    3.930   41.3530
    3.945   26.6711
    3.960   20.1405
    3.975   16.8436
    3.990   14.8883
    4.005   13.5955
    4.020   12.6398
    4.035   11.9907
    4.050   11.4538
    4.065   11.0239
    4.080   10.7207
    4.095   10.4213
    4.110   10.1418
    4.125    9.8907
    4.140    9.7069
    4.155    9.5594
    4.170    9.4229
    4.185    9.2943
    4.200    9.1306
    4.215    8.9647
    4.230    8.8424
    4.245    8.7703
    4.260    8.6914
    4.275    8.5933
    4.290    8.4916
    4.305    8.4017
    4.320    8.3260
    4.335    8.2871
    4.350    8.2276
    4.365    8.1871
    4.380    8.0934
    4.395    8.0727
    4.410    8.0262
    4.425    7.9381
    4.440    7.8808
    4.455    7.8497
    4.470    7.8775
    4.485    7.7857
    4.500    7.7264
    4.515    7.7299
    4.530    7.7147
    4.545    7.6394
    4.560    7.6148
    4.575    7.6105
    4.590    7.5712
    4.605    7.5753
    4.620    7.5300
    4.635    7.4833
    4.650    7.4858
    4.665    7.4626
    4.680    7.4768
    4.695    7.4357
    4.710    7.4201
    4.725    7.3914
    4.740    7.4269
    4.755    7.4239
    4.770    7.4035
    4.785    7.4074
    4.800    7.4204
    4.815    7.3896
    4.830    7.3881
    4.845    7.4125
    4.860    7.4375
    4.875    7.4343
    4.890    7.4887
    4.905    7.5140
    4.920    7.5346
    4.935    7.5535
    4.950    7.5796
    4.965    7.6613
    4.980    7.7430
    4.995    7.8116
    5.010    7.8945
    5.025    7.9870
    5.040    8.0724
    5.055    8.2258
    5.070    8.3478
    5.085    8.5008
    5.100    8.6498
    5.115    8.8296
    5.130    9.0456
    5.145    9.2680
    5.160    9.4801
    5.175    9.7663
    5.190   10.0985
    5.205   10.4955
    5.220   10.8894
    5.235   11.2764
    5.250   11.8155
    5.265   12.3466
    5.280   13.0286
    5.295   13.7976
    5.310   14.6289
    5.325   15.6066
    5.340   16.8011
    5.355   18.1801
    5.370   19.7081
    5.385   21.6923
    5.400   24.1828
    5.415   27.3207
    5.430   31.5170
    5.445   36.2814
    5.460   40.3184
    5.475   41.5167
    5.490   39.4022
    5.505   34.2282
    5.520   27.0909
    5.535   19.6238
    5.550   13.8923
    5.565   10.5970
    5.580    8.9908
    5.595    8.2496
    5.610    7.8832
    5.625    7.5677
    5.640    7.3925
    5.655    7.2694
    5.670    7.1704
    5.685    7.1071
    5.700    7.0106
    5.715    6.9912
    5.730    6.9295
    5.745    6.8896
    5.760    6.8540
    5.775    6.8291
    5.790    6.8015
    5.805    6.7627
    5.820    6.7545
    5.835    6.7194
    5.850    6.7052
    5.865    6.7058
    5.880    6.6632
    5.895    6.6687
    5.910    6.6106
    5.925    6.6286
    5.940    6.5996
    5.955    6.5921
    5.970    6.5977
    5.985    6.5968
    6.000    6.5679
    6.015    6.5642
    6.030    6.5826
    6.045    6.5506
    6.060    6.5401
    6.075    6.5240
    6.090    6.5217
    6.105    6.5112
    6.120    6.5009
    6.135    6.4511
    6.150    6.4834
    6.165    6.4794
    6.180    6.4891
    6.195    6.4821
    6.210    6.4547
    6.225    6.4274
    6.240    6.4504
    6.255    6.4600
    6.270    6.4316
    6.285    6.4140
    6.300    6.4601
    6.315    6.4449
    6.330    6.4512
    6.345    6.4742
    6.360    6.5039
    6.375    6.5015
    6.390    6.5032
    6.405    6.5195
    6.420    6.5490
    6.435    6.5501
    6.450    6.5946
    6.465    6.6647
    6.480    6.6424
    6.495    6.6678
    6.510    6.7263
    6.525    6.7941
    6.540    6.8197
    6.555    6.9052
    6.570    7.0008
    6.585    7.0950
    6.600    7.2268
    6.615    7.3365
    6.630    7.4941
    6.645    7.7730
    6.660    7.9978
    6.675    8.3835
    6.690    8.8509
    6.705    9.2565
    6.720    9.4237
    6.735    9.3083
    6.750    8.9513
    6.765    8.3828
    6.780    7.7451
    6.795    7.1530
    6.810    6.8343
    6.825    6.6570
    6.840    6.5959
    6.855    6.5231
    6.870    6.5131
    6.885    6.4769
    6.900    6.5154
    6.915    6.4950
    6.930    6.4470
    6.945    6.4535
    6.960    6.4553
    6.975    6.4394
    6.990    6.4435
    7.005    6.4683
    7.020    6.4429
    7.035    6.4477
    7.050    6.4142
    7.065    6.4180
    7.080    6.4215
    7.095    6.4333
    7.110    6.4274
    7.125    6.4277
    7.140    6.4314
    7.155    6.4277
    7.170    6.4330
    7.185    6.4341
    7.200    6.4486
    7.215    6.4429
    7.230    6.4374
    7.245    6.4268
    7.260    6.4764
    7.275    6.4622
    7.290    6.4674
    7.305    6.4643
    7.320    6.4753
    7.335    6.4414
    7.350    6.5265
    7.365    6.5556
    7.380    6.5961
    7.395    6.5885
    7.410    6.5898
    7.425    6.6531
    7.440    6.7164
    7.455    6.7811
    7.470    6.8276
    7.485    6.8929
    7.500    6.9888
    7.515    7.1067
    7.530    7.2357
    7.545    7.3936
    7.560    7.5391
    7.575    7.7194
    7.590    7.9872
    7.605    8.2430
    7.620    8.5517
    7.635    8.9486
    7.650    9.4060
    7.665    9.9710
    7.680   10.6453
    7.695   11.5617
    7.710   12.7511
    7.725   14.2152
    7.740   16.0009
    7.755   17.6311
    7.770   18.5089
    7.785   18.1714
    7.800   16.7283
    7.815   14.4469
    7.830   11.9079
    7.845    9.6873
    7.860    8.2132
    7.875    7.4666
    7.890    7.0685
    7.905    6.8938
    7.920    6.7792
    7.935    6.7189
    7.950    6.6714
    7.965    6.5807
    7.980    6.5755
    7.995    6.5564
    8.010    6.5163
    8.025    6.4886
    8.040    6.5141
    8.055    6.5014
    8.070    6.4711
    8.085    6.4855
    8.100    6.4987
    8.115    6.4978
    8.130    6.4884
    8.145    6.4990
    8.160    6.4553
    8.175    6.4454
    8.190    6.4560
    8.205    6.4340
    8.220    6.4563
    8.235    6.4224
    8.250    6.4446
    8.265    6.4616
    8.280    6.4873
    8.295    6.4647
    8.310    6.4481
    8.325    6.4513
    8.340    6.4529
    8.355    6.4530
    8.370    6.5050
    8.385    6.4872
    8.400    6.4914
    8.415    6.5238
    8.430    6.5404
    8.445    6.5720
    8.460    6.5692
    8.475    6.6068
    8.490    6.6210
    8.505    6.6601
    8.520    6.7057
    8.535    6.7760
    8.550    6.8440
    8.565    6.9382
    8.580    7.0321
    8.595    7.1718
    8.610    7.2766
    8.625    7.5006
    8.640    7.7605
    8.655    8.0863
    8.670    8.5119
    8.685    8.8484
    8.700    8.9342
    8.715    8.8656
    8.730    8.5409
    8.745    8.1027
    8.760    7.5906
    8.775    7.1661
    8.790    6.8176
    8.805    6.6771
    8.820    6.6060
    8.835    6.5517
    8.850    6.5553
    8.865    6.5451
    8.880    6.5324
    8.895    6.5365
    8.910    6.5281
    8.925    6.5181
    8.940    6.5184
    8.955    6.5177
    8.970    6.5454
    8.985    6.5180
    9.000    6.5340
    9.015    6.5145
    9.030    6.5100
    9.045    6.5225
    9.060    6.5350
    9.075    6.5599
    9.090    6.5514
    9.105    6.5407
    9.120    6.5444
    9.135    6.5469
    9.150    6.5813
    9.165    6.6163
    9.180    6.6138
    9.195    6.6259
    9.210    6.6629
    9.225    6.7010
    9.240    6.7057
    9.255    6.7803
    9.270    6.8911
    9.285    7.0007
    9.300    7.0837
    9.315    7.1834
    9.330    7.3768
    9.345    7.5317
    9.360    7.7691
    9.375    8.0724
    9.390    8.4049
    9.405    8.7978
    9.420    9.3065
    9.435    9.9094
    9.450   10.7298
    9.465   11.7843
    9.480   13.2002
    9.495   14.9649
    9.510   16.8775
    9.525   18.4803
    9.540   19.2011
    9.555   18.7286
    9.570   17.0529
    9.585   14.6289
    9.600   12.1149
    9.615    9.9057
    9.630    8.4033
    9.645    7.6262
    9.660    7.2739
    9.675    7.0920
    9.690    6.9395
    9.705    6.8649
    9.720    6.8005
    9.735    6.7710
    9.750    6.7206
    9.765    6.7048
    9.780    6.7214
    9.795    6.6721
    9.810    6.6556
    9.825    6.6323
    9.840    6.6439
    9.855    6.6534
    9.870    6.6410
    9.885    6.6225
    9.900    6.6056
    9.915    6.6025
    9.930    6.6031
    9.945    6.6303
    9.960    6.6180
    9.975    6.6032
    9.990    6.6240
   10.005    6.6273
   10.020    6.6228
   10.035    6.6783
   10.050    6.6944
   10.065    6.7159
   10.080    6.7199
   10.095    6.7720
   10.110    6.8244
   10.125    6.9254
   10.140    6.9820
   10.155    7.0787
   10.170    7.2238
   10.185    7.4485
   10.200    7.6191
   10.215    7.8498
   10.230    8.2672
   10.245    8.7609
   10.260    9.3291
   10.275   10.0347
   10.290   10.6824
   10.305   11.1073
   10.320   11.1520
   10.335   10.7482
   10.350    9.9420
   10.365    8.9999
   10.380    8.1250
   10.395    7.4253
   10.410    7.0060
   10.425    6.7819
   10.440    6.6818
   10.455    6.5758
   10.470    6.5624
   10.485    6.5213
   10.500    6.5553
   10.515    6.5023
   10.530    6.4804
   10.545    6.4761
   10.560    6.4458
   10.575    6.4074
   10.590    6.4134
   10.605    6.3804
   10.620    6.3457
   10.635    6.3332
   10.650    6.3646
   10.665    6.3468
   10.680    6.3159
   10.695    6.3958
   10.710    6.4102
   10.725    6.3773
   10.740    6.4066
   10.755    6.3811
   10.770    6.4204
   10.785    6.4260
   10.800    6.4526
   10.815    6.5308
   10.830    6.5823
   10.845    6.6534
   10.860    6.7462
   10.875    6.8449
   10.890    7.0240
   10.905    7.2347
   10.920    7.4588
   10.935    7.7882
   10.950    8.1757
   10.965    8.6944
   10.980    9.3454
   10.995   10.1605
   11.010   10.8876
   11.025   11.2921
   11.040   11.3035
   11.055   10.8163
   11.070    9.9345
   11.085    8.9440
   11.100    8.0081
   11.115    7.2705
   11.130    6.7827
   11.145    6.5538
   11.160    6.4075
   11.175    6.3326
   11.190    6.2564
   11.205    6.2563
   11.220    6.2175
   11.235    6.1672
   11.250    6.1696
   11.265    6.1700
   11.280    6.1331
   11.295    6.1251
   11.310    6.1399
   11.325    6.1157
   11.340    6.1109
   11.355    6.0790
   11.370    6.1209
   11.385    6.1213
   11.400    6.1161
   11.415    6.1153
   11.430    6.1725
   11.445    6.1827
   11.460    6.1712
   11.475    6.1958
   11.490    6.2243
   11.505    6.2885
   11.520    6.3485
   11.535    6.4545
   11.550    6.5864
   11.565    6.7184
   11.580    6.9297
   11.595    7.1952
   11.610    7.5200
   11.625    7.9551
   11.640    8.5277
   11.655    9.2871
   11.670   10.0798
   11.685   10.8573
   11.700   11.3255
   11.715   11.3579
   11.730   10.8544
   11.745    9.9928
   11.760    9.0053
   11.775    8.0057
   11.790    7.2129
   11.805    6.6417
   11.820    6.3457
   11.835    6.1916
   11.850    6.0922
   11.865    6.0480
   11.880    5.9986
   11.895    5.9316
   11.910    5.9536
   11.925    5.9353
   11.940    5.8929
   11.955    5.9113
   11.970    5.9091
   11.985    5.9189
   12.000    5.8765
   12.015    5.8751
   12.030    5.8541
   12.045    5.8251
   12.060    5.8384
   12.075    5.8312
   12.090    5.8548
   12.105    5.8348
   12.120    5.8519
   12.135    5.8449
   12.150    5.8724
   12.165    5.8988
   12.180    5.8913
   12.195    5.9165
   12.210    5.9073
   12.225    5.9577
   12.240    6.0283
   12.255    6.1080
   12.270    6.1792
   12.285    6.3035
   12.300    6.4647
   12.315    6.6345
   12.330    6.7517
   12.345    6.8249
   12.360    6.7645
   12.375    6.6660
   12.390    6.4671
   12.405    6.2299
   12.420    6.0745
   12.435    5.9425
   12.450    5.8469
   12.465    5.8047
   12.480    5.7519
   12.495    5.7400
   12.510    5.7327
   12.525    5.7522
   12.540    5.7445
   12.555    5.7045
   12.570    5.7145
   12.585    5.6920
   12.600    5.7266
   12.615    5.7051
   12.630    5.7236
   12.645    5.7041
   12.660    5.7146
   12.675    5.7031
   12.690    5.7049
   12.705    5.7162
   12.720    5.7261
   12.735    5.7220
   12.750    5.7628
   12.765    5.8009
   12.780    5.8936
   12.795    5.9332
   12.810    6.0609
   12.825    6.1554
   12.840    6.3134
   12.855    6.5071
   12.870    6.7715
   12.885    7.0776
   12.900    7.5138
   12.915    8.0359
   12.930    8.5419
   12.945    8.8858
   12.960    8.9742
   12.975    8.7271
   12.990    8.2733
   13.005    7.6397
   13.020    7.0701
   13.035    6.5187
   13.050    6.1698
   13.065    5.9534
   13.080    5.8420
   13.095    5.7715
   13.110    5.7116
   13.125    5.7078
   13.140    5.6677
   13.155    5.6556
   13.170    5.6383
   13.185    5.6313
   13.200    5.6353
   13.215    5.6405
   13.230    5.6474
   13.245    5.6294
   13.260    5.6080
   13.275    5.6389
   13.290    5.6609
   13.305    5.6593
   13.320    5.6404
   13.335    5.6642
   13.350    5.6473
   13.365    5.6958
   13.380    5.7399
   13.395    5.7864
   13.410    5.8782
   13.425    5.9623
   13.440    6.0336
   13.455    6.1440
   13.470    6.3274
   13.485    6.5786
   13.500    6.8021
   13.515    7.0258
   13.530    7.1987
   13.545    7.2134
   13.560    7.0497
   13.575    6.8055
   13.590    6.5126
   13.605    6.2459
   13.620    6.0208
   13.635    5.8224
   13.650    5.7346
   13.665    5.6781
   13.680    5.6608
   13.695    5.6648
   13.710    5.6178
   13.725    5.6343
   13.740    5.6242
   13.755    5.6130
   13.770    5.6072
   13.785    5.6196
   13.800    5.6136
   13.815    5.6267
   13.830    5.6626
   13.845    5.6471
   13.860    5.6538
   13.875    5.6976
   13.890    5.6892
   13.905    5.6996
   13.920    5.7671
   13.935    5.8170
   13.950    5.9068
   13.965    5.9967
   13.980    6.0685
   13.995    6.2580
   14.010    6.4691
   14.025    6.8143
   14.040    7.1895
   14.055    7.6423
   14.070    8.0112
   14.085    8.3010
   14.100    8.3752
   14.115    8.1890
   14.130    7.8069
   14.145    7.3531
   14.160    6.8151
   14.175    6.3919
   14.190    6.0593
   14.205    5.8496
   14.220    5.7489
   14.235    5.6832
   14.250    5.6258
   14.265    5.5865
   14.280    5.6144
   14.295    5.5921
   14.310    5.5935
   14.325    5.5985
   14.340    5.5796
   14.355    5.5709
   14.370    5.5480
   14.385    5.5349
   14.400    5.5353
   14.415    5.5304
   14.430    5.5439
   14.445    5.5801
   14.460    5.5509
   14.475    5.5602
   14.490    5.5322
   14.505    5.5444
   14.520    5.5658
   14.535    5.5685
   14.550    5.5500
   14.565    5.5603
   14.580    5.5610
   14.595    5.5406
   14.610    5.5542
   14.625    5.5356
   14.640    5.5251
   14.655    5.5311
   14.670    5.5376
   14.685    5.5367
   14.700    5.5520
   14.715    5.5487
   14.730    5.5577
   14.745    5.5825
   14.760    5.5606
   14.775    5.5754
   14.790    5.5507
   14.805    5.5347
   14.820    5.5319
   14.835    5.5584
   14.850    5.5765
   14.865    5.5684
   14.880    5.5761
   14.895    5.5689
   14.910    5.5635
   14.925    5.5882
   14.940    5.5847
   14.955    5.5877
   14.970    5.6051
   14.985    5.6283
   15.000    5.6977
   15.015    5.7123
   15.030    5.7690
   15.045    5.8164
   15.060    5.9163
   15.075    6.0469
   15.090    6.1934
   15.105    6.3878
   15.120    6.5771
   15.135    6.7470
   15.150    6.8138
   15.165    6.7557
   15.180    6.6283
   15.195    6.4613
   15.210    6.2634
   15.225    6.0219
   15.240    5.8756
   15.255    5.7369
   15.270    5.6697
   15.285    5.6269
   15.300    5.5838
   15.315    5.5856
   15.330    5.5976
   15.345    5.5825
   15.360    5.5612
   15.375    5.5603
   15.390    5.5753
   15.405    5.5793
   15.420    5.5690
   15.435    5.5673
   15.450    5.5436
   15.465    5.5508
   15.480    5.5625
   15.495    5.5605
   15.510    5.5670
   15.525    5.5776
   15.540    5.5609
   15.555    5.5463
   15.570    5.5437
   15.585    5.5959
   15.600    5.5672
   15.615    5.5673
   15.630    5.5485
   15.645    5.5627
   15.660    5.5806
   15.675    5.5741
   15.690    5.5760
   15.705    5.5725
   15.720    5.5452
   15.735    5.5452
   15.750    5.5774
   15.765    5.5979
   15.780    5.5747
   15.795    5.5916
   15.810    5.5713
   15.825    5.5621
   15.840    5.5961
   15.855    5.5919
   15.870    5.5839
   15.885    5.5815
   15.900    5.5938
   15.915    5.5927
   15.930    5.5868
   15.945    5.6054
   15.960    5.6072
   15.975    5.6233
   15.990    5.6588
   16.005    5.6903
   16.020    5.7065
   16.035    5.7573
   16.050    5.8408
   16.065    5.9528
   16.080    6.0719
   16.095    6.2196
   16.110    6.3492
   16.125    6.4767
   16.140    6.5257
   16.155    6.5053
   16.170    6.3871
   16.185    6.2647
   16.200    6.1163
   16.215    5.9743
   16.230    5.8305
   16.245    5.7383
   16.260    5.6852
   16.275    5.6432
   16.290    5.6415
   16.305    5.6242
   16.320    5.6498
   16.335    5.6117
   16.350    5.6127
   16.365    5.6155
   16.380    5.5919
   16.395    5.6294
   16.410    5.6514
   16.425    5.6596
   16.440    5.6672
   16.455    5.6943
   16.470    5.7484
   16.485    5.7884
   16.500    5.8295
   16.515    5.9100
   16.530    6.0337
   16.545    6.1872
   16.560    6.3719
   16.575    6.5643
   16.590    6.7402
   16.605    6.8439
   16.620    6.8773
   16.635    6.7835
   16.650    6.6394
   16.665    6.4283
   16.680    6.2333
   16.695    6.0811
   16.710    5.9191
   16.725    5.8213
   16.740    5.7494
   16.755    5.7377
   16.770    5.7171
   16.785    5.7017
   16.800    5.7185
   16.815    5.6923
   16.830    5.6895
   16.845    5.7093
   16.860    5.7432
   16.875    5.7274
   16.890    5.7187
   16.905    5.7772
   16.920    5.8343
   16.935    5.8880
   16.950    5.9550
   16.965    6.0998
   16.980    6.2526
   16.995    6.4790
   17.010    6.8009
   17.025    7.1182
   17.040    7.4745
   17.055    7.7349
   17.070    7.9048
   17.085    7.9216
   17.100    7.7202
   17.115    7.4385
   17.130    7.0813
   17.145    6.7194
   17.160    6.3552
   17.175    6.1106
   17.190    5.9713
   17.205    5.8352
   17.220    5.7870
   17.235    5.7287
   17.250    5.7296
   17.265    5.6916
   17.280    5.6683
   17.295    5.6687
   17.310    5.6647
   17.325    5.6895
   17.340    5.6841
   17.355    5.7018
   17.370    5.6940
   17.385    5.6808
   17.400    5.7315
   17.415    5.7409
   17.430    5.7900
   17.445    5.8296
   17.460    5.8739
   17.475    5.9321
   17.490    5.9986
   17.505    6.0610
   17.520    6.1019
   17.535    6.1054
   17.550    6.0759
   17.565    6.0349
   17.580    5.9421
   17.595    5.8757
   17.610    5.7960
   17.625    5.7284
   17.640    5.7072
   17.655    5.7269
   17.670    5.7000
   17.685    5.6866
   17.700    5.6966
   17.715    5.6958
   17.730    5.6774
   17.745    5.6915
   17.760    5.7012
   17.775    5.6943
   17.790    5.7248
   17.805    5.7230
   17.820    5.7202
   17.835    5.7282
   17.850    5.7913
   17.865    5.8333
   17.880    5.8630
   17.895    5.9361
   17.910    6.0298
   17.925    6.1238
   17.940    6.1613
   17.955    6.2138
   17.970    6.2418
   17.985    6.2226
   18.000    6.1469
   18.015    6.0336
   18.030    5.9739
   18.045    5.8734
   18.060    5.7996
   18.075    5.7579
   18.090    5.7604
   18.105    5.7161
   18.120    5.7040
   18.135    5.7303
   18.150    5.7132
   18.165    5.7102
   18.180    5.6759
   18.195    5.6706
   18.210    5.7294
   18.225    5.7289
   18.240    5.7319
   18.255    5.7524
   18.270    5.8101
   18.285    5.8523
   18.300    5.9130
   18.315    5.9790
   18.330    6.0699
   18.345    6.1818
   18.360    6.2598
   18.375    6.3215
   18.390    6.3524
   18.405    6.3465
   18.420    6.2927
   18.435    6.1814
   18.450    6.0783
   18.465    5.9863
   18.480    5.8945
   18.495    5.8021
   18.510    5.7658
   18.525    5.7641
   18.540    5.7473
   18.555    5.7315
   18.570    5.7315
   18.585    5.7622
   18.600    5.7364
   18.615    5.7370
   18.630    5.7343
   18.645    5.6914
   18.660    5.7387
   18.675    5.7434
   18.690    5.7671
   18.705    5.7841
   18.720    5.8379
   18.735    5.8886
   18.750    5.9422
   18.765    5.9953
   18.780    6.0616
   18.795    6.1004
   18.810    6.1241
   18.825    6.1389
   18.840    6.1057
   18.855    6.0416
   18.870    5.9659
   18.885    5.8698
   18.900    5.8215
   18.915    5.7843
   18.930    5.7583
   18.945    5.7544
   18.960    5.6910
   18.975    5.6879
   18.990    5.7148
   19.005    5.6978
   19.020    5.7045
   19.035    5.6706
   19.050    5.6609
   19.065    5.6859
   19.080    5.7148
   19.095    5.7097
   19.110    5.6931
   19.125    5.6912
   19.140    5.7208
   19.155    5.7343
   19.170    5.7639
   19.185    5.7840
   19.200    5.7932
   19.215    5.7886
   19.230    5.8430
   19.245    5.7994
   19.260    5.7900
   19.275    5.7700
   19.290    5.7457
   19.305    5.7116
   19.320    5.7169
   19.335    5.7275
   19.350    5.7255
   19.365    5.7206
   19.380    5.7361
   19.395    5.7454
   19.410    5.7515
   19.425    5.7364
   19.440    5.7633
   19.455    5.7609
   19.470    5.7620
   19.485    5.8645
   19.500    5.9304
   19.515    5.9709
   19.530    6.0722
   19.545    6.2231
   19.560    6.3558
   19.575    6.5249
   19.590    6.6604
   19.605    6.7974
   19.620    6.8438
   19.635    6.8279
   19.650    6.7035
   19.665    6.5626
   19.680    6.4021
   19.695    6.2485
   19.710    6.1023
   19.725    5.9711
   19.740    5.8820
   19.755    5.8420
   19.770    5.7698
   19.785    5.7500
   19.800    5.7459
   19.815    5.7475
   19.830    5.7394
   19.845    5.7435
   19.860    5.7656
   19.875    5.7928
   19.890    5.7535
   19.905    5.7524
   19.920    5.8240
   19.935    5.8247
   19.950    5.8366
   19.965    5.8783
   19.980    5.9078
   19.995    5.8804
   20.010    5.8674
   20.025    5.8888
   20.040    5.8728
   20.055    5.8461
   20.070    5.8509
   20.085    5.8176
   20.100    5.8047
   20.115    5.7723
   20.130    5.7833
   20.145    5.7951
   20.160    5.8214
   20.175    5.8236
   20.190    5.8257
   20.205    5.8372
   20.220    5.8573
   20.235    5.8670
   20.250    5.8967
   20.265    5.9888
   20.280    6.0984
   20.295    6.2269
   20.310    6.4053
   20.325    6.6621
   20.340    6.9247
   20.355    7.2066
   20.370    7.4967
   20.385    7.6878
   20.400    7.7950
   20.415    7.7490
   20.430    7.5815
   20.445    7.3549
   20.460    7.0201
   20.475    6.7315
   20.490    6.4521
   20.505    6.2420
   20.520    6.0473
   20.535    5.9669
   20.550    5.8998
   20.565    5.8862
   20.580    5.8466
   20.595    5.8321
   20.610    5.8170
   20.625    5.8074
   20.640    5.8271
   20.655    5.7953
   20.670    5.7892
   20.685    5.7846
   20.700    5.7954
   20.715    5.7916
   20.730    5.7922
   20.745    5.7957
   20.760    5.8204
   20.775    5.8362
   20.790    5.7938
   20.805    5.8390
   20.820    5.8297
   20.835    5.7968
   20.850    5.7771
   20.865    5.8098
   20.880    5.8208
   20.895    5.7795
   20.910    5.7875
   20.925    5.8177
   20.940    5.8257
   20.955    5.8032
   20.970    5.7666
   20.985    5.7784
   21.000    5.7920
   21.015    5.7963
   21.030    5.7587
   21.045    5.7802
   21.060    5.7710
   21.075    5.7944
   21.090    5.7774
   21.105    5.7810
   21.120    5.8159
   21.135    5.8045
   21.150    5.8093
   21.165    5.7984
   21.180    5.7810
   21.195    5.8251
   21.210    5.7831
   21.225    5.7797
   21.240    5.8039
   21.255    5.7775
   21.270    5.7670
   21.285    5.7944
   21.300    5.7970
   21.315    5.8136
   21.330    5.7897
   21.345    5.8165
   21.360    5.8148
   21.375    5.7799
   21.390    5.7990
   21.405    5.7854
   21.420    5.8220
   21.435    5.7860
   21.450    5.7740
   21.465    5.7909
   21.480    5.7878
   21.495    5.7971
   21.510    5.7807
   21.525    5.7880
   21.540    5.8016
   21.555    5.8003
   21.570    5.8012
   21.585    5.8156
   21.600    5.8031
   21.615    5.7961
   21.630    5.8148
   21.645    5.8363
   21.660    5.8643
   21.675    5.8380
   21.690    5.8513
   21.705    5.8543
   21.720    5.8823
   21.735    5.8992
   21.750    5.9458
   21.765    5.9902
   21.780    6.0381
   21.795    6.0883
   21.810    6.1996
   21.825    6.3385
   21.840    6.4547
   21.855    6.5811
   21.870    6.7061
   21.885    6.7178
   21.900    6.6818
   21.915    6.5747
   21.930    6.4678
   21.945    6.3736
   21.960    6.2226
   21.975    6.1283
   21.990    6.0274
   22.005    5.9872
   22.020    5.9561
   22.035    5.9147
   22.050    5.9027
   22.065    5.8788
   22.080    5.9091
   22.095    5.9153
   22.110    5.9365
   22.125    5.9302
   22.140    5.9782
   22.155    6.0307
   22.170    6.0704
   22.185    6.1011
   22.200    6.1771
   22.215    6.2308
   22.230    6.2387
   22.245    6.2605
   22.260    6.2365
   22.275    6.2068
   22.290    6.1780
   22.305    6.1118
   22.320    6.0620
   22.335    6.0392
   22.350    5.9870
   22.365    5.9991
   22.380    5.9395
   22.395    5.9424
   22.410    5.9836
   22.425    6.0228
   22.440    6.0572
   22.455    6.1206
   22.470    6.2055
   22.485    6.4011
   22.500    6.6005
   22.515    6.8219
   22.530    7.1248
   22.545    7.3300
   22.560    7.5861
   22.575    7.7499
   22.590    7.8399
   22.605    7.7615
   22.620    7.6691
   22.635    7.4478
   22.650    7.1772
   22.665    6.9055
   22.680    6.6402
   22.695    6.4467
   22.710    6.2762
   22.725    6.1951
   22.740    6.1571
   22.755    6.1257
   22.770    6.1312
   22.785    6.1675
   22.800    6.2343
   22.815    6.3678
   22.830    6.5341
   22.845    6.7728
   22.860    7.1322
   22.875    7.4956
   22.890    7.8385
   22.905    8.1382
   22.920    8.3573
   22.935    8.4230
   22.950    8.3855
   22.965    8.2345
   22.980    7.9490
   22.995    7.6157
   23.010    7.2379
   23.025    6.9002
   23.040    6.6032
   23.055    6.3618
   23.070    6.2161
   23.085    6.1195
   23.100    6.0391
   23.115    6.0035
   23.130    6.0235
   23.145    5.9929
   23.160    6.0094
   23.175    6.0409
   23.190    6.1251
   23.205    6.2170
   23.220    6.3267
   23.235    6.3929
   23.250    6.4756
   23.265    6.5156
   23.280    6.5368
   23.295    6.5065
   23.310    6.4584
   23.325    6.3702
   23.340    6.2764
   23.355    6.1744
   23.370    6.0683
   23.385    5.9711
   23.400    5.9299
   23.415    5.8970
   23.430    5.8997
   23.445    5.8989
   23.460    5.8920
   23.475    5.8883
   23.490    5.9098
   23.505    5.8873
   23.520    5.9185
   23.535    5.9109
   23.550    5.9348
   23.565    5.9539
   23.580    5.9693
   23.595    5.9913
   23.610    5.9986
   23.625    5.9895
   23.640    5.9972
   23.655    5.9405
   23.670    5.9254
   23.685    5.8874
   23.700    5.8702
   23.715    5.8197
   23.730    5.8343
   23.745    5.8019
   23.760    5.7899
   23.775    5.7938
   23.790    5.8076
   23.805    5.8278
   23.820    5.8643
   23.835    5.9207
   23.850    6.0027
   23.865    6.0805
   23.880    6.1480
   23.895    6.2267
   23.910    6.2902
   23.925    6.3958
   23.940    6.4230
   23.955    6.4083
   23.970    6.3753
   23.985    6.3027
   24.000    6.2247
   24.015    6.1326
   24.030    6.0372
   24.045    5.9192
   24.060    5.8777
   24.075    5.8148
   24.090    5.7783
   24.105    5.7286
   24.120    5.7308
   24.135    5.7576
   24.150    5.7225
   24.165    5.6916
   24.180    5.6912
   24.195    5.7366
   24.210    5.7465
   24.225    5.7691
   24.240    5.7720
   24.255    5.7937
   24.270    5.7657
   24.285    5.7674
   24.300    5.7792
   24.315    5.7594
   24.330    5.7449
   24.345    5.7328
   24.360    5.6936
   24.375    5.6692
   24.390    5.7123
   24.405    5.6911
   24.420    5.6782
   24.435    5.6849
   24.450    5.6595
   24.465    5.6805
   24.480    5.7143
   24.495    5.7117
   24.510    5.7246
   24.525    5.7472
   24.540    5.7957
   24.555    5.7769
   24.570    5.8179
   24.585    5.8347
   24.600    5.8427
   24.615    5.8373
   24.630    5.8310
   24.645    5.8357
   24.660    5.7788
   24.675    5.7358
   24.690    5.7032
   24.705    5.6841
   24.720    5.6719
   24.735    5.6375
   24.750    5.6367
   24.765    5.6517
   24.780    5.6601
   24.795    5.6650
   24.810    5.6489
   24.825    5.6719
   24.840    5.6881
   24.855    5.7108
   24.870    5.7359
   24.885    5.7488
   24.900    5.7506
   24.915    5.7371
   24.930    5.7404
   24.945    5.7555
   24.960    5.7072
   24.975    5.6903
   24.990    5.6550
   25.005    5.6546
   25.020    5.6328
   25.035    5.6202
   25.050    5.6172
   25.065    5.6307
   25.080    5.6114
   25.095    5.6039
   25.110    5.6389
   25.125    5.6364
   25.140    5.6635
   25.155    5.7097
   25.170    5.7611
   25.185    5.7820
   25.200    5.8245
   25.215    5.8326
   25.230    5.8509
   25.245    5.8308
   25.260    5.7979
   25.275    5.7857
   25.290    5.7341
   25.305    5.7079
   25.320    5.6882
   25.335    5.6767
   25.350    5.6106
   25.365    5.6313
   25.380    5.5910
   25.395    5.6220
   25.410    5.6514
   25.425    5.6667
   25.440    5.7006
   25.455    5.7407
   25.470    5.7737
   25.485    5.7700
   25.500    5.8368
   25.515    5.8630
   25.530    5.8657
   25.545    5.8241
   25.560    5.8288
   25.575    5.8455
   25.590    5.7931
   25.605    5.7369
   25.620    5.6917
   25.635    5.6650
   25.650    5.6397
   25.665    5.6487
   25.680    5.6473
   25.695    5.6808
   25.710    5.7421
   25.725    5.7598
   25.740    5.8272
   25.755    6.0001
   25.770    6.1517
   25.785    6.3335
   25.800    6.4827
   25.815    6.6360
   25.830    6.7692
   25.845    6.8334
   25.860    6.8461
   25.875    6.7728
   25.890    6.6707
   25.905    6.5100
   25.920    6.3391
   25.935    6.1724
   25.950    5.9734
   25.965    5.8406
   25.980    5.7474
   25.995    5.6618
   26.010    5.6069
   26.025    5.6050
   26.040    5.6069
   26.055    5.5819
   26.070    5.5735
   26.085    5.5882
   26.100    5.6494
   26.115    5.6447
   26.130    5.6370
   26.145    5.6519
   26.160    5.6676
   26.175    5.6434
   26.190    5.6341
   26.205    5.6134
   26.220    5.5667
   26.235    5.5652
   26.250    5.5379
   26.265    5.5406
   26.280    5.5301
   26.295    5.5234
   26.310    5.5189
   26.325    5.5473
   26.340    5.5823
   26.355    5.5804
   26.370    5.6525
   26.385    5.7222
   26.400    5.7804
   26.415    5.8224
   26.430    5.8924
   26.445    5.9038
   26.460    5.9555
   26.475    5.9215
   26.490    5.8947
   26.505    5.8009
   26.520    5.7818
   26.535    5.7284
   26.550    5.6599
   26.565    5.5879
   26.580    5.5243
   26.595    5.4924
   26.610    5.5035
   26.625    5.4955
   26.640    5.4744
   26.655    5.4433
   26.670    5.4238
   26.685    5.4296
   26.700    5.3995
   26.715    5.4200
   26.730    5.4263
   26.745    5.3865
   26.760    5.3884
   26.775    5.3801
   26.790    5.3838
   26.805    5.3813
   26.820    5.4150
   26.835    5.4047
   26.850    5.4169
   26.865    5.4586
   26.880    5.4549
   26.895    5.4597
   26.910    5.4808
   26.925    5.5118
   26.940    5.6019
   26.955    5.6424
   26.970    5.7271
   26.985    5.8228
   27.000    5.9107
   27.015    5.9882
   27.030    6.0393
   27.045    6.0356
   27.060    6.0559
   27.075    6.0059
   27.090    5.9740
   27.105    5.8809
   27.120    5.8278
   27.135    5.7503
   27.150    5.6468
   27.165    5.5622
   27.180    5.4862
   27.195    5.4262
   27.210    5.4148
   27.225    5.3857
   27.240    5.3664
   27.255    5.4066
   27.270    5.3786
   27.285    5.3727
   27.300    5.3671
   27.315    5.3816
   27.330    5.3452
   27.345    5.3650
   27.360    5.3604
   27.375    5.3798
   27.390    5.3555
   27.405    5.3596
   27.420    5.3542
   27.435    5.3381
   27.450    5.3380
   27.465    5.3680
   27.480    5.3813
   27.495    5.3835
   27.510    5.3848
   27.525    5.4075
   27.540    5.4777
   27.555    5.4791
   27.570    5.5290
   27.585    5.5920
   27.600    5.6407
   27.615    5.6720
   27.630    5.6528
   27.645    5.6628
   27.660    5.6756
   27.675    5.6269
   27.690    5.5676
   27.705    5.5604
   27.720    5.5166
   27.735    5.4529
   27.750    5.3878
   27.765    5.3894
   27.780    5.3427
   27.795    5.3966
   27.810    5.3934
   27.825    5.3835
   27.840    5.4279
   27.855    5.4588
   27.870    5.4841
   27.885    5.4790
   27.900    5.4681
   27.915    5.5384
   27.930    5.5398
   27.945    5.5314
   27.960    5.5122
   27.975    5.4744
   27.990    5.4312
   28.005    5.4390
   28.020    5.4079
   28.035    5.3954
   28.050    5.3543
   28.065    5.3778
   28.080    5.4393
   28.095    5.4731
   28.110    5.5240
   28.125    5.5839
   28.140    5.6343
   28.155    5.7423
   28.170    5.7888
   28.185    5.8552
   28.200    5.8551
   28.215    5.8611
   28.230    5.8666
   28.245    5.7965
   28.260    5.7803
   28.275    5.6925
   28.290    5.6030
   28.305    5.5583
   28.320    5.4273
   28.335    5.4104
   28.350    5.3996
   28.365    5.4103
   28.380    5.4250
   28.395    5.4627
   28.410    5.5258
   28.425    5.5678
   28.440    5.6335
   28.455    5.6994
   28.470    5.6835
   28.485    5.7185
   28.500    5.7076
   28.515    5.7008
   28.530    5.6621
   28.545    5.5642
   28.560    5.5519
   28.575    5.4908
   28.590    5.4192
   28.605    5.3513
   28.620    5.3016
   28.635    5.2901
   28.650    5.2858
   28.665    5.2521
   28.680    5.2498
   28.695    5.2482
   28.710    5.2409
   28.725    5.2168
   28.740    5.2187
   28.755    5.2292
   28.770    5.2169
   28.785    5.2266
   28.800    5.2433
   28.815    5.2452
   28.830    5.2429
   28.845    5.2503
   28.860    5.2032
   28.875    5.1978
   28.890    5.2043
   28.905    5.1915
   28.920    5.2592
   28.935    5.2404
   28.950    5.2255
   28.965    5.2740
   28.980    5.2995
   28.995    5.3405
   29.010    5.3401
   29.025    5.3539
   29.040    5.3583
   29.055    5.3538
   29.070    5.3728
   29.085    5.3211
   29.100    5.2939
   29.115    5.3001
   29.130    5.2626
   29.145    5.2753
   29.160    5.2510
   29.175    5.2348
   29.190    5.2841
   29.205    5.2983
   29.220    5.3120
   29.235    5.3507
   29.250    5.3964
   29.265    5.4619
   29.280    5.5381
   29.295    5.5642
   29.310    5.5660
   29.325    5.6247
   29.340    5.5819
   29.355    5.5803
   29.370    5.5379
   29.385    5.4812
   29.400    5.4235
   29.415    5.3199
   29.430    5.2760
   29.445    5.2340
   29.460    5.1911
   29.475    5.1897
   29.490    5.1469
   29.505    5.1171
   29.520    5.1211
   29.535    5.1270
   29.550    5.1014
   29.565    5.1110
   29.580    5.1071
   29.595    5.0896
   29.610    5.1246
   29.625    5.1300
   29.640    5.1200
   29.655    5.1181
   29.670    5.1101
   29.685    5.1241
   29.700    5.1099
   29.715    5.1015
   29.730    5.1202
   29.745    5.1436
   29.760    5.1803
   29.775    5.2002
   29.790    5.2474
   29.805    5.2432
   29.820    5.2729
   29.835    5.3066
   29.850    5.2917
   29.865    5.2784
   29.880    5.3059
   29.895    5.3149
   29.910    5.2754
   29.925    5.2213
   29.940    5.2101
   29.955    5.1689
   29.970    5.1502
   29.985    5.1184
   30.000    5.1175
   30.015    5.1387
   30.030    5.1266
   30.045    5.1437
   30.060    5.1344
   30.075    5.1373
   30.090    5.1567
   30.105    5.1565
   30.120    5.1382
   30.135    5.1493
   30.150    5.1447
   30.165    5.1330
   30.180    5.1412
   30.195    5.1542
   30.210    5.1033
   30.225    5.0662
   30.240    5.0600
   30.255    5.0965
   30.270    5.0864
   30.285    5.0435
   30.300    5.0660
   30.315    5.0659
   30.330    5.0968
   30.345    5.0772
   30.360    5.0905
   30.375    5.0714
   30.390    5.1186
   30.405    5.1127
   30.420    5.1254
   30.435    5.0745
   30.450    5.0668
   30.465    5.0936
   30.480    5.0567
   30.495    5.0456
   30.510    5.0513
   30.525    5.0570
   30.540    5.0665
   30.555    5.0685
   30.570    5.0771
   30.585    5.1082
   30.600    5.1339
   30.615    5.1542
   30.630    5.1532
   30.645    5.1381
   30.660    5.1962
   30.675    5.1930
   30.690    5.1776
   30.705    5.1436
   30.720    5.1232
   30.735    5.1275
   30.750    5.0798
   30.765    5.0336
   30.780    5.0223
   30.795    5.0123
   30.810    5.0202
   30.825    5.0069
   30.840    4.9939
   30.855    4.9871
   30.870    5.0007
   30.885    5.0029
   30.900    5.0128
   30.915    5.0056
   30.930    4.9879
   30.945    4.9748
   30.960    4.9915
   30.975    4.9834
   30.990    4.9777
   31.005    4.9592
   31.020    4.9269
   31.035    4.9094
   31.050    4.9299
   31.065    4.9048
   31.080    4.9051
   31.095    4.9287
   31.110    4.9246
   31.125    4.9277
   31.140    4.9404
   31.155    4.9179
   31.170    4.9303
   31.185    4.9087
   31.200    4.9242
   31.215    4.9136
   31.230    4.9050
   31.245    4.9092
   31.260    4.9095
   31.275    4.9190
   31.290    4.9442
   31.305    4.9628
   31.320    4.9684
   31.335    4.9705
   31.350    5.0097
   31.365    5.0328
   31.380    5.0578
   31.395    5.0550
   31.410    5.0753
   31.425    5.1069
   31.440    5.1352
   31.455    5.1063
   31.470    5.0826
   31.485    5.1031
   31.500    5.0472
   31.515    5.0267
   31.530    5.0169
   31.545    5.0151
   31.560    4.9552
   31.575    4.9370
   31.590    4.9647
   31.605    4.9425
   31.620    4.9692
   31.635    4.9525
   31.650    4.9610
   31.665    4.9572
   31.680    4.9693
   31.695    4.9899
   31.710    4.9994
   31.725    5.0261
   31.740    5.0788
   31.755    5.0649
   31.770    5.0430
   31.785    5.0710
   31.800    5.0269
   31.815    5.0314
   31.830    5.0135
   31.845    5.0110
   31.860    4.9980
   31.875    4.9936
   31.890    4.9750
   31.905    4.9903
   31.920    5.0131
   31.935    4.9826
   31.950    4.9778
   31.965    4.9707
   31.980    4.9771
   31.995    4.9408
   32.010    4.9505
   32.025    4.9317
   32.040    4.9295
   32.055    4.9150
   32.070    4.8959
   32.085    4.8776
   32.100    4.8915
   32.115    4.9170
   32.130    4.9048
   32.145    4.8922
   32.160    4.9181
   32.175    4.9053
   32.190    4.8884
   32.205    4.8877
   32.220    4.9006
   32.235    4.8907
   32.250    4.8498
   32.265    4.8712
   32.280    4.8553
   32.295    4.8661
   32.310    4.8375
   32.325    4.8213
   32.340    4.8255
   32.355    4.8004
   32.370    4.7941
   32.385    4.8239
   32.400    4.8517
   32.415    4.8637
   32.430    4.8518
   32.445    4.8459
   32.460    4.8242
   32.475    4.8444
   32.490    4.8439
   32.505    4.8328
   32.520    4.8075
   32.535    4.8262
   32.550    4.8064
   32.565    4.7907
   32.580    4.7783
   32.595    4.7925
   32.610    4.8214
   32.625    4.8043
   32.640    4.8367
   32.655    4.8176
   32.670    4.8221
   32.685    4.7937
   32.700    4.8095
   32.715    4.8171
   32.730    4.7995
   32.745    4.7866
   32.760    4.8007
   32.775    4.8006
   32.790    4.7788
   32.805    4.8124
   32.820    4.8172
   32.835    4.8234
   32.850    4.8349
   32.865    4.8712
   32.880    4.8933
   32.895    4.9081
   32.910    4.9465
   32.925    4.9349
   32.940    4.9347
   32.955    4.9682
   32.970    4.9401
   32.985    4.8994
   33.000    4.8953
   33.015    4.8590
   33.030    4.8394
   33.045    4.8223
   33.060    4.7923
   33.075    4.7818
   33.090    4.7882
   33.105    4.7610
   33.120    4.7633
   33.135    4.7547
   33.150    4.7344
   33.165    4.7426
   33.180    4.7368
   33.195    4.7255
   33.210    4.7396
   33.225    4.7321
   33.240    4.7196
   33.255    4.7494
   33.270    4.7459
   33.285    4.7293
   33.300    4.7276
   33.315    4.7178
   33.330    4.7330
   33.345    4.7448
   33.360    4.7401
   33.375    4.7227
   33.390    4.7338
   33.405    4.7360
   33.420    4.7113
   33.435    4.7132
   33.450    4.7513
   33.465    4.7379
   33.480    4.7093
   33.495    4.7054
   33.510    4.7051
   33.525    4.7242
   33.540    4.7233
   33.555    4.6903
   33.570    4.7155
   33.585    4.7292
   33.600    4.7715
   33.615    4.7767
   33.630    4.7637
   33.645    4.7557
   33.660    4.7774
   33.675    4.7639
   33.690    4.7842
   33.705    4.7948
   33.720    4.7839
   33.735    4.7755
   33.750    4.7539
   33.765    4.7711
   33.780    4.8045
   33.795    4.7873
   33.810    4.8195
   33.825    4.8732
   33.840    4.9123
   33.855    4.9004
   33.870    4.9237
   33.885    4.9345
   33.900    4.9469
   33.915    4.9764
   33.930    4.9898
   33.945    4.9797
   33.960    4.9468
   33.975    4.9400
   33.990    4.9271
   34.005    4.8818
   34.020    4.8741
   34.035    4.8005
   34.050    4.7789
   34.065    4.7745
   34.080    4.7777
   34.095    4.7718
   34.110    4.7638
   34.125    4.7519
   34.140    4.7652
   34.155    4.7960
   34.170    4.7599
   34.185    4.7154
   34.200    4.7537
   34.215    4.7407
   34.230    4.7374
   34.245    4.7206
   34.260    4.7224
   34.275    4.6967
   34.290    4.6668
   34.305    4.7085
   34.320    4.7079
   34.335    4.7156
   34.350    4.6953
   34.365    4.6971
   34.380    4.7253
   34.395    4.6998
   34.410    4.6985
   34.425    4.6790
   34.440    4.6737
   34.455    4.7074
   34.470    4.7050
   34.485    4.6621
   34.500    4.6648
   34.515    4.6440
   34.530    4.6443
   34.545    4.6481
   34.560    4.6644
   34.575    4.6598
   34.590    4.6473
   34.605    4.6429
   34.620    4.6293
   34.635    4.6439
   34.650    4.6645
   34.665    4.6375
   34.680    4.6154
   34.695    4.6513
   34.710    4.6711
   34.725    4.6851
   34.740    4.7035
   34.755    4.7071
   34.770    4.6919
   34.785    4.7513
   34.800    4.7483
   34.815    4.7513
   34.830    4.7909
   34.845    4.7722
   34.860    4.8127
   34.875    4.7998
   34.890    4.8149
   34.905    4.7865
   34.920    4.7671
   34.935    4.7638
   34.950    4.7334
   34.965    4.6974
   34.980    4.6870
   34.995    4.6833
   35.010    4.6290
   35.025    4.6330
   35.040    4.6168
   35.055    4.6038
   35.070    4.6204
   35.085    4.6018
   35.100    4.5935
   35.115    4.5656
   35.130    4.5988
   35.145    4.5966
   35.160    4.5839
   35.175    4.6045
   35.190    4.6203
   35.205    4.5974
   35.220    4.5962
   35.235    4.6213
   35.250    4.5937
   35.265    4.6428
   35.280    4.6301
   35.295    4.6272
   35.310    4.6367
   35.325    4.6701
   35.340    4.6735
   35.355    4.6743
   35.370    4.6196
   35.385    4.6151
   35.400    4.5999
   35.415    4.6215
   35.430    4.6370
   35.445    4.5993
   35.460    4.5868
   35.475    4.5988
   35.490    4.5688
   35.505    4.5693
   35.520    4.5812
   35.535    4.5900
   35.550    4.5776
   35.565    4.5697
   35.580    4.5852
   35.595    4.5904
   35.610    4.5839
   35.625    4.5599
   35.640    4.5836
   35.655    4.6266
   35.670    4.6434
   35.685    4.6138
   35.700    4.6233
   35.715    4.6489
   35.730    4.6575
   35.745    4.6528
   35.760    4.6599
   35.775    4.6516
   35.790    4.6482
   35.805    4.6922
   35.820    4.6470
   35.835    4.6669
   35.850    4.6666
   35.865    4.6715
   35.880    4.6530
   35.895    4.6405
   35.910    4.6480
   35.925    4.6542
   35.940    4.6507
   35.955    4.6369
   35.970    4.6509
   35.985    4.6497
   36.000    4.6429
   36.015    4.6541
   36.030    4.6553
   36.045    4.6503
   36.060    4.6461
   36.075    4.6264
   36.090    4.6558
   36.105    4.6550
   36.120    4.6220
   36.135    4.6444
   36.150    4.6217
   36.165    4.6002
   36.180    4.6398
   36.195    4.6446
   36.210    4.6250
   36.225    4.6078
   36.240    4.6439
   36.255    4.6372
   36.270    4.6316
   36.285    4.6117
   36.300    4.6254
   36.315    4.5906
   36.330    4.5868
   36.345    4.6039
   36.360    4.5866
   36.375    4.5830
   36.390    4.5700
   36.405    4.5713
   36.420    4.5732
   36.435    4.5532
   36.450    4.5463
   36.465    4.5756
   36.480    4.5918
   36.495    4.5558
   36.510    4.5489
   36.525    4.5747
   36.540    4.5799
   36.555    4.5542
   36.570    4.5901
   36.585    4.5754
   36.600    4.6034
   36.615    4.6303
   36.630    4.6148
   36.645    4.5965
   36.660    4.6128
   36.675    4.6329
   36.690    4.6592
   36.705    4.6558
   36.720    4.6356
   36.735    4.6301
   36.750    4.6266
   36.765    4.6120
   36.780    4.6005
   36.795    4.5969
   36.810    4.5748
   36.825    4.5558
   36.840    4.5444
   36.855    4.5381
   36.870    4.5128
   36.885    4.5064
   36.900    4.5289
   36.915    4.5348
   36.930    4.5128
   36.945    4.5167
   36.960    4.5012
   36.975    4.5373
   36.990    4.5375
   37.005    4.5827
   37.020    4.5751
   37.035    4.6242
   37.050    4.6062
   37.065    4.6429
   37.080    4.6654
   37.095    4.6787
   37.110    4.7161
   37.125    4.7466
   37.140    4.7270
   37.155    4.7076
   37.170    4.6920
   37.185    4.6930
   37.200    4.6879
   37.215    4.6799
   37.230    4.6315
   37.245    4.6126
   37.260    4.6275
   37.275    4.6003
   37.290    4.5658
   37.305    4.5548
   37.320    4.5552
   37.335    4.5208
   37.350    4.5288
   37.365    4.5234
   37.380    4.5263
   37.395    4.4975
   37.410    4.5261
   37.425    4.5226
   37.440    4.5104
   37.455    4.5009
   37.470    4.5095
   37.485    4.5085
   37.500    4.4973
   37.515    4.5207
   37.530    4.5484
   37.545    4.5351
   37.560    4.5393
   37.575    4.5557
   37.590    4.5544
   37.605    4.5808
   37.620    4.5731
   37.635    4.5571
   37.650    4.5545
   37.665    4.5343
   37.680    4.5406
   37.695    4.5408
   37.710    4.5643
   37.725    4.5552
   37.740    4.5460
   37.755    4.5863
   37.770    4.5413
   37.785    4.5285
   37.800    4.5659
   37.815    4.5569
   37.830    4.5543
   37.845    4.5577
   37.860    4.5795
   37.875    4.5327
   37.890    4.5533
   37.905    4.5555
   37.920    4.5023
   37.935    4.5397
   37.950    4.5071
   37.965    4.5332
   37.980    4.5493
   37.995    4.5640
   38.010    4.5733
   38.025    4.5519
   38.040    4.5579
   38.055    4.5542
   38.070    4.5557
   38.085    4.5345
   38.100    4.5204
   38.115    4.5201
   38.130    4.5316
   38.145    4.5120
   38.160    4.5057
   38.175    4.4910
   38.190    4.4775
   38.205    4.4946
   38.220    4.4896
   38.235    4.4781
   38.250    4.4885
   38.265    4.4877
   38.280    4.4821
   38.295    4.5144
   38.310    4.4934
   38.325    4.5007
   38.340    4.4976
   38.355    4.4944
   38.370    4.5068
   38.385    4.5219
   38.400    4.5052
   38.415    4.4964
   38.430    4.5089
   38.445    4.5427
   38.460    4.5368
   38.475    4.5248
   38.490    4.5403
   38.505    4.5354
   38.520    4.5075
   38.535    4.5367
   38.550    4.5253
   38.565    4.4648
   38.580    4.4681
   38.595    4.4747
   38.610    4.4553
   38.625    4.4636
   38.640    4.4735
   38.655    4.4619
   38.670    4.4547
   38.685    4.4393
   38.700    4.4365
   38.715    4.4570
   38.730    4.4364
   38.745    4.4488
   38.760    4.4510
   38.775    4.4850
   38.790    4.4703
   38.805    4.4680
   38.820    4.4782
   38.835    4.4901
   38.850    4.4449
   38.865    4.4512
   38.880    4.4663
   38.895    4.4609
   38.910    4.4858
   38.925    4.4555
   38.940    4.4863
   38.955    4.4944
   38.970    4.4836
   38.985    4.4453
   39.000    4.4441
   39.015    4.4470
   39.030    4.4529
   39.045    4.4548
   39.060    4.4589
   39.075    4.4580
   39.090    4.4579
   39.105    4.4343
   39.120    4.4310
   39.135    4.4729
   39.150    4.4836
   39.165    4.4690
   39.180    4.5115
   39.195    4.4699
   39.210    4.4918
   39.225    4.4932
   39.240    4.4878
   39.255    4.4839
   39.270    4.5248
   39.285    4.5316
   39.300    4.5490
   39.315    4.5415
   39.330    4.5383
   39.345    4.5204
   39.360    4.5230
   39.375    4.5113
   39.390    4.5201
   39.405    4.5118
   39.420    4.5055
   39.435    4.4831
   39.450    4.4723
   39.465    4.4901
   39.480    4.4845
   39.495    4.4981
   39.510    4.4807
   39.525    4.4638
   39.540    4.4540
   39.555    4.4449
   39.570    4.4769
   39.585    4.4717
   39.600    4.4634
   39.615    4.4697
   39.630    4.4858
   39.645    4.4986
   39.660    4.4856
   39.675    4.5015
   39.690    4.5292
   39.705    4.4992
   39.720    4.4744
   39.735    4.5346
   39.750    4.5093
   39.765    4.5114
   39.780    4.5016
   39.795    4.4945
   39.810    4.5011
   39.825    4.4892
   39.840    4.4597
   39.855    4.4813
   39.870    4.4914
   39.885    4.5075
   39.900    4.4981
   39.915    4.4885
   39.930    4.4853
   39.945    4.4916
   39.960    4.4670
   39.975    4.4800
   39.990    4.4440
