    1.500   21.9940
    1.515   22.4153
    1.530   21.5728
    1.545   20.5196
    1.560   19.8877
    1.575   19.7297
    1.590   19.7999
    1.605   19.2382
    1.620   19.1680
    1.635   18.6238
    1.650   18.4308
    1.665   17.5004
    1.680   17.5882
    1.695   17.0967
    1.710   17.0265
    1.725   16.1489
    1.740   15.7451
    1.755   15.1834
    1.770   14.8499
    1.785   14.3058
    1.800   14.5164
    1.815   15.2887
    1.830   14.0951
    1.845   13.8845
    1.860   13.0068
    1.875   12.6733
    1.890   12.7787
    1.905   12.6909
    1.920   11.9712
    1.935   12.1292
    1.950   12.0414
    1.965   11.9361
    1.980   11.8834
    1.995   11.5148
    2.010   11.4622
    2.025   11.1989
    2.040   11.3217
    2.055   11.5850
    2.070   10.7074
    2.085   10.4265
    2.100    9.7069
    2.115   10.0755
    2.130    9.3558
    2.145   10.0228
    2.160   10.1281
    2.175    9.5138
    2.190    9.6191
    2.205    9.1276
    2.220    9.2680
    2.235   10.0404
    2.250    9.5138
    2.265    9.5489
    2.280    9.1276
    2.295    8.9345
    2.310    8.2851
    2.325    8.6361
    2.340    8.6888
    2.355    8.1271
    2.370    8.5484
    2.385    8.4606
    2.400    8.0042
    2.415    7.8462
    2.430    8.0042
    2.445    8.2675
    2.460    8.1095
    2.475    7.8989
    2.490    8.0393
    2.505    8.1622
    2.520    8.0393
    2.535    8.2324
    2.550    8.3553
    2.565    7.6883
    2.580    7.6707
    2.595    7.6180
    2.610    7.6180
    2.625    7.1441
    2.640    7.5127
    2.655    7.6883
    2.670    7.4074
    2.685    7.2494
    2.700    6.3718
    2.715    7.0915
    2.730    6.8984
    2.745    7.4425
    2.760    7.8638
    2.775    7.6532
    2.790    7.5654
    2.805    7.4952
    2.820    7.3196
    2.835    7.1441
    2.850    7.2845
    2.865    7.3372
    2.880    7.5829
    2.895    7.6005
    2.910    6.9686
    2.925    7.4250
    2.940    7.5127
    2.955    7.4601
    2.970    7.1266
    2.985    7.6180
    3.000    7.8287
    3.015    7.8989
    3.030    7.5303
    3.045    8.5133
    3.060    7.8111
    3.075    8.0393
    3.090    7.9340
    3.105    7.6180
    3.120    8.3026
    3.135    8.5484
    3.150    8.4255
    3.165    8.6712
    3.180    8.7063
    3.195    8.0218
    3.210    8.9170
    3.225    8.4781
    3.240    9.5138
    3.255    9.6191
    3.270    9.7771
    3.285   10.1983
    3.300   10.9180
    3.315   11.4095
    3.330   11.4271
    3.345   11.0760
    3.360   11.4973
    3.375   12.1643
    3.390   13.0420
    3.405   13.6563
    3.420   13.6037
    3.435   14.2005
    3.450   14.2180
    3.465   13.5510
    3.480   13.0595
    3.495   12.0590
    3.510   11.7079
    3.525   10.7776
    3.540    9.7595
    3.555    9.0047
    3.570    8.9872
    3.585    8.4606
    3.600    8.6712
    3.615    7.3372
    3.630    7.3372
    3.645    7.4952
    3.660    7.7409
    3.675    7.3899
    3.690    7.4425
    3.705    6.9686
    3.720    7.2494
    3.735    7.4952
    3.750    6.8106
    3.765    6.7228
    3.780    6.9861
    3.795    6.5649
    3.810    6.5824
    3.825    6.8106
    3.840    6.9686
    3.855    7.0037
    3.870    6.8808
    3.885    6.7404
    3.900    7.0037
    3.915    6.6702
    3.930    6.6000
    3.945    6.7579
    3.960    6.6702
    3.975    6.2489
    3.990    6.8457
    4.005    7.0915
    4.020    6.7404
    4.035    6.4420
    4.050    6.6000
    4.065    6.5473
    4.080    6.5122
    4.095    6.5649
    4.110    6.7930
    4.125    6.4946
    4.140    6.6351
    4.155    6.2840
    4.170    6.9510
    4.185    7.1441
    4.200    6.4946
    4.215    6.5298
    4.230    6.1611
    4.245    6.2489
    4.260    6.2665
    4.275    6.3191
    4.290    5.9329
    4.305    6.4420
    4.320    6.4069
    4.335    6.1260
    4.350    5.5819
    4.365    5.7750
    4.380    6.0558
    4.395    5.7223
    4.410    5.6345
    4.425    5.7750
    4.440    5.4590
    4.455    5.3712
    4.470    5.4415
    4.485    5.3010
    4.500    5.2133
    4.515    5.0728
    4.530    5.2308
    4.545    5.0202
    4.560    5.0202
    4.575    5.2659
    4.590    5.5468
    4.605    5.0728
    4.620    4.7920
    4.635    4.4936
    4.650    4.8798
    4.665    4.7218
    4.680    4.7920
    4.695    5.0026
    4.710    4.6516
    4.725    4.6165
    4.740    5.1431
    4.755    4.9851
    4.770    4.7042
    4.785    4.8271
    4.800    4.7569
    4.815    4.6340
    4.830    4.3532
    4.845    4.2303
    4.860    4.2830
    4.875    4.5989
    4.890    4.3005
    4.905    4.2830
    4.920    4.3356
    4.935    4.6165
    4.950    4.5111
    4.965    4.4936
    4.980    4.3707
    4.995    4.5111
    5.010    4.2127
    5.025    4.1952
    5.040    4.4058
    5.055    4.4058
    5.070    4.1250
    5.085    4.2127
    5.100    4.7744
    5.115    4.2127
    5.130    3.8968
    5.145    4.1776
    5.160    4.3356
    5.175    4.0548
    5.190    4.5814
    5.205    4.6516
    5.220    4.6691
    5.235    4.0899
    5.250    4.3356
    5.265    4.7042
    5.280    4.2654
    5.295    4.3005
    5.310    4.2127
    5.325    4.0548
    5.340    4.1425
    5.355    3.9143
    5.370    4.0548
    5.385    4.0899
    5.400    3.9494
    5.415    4.0021
    5.430    4.3356
    5.445    4.0372
    5.460    4.1425
    5.475    4.1601
    5.490    3.8968
    5.505    4.1074
    5.520    4.2303
    5.535    4.0021
    5.550    4.4585
    5.565    3.8090
    5.580    4.3356
    5.595    4.2478
    5.610    3.9319
    5.625    4.1601
    5.640    3.9494
    5.655    4.4234
    5.670    4.4409
    5.685    4.3181
    5.700    4.1425
    5.715    4.2478
    5.730    4.4585
    5.745    4.0197
    5.760    3.9846
    5.775    3.7739
    5.790    4.2654
    5.805    3.9143
    5.820    4.2127
    5.835    4.1250
    5.850    4.0372
    5.865    3.8266
    5.880    3.8441
    5.895    4.0197
    5.910    3.9143
    5.925    4.2830
    5.940    4.1425
    5.955    4.1776
    5.970    3.9670
    5.985    3.7564
    6.000    3.8441
    6.015    4.0899
    6.030    3.8617
    6.045    3.7915
    6.060    4.0021
    6.075    3.5282
    6.090    3.7739
    6.105    3.7037
    6.120    4.0723
    6.135    4.4234
    6.150    4.3707
    6.165    4.3005
    6.180    4.3532
    6.195    4.4760
    6.210    4.5463
    6.225    4.2830
    6.240    4.0548
    6.255    3.8617
    6.270    3.8792
    6.285    3.9670
    6.300    4.4234
    6.315    4.3356
    6.330    4.4409
    6.345    4.1250
    6.360    4.1074
    6.375    3.8968
    6.390    4.2654
    6.405    4.2127
    6.420    4.6691
    6.435    4.3005
    6.450    4.3005
    6.465    4.3181
    6.480    4.1074
    6.495    4.4058
    6.510    4.3181
    6.525    4.1425
    6.540    4.1425
    6.555    4.4409
    6.570    4.4585
    6.585    4.1601
    6.600    4.5814
    6.615    4.2830
    6.630    4.1425
    6.645    4.2127
    6.660    4.4058
    6.675    4.7042
    6.690    4.7042
    6.705    4.4409
    6.720    4.3005
    6.735    4.8095
    6.750    4.5638
    6.765    4.4058
    6.780    4.5111
    6.795    4.4234
    6.810    4.6165
    6.825    4.3532
    6.840    4.4409
    6.855    4.9500
    6.870    5.0202
    6.885    4.7218
    6.900    4.8095
    6.915    5.1255
    6.930    4.9324
    6.945    5.0904
    6.960    5.0904
    6.975    5.5468
    6.990    4.4409
    7.005    4.7569
    7.020    4.5111
    7.035    4.8798
    7.050    4.4058
    7.065    4.3532
    7.080    4.3883
    7.095    4.1074
    7.110    4.3181
    7.125    4.1074
    7.140    4.5111
    7.155    4.3532
    7.170    4.5638
    7.185    4.5111
    7.200    4.5111
    7.215    4.6165
    7.230    4.5814
    7.245    4.7569
    7.260    4.5638
    7.275    4.1601
    7.290    4.0723
    7.305    4.1601
    7.320    4.0723
    7.335    3.9846
    7.350    4.2830
    7.365    3.9670
    7.380    4.0021
    7.395    4.2654
    7.410    3.9670
    7.425    4.3356
    7.440    4.3005
    7.455    4.0723
    7.470    4.4409
    7.485    4.1601
    7.500    4.2303
    7.515    4.5638
    7.530    4.3883
    7.545    4.3005
    7.560    4.2830
    7.575    4.6165
    7.590    4.0899
    7.605    3.9494
    7.620    4.1250
    7.635    4.7393
    7.650    4.6340
    7.665    4.6165
    7.680    4.5111
    7.695    4.2127
    7.710    4.6340
    7.725    4.4058
    7.740    4.4058
    7.755    4.1074
    7.770    4.5814
    7.785    4.4234
    7.800    3.8792
    7.815    4.6165
    7.830    4.5814
    7.845    4.4936
    7.860    4.4234
    7.875    4.8973
    7.890    4.2303
    7.905    4.1425
    7.920    4.4760
    7.935    4.6867
    7.950    4.3883
    7.965    4.4058
    7.980    4.5989
    7.995    4.4760
    8.010    4.5111
    8.025    4.4409
    8.040    4.1074
    8.055    4.7569
    8.070    4.6691
    8.085    4.1776
    8.100    4.3707
    8.115    4.3707
    8.130    4.2654
    8.145    4.6516
    8.160    4.5989
    8.175    4.4409
    8.190    4.4936
    8.205    4.2654
    8.220    4.3181
    8.235    4.1952
    8.250    4.0548
    8.265    4.2654
    8.280    4.1250
    8.295    4.9324
    8.310    4.7744
    8.325    4.3356
    8.340    4.7042
    8.355    4.7744
    8.370    4.3883
    8.385    4.6165
    8.400    4.3707
    8.415    4.5814
    8.430    4.4409
    8.445    4.5989
    8.460    4.3181
    8.475    4.8095
    8.490    4.8973
    8.505    4.5814
    8.520    4.0197
    8.535    4.1776
    8.550    4.5814
    8.565    4.6691
    8.580    4.4234
    8.595    4.7042
    8.610    4.4936
    8.625    4.5111
    8.640    5.0728
    8.655    4.7393
    8.670    4.6165
    8.685    5.0377
    8.700    5.2308
    8.715    4.8271
    8.730    4.8271
    8.745    4.2478
    8.760    4.4409
    8.775    4.3532
    8.790    4.3181
    8.805    4.1425
    8.820    4.6691
    8.835    4.5989
    8.850    4.8271
    8.865    4.3181
    8.880    4.7393
    8.895    4.3356
    8.910    4.5463
    8.925    4.8095
    8.940    4.9324
    8.955    4.5463
    8.970    4.3707
    8.985    4.4936
    9.000    4.6691
    9.015    4.8622
    9.030    4.6165
    9.045    4.3181
    9.060    4.8095
    9.075    4.3356
    9.090    4.7920
    9.105    4.1952
    9.120    4.5287
    9.135    4.4760
    9.150    4.2303
    9.165    4.6165
    9.180    4.7569
    9.195    4.5287
    9.210    4.2478
    9.225    4.7042
    9.240    4.9149
    9.255    4.5814
    9.270    4.3181
    9.285    4.7393
    9.300    4.8447
    9.315    4.6867
    9.330    4.7744
    9.345    4.8798
    9.360    4.4409
    9.375    4.0548
    9.390    4.5638
    9.405    4.4936
    9.420    4.6691
    9.435    4.4585
    9.450    4.6691
    9.465    4.5638
    9.480    4.5638
    9.495    4.1776
    9.510    4.5638
    9.525    5.0026
    9.540    4.6516
    9.555    4.8271
    9.570    4.7569
    9.585    4.7569
    9.600    4.8973
    9.615    4.2654
    9.630    4.4760
    9.645    4.5638
    9.660    4.9324
    9.675    5.1255
    9.690    4.5989
    9.705    4.7920
    9.720    4.5814
    9.735    4.7393
    9.750    4.5111
    9.765    4.2127
    9.780    4.0548
    9.795    3.9670
    9.810    4.1601
    9.825    4.5989
    9.840    4.6691
    9.855    4.3181
    9.870    4.5638
    9.885    4.7744
    9.900    4.5989
    9.915    4.8271
    9.930    4.5814
    9.945    4.8798
    9.960    4.3532
    9.975    4.6165
    9.990    4.6691
   10.005    4.8095
   10.020    4.5287
   10.035    4.5463
   10.050    4.6867
   10.065    4.6165
   10.080    4.6165
   10.095    4.3532
   10.110    4.2654
   10.125    4.7393
   10.140    4.4760
   10.155    4.2830
   10.170    4.5111
   10.185    4.6340
   10.200    4.1601
   10.215    4.5814
   10.230    4.5463
   10.245    4.4409
   10.260    4.4585
   10.275    4.0021
   10.290    4.3707
   10.305    4.1952
   10.320    4.2303
   10.335    4.5814
   10.350    5.0026
   10.365    4.7218
   10.380    4.4234
   10.395    4.7218
   10.410    4.4234
   10.425    4.5111
   10.440    4.6867
   10.455    4.4936
   10.470    4.5989
   10.485    4.6691
   10.500    4.5111
   10.515    4.4234
   10.530    4.4936
   10.545    4.2303
   10.560    4.1776
   10.575    4.7569
   10.590    4.4760
   10.605    4.2303
   10.620    4.2127
   10.635    4.4058
   10.650    4.3707
   10.665    4.4936
   10.680    4.2303
   10.695    4.5463
   10.710    4.2830
   10.725    4.6340
   10.740    4.6165
   10.755    4.3532
   10.770    4.4760
   10.785    4.7393
   10.800    4.7042
   10.815    4.7569
   10.830    4.8447
   10.845    4.6691
   10.860    4.9500
   10.875    4.7218
   10.890    4.3707
   10.905    4.3356
   10.920    4.2654
   10.935    4.3707
   10.950    4.4234
   10.965    4.3005
   10.980    4.5463
   10.995    4.3707
   11.010    4.2127
   11.025    4.3883
   11.040    4.4058
   11.055    4.4585
   11.070    4.6516
   11.085    4.7393
   11.100    4.0899
   11.115    4.2303
   11.130    3.9846
   11.145    4.1074
   11.160    4.2478
   11.175    4.3883
   11.190    4.0723
   11.205    3.5984
   11.220    4.3707
   11.235    4.7218
   11.250    4.2654
   11.265    4.2830
   11.280    4.2127
   11.295    4.3532
   11.310    4.6340
   11.325    4.3532
   11.340    4.2654
   11.355    4.1425
   11.370    3.8090
   11.385    4.4409
   11.400    3.9846
   11.415    4.2478
   11.430    4.4585
   11.445    4.4760
   11.460    4.2127
   11.475    4.3005
   11.490    4.2127
   11.505    4.1425
   11.520    4.4234
   11.535    4.4234
   11.550    5.1080
   11.565    4.3707
   11.580    3.8968
   11.595    4.2303
   11.610    4.0899
   11.625    4.1250
   11.640    4.3356
   11.655    4.0372
   11.670    4.0723
   11.685    4.3181
   11.700    4.1425
   11.715    3.7564
   11.730    4.1425
   11.745    4.7920
   11.760    4.1776
   11.775    4.1952
   11.790    4.4585
   11.805    4.6691
   11.820    4.3005
   11.835    4.0548
   11.850    4.2830
   11.865    3.9319
   11.880    4.1952
   11.895    4.4058
   11.910    4.5814
   11.925    4.4234
   11.940    4.4234
   11.955    4.2303
   11.970    4.4409
   11.985    4.1250
   12.000    3.9319
   12.015    4.0899
   12.030    4.4058
   12.045    4.3883
   12.060    4.2830
   12.075    4.0723
   12.090    3.8792
   12.105    4.0548
   12.120    4.3356
   12.135    4.3356
   12.150    3.7037
   12.165    3.8090
   12.180    4.3883
   12.195    4.3707
   12.210    4.2127
   12.225    4.3532
   12.240    3.6686
   12.255    4.0197
   12.270    4.0899
   12.285    3.8441
   12.300    4.0723
   12.315    3.9319
   12.330    4.4058
   12.345    4.3356
   12.360    3.8090
   12.375    4.0021
   12.390    3.8792
   12.405    3.9494
   12.420    4.2127
   12.435    4.3005
   12.450    3.8617
   12.465    4.0021
   12.480    4.0197
   12.495    4.1425
   12.510    4.4234
   12.525    4.2830
   12.540    4.1425
   12.555    4.1952
   12.570    4.2654
   12.585    3.8090
   12.600    3.7739
   12.615    4.0548
   12.630    4.0548
   12.645    4.0548
   12.660    4.0197
   12.675    4.6691
   12.690    4.1425
   12.705    4.0372
   12.720    4.1425
   12.735    3.8617
   12.750    3.8968
   12.765    4.1074
   12.780    4.3356
   12.795    4.4058
   12.810    4.0548
   12.825    4.1074
   12.840    4.4234
   12.855    3.9494
   12.870    4.0021
   12.885    3.5984
   12.900    4.1952
   12.915    4.2478
   12.930    3.7213
   12.945    3.7915
   12.960    4.0899
   12.975    4.3883
   12.990    3.9319
   13.005    3.9670
   13.020    3.9143
   13.035    3.8266
   13.050    3.9494
   13.065    4.1425
   13.080    4.0197
   13.095    3.9846
   13.110    3.7388
   13.125    3.8441
   13.140    3.9846
   13.155    4.0372
   13.170    3.7037
   13.185    3.7388
   13.200    4.1074
   13.215    3.9846
   13.230    3.8090
   13.245    4.1074
   13.260    3.8266
   13.275    3.9143
   13.290    4.0197
   13.305    4.2303
   13.320    3.8617
   13.335    3.9670
   13.350    4.0372
   13.365    3.9846
   13.380    4.1074
   13.395    3.9846
   13.410    3.6335
   13.425    3.8617
   13.440    3.7388
   13.455    3.8266
   13.470    4.0548
   13.485    4.0548
   13.500    3.7564
   13.515    4.1250
   13.530    4.1074
   13.545    3.8968
   13.560    3.4229
   13.575    3.8617
   13.590    3.8792
   13.605    3.5457
   13.620    3.7037
   13.635    3.9143
   13.650    3.9319
   13.665    3.7037
   13.680    3.8617
   13.695    3.8792
   13.710    3.8968
   13.725    3.9670
   13.740    3.8441
   13.755    3.9494
   13.770    4.1601
   13.785    3.8266
   13.800    4.1425
   13.815    4.3883
   13.830    4.0372
   13.845    3.9846
   13.860    4.2127
   13.875    4.2830
   13.890    4.0899
   13.905    3.8441
   13.920    4.2478
   13.935    4.0372
   13.950    3.9319
   13.965    3.7037
   13.980    3.5633
   13.995    3.8266
   14.010    3.9319
   14.025    3.5808
   14.040    3.8441
   14.055    3.8090
   14.070    3.9319
   14.085    4.2127
   14.100    4.1776
   14.115    4.0372
   14.130    4.6340
   14.145    4.1074
   14.160    3.8792
   14.175    3.6862
   14.190    3.8617
   14.205    3.9143
   14.220    4.3707
   14.235    4.0197
   14.250    3.8617
   14.265    3.9143
   14.280    3.9846
   14.295    4.2127
   14.310    3.8441
   14.325    3.7739
   14.340    4.0021
   14.355    3.7564
   14.370    3.8792
   14.385    4.1074
   14.400    3.8792
   14.415    3.5457
   14.430    4.0021
   14.445    3.7915
   14.460    3.6862
   14.475    3.8266
   14.490    4.1952
   14.505    3.9319
   14.520    3.4229
   14.535    3.8792
   14.550    3.8617
   14.565    4.0899
   14.580    3.8617
   14.595    3.5984
   14.610    3.5106
   14.625    3.3702
   14.640    3.4229
   14.655    3.8090
   14.670    3.8090
   14.685    3.9319
   14.700    3.6686
   14.715    3.5633
   14.730    3.8792
   14.745    3.8617
   14.760    4.0021
   14.775    3.7213
   14.790    3.8266
   14.805    4.0899
   14.820    4.2127
   14.835    4.1952
   14.850    3.8266
   14.865    3.8617
   14.880    4.4409
   14.895    4.0548
   14.910    3.6159
   14.925    3.7915
   14.940    3.3877
   14.955    3.8441
   14.970    3.6335
   14.985    3.9319
   15.000    3.6335
   15.015    3.6686
   15.030    3.8792
   15.045    3.9670
   15.060    3.9494
   15.075    3.7213
   15.090    4.0723
   15.105    3.8968
   15.120    4.1074
   15.135    4.1425
   15.150    3.8617
   15.165    3.5457
   15.180    3.5106
   15.195    3.8792
   15.210    3.9670
   15.225    4.0197
   15.240    3.7564
   15.255    3.6510
   15.270    3.9846
   15.285    3.6862
   15.300    3.8968
   15.315    3.9494
   15.330    3.6335
   15.345    3.8792
   15.360    3.9670
   15.375    3.7564
   15.390    3.5106
   15.405    3.7037
   15.420    3.3702
   15.435    3.9143
   15.450    3.8968
   15.465    4.0021
   15.480    3.7037
   15.495    3.9319
   15.510    3.9319
   15.525    3.8266
   15.540    3.9670
   15.555    4.0548
   15.570    3.9319
   15.585    4.2127
   15.600    3.4931
   15.615    4.0899
   15.630    3.9494
   15.645    3.7739
   15.660    3.5808
   15.675    3.3526
   15.690    4.1776
   15.705    4.0372
   15.720    4.0723
   15.735    4.0723
   15.750    3.8441
   15.765    3.5106
   15.780    3.5808
   15.795    4.1952
   15.810    4.2303
   15.825    3.8266
   15.840    3.9143
   15.855    4.0899
   15.870    4.0372
   15.885    3.8792
   15.900    3.6686
   15.915    3.9319
   15.930    4.1776
   15.945    4.2654
   15.960    4.1074
   15.975    3.8090
   15.990    3.8968
   16.005    3.8792
   16.020    3.6862
   16.035    4.2654
   16.050    3.9143
   16.065    3.8090
   16.080    3.9143
   16.095    3.8792
   16.110    3.6159
   16.125    3.5808
   16.140    3.6686
   16.155    3.8090
   16.170    4.1776
   16.185    3.5106
   16.200    3.5984
   16.215    4.0548
   16.230    3.8090
   16.245    4.0723
   16.260    3.9846
   16.275    4.1952
   16.290    4.0899
   16.305    3.8090
   16.320    3.8266
   16.335    3.8792
   16.350    4.0197
   16.365    3.9494
   16.380    3.8441
   16.395    3.9319
   16.410    3.7915
   16.425    3.8090
   16.440    4.1601
   16.455    3.6686
   16.470    3.6159
   16.485    3.8968
   16.500    4.1250
   16.515    3.7564
   16.530    3.6335
   16.545    3.6686
   16.560    4.2303
   16.575    3.7739
   16.590    4.0548
   16.605    3.6159
   16.620    3.7564
   16.635    4.1425
   16.650    4.0899
   16.665    3.6862
   16.680    3.6862
   16.695    3.9143
   16.710    3.8441
   16.725    3.9319
   16.740    3.7739
   16.755    3.8617
   16.770    3.9846
   16.785    3.7213
   16.800    3.7915
   16.815    4.1425
   16.830    4.0021
   16.845    3.9143
   16.860    3.9319
   16.875    4.4058
   16.890    4.1074
   16.905    4.4760
   16.920    4.0899
   16.935    4.0548
   16.950    3.9670
   16.965    3.7213
   16.980    3.6862
   16.995    3.6862
   17.010    3.7388
   17.025    3.6159
   17.040    3.9670
   17.055    4.1074
   17.070    3.9494
   17.085    3.8968
   17.100    3.7388
   17.115    3.7564
   17.130    3.5984
   17.145    3.6159
   17.160    3.5282
   17.175    3.8266
   17.190    3.9319
   17.205    4.1074
   17.220    4.0548
   17.235    3.6686
   17.250    3.8090
   17.265    3.8617
   17.280    3.7564
   17.295    3.7739
   17.310    3.9670
   17.325    3.8090
   17.340    4.1952
   17.355    3.3702
   17.370    3.8266
   17.385    3.6686
   17.400    3.5282
   17.415    4.1074
   17.430    4.4760
   17.445    3.7388
   17.460    4.3005
   17.475    4.1601
   17.490    4.1601
   17.505    4.1425
   17.520    3.6335
   17.535    3.4755
   17.550    3.7564
   17.565    3.9319
   17.580    3.7213
   17.595    4.0723
   17.610    3.7564
   17.625    3.9143
   17.640    3.7739
   17.655    4.3181
   17.670    3.8266
   17.685    3.7213
   17.700    3.7739
   17.715    3.7915
   17.730    4.1250
   17.745    3.5457
   17.760    3.8266
   17.775    4.2303
   17.790    3.9494
   17.805    4.0197
   17.820    3.7564
   17.835    3.6686
   17.850    3.9670
   17.865    4.1250
   17.880    3.9319
   17.895    4.0548
   17.910    3.9319
   17.925    4.1074
   17.940    4.0548
   17.955    3.8090
   17.970    3.3702
   17.985    3.7037
   18.000    3.8441
   18.015    4.0899
   18.030    3.9670
   18.045    4.0899
   18.060    3.5984
   18.075    3.4580
   18.090    3.8968
   18.105    4.0372
   18.120    3.5633
   18.135    3.7037
   18.150    3.6686
   18.165    4.3181
   18.180    3.8792
   18.195    3.7915
   18.210    3.7915
   18.225    3.7739
   18.240    4.0899
   18.255    3.8266
   18.270    3.8090
   18.285    3.6335
   18.300    4.0723
   18.315    3.5106
   18.330    3.6510
   18.345    3.8617
   18.360    3.9319
   18.375    3.8617
   18.390    3.9846
   18.405    3.8617
   18.420    4.0021
   18.435    3.8792
   18.450    3.8968
   18.465    4.0372
   18.480    3.8266
   18.495    3.8090
   18.510    3.8441
   18.525    3.9846
   18.540    3.9143
   18.555    3.9143
   18.570    4.0723
   18.585    3.7739
   18.600    3.9670
   18.615    3.8617
   18.630    4.4234
   18.645    3.8090
   18.660    3.8792
   18.675    3.8090
   18.690    4.1776
   18.705    3.9319
   18.720    4.2654
   18.735    4.1425
   18.750    3.9319
   18.765    3.8090
   18.780    3.7388
   18.795    3.7388
   18.810    4.0548
   18.825    4.5463
   18.840    4.1425
   18.855    3.8441
   18.870    3.9143
   18.885    3.9494
   18.900    3.6862
   18.915    4.0723
   18.930    3.7388
   18.945    3.8968
   18.960    4.1250
   18.975    4.2127
   18.990    4.0372
   19.005    3.3000
   19.020    3.8090
   19.035    3.9319
   19.050    4.2654
   19.065    4.0548
   19.080    3.9846
   19.095    3.3877
   19.110    3.8617
   19.125    3.9846
   19.140    3.8968
   19.155    3.7213
   19.170    3.8441
   19.185    3.7564
   19.200    3.9143
   19.215    3.9143
   19.230    4.4760
   19.245    4.3356
   19.260    4.0723
   19.275    3.8968
   19.290    4.1601
   19.305    4.2654
   19.320    3.8441
   19.335    4.0723
   19.350    4.0899
   19.365    4.0548
   19.380    3.9143
   19.395    3.9143
   19.410    4.3005
   19.425    3.8617
   19.440    3.7915
   19.455    3.9846
   19.470    3.7213
   19.485    3.8617
   19.500    3.5282
   19.515    4.3532
   19.530    4.1952
   19.545    4.1074
   19.560    3.7213
   19.575    3.8792
   19.590    4.1425
   19.605    4.0197
   19.620    4.2830
   19.635    4.1250
   19.650    3.9319
   19.665    4.2127
   19.680    3.5633
   19.695    3.7037
   19.710    4.1250
   19.725    4.3181
   19.740    4.1425
   19.755    3.8441
   19.770    3.8792
   19.785    4.1601
   19.800    4.2654
   19.815    4.4409
   19.830    4.0021
   19.845    4.0021
   19.860    3.7564
   19.875    4.0021
   19.890    4.2303
   19.905    4.0548
   19.920    3.7213
   19.935    3.8968
   19.950    4.3356
   19.965    4.1952
   19.980    4.1776
   19.995    4.0021
   20.010    3.9846
   20.025    4.1425
   20.040    3.8090
   20.055    3.6159
   20.070    4.1776
   20.085    3.8441
   20.100    3.7213
   20.115    4.4409
   20.130    3.6510
   20.145    3.9670
   20.160    4.3707
   20.175    4.3005
   20.190    4.0021
   20.205    4.1250
   20.220    4.1250
   20.235    4.2303
   20.250    4.0899
   20.265    3.9319
   20.280    3.9670
   20.295    4.1601
   20.310    3.7037
   20.325    3.5984
   20.340    3.8792
   20.355    4.5989
   20.370    4.3356
   20.385    4.1250
   20.400    3.6335
   20.415    3.7915
   20.430    4.0372
   20.445    4.2478
   20.460    3.8617
   20.475    3.9319
   20.490    4.3883
   20.505    4.6867
   20.520    4.2127
   20.535    3.7915
   20.550    3.9494
   20.565    4.0021
   20.580    4.1425
   20.595    4.3356
   20.610    3.9319
   20.625    4.2127
   20.640    4.0723
   20.655    3.8617
   20.670    4.1250
   20.685    4.2303
   20.700    4.1776
   20.715    4.4234
   20.730    4.1601
   20.745    3.9494
   20.760    4.1776
   20.775    3.8090
   20.790    3.8266
   20.805    4.2830
   20.820    4.3005
   20.835    4.3356
   20.850    3.8792
   20.865    4.0372
   20.880    4.1250
   20.895    4.0723
   20.910    4.0372
   20.925    4.0021
   20.940    4.1425
   20.955    4.2654
   20.970    4.5463
   20.985    4.4585
   21.000    4.0372
   21.015    4.1952
   21.030    4.4409
   21.045    4.3005
   21.060    4.1776
   21.075    4.2654
   21.090    4.0899
   21.105    4.3707
   21.120    4.0548
   21.135    4.3883
   21.150    4.2654
   21.165    4.1952
   21.180    4.2478
   21.195    4.2127
   21.210    4.3883
   21.225    4.2654
   21.240    4.5463
   21.255    4.1952
   21.270    4.1425
   21.285    4.2303
   21.300    4.3883
   21.315    4.2830
   21.330    4.7569
   21.345    4.4409
   21.360    4.0372
   21.375    4.6691
   21.390    4.4936
   21.405    4.1425
   21.420    4.3005
   21.435    4.2654
   21.450    4.3356
   21.465    4.4936
   21.480    4.4409
   21.495    4.1952
   21.510    4.3883
   21.525    4.3181
   21.540    3.8792
   21.555    4.0548
   21.570    3.9143
   21.585    4.4058
   21.600    4.1952
   21.615    3.8968
   21.630    3.9494
   21.645    4.0197
   21.660    4.1425
   21.675    4.2127
   21.690    4.4234
   21.705    4.4409
   21.720    4.1601
   21.735    4.1601
   21.750    3.9319
   21.765    3.8968
   21.780    4.0197
   21.795    4.2830
   21.810    3.9494
   21.825    4.1952
   21.840    3.9846
   21.855    4.0021
   21.870    4.1952
   21.885    4.3532
   21.900    4.2654
   21.915    4.1601
   21.930    4.4234
   21.945    4.0723
   21.960    4.3356
   21.975    4.2303
   21.990    4.2830
   22.005    4.3707
   22.020    4.0548
   22.035    4.3181
   22.050    4.0197
   22.065    3.7037
   22.080    4.3707
   22.095    4.7920
   22.110    4.3356
   22.125    3.9670
   22.140    3.5106
   22.155    4.1952
   22.170    4.4234
   22.185    4.1074
   22.200    4.2654
   22.215    3.7915
   22.230    4.2830
   22.245    4.5287
   22.260    4.3532
   22.275    4.4234
   22.290    3.9846
   22.305    4.4409
   22.320    4.1425
   22.335    3.8792
   22.350    4.2127
   22.365    4.1074
   22.380    4.4409
   22.395    4.0548
   22.410    4.3181
   22.425    3.9143
   22.440    4.3005
   22.455    3.9494
   22.470    4.0723
   22.485    4.5638
   22.500    4.2654
   22.515    4.1776
   22.530    4.1776
   22.545    4.3532
   22.560    4.3883
   22.575    4.1776
   22.590    4.3181
   22.605    4.2654
   22.620    3.9846
   22.635    4.0372
   22.650    3.8792
   22.665    4.1074
   22.680    4.4058
   22.695    4.1074
   22.710    4.3883
   22.725    3.9670
   22.740    4.2127
   22.755    4.0197
   22.770    4.1952
   22.785    4.4234
   22.800    4.4409
   22.815    4.1601
   22.830    4.2478
   22.845    3.8617
   22.860    4.1250
   22.875    4.0197
   22.890    4.2830
   22.905    4.3707
   22.920    4.4058
   22.935    4.6340
   22.950    4.3181
   22.965    4.1250
   22.980    4.4234
   22.995    4.4760
   23.010    4.2654
   23.025    4.0197
   23.040    4.1425
   23.055    4.6165
   23.070    4.5287
   23.085    4.5989
   23.100    3.8441
   23.115    4.3005
   23.130    4.4760
   23.145    4.3532
   23.160    4.3532
   23.175    4.2127
   23.190    4.0021
   23.205    4.1776
   23.220    4.3181
   23.235    3.9670
   23.250    4.3181
   23.265    4.0197
   23.280    4.0899
   23.295    4.1074
   23.310    4.2127
   23.325    4.2303
   23.340    4.3532
   23.355    4.1250
   23.370    4.1952
   23.385    4.3356
   23.400    4.0372
   23.415    4.2654
   23.430    4.2830
   23.445    4.0372
   23.460    4.4585
   23.475    4.4585
   23.490    4.2127
   23.505    4.0372
   23.520    4.2127
   23.535    4.0899
   23.550    4.4058
   23.565    4.3005
   23.580    4.6691
   23.595    4.5638
   23.610    4.3883
   23.625    3.9319
   23.640    4.3707
   23.655    4.0197
   23.670    4.5287
   23.685    4.1776
   23.700    4.3181
   23.715    4.4936
   23.730    4.0548
   23.745    4.2303
   23.760    3.8968
   23.775    4.3707
   23.790    3.9846
   23.805    4.1601
   23.820    3.9319
   23.835    4.0548
   23.850    3.7915
   23.865    3.7915
   23.880    4.0372
   23.895    3.9143
   23.910    3.6510
   23.925    4.0548
   23.940    4.8095
   23.955    4.3707
   23.970    4.4760
   23.985    4.3532
   24.000    4.2654
   24.015    4.2654
   24.030    4.4058
   24.045    4.2127
   24.060    4.1425
   24.075    3.9319
   24.090    3.9494
   24.105    4.2127
   24.120    4.0723
   24.135    3.9143
   24.150    3.9143
   24.165    3.8968
   24.180    3.9319
   24.195    4.2303
   24.210    3.9670
   24.225    4.2478
   24.240    4.2478
   24.255    4.2478
   24.270    4.3181
   24.285    4.2303
   24.300    4.1776
   24.315    4.1952
   24.330    4.2478
   24.345    4.1250
   24.360    4.1601
   24.375    4.1074
   24.390    4.0548
   24.405    4.2127
   24.420    4.3532
   24.435    4.2127
   24.450    4.0548
   24.465    4.2303
   24.480    3.9494
   24.495    3.7564
   24.510    3.8968
   24.525    4.1952
   24.540    4.2654
   24.555    3.9319
   24.570    3.9670
   24.585    4.1250
   24.600    4.1776
   24.615    4.3356
   24.630    4.6340
   24.645    4.5463
   24.660    4.2127
   24.675    4.0372
   24.690    4.3005
   24.705    4.1952
   24.720    3.7564
   24.735    4.1952
   24.750    3.8266
   24.765    3.7388
   24.780    3.9846
   24.795    4.0899
   24.810    4.0372
   24.825    4.3181
   24.840    4.1601
   24.855    4.7218
   24.870    4.3883
   24.885    4.1776
   24.900    4.5814
   24.915    4.1776
   24.930    3.9143
   24.945    3.8968
   24.960    3.9846
   24.975    3.7564
   24.990    4.3005
   25.005    4.1425
   25.020    4.3005
   25.035    3.9494
   25.050    4.2478
   25.065    3.8792
   25.080    3.9494
   25.095    3.9143
   25.110    4.0372
   25.125    4.0723
   25.140    4.1250
   25.155    3.7739
   25.170    3.7564
   25.185    3.7037
   25.200    3.8792
   25.215    3.9670
   25.230    3.7564
   25.245    3.8968
   25.260    4.1952
   25.275    4.0197
   25.290    4.0197
   25.305    3.9670
   25.320    3.8617
   25.335    3.8968
   25.350    3.7037
   25.365    3.8792
   25.380    3.7388
   25.395    3.6686
   25.410    4.1250
   25.425    3.8441
   25.440    3.9143
   25.455    3.8266
   25.470    4.1074
   25.485    4.3356
   25.500    3.6510
   25.515    4.2654
   25.530    4.3707
   25.545    4.0021
   25.560    4.0197
   25.575    4.1776
   25.590    3.9670
   25.605    3.7213
   25.620    3.9846
   25.635    4.2478
   25.650    4.3707
   25.665    3.9143
   25.680    3.7564
   25.695    4.4585
   25.710    3.9670
   25.725    4.0372
   25.740    3.8617
   25.755    3.8792
   25.770    3.8266
   25.785    4.3005
   25.800    3.8617
   25.815    4.1074
   25.830    3.9670
   25.845    3.8090
   25.860    4.1250
   25.875    3.7564
   25.890    4.2478
   25.905    4.2830
   25.920    4.1776
   25.935    4.1250
   25.950    4.0197
   25.965    3.9846
   25.980    3.7564
   25.995    4.1776
   26.010    4.1952
   26.025    4.1074
   26.040    3.9670
   26.055    4.1601
   26.070    3.9670
   26.085    3.8617
   26.100    4.0021
   26.115    3.6510
   26.130    3.7388
   26.145    3.7564
   26.160    3.3000
   26.175    3.8441
   26.190    4.2478
   26.205    3.7739
   26.220    3.7388
   26.235    4.0899
   26.250    3.6159
   26.265    3.8617
   26.280    4.0021
   26.295    3.8266
   26.310    4.2654
   26.325    3.7388
   26.340    4.0548
   26.355    3.9143
   26.370    4.1776
   26.385    4.1250
   26.400    3.6335
   26.415    3.7213
   26.430    3.4404
   26.445    3.6862
   26.460    3.7564
   26.475    3.5984
   26.490    3.8968
   26.505    4.3181
   26.520    3.6335
   26.535    3.9494
   26.550    4.0021
   26.565    3.8792
   26.580    3.6862
   26.595    3.7388
   26.610    4.0021
   26.625    3.6159
   26.640    3.4580
   26.655    3.8792
   26.670    3.5984
   26.685    3.8266
   26.700    3.9846
   26.715    4.1074
   26.730    3.5984
   26.745    3.6335
   26.760    3.5282
   26.775    3.4053
   26.790    3.5633
   26.805    3.9846
   26.820    3.5457
   26.835    3.7037
   26.850    3.8617
   26.865    3.7564
   26.880    3.7739
   26.895    3.8090
   26.910    3.9143
   26.925    4.4234
   26.940    3.8968
   26.955    3.8090
   26.970    3.6335
   26.985    4.0899
   27.000    3.9846
   27.015    4.2127
   27.030    3.9846
   27.045    3.8090
   27.060    3.8266
   27.075    3.6335
   27.090    3.8792
   27.105    3.8792
   27.120    3.9494
   27.135    3.9670
   27.150    3.9846
   27.165    3.5808
   27.180    3.2649
   27.195    3.5808
   27.210    3.8266
   27.225    3.3175
   27.240    3.5457
   27.255    3.7388
   27.270    4.1250
   27.285    3.8968
   27.300    3.5984
   27.315    3.5984
   27.330    3.7915
   27.345    3.6862
   27.360    3.5808
   27.375    3.9319
   27.390    4.0197
   27.405    3.5282
   27.420    3.7739
   27.435    3.7213
   27.450    3.5984
   27.465    3.6335
   27.480    3.8266
   27.495    3.4755
   27.510    3.6510
   27.525    3.8968
   27.540    3.3526
   27.555    3.6159
   27.570    3.7213
   27.585    3.3877
   27.600    3.9143
   27.615    3.8792
   27.630    3.9846
   27.645    3.8441
   27.660    3.6862
   27.675    3.5633
   27.690    3.7213
   27.705    3.7915
   27.720    4.0548
   27.735    3.8090
   27.750    3.2824
   27.765    3.5633
   27.780    3.8968
   27.795    4.0021
   27.810    3.7388
   27.825    3.5106
   27.840    3.5282
   27.855    3.5457
   27.870    3.4931
   27.885    3.6335
   27.900    3.5457
   27.915    3.3000
   27.930    3.6862
   27.945    3.9670
   27.960    3.6862
   27.975    3.8617
   27.990    3.6686
   28.005    3.5457
   28.020    4.1250
   28.035    3.8968
   28.050    3.4755
   28.065    3.5106
   28.080    3.8090
   28.095    3.8792
   28.110    3.7564
   28.125    3.6510
   28.140    3.4580
   28.155    3.3175
   28.170    3.4053
   28.185    4.2830
   28.200    4.0899
   28.215    3.4755
   28.230    3.5282
   28.245    3.7213
   28.260    3.7213
   28.275    3.4404
   28.290    3.8441
   28.305    3.6510
   28.320    3.4755
   28.335    3.5457
   28.350    3.4755
   28.365    3.9319
   28.380    3.7388
   28.395    3.8090
   28.410    3.8968
   28.425    4.0021
   28.440    3.5282
   28.455    3.3526
   28.470    3.3175
   28.485    3.5106
   28.500    3.2824
   28.515    4.0197
   28.530    4.0021
   28.545    3.4053
   28.560    3.3702
   28.575    3.7915
   28.590    3.5282
   28.605    3.3702
   28.620    3.7739
   28.635    3.5633
   28.650    3.3702
   28.665    3.5808
   28.680    3.9143
   28.695    3.7739
   28.710    3.8617
   28.725    3.7564
   28.740    3.7388
   28.755    3.3877
   28.770    3.6335
   28.785    3.6159
   28.800    3.5984
   28.815    3.5106
   28.830    3.2473
   28.845    3.1947
   28.860    3.7915
   28.875    3.4580
   28.890    3.2122
   28.905    3.5808
   28.920    3.7915
   28.935    3.3526
   28.950    3.8090
   28.965    3.5808
   28.980    3.3526
   28.995    3.4229
   29.010    4.0021
   29.025    3.6862
   29.040    3.4931
   29.055    3.5808
   29.070    3.8441
   29.085    3.5457
   29.100    3.3526
   29.115    3.1420
   29.130    3.1596
   29.145    3.5457
   29.160    3.3526
   29.175    3.1245
   29.190    3.3877
   29.205    3.4755
   29.220    3.2649
   29.235    3.5457
   29.250    3.2473
   29.265    3.5457
   29.280    3.5457
   29.295    3.4755
   29.310    3.5633
   29.325    3.2122
   29.340    3.3351
   29.355    3.3526
   29.370    3.3000
   29.385    3.1420
   29.400    3.3175
   29.415    3.2298
   29.430    3.5633
   29.445    3.9143
   29.460    4.1776
   29.475    3.8090
   29.490    3.6510
   29.505    3.5633
   29.520    3.4053
   29.535    3.5633
   29.550    3.6335
   29.565    3.4931
   29.580    3.4931
   29.595    3.5457
   29.610    3.6510
   29.625    3.2122
   29.640    3.3877
   29.655    3.6335
   29.670    3.6159
   29.685    3.3175
   29.700    3.4229
   29.715    3.4755
   29.730    3.4229
   29.745    3.6510
   29.760    3.5106
   29.775    3.6335
   29.790    3.7213
   29.805    3.2649
   29.820    3.3000
   29.835    3.3702
   29.850    3.4404
   29.865    3.6510
   29.880    3.7915
   29.895    3.5457
   29.910    3.3877
   29.925    3.6862
   29.940    3.7388
   29.955    3.5633
   29.970    3.6510
   29.985    3.5457
   30.000    3.5984
   30.015    3.2473
   30.030    3.3000
   30.045    3.1596
   30.060    3.5808
   30.075    3.4931
   30.090    3.5282
   30.105    3.5106
   30.120    3.3526
   30.135    3.4580
   30.150    3.3351
   30.165    3.4755
   30.180    3.2824
   30.195    3.2122
   30.210    3.1771
   30.225    3.2649
   30.240    3.5984
   30.255    3.1420
   30.270    3.5457
   30.285    3.3351
   30.300    3.0016
   30.315    3.3000
   30.330    3.1596
   30.345    3.4931
   30.360    3.3351
   30.375    3.1947
   30.390    3.2824
   30.405    3.4580
   30.420    3.5633
   30.435    3.3877
   30.450    3.4580
   30.465    3.4053
   30.480    3.5106
   30.495    3.4404
   30.510    3.3877
   30.525    3.2122
   30.540    3.6510
   30.555    3.3877
   30.570    3.3000
   30.585    3.0718
   30.600    3.3702
   30.615    3.4229
   30.630    3.2473
   30.645    3.6510
   30.660    3.6335
   30.675    3.5808
   30.690    3.0191
   30.705    3.2298
   30.720    3.0542
   30.735    3.1420
   30.750    3.3702
   30.765    3.3877
   30.780    3.2824
   30.795    3.3000
   30.810    3.3175
   30.825    3.4404
   30.840    3.3526
   30.855    3.0367
   30.870    3.2649
   30.885    3.3877
   30.900    3.5282
   30.915    3.2122
   30.930    3.0542
   30.945    3.5106
   30.960    3.3702
   30.975    3.3526
   30.990    3.4053
   31.005    3.4755
   31.020    3.5457
   31.035    3.1245
   31.050    3.1069
   31.065    3.1947
   31.080    3.3702
   31.095    3.3351
   31.110    3.7388
   31.125    3.4931
   31.140    3.2298
   31.155    3.3877
   31.170    3.3702
   31.185    3.0191
   31.200    3.1245
   31.215    3.3877
   31.230    3.3877
   31.245    3.5282
   31.260    3.7213
   31.275    2.9840
   31.290    3.5106
   31.305    3.4931
   31.320    3.4404
   31.335    3.4404
   31.350    3.4931
   31.365    3.4404
   31.380    3.4931
   31.395    3.1947
   31.410    3.0718
   31.425    3.4580
   31.440    3.4755
   31.455    3.4229
   31.470    3.2473
   31.485    2.8612
   31.500    3.5457
   31.515    3.4931
   31.530    3.1771
   31.545    3.4931
   31.560    3.3175
   31.575    3.4053
   31.590    2.8085
   31.605    2.4399
   31.620    3.0016
   31.635    3.2649
   31.650    3.2649
   31.665    3.1245
   31.680    3.4053
   31.695    3.6335
   31.710    3.5633
   31.725    3.2473
   31.740    3.5633
   31.755    3.2473
   31.770    3.5984
   31.785    3.6335
   31.800    3.3351
   31.815    3.2649
   31.830    3.2298
   31.845    3.1420
   31.860    3.1771
   31.875    3.0893
   31.890    3.2298
   31.905    3.1596
   31.920    3.3877
   31.935    3.4229
   31.950    3.6159
   31.965    3.3175
   31.980    3.2122
   31.995    3.0893
   32.010    3.0718
   32.025    3.0367
   32.040    2.8963
   32.055    3.0367
   32.070    2.9840
   32.085    2.7558
   32.100    2.7909
   32.115    3.0542
   32.130    3.2649
   32.145    2.9314
   32.160    3.0542
   32.175    3.3000
   32.190    3.4229
   32.205    3.3702
   32.220    3.3000
   32.235    3.3351
   32.250    3.2122
   32.265    2.8787
   32.280    2.8787
   32.295    3.3526
   32.310    3.2473
   32.325    3.0718
   32.340    3.0367
   32.355    3.2298
   32.370    3.2473
   32.385    3.2298
   32.400    3.0191
   32.415    3.1771
   32.430    2.9840
   32.445    3.2298
   32.460    3.1771
   32.475    3.1947
   32.490    3.1245
   32.505    3.1596
   32.520    3.1245
   32.535    3.0191
   32.550    2.7909
   32.565    2.7383
   32.580    3.1596
   32.595    2.9840
   32.610    3.1069
   32.625    3.2473
   32.640    3.0542
   32.655    2.9138
   32.670    2.9314
   32.685    2.8260
   32.700    3.0191
   32.715    3.1771
   32.730    3.3351
   32.745    3.1420
   32.760    3.0893
   32.775    3.2649
   32.790    3.5282
   32.805    3.2649
   32.820    3.1420
   32.835    3.0016
   32.850    2.8436
   32.865    3.1069
   32.880    3.0718
   32.895    2.8787
   32.910    3.1596
   32.925    3.1069
   32.940    3.2649
   32.955    3.2298
   32.970    3.2473
   32.985    3.2298
   33.000    3.3351
   33.015    3.1596
   33.030    2.8612
   33.045    2.9138
   33.060    3.3351
   33.075    2.6330
   33.090    3.0367
   33.105    3.1420
   33.120    3.2473
   33.135    3.0542
   33.150    2.8963
   33.165    3.4755
   33.180    3.2473
   33.195    3.1069
   33.210    3.0016
   33.225    2.6681
   33.240    2.8436
   33.255    3.1420
   33.270    3.3000
   33.285    3.1596
   33.300    3.2473
   33.315    3.2298
   33.330    3.1596
   33.345    2.7909
   33.360    2.9138
   33.375    3.0893
   33.390    3.0542
   33.405    2.8787
   33.420    3.1596
   33.435    3.0191
   33.450    2.8963
   33.465    3.3000
   33.480    3.1596
   33.495    3.0893
   33.510    3.2473
   33.525    2.8085
   33.540    3.1420
   33.555    3.2824
   33.570    2.8085
   33.585    2.8260
   33.600    3.0191
   33.615    2.8436
   33.630    3.1245
   33.645    3.0718
   33.660    3.3351
   33.675    3.0893
   33.690    3.0893
   33.705    2.8085
   33.720    3.1245
   33.735    3.2122
   33.750    3.1420
   33.765    3.4580
   33.780    3.4053
   33.795    3.0367
   33.810    3.3526
   33.825    3.1947
   33.840    3.0191
   33.855    2.9840
   33.870    3.0016
   33.885    3.0542
   33.900    3.0893
   33.915    3.0191
   33.930    3.3000
   33.945    2.9665
   33.960    2.8612
   33.975    3.0542
   33.990    2.9489
   34.005    3.0893
   34.020    2.9138
   34.035    3.0016
   34.050    2.8436
   34.065    3.1596
   34.080    2.9314
   34.095    2.8963
   34.110    3.2473
   34.125    3.3175
   34.140    3.2298
   34.155    3.0191
   34.170    3.0367
   34.185    2.8612
   34.200    3.1771
   34.215    2.9840
   34.230    3.3175
   34.245    3.4053
   34.260    3.0718
   34.275    3.0191
   34.290    2.7909
   34.305    2.9489
   34.320    2.9138
   34.335    3.0367
   34.350    2.9314
   34.365    2.9314
   34.380    2.7734
   34.395    2.5452
   34.410    3.2473
   34.425    3.1069
   34.440    2.9665
   34.455    2.8260
   34.470    2.8260
   34.485    2.9840
   34.500    2.7558
   34.515    2.8085
   34.530    3.1947
   34.545    2.8612
   34.560    2.7207
   34.575    2.9665
   34.590    2.9314
   34.605    3.1771
   34.620    3.0542
   34.635    2.9314
   34.650    2.9314
   34.665    2.7909
   34.680    2.6154
   34.695    3.0016
   34.710    3.1420
   34.725    2.8436
   34.740    2.7558
   34.755    3.0191
   34.770    2.8612
   34.785    3.0367
   34.800    2.8085
   34.815    3.0016
   34.830    2.8260
   34.845    2.4399
   34.860    2.6154
   34.875    2.7207
   34.890    2.9665
   34.905    2.7909
   34.920    2.9489
   34.935    3.1069
   34.950    2.6154
   34.965    2.4750
   34.980    2.5979
   34.995    2.8612
   35.010    2.9665
   35.025    2.5803
   35.040    2.8787
   35.055    2.7734
   35.070    2.8260
   35.085    3.0016
   35.100    3.0893
   35.115    2.8787
   35.130    2.6505
   35.145    3.0718
   35.160    3.2122
   35.175    3.3175
   35.190    2.8260
   35.205    2.8612
   35.220    2.9138
   35.235    2.5803
   35.250    2.6505
   35.265    2.8260
   35.280    2.4399
   35.295    2.8260
   35.310    2.7909
   35.325    2.5276
   35.340    3.3000
   35.355    3.1069
   35.370    3.0542
   35.385    2.7558
   35.400    2.8963
   35.415    2.9138
   35.430    2.9489
   35.445    2.8787
   35.460    2.8436
   35.475    2.9489
   35.490    2.8436
   35.505    2.7207
   35.520    2.8612
   35.535    3.0718
   35.550    2.9314
   35.565    2.7909
   35.580    2.7558
   35.595    2.8787
   35.610    2.5628
   35.625    2.9314
   35.640    2.7734
   35.655    2.8787
   35.670    2.8260
   35.685    2.8612
   35.700    2.5979
   35.715    2.5628
   35.730    3.0016
   35.745    2.6856
   35.760    2.5452
   35.775    2.7383
   35.790    2.8085
   35.805    2.8260
   35.820    2.9489
   35.835    2.9489
   35.850    2.7558
   35.865    2.8436
   35.880    3.0542
   35.895    3.1771
   35.910    3.0191
   35.925    2.9840
   35.940    2.6681
   35.955    3.0191
   35.970    2.9489
   35.985    3.0191
   36.000    2.6505
   36.015    2.6505
   36.030    2.7383
   36.045    2.9138
   36.060    2.7558
   36.075    3.3175
   36.090    2.8260
   36.105    2.7909
   36.120    2.7909
   36.135    2.7734
   36.150    2.4750
   36.165    2.9489
   36.180    2.8085
   36.195    3.1420
   36.210    2.8085
   36.225    2.7032
   36.240    2.7558
   36.255    2.8436
   36.270    2.6681
   36.285    2.7558
   36.300    2.7558
   36.315    2.9314
   36.330    2.9840
   36.345    2.8787
   36.360    2.8260
   36.375    2.8963
   36.390    2.6856
   36.405    3.0542
   36.420    2.7909
   36.435    2.6154
   36.450    2.4750
   36.465    2.5628
   36.480    2.7383
   36.495    2.7734
   36.510    2.9840
   36.525    2.7383
   36.540    2.8436
   36.555    2.8260
   36.570    2.4925
   36.585    2.4750
   36.600    2.6681
   36.615    2.6505
   36.630    2.8436
   36.645    2.5276
   36.660    2.6154
   36.675    2.3346
   36.690    2.6681
   36.705    2.8612
   36.720    2.8963
   36.735    2.7207
   36.750    2.7909
   36.765    2.3170
   36.780    2.6505
   36.795    2.3697
   36.810    2.1239
   36.825    2.3872
   36.840    2.5101
   36.855    2.9314
   36.870    2.9840
   36.885    2.8612
   36.900    2.8260
   36.915    3.1947
   36.930    3.0542
   36.945    2.8787
   36.960    2.6505
   36.975    2.6681
   36.990    2.6681
   37.005    2.5101
   37.020    2.6154
   37.035    3.1596
   37.050    2.8787
   37.065    2.7383
   37.080    2.7383
   37.095    2.7207
   37.110    2.6505
   37.125    2.5452
   37.140    2.4574
   37.155    2.8436
   37.170    2.7383
   37.185    2.7734
   37.200    2.8260
   37.215    2.6856
   37.230    2.6330
   37.245    3.0016
   37.260    2.7909
   37.275    2.7734
   37.290    2.6330
   37.305    2.7383
   37.320    2.3872
   37.335    2.5803
   37.350    2.4925
   37.365    2.2643
   37.380    2.8260
   37.395    2.6330
   37.410    2.6505
   37.425    2.6330
   37.440    2.4574
   37.455    2.8260
   37.470    3.0718
   37.485    2.4223
   37.500    2.6856
   37.515    2.8085
   37.530    2.9138
   37.545    2.7383
   37.560    2.6330
   37.575    2.7207
   37.590    2.8787
   37.605    2.6154
   37.620    2.3872
   37.635    2.7558
   37.650    2.8260
   37.665    2.6681
   37.680    2.5276
   37.695    2.4574
   37.710    2.7909
   37.725    2.6505
   37.740    2.7558
   37.755    2.9314
   37.770    3.0542
   37.785    2.9489
   37.800    2.6154
   37.815    2.5452
   37.830    2.9840
   37.845    3.1420
   37.860    3.0016
   37.875    2.6681
   37.890    2.9138
   37.905    2.8612
   37.920    3.1245
   37.935    2.7558
   37.950    2.7383
   37.965    2.6330
   37.980    2.5628
   37.995    2.5803
   38.010    2.2468
   38.025    2.5803
   38.040    2.6330
   38.055    2.8260
   38.070    2.9840
   38.085    2.7383
   38.100    2.7734
   38.115    2.4574
   38.130    2.5101
   38.145    2.8085
   38.160    2.6330
   38.175    2.6505
   38.190    2.4048
   38.205    2.8787
   38.220    2.7207
   38.235    2.7909
   38.250    2.7032
   38.265    2.4750
   38.280    2.8436
   38.295    2.5979
   38.310    2.8436
   38.325    2.6856
   38.340    2.7207
   38.355    2.5452
   38.370    2.8085
   38.385    2.8436
   38.400    2.8787
   38.415    2.5979
   38.430    2.4925
   38.445    2.8787
   38.460    2.4574
   38.475    2.3872
   38.490    2.7734
   38.505    2.9138
   38.520    2.7032
   38.535    2.4399
   38.550    2.3697
   38.565    2.4048
   38.580    2.4048
   38.595    2.3697
   38.610    2.2995
   38.625    2.3697
   38.640    2.2819
   38.655    2.7909
   38.670    3.0016
   38.685    2.8963
   38.700    2.6856
   38.715    2.9665
   38.730    2.5452
   38.745    2.6330
   38.760    2.6505
   38.775    2.7032
   38.790    2.8436
   38.805    2.8085
   38.820    2.9489
   38.835    2.6681
   38.850    2.3697
   38.865    2.6505
   38.880    2.6154
   38.895    2.8963
   38.910    3.0718
   38.925    2.8436
   38.940    2.8260
   38.955    2.6154
   38.970    2.9489
   38.985    2.5979
   39.000    2.3521
   39.015    2.8260
   39.030    2.4574
   39.045    2.5452
   39.060    2.5803
   39.075    2.7558
   39.090    2.5628
   39.105    2.5452
   39.120    2.3872
   39.135    2.7734
   39.150    3.1245
   39.165    2.5803
   39.180    2.4750
   39.195    2.9840
   39.210    2.5101
   39.225    2.8085
   39.240    2.7909
   39.255    2.6505
   39.270    3.0718
   39.285    2.6856
   39.300    2.6505
   39.315    2.4574
   39.330    2.2819
   39.345    2.7032
   39.360    2.4574
   39.375    2.5628
   39.390    2.5803
   39.405    2.7734
   39.420    2.5276
   39.435    2.8260
   39.450    3.0016
   39.465    2.6681
   39.480    2.6154
   39.495    2.7032
   39.510    2.6330
   39.525    2.5452
   39.540    2.5276
   39.555    2.8260
   39.570    2.8787
   39.585    2.7032
   39.600    2.6856
   39.615    2.7383
   39.630    2.9138
   39.645    2.5803
   39.660    2.7734
   39.675    2.4574
   39.690    2.3170
   39.705    2.6330
   39.720    2.5979
   39.735    2.4750
   39.750    2.7207
   39.765    2.7383
   39.780    2.5628
   39.795    2.3872
   39.810    2.7032
   39.825    2.9665
   39.840    2.5979
   39.855    2.7558
   39.870    2.7383
   39.885    2.4925
   39.900    2.7558
   39.915    2.2468
   39.930    2.5628
   39.945    2.5628
   39.960    2.5452
   39.975    2.7558
   39.990    2.6681
