    1.500   11.6377
    1.515   11.9642
    1.530   11.3217
    1.545   10.8794
    1.560   11.1848
    1.575   11.1427
    1.590   11.0058
    1.605   10.7741
    1.620   10.2370
    1.635   10.0579
    1.650   10.2054
    1.665   10.0790
    1.680    9.6367
    1.695    9.4155
    1.710    9.2786
    1.725    9.3207
    1.740    9.0995
    1.755    9.2470
    1.770    9.0153
    1.785    8.6256
    1.800    8.2570
    1.815    8.3518
    1.830    8.2464
    1.845    8.0147
    1.860    7.6356
    1.875    7.9410
    1.890    7.8462
    1.905    7.9516
    1.920    7.2775
    1.935    7.4882
    1.950    7.8146
    1.965    7.4987
    1.980    7.6356
    1.995    7.3196
    2.010    7.4039
    2.025    7.2354
    2.040    7.0142
    2.055    7.3407
    2.070    6.8878
    2.085    7.1195
    2.100    6.8773
    2.115    6.6772
    2.130    6.8352
    2.145    6.6561
    2.160    6.2454
    2.175    6.3612
    2.190    6.7615
    2.205    7.2670
    2.220    6.7509
    2.235    6.6667
    2.250    6.2665
    2.265    6.1506
    2.280    6.1927
    2.295    6.3296
    2.310    6.3296
    2.325    6.0558
    2.340    6.3507
    2.355    6.0558
    2.370    6.1506
    2.385    6.5087
    2.400    6.4034
    2.415    6.2454
    2.430    5.9294
    2.445    5.7399
    2.460    6.1611
    2.475    5.8768
    2.490    6.0664
    2.505    6.0453
    2.520    5.5082
    2.535    5.7293
    2.550    5.6556
    2.565    5.7399
    2.580    5.6977
    2.595    6.2243
    2.610    6.1085
    2.625    5.5292
    2.640    5.7399
    2.655    6.2138
    2.670    5.9400
    2.685    6.1611
    2.700    6.2559
    2.715    6.2875
    2.730    6.3402
    2.745    6.0979
    2.760    6.0769
    2.775    5.3818
    2.790    5.7925
    2.805    5.9821
    2.820    6.2349
    2.835    5.9926
    2.850    6.2770
    2.865    5.7293
    2.880    5.6872
    2.895    5.5187
    2.910    5.9189
    2.925    6.0769
    2.940    6.2559
    2.955    6.2138
    2.970    6.2243
    2.985    5.7715
    3.000    6.1822
    3.015    6.2770
    3.030    6.3191
    3.045    6.1190
    3.060    6.3296
    3.075    6.2981
    3.090    6.5719
    3.105    6.4455
    3.120    6.4876
    3.135    6.5192
    3.150    6.7615
    3.165    6.5719
    3.180    6.6456
    3.195    6.9616
    3.210    6.8878
    3.225    7.0248
    3.240    7.0353
    3.255    7.3512
    3.270    6.9089
    3.285    7.4882
    3.300    7.3302
    3.315    7.6040
    3.330    8.0463
    3.345    7.6461
    3.360    8.2780
    3.375    8.1411
    3.390    8.0885
    3.405    8.3307
    3.420    8.6467
    3.435    9.0047
    3.450    9.2996
    3.465    9.1311
    3.480    9.4471
    3.495    9.8052
    3.510    9.4787
    3.525    9.8262
    3.540    9.9105
    3.555    9.5419
    3.570    9.9842
    3.585    9.5735
    3.600    9.7314
    3.615    9.9631
    3.630    9.5629
    3.645    9.3312
    3.660    9.5524
    3.675    9.2048
    3.690    8.6361
    3.705    8.5940
    3.720    8.3307
    3.735    8.4466
    3.750    8.3834
    3.765    7.8357
    3.780    7.4987
    3.795    7.7725
    3.810    7.5197
    3.825    7.2880
    3.840    7.0669
    3.855    6.9405
    3.870    6.8036
    3.885    6.7299
    3.900    7.0774
    3.915    6.6877
    3.930    6.8352
    3.945    5.9400
    3.960    5.8768
    3.975    6.3823
    3.990    6.4560
    4.005    6.3086
    4.020    6.1085
    4.035    6.0769
    4.050    6.1822
    4.065    6.4350
    4.080    5.8347
    4.095    5.7609
    4.110    5.8452
    4.125    5.7820
    4.140    5.6661
    4.155    5.8031
    4.170    5.9716
    4.185    5.6345
    4.200    5.6135
    4.215    5.5924
    4.230    5.6556
    4.245    5.4450
    4.260    5.8136
    4.275    5.6345
    4.290    5.2554
    4.305    5.4766
    4.320    5.2975
    4.335    5.3923
    4.350    5.4976
    4.365    5.5398
    4.380    5.6240
    4.395    5.2449
    4.410    5.5398
    4.425    5.3712
    4.440    5.5187
    4.455    5.3502
    4.470    5.3607
    4.485    5.4239
    4.500    5.4450
    4.515    5.3186
    4.530    5.0869
    4.545    5.3291
    4.560    5.2659
    4.575    5.3818
    4.590    5.1817
    4.605    5.2975
    4.620    5.1501
    4.635    5.2449
    4.650    5.3818
    4.665    5.3712
    4.680    5.2133
    4.695    5.7293
    4.710    5.2449
    4.725    5.2449
    4.740    5.5924
    4.755    5.3818
    4.770    5.1185
    4.785    5.3712
    4.800    5.5292
    4.815    5.3818
    4.830    5.4450
    4.845    5.3712
    4.860    5.4976
    4.875    5.0553
    4.890    5.4555
    4.905    5.2765
    4.920    5.2027
    4.935    5.3502
    4.950    5.1185
    4.965    5.5082
    4.980    5.3818
    4.995    5.2449
    5.010    5.2027
    5.025    5.5187
    5.040    5.0658
    5.055    5.2449
    5.070    5.2027
    5.085    5.2975
    5.100    5.2975
    5.115    5.5187
    5.130    5.1395
    5.145    4.9710
    5.160    5.3818
    5.175    5.0342
    5.190    5.0869
    5.205    5.2870
    5.220    5.2133
    5.235    5.2659
    5.250    5.1185
    5.265    5.1606
    5.280    5.2659
    5.295    5.0974
    5.310    5.2554
    5.325    5.3397
    5.340    5.1711
    5.355    5.0764
    5.370    5.5398
    5.385    5.5292
    5.400    5.2659
    5.415    5.5398
    5.430    5.5503
    5.445    5.3081
    5.460    5.2975
    5.475    5.5714
    5.490    5.1080
    5.505    5.1817
    5.520    5.2343
    5.535    5.1501
    5.550    5.4871
    5.565    4.9078
    5.580    5.3397
    5.595    5.2343
    5.610    5.4134
    5.625    5.1080
    5.640    5.3186
    5.655    5.4660
    5.670    5.3081
    5.685    4.9816
    5.700    5.0132
    5.715    5.4134
    5.730    4.9078
    5.745    5.1501
    5.760    4.9921
    5.775    4.8657
    5.790    5.0132
    5.805    5.0342
    5.820    4.9078
    5.835    4.8763
    5.850    5.1395
    5.865    5.0764
    5.880    4.8657
    5.895    4.6867
    5.910    4.9078
    5.925    4.9921
    5.940    5.1395
    5.955    4.8973
    5.970    4.7288
    5.985    4.9710
    6.000    4.8025
    6.015    4.7604
    6.030    4.7499
    6.045    4.5603
    6.060    4.3286
    6.075    4.7288
    6.090    4.8868
    6.105    4.8868
    6.120    4.1390
    6.135    4.1706
    6.150    4.6235
    6.165    4.6024
    6.180    4.8131
    6.195    4.8657
    6.210    4.6656
    6.225    4.6972
    6.240    4.4971
    6.255    4.7499
    6.270    4.4550
    6.285    4.5287
    6.300    4.5392
    6.315    4.5287
    6.330    4.6445
    6.345    4.5287
    6.360    4.3497
    6.375    4.5708
    6.390    4.4866
    6.405    4.8025
    6.420    4.7920
    6.435    4.5076
    6.450    4.8025
    6.465    4.6445
    6.480    4.4550
    6.495    4.6340
    6.510    4.4444
    6.525    4.2654
    6.540    4.5603
    6.555    4.5287
    6.570    4.4339
    6.585    4.6130
    6.600    4.5498
    6.615    4.5814
    6.630    4.5814
    6.645    4.9500
    6.660    4.8552
    6.675    4.8552
    6.690    4.4444
    6.705    4.7288
    6.720    4.4339
    6.735    4.6761
    6.750    4.7709
    6.765    4.3813
    6.780    4.7393
    6.795    4.3918
    6.810    4.3918
    6.825    4.6130
    6.840    4.6656
    6.855    4.9184
    6.870    4.8973
    6.885    4.9289
    6.900    5.0658
    6.915    4.8763
    6.930    5.0448
    6.945    4.8763
    6.960    5.0237
    6.975    5.0553
    6.990    4.7077
    7.005    5.0342
    7.020    5.5292
    7.035    5.1606
    7.050    5.4239
    7.065    5.6240
    7.080    5.2870
    7.095    5.4344
    7.110    5.7188
    7.125    5.5714
    7.140    5.6767
    7.155    5.3502
    7.170    5.5292
    7.185    5.2975
    7.200    5.2659
    7.215    5.8557
    7.230    5.1922
    7.245    5.3397
    7.260    5.2027
    7.275    5.2765
    7.290    5.2975
    7.305    5.5608
    7.320    5.7188
    7.335    5.5608
    7.350    5.4766
    7.365    5.4134
    7.380    5.1817
    7.395    5.6345
    7.410    5.7293
    7.425    5.6556
    7.440    5.6029
    7.455    6.0664
    7.470    5.8452
    7.485    6.0979
    7.500    5.7715
    7.515    5.9505
    7.530    5.9400
    7.545    6.3507
    7.560    6.0979
    7.575    5.7820
    7.590    6.3086
    7.605    6.3296
    7.620    6.1085
    7.635    6.2033
    7.650    5.8662
    7.665    6.0453
    7.680    6.4455
    7.695    6.3718
    7.710    6.3928
    7.725    6.3612
    7.740    6.4876
    7.755    6.1717
    7.770    6.0137
    7.785    6.1927
    7.800    6.2349
    7.815    5.8241
    7.830    6.1717
    7.845    6.0979
    7.860    5.8768
    7.875    6.1822
    7.890    6.1506
    7.905    6.3718
    7.920    6.4350
    7.935    6.0242
    7.950    6.3823
    7.965    6.3612
    7.980    6.2875
    7.995    6.0979
    8.010    5.9294
    8.025    5.8873
    8.040    5.6135
    8.055    5.7083
    8.070    5.8452
    8.085    5.3818
    8.100    5.2027
    8.115    5.3607
    8.130    5.3818
    8.145    5.4344
    8.160    5.2343
    8.175    5.0658
    8.190    4.9921
    8.205    4.6130
    8.220    4.6340
    8.235    4.6867
    8.250    4.6445
    8.265    4.7183
    8.280    4.3602
    8.295    4.7288
    8.310    4.9078
    8.325    4.6761
    8.340    4.4339
    8.355    4.3813
    8.370    3.9916
    8.385    4.1811
    8.400    4.0126
    8.415    4.2865
    8.430    4.1706
    8.445    4.0232
    8.460    3.8652
    8.475    4.0021
    8.490    4.1074
    8.505    4.1074
    8.520    3.9705
    8.535    3.9494
    8.550    4.0653
    8.565    3.8336
    8.580    4.3075
    8.595    3.9916
    8.610    4.3707
    8.625    4.0442
    8.640    3.7072
    8.655    3.7072
    8.670    3.7704
    8.685    3.8231
    8.700    3.8757
    8.715    3.7599
    8.730    3.9600
    8.745    3.4334
    8.760    3.5176
    8.775    3.8231
    8.790    3.8863
    8.805    3.8863
    8.820    4.0126
    8.835    3.7072
    8.850    3.7072
    8.865    3.6862
    8.880    3.9810
    8.895    4.0021
    8.910    3.8231
    8.925    3.7809
    8.940    3.9705
    8.955    3.9073
    8.970    3.5703
    8.985    3.5071
    9.000    3.6546
    9.015    3.4334
    9.030    3.4650
    9.045    3.6230
    9.060    3.5492
    9.075    3.4650
    9.090    3.7915
    9.105    3.8652
    9.120    3.6019
    9.135    3.3386
    9.150    3.3386
    9.165    3.7388
    9.180    3.5598
    9.195    3.5914
    9.210    3.7809
    9.225    3.8757
    9.240    3.7177
    9.255    3.5914
    9.270    3.6440
    9.285    3.5176
    9.300    3.5176
    9.315    3.3281
    9.330    3.6440
    9.345    3.6967
    9.360    3.7072
    9.375    3.5071
    9.390    3.4755
    9.405    3.5808
    9.420    3.6546
    9.435    3.6019
    9.450    3.5176
    9.465    3.6967
    9.480    3.4966
    9.495    3.5492
    9.510    3.6756
    9.525    3.4755
    9.540    3.4650
    9.555    3.7177
    9.570    3.6967
    9.585    3.6967
    9.600    3.4439
    9.615    3.6335
    9.630    3.6967
    9.645    3.5808
    9.660    3.4650
    9.675    3.6967
    9.690    3.8547
    9.705    3.6019
    9.720    3.6546
    9.735    3.5387
    9.750    3.6651
    9.765    3.5914
    9.780    3.7177
    9.795    3.8336
    9.810    3.6756
    9.825    3.6019
    9.840    3.8020
    9.855    3.5703
    9.870    3.5071
    9.885    3.4544
    9.900    3.6335
    9.915    3.2859
    9.930    3.3913
    9.945    3.8336
    9.960    3.4966
    9.975    3.7704
    9.990    3.5071
   10.005    3.5071
   10.020    3.7493
   10.035    3.5071
   10.050    3.4123
   10.065    3.6756
   10.080    3.5282
   10.095    3.4544
   10.110    3.4018
   10.125    3.5598
   10.140    3.7177
   10.155    3.6230
   10.170    3.6230
   10.185    3.4018
   10.200    3.2965
   10.215    3.4123
   10.230    3.8336
   10.245    3.6440
   10.260    3.6546
   10.275    3.8547
   10.290    3.5282
   10.305    3.6440
   10.320    3.5176
   10.335    3.7915
   10.350    3.6440
   10.365    3.4755
   10.380    3.6862
   10.395    3.6756
   10.410    3.6230
   10.425    3.6440
   10.440    3.6440
   10.455    3.6019
   10.470    3.8547
   10.485    3.8231
   10.500    3.5387
   10.515    3.6967
   10.530    3.5914
   10.545    3.8125
   10.560    3.7704
   10.575    3.8441
   10.590    3.7283
   10.605    3.5808
   10.620    3.6756
   10.635    3.9705
   10.650    3.6967
   10.665    3.9600
   10.680    3.6440
   10.695    3.4334
   10.710    3.6546
   10.725    3.7388
   10.740    3.4334
   10.755    3.5176
   10.770    3.7704
   10.785    3.8125
   10.800    3.5176
   10.815    3.7809
   10.830    3.5176
   10.845    3.6756
   10.860    3.4966
   10.875    3.8757
   10.890    3.7283
   10.905    3.4229
   10.920    3.6756
   10.935    3.4755
   10.950    3.4860
   10.965    3.4544
   10.980    3.6019
   10.995    3.6546
   11.010    3.5598
   11.025    3.7177
   11.040    3.6546
   11.055    3.3702
   11.070    3.2859
   11.085    3.7704
   11.100    3.8863
   11.115    4.0969
   11.130    3.7599
   11.145    3.7493
   11.160    3.8441
   11.175    3.5914
   11.190    3.7704
   11.205    3.8968
   11.220    3.6546
   11.235    3.4755
   11.250    3.6546
   11.265    3.7283
   11.280    3.8336
   11.295    3.7283
   11.310    3.5387
   11.325    3.4229
   11.340    3.8547
   11.355    3.7388
   11.370    3.5598
   11.385    3.3491
   11.400    3.6651
   11.415    3.5492
   11.430    3.5914
   11.445    3.8441
   11.460    3.9389
   11.475    3.8863
   11.490    3.8231
   11.505    3.8231
   11.520    3.7493
   11.535    3.6230
   11.550    3.4544
   11.565    3.7809
   11.580    3.6230
   11.595    3.5387
   11.610    3.8020
   11.625    3.8231
   11.640    3.6440
   11.655    3.7177
   11.670    3.7177
   11.685    4.0021
   11.700    4.0021
   11.715    4.1706
   11.730    3.7809
   11.745    3.9810
   11.760    3.6651
   11.775    4.1811
   11.790    3.9494
   11.805    3.6019
   11.820    3.8020
   11.835    3.6440
   11.850    3.7072
   11.865    3.6862
   11.880    3.8441
   11.895    3.9810
   11.910    3.8231
   11.925    3.8968
   11.940    3.9494
   11.955    3.9389
   11.970    3.7493
   11.985    3.7388
   12.000    3.6230
   12.015    3.8125
   12.030    3.7599
   12.045    3.7599
   12.060    3.8441
   12.075    4.1180
   12.090    4.0969
   12.105    3.6756
   12.120    3.8863
   12.135    3.8020
   12.150    3.4018
   12.165    3.7283
   12.180    3.5808
   12.195    3.5914
   12.210    3.7388
   12.225    4.1180
   12.240    3.9073
   12.255    3.6335
   12.270    3.7177
   12.285    3.7493
   12.300    3.7809
   12.315    3.8020
   12.330    3.9494
   12.345    3.5914
   12.360    3.7177
   12.375    3.8231
   12.390    3.9705
   12.405    3.8125
   12.420    3.9073
   12.435    3.8441
   12.450    3.7388
   12.465    3.8336
   12.480    3.8336
   12.495    3.7283
   12.510    4.0758
   12.525    4.2865
   12.540    4.0864
   12.555    3.5914
   12.570    3.7493
   12.585    3.9600
   12.600    3.9916
   12.615    3.9179
   12.630    3.7388
   12.645    3.6967
   12.660    3.8652
   12.675    3.6230
   12.690    3.8231
   12.705    3.6651
   12.720    3.5387
   12.735    3.6546
   12.750    3.5176
   12.765    3.4755
   12.780    3.4544
   12.795    3.5598
   12.810    3.4755
   12.825    3.4755
   12.840    3.5282
   12.855    3.6546
   12.870    3.6651
   12.885    3.5387
   12.900    3.6124
   12.915    3.7283
   12.930    3.6862
   12.945    3.3597
   12.960    3.6230
   12.975    3.8020
   12.990    3.5492
   13.005    3.8125
   13.020    3.7177
   13.035    3.6756
   13.050    3.7388
   13.065    3.8441
   13.080    3.4650
   13.095    3.6546
   13.110    3.3491
   13.125    3.7283
   13.140    3.7493
   13.155    3.6967
   13.170    3.9179
   13.185    3.6967
   13.200    3.6230
   13.215    3.4544
   13.230    3.5176
   13.245    3.5176
   13.260    3.7283
   13.275    3.5598
   13.290    3.3702
   13.305    3.6756
   13.320    3.7388
   13.335    3.5808
   13.350    3.9179
   13.365    3.5808
   13.380    3.5808
   13.395    3.8020
   13.410    3.5703
   13.425    3.7072
   13.440    3.7809
   13.455    3.5808
   13.470    3.6019
   13.485    3.8020
   13.500    3.5492
   13.515    3.4544
   13.530    3.6756
   13.545    3.6756
   13.560    3.5071
   13.575    3.6440
   13.590    3.6335
   13.605    3.6862
   13.620    3.5071
   13.635    3.7177
   13.650    3.7388
   13.665    3.6967
   13.680    3.3175
   13.695    3.5387
   13.710    3.5914
   13.725    4.0232
   13.740    3.8757
   13.755    3.5492
   13.770    3.7704
   13.785    3.7599
   13.800    3.6440
   13.815    3.4650
   13.830    3.6546
   13.845    3.7283
   13.860    3.6335
   13.875    3.9284
   13.890    3.6967
   13.905    3.7915
   13.920    3.6756
   13.935    3.7283
   13.950    3.5176
   13.965    3.7388
   13.980    3.6230
   13.995    3.8125
   14.010    3.5598
   14.025    3.6440
   14.040    3.7283
   14.055    3.7493
   14.070    3.6124
   14.085    3.6440
   14.100    3.9073
   14.115    3.6335
   14.130    3.3175
   14.145    3.5914
   14.160    3.8336
   14.175    4.0126
   14.190    3.7493
   14.205    3.7809
   14.220    3.7072
   14.235    3.8547
   14.250    4.2865
   14.265    3.9494
   14.280    3.9494
   14.295    3.7915
   14.310    3.4439
   14.325    3.6862
   14.340    3.8547
   14.355    3.8125
   14.370    3.7915
   14.385    3.7072
   14.400    3.6230
   14.415    3.8968
   14.430    3.9179
   14.445    3.5071
   14.460    3.7283
   14.475    3.6440
   14.490    3.5387
   14.505    3.9705
   14.520    3.7177
   14.535    3.9600
   14.550    3.8547
   14.565    3.7599
   14.580    3.9494
   14.595    3.9494
   14.610    4.0126
   14.625    3.7915
   14.640    4.0021
   14.655    3.9916
   14.670    4.0758
   14.685    4.1285
   14.700    4.0126
   14.715    3.9810
   14.730    3.8863
   14.745    3.8547
   14.760    4.2233
   14.775    3.8757
   14.790    3.9494
   14.805    3.7915
   14.820    3.7809
   14.835    3.8020
   14.850    3.8547
   14.865    4.2654
   14.880    3.9179
   14.895    3.8231
   14.910    3.9705
   14.925    3.8757
   14.940    3.9810
   14.955    3.6651
   14.970    4.0969
   14.985    4.0548
   15.000    3.9179
   15.015    4.0337
   15.030    3.8863
   15.045    4.2233
   15.060    4.0864
   15.075    4.1496
   15.090    3.9810
   15.105    3.6651
   15.120    3.7493
   15.135    4.2127
   15.150    4.1706
   15.165    4.0126
   15.180    3.7493
   15.195    3.9916
   15.210    3.8231
   15.225    3.9705
   15.240    3.5914
   15.255    3.7809
   15.270    3.6756
   15.285    3.8757
   15.300    3.8652
   15.315    4.0232
   15.330    3.7704
   15.345    3.6862
   15.360    3.8652
   15.375    3.9494
   15.390    4.0653
   15.405    3.9389
   15.420    3.7388
   15.435    3.5808
   15.450    3.8125
   15.465    3.5176
   15.480    3.6124
   15.495    3.5703
   15.510    3.7283
   15.525    3.7915
   15.540    3.8968
   15.555    3.6124
   15.570    3.6756
   15.585    3.6862
   15.600    3.7493
   15.615    3.7915
   15.630    3.8020
   15.645    4.1074
   15.660    3.9600
   15.675    3.6230
   15.690    3.4229
   15.705    3.8652
   15.720    3.7493
   15.735    3.8125
   15.750    3.8757
   15.765    3.8652
   15.780    3.8652
   15.795    3.6651
   15.810    3.7599
   15.825    3.5703
   15.840    3.5598
   15.855    3.4755
   15.870    3.6019
   15.885    3.7283
   15.900    3.7704
   15.915    4.0653
   15.930    4.1285
   15.945    3.9494
   15.960    3.8547
   15.975    3.4755
   15.990    3.7283
   16.005    3.6546
   16.020    3.5598
   16.035    3.7915
   16.050    3.9073
   16.065    4.0337
   16.080    3.6230
   16.095    3.6230
   16.110    3.5703
   16.125    3.7283
   16.140    3.8020
   16.155    3.5808
   16.170    3.7915
   16.185    3.6651
   16.200    3.7072
   16.215    4.0126
   16.230    3.9810
   16.245    3.7493
   16.260    3.6546
   16.275    3.5387
   16.290    3.6230
   16.305    3.6756
   16.320    3.6546
   16.335    3.7283
   16.350    3.4544
   16.365    3.6335
   16.380    3.7599
   16.395    3.8863
   16.410    3.6230
   16.425    3.4229
   16.440    3.6335
   16.455    3.7177
   16.470    3.3070
   16.485    3.7177
   16.500    3.6230
   16.515    3.7599
   16.530    3.8652
   16.545    3.6651
   16.560    3.9389
   16.575    3.6651
   16.590    3.5282
   16.605    3.6756
   16.620    3.4650
   16.635    3.5808
   16.650    3.2859
   16.665    3.7493
   16.680    3.9389
   16.695    3.9284
   16.710    3.8231
   16.725    3.6230
   16.740    3.5492
   16.755    3.6335
   16.770    3.6546
   16.785    3.7283
   16.800    3.7809
   16.815    3.4966
   16.830    3.8231
   16.845    3.5176
   16.860    3.6440
   16.875    3.8020
   16.890    3.8968
   16.905    3.4650
   16.920    3.4966
   16.935    3.6546
   16.950    3.8652
   16.965    3.8652
   16.980    3.9494
   16.995    3.6967
   17.010    3.5387
   17.025    3.5808
   17.040    4.0232
   17.055    3.8231
   17.070    3.6862
   17.085    3.6967
   17.100    3.7283
   17.115    3.7072
   17.130    3.7493
   17.145    3.6440
   17.160    3.7493
   17.175    3.7493
   17.190    3.6440
   17.205    4.1074
   17.220    4.0548
   17.235    3.7072
   17.250    3.6440
   17.265    3.8020
   17.280    3.6967
   17.295    3.6440
   17.310    3.9916
   17.325    3.8020
   17.340    3.6440
   17.355    3.7177
   17.370    3.9284
   17.385    3.9600
   17.400    3.6124
   17.415    3.9284
   17.430    4.0021
   17.445    3.8968
   17.460    3.9494
   17.475    4.1390
   17.490    3.8231
   17.505    3.9494
   17.520    3.9284
   17.535    3.9284
   17.550    3.7388
   17.565    3.4439
   17.580    3.9284
   17.595    4.0758
   17.610    3.4544
   17.625    3.8020
   17.640    4.0758
   17.655    3.8020
   17.670    3.8547
   17.685    3.7915
   17.700    3.8757
   17.715    3.7915
   17.730    4.0758
   17.745    3.9073
   17.760    4.0864
   17.775    3.8020
   17.790    4.1496
   17.805    4.0653
   17.820    3.9600
   17.835    4.0126
   17.850    4.0126
   17.865    4.1180
   17.880    3.7493
   17.895    3.8968
   17.910    3.8652
   17.925    3.9494
   17.940    4.0126
   17.955    3.8547
   17.970    4.1285
   17.985    4.2233
   18.000    4.7499
   18.015    4.1706
   18.030    4.1706
   18.045    4.3918
   18.060    4.3075
   18.075    4.2443
   18.090    4.4023
   18.105    4.1601
   18.120    4.3497
   18.135    4.3286
   18.150    4.2022
   18.165    4.6024
   18.180    4.6235
   18.195    4.3391
   18.210    4.4339
   18.225    4.2338
   18.240    4.3707
   18.255    4.0758
   18.270    4.2970
   18.285    3.8652
   18.300    4.0337
   18.315    4.4339
   18.330    4.0758
   18.345    4.3391
   18.360    4.5498
   18.375    4.3075
   18.390    4.2443
   18.405    3.9179
   18.420    4.2022
   18.435    3.8441
   18.450    4.2759
   18.465    4.3602
   18.480    4.1390
   18.495    4.1285
   18.510    4.4971
   18.525    4.4655
   18.540    4.2654
   18.555    4.1601
   18.570    4.0021
   18.585    4.1285
   18.600    4.2127
   18.615    4.2338
   18.630    4.2338
   18.645    4.4760
   18.660    4.3602
   18.675    3.9705
   18.690    3.9810
   18.705    3.9705
   18.720    4.2654
   18.735    4.4866
   18.750    4.4444
   18.765    4.2022
   18.780    4.1285
   18.795    4.0548
   18.810    4.0337
   18.825    3.9600
   18.840    4.2338
   18.855    4.2443
   18.870    4.2549
   18.885    4.2865
   18.900    4.1285
   18.915    4.0548
   18.930    4.2654
   18.945    4.6340
   18.960    4.4866
   18.975    4.1601
   18.990    4.4339
   19.005    4.3918
   19.020    4.1180
   19.035    4.1285
   19.050    4.6024
   19.065    4.3497
   19.080    4.2022
   19.095    3.9179
   19.110    4.4550
   19.125    4.5603
   19.140    3.8757
   19.155    4.1496
   19.170    4.3181
   19.185    4.2759
   19.200    4.5392
   19.215    4.4444
   19.230    4.3813
   19.245    4.1811
   19.260    4.0232
   19.275    3.8757
   19.290    4.0232
   19.305    3.9705
   19.320    4.1496
   19.335    4.1811
   19.350    4.1390
   19.365    3.7704
   19.380    4.2865
   19.395    4.2443
   19.410    4.4760
   19.425    4.5392
   19.440    4.5392
   19.455    4.6656
   19.470    4.5076
   19.485    4.5392
   19.500    4.2759
   19.515    4.0864
   19.530    4.3075
   19.545    4.3918
   19.560    4.2759
   19.575    4.3813
   19.590    4.0969
   19.605    3.9179
   19.620    4.2865
   19.635    4.1285
   19.650    4.3286
   19.665    4.5392
   19.680    4.2549
   19.695    4.0653
   19.710    4.2549
   19.725    4.3075
   19.740    4.6656
   19.755    4.5287
   19.770    4.7077
   19.785    4.1917
   19.800    4.2970
   19.815    4.2443
   19.830    4.4339
   19.845    4.2338
   19.860    4.3918
   19.875    4.5287
   19.890    4.7077
   19.905    4.1390
   19.920    4.0337
   19.935    4.2127
   19.950    4.5182
   19.965    3.9389
   19.980    4.0021
   19.995    4.0442
   20.010    4.4655
   20.025    4.0969
   20.040    4.1811
   20.055    4.4339
   20.070    4.4866
   20.085    4.6761
   20.100    4.4128
   20.115    4.5076
   20.130    4.5603
   20.145    4.1811
   20.160    4.2233
   20.175    4.1390
   20.190    4.4128
   20.205    4.4339
   20.220    4.2759
   20.235    4.2338
   20.250    4.2865
   20.265    4.4866
   20.280    4.2127
   20.295    4.0337
   20.310    4.0653
   20.325    4.2022
   20.340    4.1074
   20.355    4.4550
   20.370    4.3813
   20.385    4.5076
   20.400    4.2127
   20.415    4.6867
   20.430    4.6867
   20.445    4.2022
   20.460    4.3497
   20.475    4.2549
   20.490    4.3813
   20.505    4.2654
   20.520    4.2022
   20.535    4.5603
   20.550    4.2970
   20.565    4.2338
   20.580    4.4655
   20.595    4.3813
   20.610    4.5287
   20.625    4.7815
   20.640    4.6445
   20.655    4.3707
   20.670    4.4655
   20.685    4.2338
   20.700    4.4866
   20.715    4.2549
   20.730    4.4234
   20.745    4.2127
   20.760    4.2338
   20.775    4.4550
   20.790    4.7183
   20.805    4.7499
   20.820    4.5498
   20.835    4.7393
   20.850    4.7709
   20.865    4.3918
   20.880    4.5392
   20.895    4.8236
   20.910    4.6656
   20.925    4.5919
   20.940    4.5814
   20.955    4.7920
   20.970    4.4760
   20.985    4.3181
   21.000    4.2338
   21.015    4.4339
   21.030    4.7288
   21.045    4.2654
   21.060    4.7815
   21.075    4.4444
   21.090    4.4760
   21.105    4.4444
   21.120    4.3707
   21.135    4.5182
   21.150    4.4444
   21.165    4.3918
   21.180    4.5919
   21.195    4.8131
   21.210    4.5814
   21.225    4.6656
   21.240    4.8341
   21.255    4.5076
   21.270    4.5076
   21.285    4.3391
   21.300    4.6656
   21.315    4.7815
   21.330    4.7709
   21.345    4.5498
   21.360    4.7393
   21.375    4.8657
   21.390    4.7077
   21.405    4.8552
   21.420    4.7288
   21.435    4.4550
   21.450    4.3918
   21.465    4.6130
   21.480    4.3391
   21.495    4.4971
   21.510    4.3497
   21.525    4.6972
   21.540    4.8763
   21.555    4.4760
   21.570    4.3918
   21.585    4.6235
   21.600    4.2654
   21.615    4.4866
   21.630    4.5076
   21.645    4.5603
   21.660    4.4760
   21.675    4.3707
   21.690    4.7815
   21.705    4.6235
   21.720    4.5708
   21.735    4.5498
   21.750    4.5814
   21.765    4.5287
   21.780    4.6551
   21.795    4.2338
   21.810    4.4128
   21.825    4.5287
   21.840    4.3075
   21.855    4.4655
   21.870    4.5392
   21.885    4.6656
   21.900    4.5603
   21.915    4.6024
   21.930    4.6340
   21.945    4.4655
   21.960    4.7077
   21.975    4.7288
   21.990    4.4550
   22.005    4.4550
   22.020    4.5708
   22.035    4.7183
   22.050    4.7077
   22.065    4.3918
   22.080    4.3707
   22.095    4.4128
   22.110    4.7393
   22.125    4.5603
   22.140    4.4444
   22.155    4.4128
   22.170    4.6235
   22.185    4.6024
   22.200    4.4128
   22.215    4.1811
   22.230    4.1285
   22.245    4.2549
   22.260    4.2549
   22.275    4.2865
   22.290    4.4339
   22.305    4.7499
   22.320    4.4550
   22.335    4.4971
   22.350    4.5814
   22.365    4.4128
   22.380    4.1285
   22.395    4.3286
   22.410    4.1074
   22.425    4.2654
   22.440    4.2443
   22.455    4.5076
   22.470    4.6972
   22.485    4.3075
   22.500    3.9810
   22.515    4.4234
   22.530    4.4234
   22.545    4.4444
   22.560    4.2022
   22.575    4.4971
   22.590    4.4550
   22.605    4.1180
   22.620    4.3497
   22.635    4.3707
   22.650    4.4760
   22.665    4.1496
   22.680    4.2443
   22.695    4.4023
   22.710    4.4234
   22.725    4.2338
   22.740    4.2654
   22.755    4.0126
   22.770    4.2022
   22.785    4.2759
   22.800    4.0864
   22.815    4.3497
   22.830    4.2865
   22.845    4.0758
   22.860    4.2654
   22.875    4.2443
   22.890    4.3181
   22.905    4.4760
   22.920    4.3391
   22.935    4.2549
   22.950    4.0758
   22.965    4.1285
   22.980    4.2338
   22.995    4.4444
   23.010    4.0864
   23.025    4.4023
   23.040    4.4128
   23.055    4.0969
   23.070    4.2970
   23.085    4.3813
   23.100    4.4971
   23.115    4.1390
   23.130    4.0021
   23.145    4.1601
   23.160    4.4023
   23.175    4.6024
   23.190    4.1496
   23.205    4.2127
   23.220    4.0021
   23.235    3.8863
   23.250    4.1706
   23.265    4.3813
   23.280    4.1706
   23.295    4.3075
   23.310    4.4339
   23.325    4.2970
   23.340    4.2865
   23.355    4.0021
   23.370    4.1706
   23.385    4.2022
   23.400    4.4128
   23.415    4.2654
   23.430    4.0442
   23.445    4.2970
   23.460    4.3181
   23.475    4.1496
   23.490    4.0653
   23.505    4.4550
   23.520    4.4655
   23.535    4.2970
   23.550    4.4866
   23.565    4.1496
   23.580    4.1180
   23.595    4.0969
   23.610    4.3602
   23.625    4.1074
   23.640    4.1074
   23.655    4.0864
   23.670    4.2443
   23.685    4.1917
   23.700    3.9284
   23.715    4.1285
   23.730    4.0548
   23.745    3.8757
   23.760    4.0653
   23.775    4.3286
   23.790    4.1390
   23.805    4.1285
   23.820    4.0232
   23.835    3.8125
   23.850    4.0864
   23.865    4.0653
   23.880    3.8652
   23.895    3.8757
   23.910    4.1390
   23.925    3.8652
   23.940    3.9284
   23.955    3.9916
   23.970    4.0126
   23.985    4.4444
   24.000    4.4339
   24.015    4.2865
   24.030    4.3497
   24.045    4.2233
   24.060    3.9494
   24.075    3.8020
   24.090    4.0969
   24.105    4.1496
   24.120    3.7599
   24.135    3.9073
   24.150    4.0442
   24.165    3.9916
   24.180    3.7704
   24.195    4.1285
   24.210    4.1285
   24.225    3.6019
   24.240    3.9705
   24.255    4.0442
   24.270    4.0337
   24.285    4.0232
   24.300    4.1811
   24.315    3.7283
   24.330    3.9073
   24.345    3.8125
   24.360    4.1390
   24.375    4.0442
   24.390    4.2549
   24.405    3.9494
   24.420    4.3181
   24.435    4.1496
   24.450    4.3286
   24.465    4.1706
   24.480    4.0864
   24.495    4.0864
   24.510    3.8863
   24.525    4.0021
   24.540    4.1180
   24.555    3.8336
   24.570    3.7493
   24.585    4.0126
   24.600    3.8652
   24.615    4.1601
   24.630    4.1180
   24.645    3.9073
   24.660    3.8547
   24.675    3.9284
   24.690    4.0864
   24.705    3.8757
   24.720    4.1390
   24.735    4.0021
   24.750    4.0337
   24.765    4.0232
   24.780    3.7809
   24.795    3.9284
   24.810    3.8652
   24.825    4.0442
   24.840    4.2233
   24.855    3.8968
   24.870    3.9389
   24.885    3.9284
   24.900    3.9810
   24.915    4.0126
   24.930    4.1074
   24.945    4.1917
   24.960    3.9810
   24.975    4.2127
   24.990    3.8757
   25.005    4.0758
   25.020    3.9073
   25.035    4.1811
   25.050    3.9705
   25.065    3.9073
   25.080    3.9073
   25.095    3.8441
   25.110    3.8231
   25.125    3.9389
   25.140    4.0126
   25.155    3.9284
   25.170    3.9389
   25.185    3.7177
   25.200    4.0548
   25.215    3.8020
   25.230    3.7072
   25.245    3.8020
   25.260    3.9284
   25.275    4.1496
   25.290    3.8863
   25.305    3.7915
   25.320    3.9810
   25.335    3.8547
   25.350    3.6440
   25.365    3.7599
   25.380    3.8757
   25.395    4.1180
   25.410    3.8231
   25.425    3.7072
   25.440    3.9179
   25.455    3.8231
   25.470    3.8231
   25.485    3.7704
   25.500    3.8652
   25.515    3.6124
   25.530    3.6019
   25.545    3.9916
   25.560    3.8125
   25.575    3.7493
   25.590    3.5914
   25.605    3.6967
   25.620    3.9073
   25.635    3.7388
   25.650    4.1180
   25.665    3.8968
   25.680    4.1601
   25.695    4.1917
   25.710    3.8231
   25.725    3.7599
   25.740    3.6862
   25.755    3.6651
   25.770    3.8336
   25.785    3.6546
   25.800    3.6230
   25.815    3.6124
   25.830    3.7072
   25.845    3.6335
   25.860    3.6440
   25.875    3.8336
   25.890    4.0126
   25.905    3.9179
   25.920    3.6651
   25.935    4.0021
   25.950    3.6230
   25.965    3.7704
   25.980    3.8652
   25.995    3.7599
   26.010    4.0232
   26.025    3.6967
   26.040    3.5703
   26.055    3.4439
   26.070    3.6756
   26.085    3.4439
   26.100    3.2859
   26.115    3.4755
   26.130    3.4018
   26.145    3.6230
   26.160    3.4650
   26.175    3.4650
   26.190    3.8863
   26.205    3.6862
   26.220    3.5282
   26.235    3.6124
   26.250    3.9705
   26.265    4.1074
   26.280    3.8863
   26.295    3.8652
   26.310    3.6862
   26.325    3.4755
   26.340    3.4966
   26.355    3.4544
   26.370    3.5598
   26.385    3.3597
   26.400    3.6335
   26.415    3.7493
   26.430    3.5808
   26.445    3.6440
   26.460    3.3175
   26.475    3.5176
   26.490    3.5914
   26.505    3.8441
   26.520    3.7599
   26.535    3.5703
   26.550    3.5914
   26.565    3.7809
   26.580    3.8547
   26.595    3.7072
   26.610    3.3491
   26.625    3.5914
   26.640    3.4229
   26.655    3.6124
   26.670    3.5808
   26.685    3.6230
   26.700    3.5492
   26.715    3.4860
   26.730    3.5176
   26.745    3.5387
   26.760    3.3281
   26.775    3.2649
   26.790    3.6335
   26.805    3.4334
   26.820    3.4123
   26.835    3.2754
   26.850    3.5071
   26.865    3.6019
   26.880    3.6756
   26.895    3.5598
   26.910    3.6756
   26.925    3.7493
   26.940    3.4018
   26.955    3.3491
   26.970    3.3702
   26.985    3.5387
   27.000    3.4966
   27.015    3.7809
   27.030    3.5071
   27.045    3.3070
   27.060    3.7599
   27.075    3.5387
   27.090    3.4229
   27.105    3.4966
   27.120    3.3913
   27.135    3.2649
   27.150    3.4966
   27.165    3.5914
   27.180    3.9916
   27.195    3.4229
   27.210    3.4650
   27.225    3.4439
   27.240    3.4439
   27.255    3.5914
   27.270    3.4439
   27.285    3.5598
   27.300    3.2438
   27.315    3.2333
   27.330    3.5914
   27.345    3.6124
   27.360    3.5176
   27.375    3.6230
   27.390    3.4229
   27.405    3.4755
   27.420    3.7388
   27.435    3.4755
   27.450    3.5808
   27.465    3.3913
   27.480    3.3597
   27.495    3.4229
   27.510    3.2227
   27.525    3.2543
   27.540    3.4229
   27.555    3.3491
   27.570    3.3597
   27.585    3.6756
   27.600    3.6546
   27.615    3.4966
   27.630    3.3281
   27.645    3.3702
   27.660    3.0542
   27.675    3.2227
   27.690    3.2543
   27.705    3.1385
   27.720    2.9910
   27.735    3.2649
   27.750    3.6124
   27.765    3.4544
   27.780    3.5387
   27.795    3.4229
   27.810    3.4966
   27.825    3.3807
   27.840    3.2438
   27.855    3.1280
   27.870    3.2859
   27.885    3.1174
   27.900    3.2333
   27.915    3.3807
   27.930    3.2859
   27.945    3.2227
   27.960    3.2438
   27.975    3.3386
   27.990    3.1701
   28.005    3.3070
   28.020    3.0437
   28.035    3.3070
   28.050    3.3491
   28.065    3.3913
   28.080    3.3070
   28.095    3.1912
   28.110    3.1490
   28.125    3.2543
   28.140    3.1490
   28.155    3.2965
   28.170    3.2122
   28.185    3.2438
   28.200    3.5808
   28.215    3.2017
   28.230    3.2859
   28.245    3.6335
   28.260    3.3070
   28.275    3.2227
   28.290    3.0753
   28.305    3.1701
   28.320    3.2649
   28.335    3.1912
   28.350    3.0437
   28.365    3.1069
   28.380    3.0753
   28.395    3.1806
   28.410    3.1490
   28.425    3.4229
   28.440    3.4650
   28.455    3.5598
   28.470    3.5914
   28.485    3.1806
   28.500    3.4334
   28.515    3.4334
   28.530    3.3491
   28.545    3.2122
   28.560    2.9068
   28.575    3.2965
   28.590    3.0437
   28.605    3.4966
   28.620    3.3913
   28.635    3.1069
   28.650    3.2754
   28.665    3.4018
   28.680    3.6124
   28.695    3.3491
   28.710    3.4334
   28.725    3.4123
   28.740    3.3491
   28.755    3.1174
   28.770    3.2543
   28.785    3.4018
   28.800    3.0858
   28.815    3.1701
   28.830    3.2649
   28.845    3.4544
   28.860    3.3597
   28.875    3.2543
   28.890    3.4860
   28.905    3.4123
   28.920    3.3070
   28.935    3.0858
   28.950    3.1806
   28.965    3.2859
   28.980    3.0858
   28.995    3.0964
   29.010    3.1490
   29.025    2.9384
   29.040    3.1912
   29.055    3.2543
   29.070    3.2227
   29.085    3.0753
   29.100    3.0753
   29.115    3.2543
   29.130    3.1912
   29.145    3.3281
   29.160    3.1385
   29.175    3.0648
   29.190    3.1596
   29.205    3.1069
   29.220    3.1385
   29.235    3.4018
   29.250    3.3491
   29.265    3.2438
   29.280    3.0964
   29.295    3.1174
   29.310    3.0964
   29.325    3.2438
   29.340    3.1069
   29.355    3.1701
   29.370    2.9805
   29.385    3.1490
   29.400    3.0753
   29.415    3.3175
   29.430    3.1385
   29.445    3.1701
   29.460    3.2543
   29.475    3.3913
   29.490    3.1385
   29.505    3.1912
   29.520    3.2754
   29.535    3.3070
   29.550    3.3386
   29.565    3.0648
   29.580    3.0542
   29.595    3.0964
   29.610    3.2017
   29.625    3.2649
   29.640    2.9805
   29.655    2.9595
   29.670    3.2227
   29.685    3.2754
   29.700    3.1596
   29.715    3.0332
   29.730    3.2227
   29.745    3.2227
   29.760    2.9489
   29.775    3.0121
   29.790    3.0858
   29.805    3.0542
   29.820    3.1806
   29.835    3.0437
   29.850    3.1385
   29.865    2.8963
   29.880    3.4123
   29.895    3.4229
   29.910    3.0016
   29.925    2.8752
   29.940    2.8752
   29.955    2.9805
   29.970    2.9910
   29.985    3.0437
   30.000    2.9700
   30.015    3.1280
   30.030    3.0437
   30.045    3.2333
   30.060    3.0437
   30.075    2.8647
   30.090    3.1280
   30.105    2.7593
   30.120    2.7593
   30.135    2.8225
   30.150    2.9805
   30.165    3.1596
   30.180    2.9489
   30.195    3.1701
   30.210    3.0542
   30.225    3.1596
   30.240    3.0964
   30.255    2.9805
   30.270    2.8647
   30.285    3.1280
   30.300    3.2543
   30.315    3.0753
   30.330    3.0121
   30.345    3.0964
   30.360    3.1069
   30.375    3.1385
   30.390    3.0648
   30.405    3.0016
   30.420    3.0858
   30.435    2.9700
   30.450    2.8541
   30.465    3.0753
   30.480    2.8857
   30.495    2.9700
   30.510    2.9068
   30.525    2.8963
   30.540    2.8015
   30.555    2.8120
   30.570    2.8331
   30.585    2.8541
   30.600    2.9489
   30.615    2.9384
   30.630    2.6962
   30.645    3.1280
   30.660    3.0121
   30.675    2.9384
   30.690    2.9173
   30.705    2.9279
   30.720    2.9384
   30.735    2.9595
   30.750    2.9595
   30.765    3.1385
   30.780    2.9068
   30.795    2.9068
   30.810    3.0226
   30.825    2.9279
   30.840    2.9489
   30.855    3.0016
   30.870    2.8331
   30.885    2.9173
   30.900    2.9700
   30.915    2.8541
   30.930    3.1806
   30.945    2.7909
   30.960    2.9700
   30.975    2.7488
   30.990    2.6435
   31.005    3.0016
   31.020    2.8225
   31.035    2.5171
   31.050    3.0016
   31.065    3.0648
   31.080    2.8647
   31.095    2.8015
   31.110    2.8647
   31.125    2.6646
   31.140    2.6224
   31.155    2.8225
   31.170    2.9700
   31.185    2.9173
   31.200    3.0648
   31.215    2.9489
   31.230    2.6962
   31.245    2.8120
   31.260    2.7593
   31.275    3.1174
   31.290    2.6540
   31.305    2.6540
   31.320    2.7172
   31.335    2.7909
   31.350    2.7488
   31.365    2.6962
   31.380    2.8541
   31.395    2.6330
   31.410    2.7804
   31.425    2.9173
   31.440    2.9068
   31.455    2.8647
   31.470    2.9279
   31.485    2.7067
   31.500    2.7804
   31.515    2.7909
   31.530    2.7488
   31.545    2.9173
   31.560    2.6435
   31.575    2.6435
   31.590    2.6330
   31.605    2.8331
   31.620    2.5908
   31.635    2.7172
   31.650    2.7172
   31.665    2.7699
   31.680    2.9068
   31.695    2.7804
   31.710    2.7383
   31.725    2.5908
   31.740    2.5592
   31.755    2.6540
   31.770    2.6962
   31.785    2.9068
   31.800    2.7909
   31.815    2.6962
   31.830    2.5171
   31.845    2.7172
   31.860    2.5066
   31.875    2.4329
   31.890    2.7067
   31.905    2.9805
   31.920    2.6751
   31.935    2.6435
   31.950    2.5803
   31.965    2.5276
   31.980    2.7172
   31.995    2.7488
   32.010    2.8331
   32.025    2.7278
   32.040    2.7067
   32.055    2.3907
   32.070    2.4539
   32.085    2.5171
   32.100    2.3486
   32.115    2.7488
   32.130    2.6119
   32.145    2.6119
   32.160    2.6646
   32.175    2.6435
   32.190    2.5592
   32.205    2.8120
   32.220    2.5592
   32.235    2.4855
   32.250    2.4645
   32.265    2.8436
   32.280    2.7488
   32.295    2.7593
   32.310    2.5382
   32.325    2.7172
   32.340    2.4645
   32.355    2.3802
   32.370    2.5171
   32.385    2.5066
   32.400    2.4329
   32.415    2.5171
   32.430    2.6962
   32.445    2.7383
   32.460    2.5382
   32.475    2.4961
   32.490    2.5698
   32.505    2.6435
   32.520    2.6330
   32.535    2.6119
   32.550    2.4961
   32.565    2.5803
   32.580    2.4855
   32.595    2.5276
   32.610    2.5066
   32.625    2.5382
   32.640    2.6224
   32.655    2.6330
   32.670    2.4961
   32.685    2.4118
   32.700    2.3697
   32.715    2.2433
   32.730    2.2538
   32.745    2.6435
   32.760    2.4855
   32.775    2.6540
   32.790    2.5487
   32.805    2.2538
   32.820    2.2538
   32.835    2.3275
   32.850    2.4329
   32.865    2.3486
   32.880    2.2433
   32.895    2.2643
   32.910    2.2538
   32.925    2.4434
   32.940    2.4855
   32.955    2.6330
   32.970    2.6014
   32.985    2.3486
   33.000    2.4539
   33.015    2.4223
   33.030    2.6435
   33.045    2.2643
   33.060    2.3170
   33.075    2.4434
   33.090    2.3802
   33.105    2.4434
   33.120    2.2749
   33.135    2.3486
   33.150    2.3907
   33.165    2.3591
   33.180    2.2328
   33.195    2.5487
   33.210    2.5171
   33.225    2.2222
   33.240    2.3381
   33.255    2.3486
   33.270    2.4645
   33.285    2.2222
   33.300    2.1801
   33.315    2.1274
   33.330    2.3486
   33.345    2.3802
   33.360    2.3170
   33.375    2.4434
   33.390    2.4645
   33.405    2.5171
   33.420    2.1801
   33.435    2.3065
   33.450    2.4750
   33.465    2.4961
   33.480    2.4855
   33.495    2.3591
   33.510    2.3591
   33.525    2.3381
   33.540    2.1590
   33.555    2.2328
   33.570    2.2643
   33.585    2.2433
   33.600    2.3065
   33.615    2.4013
   33.630    2.2959
   33.645    2.3697
   33.660    2.2854
   33.675    2.2117
   33.690    2.0221
   33.705    2.0011
   33.720    2.1906
   33.735    2.3486
   33.750    2.2433
   33.765    2.0853
   33.780    2.1169
   33.795    2.2959
   33.810    2.4013
   33.825    2.3697
   33.840    2.2538
   33.855    2.2749
   33.870    2.4118
   33.885    2.2854
   33.900    2.2749
   33.915    2.3591
   33.930    2.3381
   33.945    2.2117
   33.960    2.2959
   33.975    2.1906
   33.990    2.0537
   34.005    2.3907
   34.020    2.1906
   34.035    2.1696
   34.050    2.0642
   34.065    2.1380
   34.080    2.1801
   34.095    2.2433
   34.110    2.2328
   34.125    2.3275
   34.140    2.4645
   34.155    2.1590
   34.170    2.2749
   34.185    2.2643
   34.200    2.1696
   34.215    1.8641
   34.230    2.2643
   34.245    2.3697
   34.260    2.2959
   34.275    2.2959
   34.290    2.3170
   34.305    2.1064
   34.320    2.2749
   34.335    2.0748
   34.350    2.2959
   34.365    2.2749
   34.380    1.9379
   34.395    2.0748
   34.410    2.2854
   34.425    2.3907
   34.440    2.2012
   34.455    2.1274
   34.470    2.2749
   34.485    2.1274
   34.500    2.0853
   34.515    2.1590
   34.530    1.9273
   34.545    1.9695
   34.560    2.1801
   34.575    1.9168
   34.590    1.9695
   34.605    2.0221
   34.620    2.0537
   34.635    2.2433
   34.650    2.1801
   34.665    2.1590
   34.680    2.1380
   34.695    2.2643
   34.710    2.2222
   34.725    2.1380
   34.740    2.2328
   34.755    2.1169
   34.770    2.3381
   34.785    2.2538
   34.800    2.0537
   34.815    1.7904
   34.830    2.0432
   34.845    2.2117
   34.860    1.9484
   34.875    1.8957
   34.890    2.0221
   34.905    2.1064
   34.920    2.0116
   34.935    2.0537
   34.950    2.1169
   34.965    2.0642
   34.980    2.1801
   34.995    2.1590
   35.010    1.8747
   35.025    1.8641
   35.040    2.2012
   35.055    1.9379
   35.070    1.9168
   35.085    2.1485
   35.100    2.2012
   35.115    1.9063
   35.130    1.8957
   35.145    2.0642
   35.160    2.0432
   35.175    1.8957
   35.190    1.9168
   35.205    1.9589
   35.220    2.2959
   35.235    1.9273
   35.250    2.0221
   35.265    2.0853
   35.280    2.0116
   35.295    1.8536
   35.310    1.9695
   35.325    2.0748
   35.340    2.1169
   35.355    2.0011
   35.370    2.0011
   35.385    2.2538
   35.400    2.0326
   35.415    1.7378
   35.430    1.9484
   35.445    2.1380
   35.460    1.9379
   35.475    1.7588
   35.490    1.9484
   35.505    1.9800
   35.520    2.1590
   35.535    1.8852
   35.550    1.8220
   35.565    2.0432
   35.580    1.9273
   35.595    1.8747
   35.610    1.7799
   35.625    2.0537
   35.640    2.0326
   35.655    2.0537
   35.670    1.9379
   35.685    1.8325
   35.700    1.8115
   35.715    1.7799
   35.730    1.8325
   35.745    2.0642
   35.760    1.9379
   35.775    2.0537
   35.790    1.9063
   35.805    1.9484
   35.820    1.9273
   35.835    1.9484
   35.850    2.0748
   35.865    1.7062
   35.880    1.7062
   35.895    1.8536
   35.910    1.6851
   35.925    1.8115
   35.940    2.0537
   35.955    1.7694
   35.970    1.7272
   35.985    1.8431
   36.000    1.7588
   36.015    2.0011
   36.030    2.0432
   36.045    1.7904
   36.060    1.9695
   36.075    1.8431
   36.090    1.5903
   36.105    1.4850
   36.120    1.6430
   36.135    1.7799
   36.150    1.7378
   36.165    1.7694
   36.180    1.9063
   36.195    1.8431
   36.210    1.6430
   36.225    1.7799
   36.240    1.7062
   36.255    1.5377
   36.270    1.8747
   36.285    1.9484
   36.300    1.6430
   36.315    1.7588
   36.330    1.9168
   36.345    1.7799
   36.360    1.7588
   36.375    1.9379
   36.390    2.0011
   36.405    1.8957
   36.420    1.6746
   36.435    1.8325
   36.450    1.6535
   36.465    1.7483
   36.480    1.8325
   36.495    1.7799
   36.510    1.5798
   36.525    1.6324
   36.540    1.8009
   36.555    1.8115
   36.570    1.7272
   36.585    1.7378
   36.600    1.8325
   36.615    1.8325
   36.630    1.8115
   36.645    1.8115
   36.660    1.6956
   36.675    1.8431
   36.690    1.8852
   36.705    1.6640
   36.720    1.6956
   36.735    1.6851
   36.750    1.7483
   36.765    1.9168
   36.780    1.7272
   36.795    1.6324
   36.810    1.8325
   36.825    1.9273
   36.840    1.7167
   36.855    1.8009
   36.870    1.7483
   36.885    1.6114
   36.900    1.4323
   36.915    1.7378
   36.930    1.8009
   36.945    1.6324
   36.960    1.7483
   36.975    1.7799
   36.990    1.6324
   37.005    1.7588
   37.020    1.6114
   37.035    1.5903
   37.050    1.5798
   37.065    1.6324
   37.080    1.7378
   37.095    1.6535
   37.110    1.7588
   37.125    1.6640
   37.140    1.6324
   37.155    1.6535
   37.170    1.6746
   37.185    1.5903
   37.200    1.6956
   37.215    1.7062
   37.230    1.6956
   37.245    1.5271
   37.260    1.5587
   37.275    1.6535
   37.290    1.7483
   37.305    1.4534
   37.320    1.5587
   37.335    1.6430
   37.350    1.7167
   37.365    1.7799
   37.380    1.7799
   37.395    1.8536
   37.410    1.4955
   37.425    1.5166
   37.440    1.6640
   37.455    1.6956
   37.470    1.6851
   37.485    1.6851
   37.500    1.6851
   37.515    1.5903
   37.530    1.7062
   37.545    1.6430
   37.560    1.6430
   37.575    1.5271
   37.590    1.6746
   37.605    1.6324
   37.620    1.6008
   37.635    1.7167
   37.650    1.6430
   37.665    1.4639
   37.680    1.5482
   37.695    1.5692
   37.710    1.5798
   37.725    1.6114
   37.740    1.5482
   37.755    1.8325
   37.770    1.8536
   37.785    1.7167
   37.800    1.6008
   37.815    1.6956
   37.830    1.6746
   37.845    1.6324
   37.860    1.8641
   37.875    1.5798
   37.890    1.5061
   37.905    1.6640
   37.920    1.5903
   37.935    1.6535
   37.950    1.4850
   37.965    1.5903
   37.980    1.5903
   37.995    1.4007
   38.010    1.5061
   38.025    1.7904
   38.040    1.5061
   38.055    1.6008
   38.070    1.4534
   38.085    1.7062
   38.100    1.4955
   38.115    1.4323
   38.130    1.5587
   38.145    1.5166
   38.160    1.4955
   38.175    1.5798
   38.190    1.4218
   38.205    1.5587
   38.220    1.6640
   38.235    1.3586
   38.250    1.5061
   38.265    1.4323
   38.280    1.4534
   38.295    1.5482
   38.310    1.3586
   38.325    1.4534
   38.340    1.5587
   38.355    1.5587
   38.370    1.6956
   38.385    1.6324
   38.400    1.5903
   38.415    1.4850
   38.430    1.5377
   38.445    1.5798
   38.460    1.7799
   38.475    1.6535
   38.490    1.7799
   38.505    1.7588
   38.520    1.6008
   38.535    1.4639
   38.550    1.4639
   38.565    1.5166
   38.580    1.6956
   38.595    1.8009
   38.610    1.5482
   38.625    1.5587
   38.640    1.5166
   38.655    1.4113
   38.670    1.6114
   38.685    1.5482
   38.700    1.5482
   38.715    1.6324
   38.730    1.5061
   38.745    1.5061
   38.760    1.5482
   38.775    1.5377
   38.790    1.6640
   38.805    1.7483
   38.820    1.5692
   38.835    1.4218
   38.850    1.5377
   38.865    1.6430
   38.880    1.6114
   38.895    1.5798
   38.910    1.5692
   38.925    1.3586
   38.940    1.4850
   38.955    1.6535
   38.970    1.7062
   38.985    1.4007
   39.000    1.4850
   39.015    1.5587
   39.030    1.7799
   39.045    1.4955
   39.060    1.5271
   39.075    1.5482
   39.090    1.6114
   39.105    1.4850
   39.120    1.5166
   39.135    1.5587
   39.150    1.6219
   39.165    1.5377
   39.180    1.4218
   39.195    1.3691
   39.210    1.3902
   39.225    1.6219
   39.240    1.5377
   39.255    1.6008
   39.270    1.6114
   39.285    1.6114
   39.300    1.6430
   39.315    1.3691
   39.330    1.4218
   39.345    1.6640
   39.360    1.6430
   39.375    1.5587
   39.390    1.7062
   39.405    1.5692
   39.420    1.4850
   39.435    1.5271
   39.450    1.5692
   39.465    1.5061
   39.480    1.4850
   39.495    1.3797
   39.510    1.6114
   39.525    1.4007
   39.540    1.4955
   39.555    1.5061
   39.570    1.6956
   39.585    1.6008
   39.600    1.4955
   39.615    1.4955
   39.630    1.5271
   39.645    1.6430
   39.660    1.4745
   39.675    1.3586
   39.690    1.4218
   39.705    1.6008
   39.720    1.4850
   39.735    1.6956
   39.750    1.6324
   39.765    1.4639
   39.780    1.3797
   39.795    1.5377
   39.810    1.6008
   39.825    1.4639
   39.840    1.6430
   39.855    1.4955
   39.870    1.4113
   39.885    1.4113
   39.900    1.5166
   39.915    1.6008
   39.930    1.6114
   39.945    1.3586
   39.960    1.3586
   39.975    1.4745
   39.990    1.4745
