    1.500   15.3590
    1.515   15.2361
    1.530   15.4818
    1.545   15.2361
    1.560   15.0781
    1.575   15.7627
    1.590   14.8850
    1.605   14.2531
    1.620   13.8494
    1.635   14.3409
    1.650   13.9021
    1.665   13.1473
    1.680   13.6914
    1.695   12.8664
    1.710   13.4983
    1.725   12.6382
    1.740   13.4808
    1.755   13.2350
    1.770   13.3052
    1.785   12.2521
    1.800   12.5154
    1.815   12.6909
    1.830   11.7430
    1.845   11.6728
    1.860   12.0590
    1.875   12.0590
    1.890   12.8138
    1.905   11.7606
    1.920   11.5324
    1.935   11.4622
    1.950   11.2691
    1.965   11.3393
    1.980   11.3042
    1.995   11.2515
    2.010   10.8127
    2.025   10.9531
    2.040   10.7600
    2.055   11.0409
    2.070   10.9531
    2.085   10.5494
    2.100   11.0585
    2.115   10.8127
    2.130   10.5670
    2.145   10.1983
    2.160   10.7600
    2.175   10.9531
    2.190   10.3739
    2.205   10.1632
    2.220    9.4611
    2.235   10.2159
    2.250   10.8654
    2.265   10.5319
    2.280   10.6547
    2.295   10.3037
    2.310    9.7946
    2.325    9.6367
    2.340    9.2154
    2.355    9.3734
    2.370   10.0053
    2.385    9.8122
    2.400    9.7946
    2.415    9.0223
    2.430    9.5138
    2.445    9.2680
    2.460    9.2154
    2.475   10.0579
    2.490    9.2856
    2.505    9.0574
    2.520    8.8819
    2.535    8.7765
    2.550    9.0574
    2.565    9.1978
    2.580    9.7244
    2.595    8.4781
    2.610    9.0574
    2.625    9.0574
    2.640    8.8117
    2.655    8.4255
    2.670    9.2154
    2.685    9.3207
    2.700    8.6712
    2.715    8.7941
    2.730    9.3031
    2.745    9.0047
    2.760    9.1627
    2.775    8.8994
    2.790    9.4787
    2.805    8.8292
    2.820    8.9696
    2.835    9.2856
    2.850    9.1276
    2.865    8.7239
    2.880    8.5659
    2.895    8.5659
    2.910    8.3904
    2.925    8.3377
    2.940    8.1973
    2.955    8.6888
    2.970    9.1627
    2.985    8.8117
    3.000    8.7063
    3.015    8.8643
    3.030    8.3202
    3.045    8.2675
    3.060    8.4606
    3.075    8.5659
    3.090    9.0750
    3.105    8.3202
    3.120    8.6010
    3.135    8.9170
    3.150    8.2324
    3.165    8.2500
    3.180    8.3026
    3.195    8.6361
    3.210    8.5835
    3.225    8.8117
    3.240    9.0925
    3.255    8.9521
    3.270    9.3031
    3.285    8.8117
    3.300    9.0047
    3.315    8.8994
    3.330    8.6186
    3.345    8.5659
    3.360    8.5835
    3.375    8.4781
    3.390    8.8994
    3.405    8.6712
    3.420    8.8819
    3.435    8.8819
    3.450    8.6537
    3.465    9.3909
    3.480    9.3558
    3.495    9.0574
    3.510    9.2154
    3.525    9.4787
    3.540    9.2856
    3.555    9.4260
    3.570    9.5489
    3.585    9.5840
    3.600   10.2510
    3.615    9.9702
    3.630    9.9351
    3.645   10.2510
    3.660   10.1106
    3.675   11.0936
    3.690   10.9180
    3.705   11.5675
    3.720   11.6377
    3.735   11.8308
    3.750   12.6207
    3.765   13.1122
    3.780   13.5159
    3.795   14.4989
    3.810   15.3414
    3.825   15.5345
    3.840   16.8685
    3.855   16.0962
    3.870   15.5520
    3.885   14.8675
    3.900   13.6212
    3.915   11.9888
    3.930   10.7074
    3.945   10.2510
    3.960    9.3382
    3.975    9.1101
    3.990    8.8117
    4.005    9.1101
    4.020    8.6712
    4.035    8.3553
    4.050    8.7765
    4.065    8.5484
    4.080    8.3728
    4.095    9.0223
    4.110    9.0398
    4.125    8.6010
    4.140    9.4787
    4.155    9.2329
    4.170    8.7941
    4.185    9.0750
    4.200    8.2851
    4.215    8.5133
    4.230    8.4430
    4.245    8.7765
    4.260    9.2505
    4.275    8.2851
    4.290    8.8643
    4.305    8.3728
    4.320    8.4781
    4.335    7.9867
    4.350    8.3553
    4.365    8.1622
    4.380    8.0218
    4.395    8.8292
    4.410    8.7239
    4.425    8.2149
    4.440    8.3377
    4.455    8.4430
    4.470    8.6361
    4.485    8.1622
    4.500    8.8643
    4.515    8.6888
    4.530    8.7590
    4.545    8.5835
    4.560    8.6361
    4.575    8.8468
    4.590    9.2680
    4.605    8.3553
    4.620    8.3377
    4.635    8.7590
    4.650    9.2680
    4.665    8.9521
    4.680    8.5835
    4.695    8.3202
    4.710    8.1622
    4.725    8.8292
    4.740    8.7063
    4.755    9.0047
    4.770    9.1276
    4.785    8.5133
    4.800    8.2149
    4.815    8.5133
    4.830    8.8468
    4.845    8.9345
    4.860    8.3904
    4.875    8.3377
    4.890    8.9345
    4.905    8.7765
    4.920    7.9691
    4.935    8.5835
    4.950    8.5133
    4.965    9.3207
    4.980    9.0750
    4.995    8.5659
    5.010    8.5484
    5.025    8.8643
    5.040    9.1627
    5.055    9.8999
    5.070    9.7946
    5.085    9.5840
    5.100    9.1627
    5.115    9.7244
    5.130    9.5313
    5.145    8.9521
    5.160    9.4611
    5.175    9.9175
    5.190    9.6542
    5.205    9.7244
    5.220    9.9702
    5.235   10.1808
    5.250   10.4265
    5.265   10.3388
    5.280   10.9531
    5.295   10.4792
    5.310   10.3563
    5.325   11.0585
    5.340   10.9005
    5.355   11.0760
    5.370   10.8654
    5.385   12.0063
    5.400   12.0765
    5.415   11.7430
    5.430   12.3574
    5.445   12.1643
    5.460   11.8659
    5.475   12.7435
    5.490   11.4797
    5.505   11.7430
    5.520   12.0941
    5.535   11.0585
    5.550   10.7952
    5.565   11.1813
    5.580   10.8303
    5.595   10.3037
    5.610   10.7249
    5.625   10.6547
    5.640   11.0058
    5.655   10.7249
    5.670   10.9180
    5.685   10.4265
    5.700   10.7600
    5.715   10.6723
    5.730   10.7425
    5.745   10.4441
    5.760    9.9351
    5.775    9.4787
    5.790    9.9526
    5.805   10.1281
    5.820    9.9175
    5.835    9.6015
    5.850    9.7420
    5.865    9.3558
    5.880    9.4436
    5.895    8.8117
    5.910    9.1276
    5.925    8.8819
    5.940    8.7239
    5.955    8.3026
    5.970    8.2149
    5.985    8.8117
    6.000    8.7941
    6.015    9.2856
    6.030    8.9696
    6.045    9.1452
    6.060    8.9521
    6.075    8.6186
    6.090    8.6712
    6.105    8.9696
    6.120    8.1095
    6.135    8.5133
    6.150    8.5308
    6.165    8.8117
    6.180    8.5484
    6.195    8.7765
    6.210    8.9170
    6.225    8.2324
    6.240    8.4430
    6.255    8.3377
    6.270    8.5484
    6.285    8.5659
    6.300    8.4255
    6.315    8.3377
    6.330    8.2500
    6.345    8.1446
    6.360    8.0042
    6.375    8.6186
    6.390    8.0744
    6.405    8.1622
    6.420    8.2149
    6.435    7.9340
    6.450    8.3202
    6.465    8.1271
    6.480    7.8111
    6.495    8.0218
    6.510    8.1095
    6.525    8.3904
    6.540    8.5659
    6.555    7.8462
    6.570    7.8813
    6.585    7.9164
    6.600    8.2675
    6.615    8.1973
    6.630    8.1271
    6.645    8.1622
    6.660    8.6010
    6.675    8.7239
    6.690    7.9691
    6.705    8.6537
    6.720    8.8994
    6.735    8.4255
    6.750    8.6186
    6.765    8.4079
    6.780    8.4079
    6.795    7.4425
    6.810    7.3899
    6.825    8.0744
    6.840    7.5478
    6.855    7.7409
    6.870    7.7409
    6.885    7.0212
    6.900    7.3723
    6.915    7.6532
    6.930    7.3372
    6.945    7.6005
    6.960    7.5303
    6.975    7.5829
    6.990    7.2845
    7.005    7.9164
    7.020    7.6883
    7.035    7.3899
    7.050    7.4074
    7.065    7.1266
    7.080    7.2494
    7.095    6.9861
    7.110    6.9159
    7.125    7.4250
    7.140    7.5303
    7.155    6.8282
    7.170    7.6707
    7.185    6.9861
    7.200    6.7053
    7.215    6.8808
    7.230    6.9335
    7.245    7.3021
    7.260    7.1617
    7.275    7.6707
    7.290    6.9335
    7.305    7.0739
    7.320    7.5478
    7.335    6.9861
    7.350    6.9159
    7.365    7.3196
    7.380    7.3196
    7.395    7.0388
    7.410    6.6000
    7.425    7.0915
    7.440    6.6877
    7.455    6.8633
    7.470    7.3723
    7.485    7.1441
    7.500    7.4250
    7.515    7.2670
    7.530    6.6877
    7.545    7.3723
    7.560    7.0388
    7.575    6.6000
    7.590    6.6877
    7.605    6.8984
    7.620    6.8106
    7.635    6.8633
    7.650    6.9686
    7.665    6.7930
    7.680    6.5824
    7.695    6.7404
    7.710    6.8282
    7.725    7.1266
    7.740    6.7755
    7.755    7.3723
    7.770    7.2319
    7.785    7.0388
    7.800    7.4074
    7.815    7.2319
    7.830    6.6000
    7.845    6.5122
    7.860    6.7755
    7.875    6.8633
    7.890    6.8106
    7.905    6.1962
    7.920    6.2665
    7.935    6.1787
    7.950    6.6702
    7.965    6.1085
    7.980    6.6702
    7.995    7.1968
    8.010    6.5824
    8.025    6.7755
    8.040    6.7579
    8.055    6.1962
    8.070    6.3367
    8.085    6.6000
    8.100    6.2840
    8.115    6.0383
    8.130    6.1962
    8.145    6.3367
    8.160    6.8282
    8.175    6.3367
    8.190    6.7755
    8.205    6.8808
    8.220    6.4595
    8.235    6.4946
    8.250    6.3367
    8.265    5.7925
    8.280    6.1787
    8.295    5.7750
    8.310    6.4595
    8.325    6.5122
    8.340    6.4595
    8.355    6.1611
    8.370    6.7053
    8.385    6.1085
    8.400    6.2840
    8.415    6.3893
    8.430    6.4420
    8.445    6.6175
    8.460    6.8106
    8.475    6.3367
    8.490    6.2138
    8.505    5.7574
    8.520    6.0558
    8.535    5.8452
    8.550    6.0909
    8.565    6.4946
    8.580    6.1436
    8.595    6.7755
    8.610    6.1611
    8.625    5.7048
    8.640    6.0909
    8.655    6.1436
    8.670    6.4946
    8.685    6.4244
    8.700    6.6702
    8.715    6.4595
    8.730    6.1962
    8.745    5.9505
    8.760    5.9681
    8.775    6.1787
    8.790    6.3016
    8.805    5.9681
    8.820    6.1260
    8.835    6.1787
    8.850    6.3893
    8.865    6.5298
    8.880    6.3542
    8.895    6.2665
    8.910    6.0734
    8.925    6.5473
    8.940    6.1787
    8.955    6.2138
    8.970    6.0909
    8.985    5.9681
    9.000    6.5122
    9.015    6.5649
    9.030    5.8978
    9.045    5.8978
    9.060    6.2840
    9.075    6.1787
    9.090    6.7404
    9.105    6.1611
    9.120    5.9505
    9.135    6.4244
    9.150    6.1260
    9.165    5.8276
    9.180    5.5643
    9.195    6.4595
    9.210    6.3893
    9.225    6.0207
    9.240    6.1787
    9.255    6.0383
    9.270    6.3542
    9.285    6.2138
    9.300    6.1436
    9.315    6.3016
    9.330    6.7053
    9.345    7.2143
    9.360    6.9159
    9.375    6.5824
    9.390    6.6000
    9.405    7.0212
    9.420    7.1617
    9.435    6.7755
    9.450    6.5824
    9.465    7.2143
    9.480    7.2670
    9.495    6.9510
    9.510    7.0388
    9.525    7.5654
    9.540    7.5654
    9.555    7.4776
    9.570    7.7058
    9.585    7.2845
    9.600    6.8282
    9.615    6.9159
    9.630    7.0739
    9.645    6.6526
    9.660    6.4244
    9.675    6.3016
    9.690    6.1962
    9.705    6.0032
    9.720    6.1962
    9.735    6.1787
    9.750    5.9154
    9.765    6.0558
    9.780    6.5298
    9.795    6.6000
    9.810    6.7228
    9.825    6.4420
    9.840    6.2313
    9.855    6.3893
    9.870    6.3016
    9.885    6.3191
    9.900    6.1436
    9.915    6.1436
    9.930    6.4244
    9.945    6.2489
    9.960    6.1787
    9.975    6.2665
    9.990    5.9856
   10.005    6.4771
   10.020    5.8276
   10.035    6.1260
   10.050    6.4771
   10.065    6.9159
   10.080    6.3893
   10.095    6.0734
   10.110    6.8633
   10.125    6.3191
   10.140    6.5473
   10.155    6.6351
   10.170    6.6175
   10.185    6.4244
   10.200    6.7930
   10.215    6.3718
   10.230    7.1090
   10.245    6.9510
   10.260    6.5824
   10.275    6.8808
   10.290    6.8633
   10.305    7.4601
   10.320    7.1617
   10.335    7.3021
   10.350    6.8984
   10.365    7.0915
   10.380    6.3191
   10.395    5.5994
   10.410    6.1787
   10.425    6.4595
   10.440    6.6175
   10.455    6.1260
   10.470    5.6170
   10.485    5.9329
   10.500    6.3718
   10.515    6.4244
   10.530    6.2489
   10.545    6.2313
   10.560    6.9510
   10.575    6.4595
   10.590    6.6000
   10.605    6.4069
   10.620    6.6877
   10.635    6.1611
   10.650    6.4595
   10.665    6.4420
   10.680    6.0207
   10.695    6.1611
   10.710    6.0207
   10.725    6.1611
   10.740    6.1787
   10.755    6.2138
   10.770    6.8106
   10.785    6.7930
   10.800    6.3893
   10.815    6.7404
   10.830    6.7053
   10.845    6.6877
   10.860    7.1617
   10.875    6.3893
   10.890    6.1611
   10.905    6.9335
   10.920    6.3893
   10.935    6.4771
   10.950    6.4595
   10.965    6.2138
   10.980    6.6877
   10.995    7.1968
   11.010    6.8984
   11.025    6.6351
   11.040    6.6175
   11.055    6.8808
   11.070    6.9861
   11.085    6.6175
   11.100    6.6175
   11.115    6.6351
   11.130    6.3191
   11.145    6.6526
   11.160    7.0212
   11.175    6.0734
   11.190    6.7228
   11.205    6.3718
   11.220    6.1962
   11.235    6.2840
   11.250    5.8978
   11.265    6.1085
   11.280    6.2313
   11.295    6.2489
   11.310    6.1085
   11.325    6.7404
   11.340    6.3718
   11.355    5.8276
   11.370    6.0032
   11.385    6.2489
   11.400    5.9681
   11.415    6.3718
   11.430    6.3016
   11.445    6.2313
   11.460    6.0207
   11.475    6.1260
   11.490    6.2840
   11.505    5.9856
   11.520    6.0032
   11.535    6.2138
   11.550    6.0558
   11.565    6.0909
   11.580    6.1962
   11.595    6.4946
   11.610    6.6175
   11.625    6.5298
   11.640    6.7930
   11.655    6.6000
   11.670    6.7930
   11.685    6.4420
   11.700    6.6877
   11.715    6.8808
   11.730    6.3542
   11.745    6.5298
   11.760    6.6175
   11.775    6.0909
   11.790    6.0207
   11.805    6.0558
   11.820    6.1787
   11.835    6.2489
   11.850    6.1436
   11.865    6.1962
   11.880    5.8803
   11.895    6.4244
   11.910    6.1436
   11.925    5.5994
   11.940    5.6170
   11.955    6.3718
   11.970    5.8276
   11.985    5.8803
   12.000    6.0032
   12.015    5.8978
   12.030    6.3367
   12.045    5.8978
   12.060    5.6170
   12.075    5.9856
   12.090    6.1611
   12.105    5.8978
   12.120    5.8101
   12.135    5.3888
   12.150    5.2835
   12.165    5.4941
   12.180    5.6521
   12.195    5.9505
   12.210    5.8452
   12.225    6.0909
   12.240    6.1787
   12.255    6.3191
   12.270    6.0558
   12.285    5.8101
   12.300    5.8803
   12.315    5.6697
   12.330    6.0383
   12.345    6.3016
   12.360    6.5473
   12.375    6.2665
   12.390    5.7048
   12.405    5.8803
   12.420    6.2489
   12.435    6.7053
   12.450    6.0734
   12.465    6.1085
   12.480    6.0032
   12.495    5.5994
   12.510    5.9681
   12.525    5.7574
   12.540    6.4595
   12.555    6.2138
   12.570    6.0032
   12.585    5.7925
   12.600    6.1260
   12.615    5.8452
   12.630    5.5819
   12.645    5.7399
   12.660    6.0032
   12.675    5.9329
   12.690    5.6345
   12.705    5.3361
   12.720    5.5643
   12.735    5.4766
   12.750    5.7399
   12.765    5.9154
   12.780    6.1085
   12.795    5.7574
   12.810    6.0383
   12.825    5.7048
   12.840    5.3537
   12.855    5.7223
   12.870    5.9681
   12.885    6.5473
   12.900    6.3367
   12.915    6.0558
   12.930    6.3016
   12.945    6.7404
   12.960    6.6175
   12.975    6.1260
   12.990    5.8978
   13.005    5.6697
   13.020    5.8276
   13.035    5.7223
   13.050    5.7048
   13.065    5.4590
   13.080    5.3010
   13.095    5.3888
   13.110    5.3888
   13.125    5.4064
   13.140    5.3010
   13.155    5.6697
   13.170    5.8276
   13.185    5.8276
   13.200    5.9505
   13.215    5.7223
   13.230    5.7223
   13.245    5.9505
   13.260    5.8627
   13.275    5.4415
   13.290    5.3537
   13.305    5.9505
   13.320    6.1611
   13.335    5.6170
   13.350    5.4415
   13.365    5.8101
   13.380    5.8101
   13.395    5.9856
   13.410    5.8452
   13.425    5.5994
   13.440    5.5994
   13.455    5.6170
   13.470    5.8803
   13.485    5.7574
   13.500    5.6521
   13.515    5.4590
   13.530    5.7399
   13.545    5.7223
   13.560    6.1787
   13.575    5.4766
   13.590    6.1787
   13.605    5.7048
   13.620    5.5117
   13.635    5.7223
   13.650    5.6170
   13.665    5.9329
   13.680    5.9856
   13.695    6.1085
   13.710    5.6697
   13.725    5.7574
   13.740    6.3016
   13.755    5.8978
   13.770    5.3010
   13.785    5.6872
   13.800    5.5468
   13.815    6.1260
   13.830    5.7048
   13.845    6.0383
   13.860    5.6872
   13.875    5.5994
   13.890    6.1260
   13.905    5.7223
   13.920    5.8101
   13.935    5.4239
   13.950    5.7399
   13.965    5.6345
   13.980    5.5292
   13.995    5.7750
   14.010    5.7574
   14.025    6.0207
   14.040    5.4766
   14.055    5.7223
   14.070    6.4420
   14.085    6.6877
   14.100    6.3718
   14.115    6.3893
   14.130    6.4946
   14.145    5.7223
   14.160    5.9329
   14.175    6.0558
   14.190    6.0207
   14.205    5.9329
   14.220    5.6521
   14.235    6.1260
   14.250    5.8101
   14.265    6.0207
   14.280    6.0909
   14.295    6.0032
   14.310    6.5298
   14.325    6.2313
   14.340    5.8101
   14.355    6.5473
   14.370    6.1085
   14.385    6.1260
   14.400    6.4771
   14.415    6.0383
   14.430    6.0558
   14.445    6.1436
   14.460    6.2840
   14.475    6.6877
   14.490    6.4069
   14.505    6.0207
   14.520    6.4595
   14.535    5.9681
   14.550    5.8803
   14.565    6.2840
   14.580    6.0032
   14.595    6.1085
   14.610    6.0558
   14.625    6.0032
   14.640    6.1085
   14.655    6.4244
   14.670    6.2489
   14.685    5.6697
   14.700    6.3191
   14.715    6.1962
   14.730    5.8101
   14.745    5.9681
   14.760    6.3016
   14.775    5.8452
   14.790    5.9681
   14.805    5.7399
   14.820    5.8978
   14.835    5.4415
   14.850    5.5468
   14.865    5.4239
   14.880    5.4064
   14.895    5.8452
   14.910    5.5643
   14.925    5.8803
   14.940    5.6170
   14.955    5.7574
   14.970    6.0734
   14.985    5.6521
   15.000    5.8978
   15.015    6.0734
   15.030    6.0207
   15.045    6.0909
   15.060    5.7750
   15.075    5.7925
   15.090    5.3712
   15.105    5.0026
   15.120    5.4239
   15.135    5.3712
   15.150    5.7925
   15.165    5.4415
   15.180    5.8101
   15.195    5.5643
   15.210    5.3186
   15.225    5.4766
   15.240    5.7223
   15.255    5.5819
   15.270    5.9505
   15.285    5.8978
   15.300    5.8452
   15.315    5.9329
   15.330    5.4941
   15.345    5.4239
   15.360    5.7399
   15.375    5.8803
   15.390    6.3367
   15.405    5.1606
   15.420    5.1606
   15.435    5.2835
   15.450    5.4941
   15.465    5.6521
   15.480    5.8452
   15.495    5.7750
   15.510    5.4590
   15.525    5.9329
   15.540    5.7399
   15.555    6.0909
   15.570    5.7750
   15.585    5.5643
   15.600    5.4415
   15.615    5.2133
   15.630    5.7223
   15.645    5.8101
   15.660    5.9329
   15.675    5.6872
   15.690    5.6521
   15.705    5.7399
   15.720    5.3537
   15.735    5.5643
   15.750    5.9154
   15.765    5.9329
   15.780    5.3888
   15.795    5.3537
   15.810    5.7048
   15.825    5.5819
   15.840    5.7925
   15.855    5.1782
   15.870    5.5643
   15.885    5.6521
   15.900    5.2308
   15.915    5.3186
   15.930    5.5468
   15.945    5.4941
   15.960    5.5643
   15.975    5.8627
   15.990    5.9329
   16.005    5.9505
   16.020    5.6697
   16.035    5.5994
   16.050    5.4239
   16.065    5.4064
   16.080    5.3537
   16.095    5.8978
   16.110    5.5643
   16.125    5.5643
   16.140    5.7750
   16.155    5.8101
   16.170    5.8276
   16.185    5.6872
   16.200    5.9681
   16.215    5.6697
   16.230    5.8276
   16.245    5.6521
   16.260    5.4239
   16.275    5.5292
   16.290    5.7399
   16.305    5.5292
   16.320    5.8101
   16.335    5.6170
   16.350    5.4415
   16.365    5.4590
   16.380    5.4941
   16.395    6.0383
   16.410    5.6170
   16.425    5.8803
   16.440    5.7574
   16.455    5.2133
   16.470    5.5819
   16.485    5.5468
   16.500    5.2308
   16.515    5.6345
   16.530    5.5819
   16.545    6.1787
   16.560    5.7223
   16.575    5.2484
   16.590    5.8276
   16.605    6.1962
   16.620    5.8452
   16.635    5.5292
   16.650    5.6521
   16.665    5.9329
   16.680    5.4590
   16.695    5.8101
   16.710    5.4766
   16.725    5.7750
   16.740    5.3888
   16.755    5.2484
   16.770    5.3010
   16.785    5.7223
   16.800    6.0032
   16.815    5.5819
   16.830    5.9681
   16.845    5.8276
   16.860    5.7574
   16.875    5.4239
   16.890    5.3537
   16.905    5.9329
   16.920    5.7574
   16.935    5.5468
   16.950    5.4239
   16.965    5.3361
   16.980    5.6697
   16.995    5.6521
   17.010    5.5292
   17.025    5.6170
   17.040    6.0734
   17.055    5.8978
   17.070    6.3718
   17.085    5.9856
   17.100    5.6872
   17.115    5.4064
   17.130    5.4239
   17.145    5.4064
   17.160    5.7223
   17.175    5.3888
   17.190    5.4239
   17.205    5.6521
   17.220    5.4415
   17.235    5.8978
   17.250    5.5994
   17.265    5.6697
   17.280    5.7399
   17.295    5.5468
   17.310    5.6345
   17.325    5.5643
   17.340    5.3888
   17.355    5.2659
   17.370    5.3361
   17.385    5.2308
   17.400    5.7574
   17.415    5.7574
   17.430    5.5468
   17.445    5.3888
   17.460    5.3537
   17.475    5.5292
   17.490    5.8627
   17.505    5.8276
   17.520    5.7399
   17.535    5.4941
   17.550    5.3712
   17.565    5.6872
   17.580    5.4766
   17.595    5.4415
   17.610    5.6872
   17.625    5.4941
   17.640    5.1431
   17.655    5.6521
   17.670    5.7750
   17.685    5.5117
   17.700    5.6872
   17.715    5.6697
   17.730    5.7574
   17.745    5.5468
   17.760    5.6345
   17.775    6.0909
   17.790    5.5994
   17.805    5.3712
   17.820    5.1606
   17.835    5.0202
   17.850    5.6872
   17.865    6.0734
   17.880    6.1962
   17.895    6.1611
   17.910    5.7399
   17.925    5.4590
   17.940    5.6697
   17.955    5.6170
   17.970    5.1782
   17.985    5.5468
   18.000    5.3888
   18.015    5.5117
   18.030    6.2138
   18.045    5.5819
   18.060    5.3888
   18.075    5.0377
   18.090    5.4064
   18.105    5.8978
   18.120    5.8452
   18.135    4.8447
   18.150    4.9851
   18.165    5.6872
   18.180    6.0383
   18.195    5.6872
   18.210    5.2835
   18.225    5.4415
   18.240    5.7750
   18.255    5.4766
   18.270    5.1606
   18.285    5.3712
   18.300    5.4766
   18.315    5.8803
   18.330    6.0558
   18.345    5.6345
   18.360    5.3186
   18.375    5.3712
   18.390    5.3712
   18.405    5.4766
   18.420    5.7399
   18.435    5.2835
   18.450    5.8452
   18.465    5.9856
   18.480    5.6872
   18.495    5.6872
   18.510    5.3186
   18.525    5.5292
   18.540    5.3888
   18.555    5.6697
   18.570    5.4239
   18.585    5.4941
   18.600    5.7925
   18.615    5.3361
   18.630    5.4415
   18.645    5.6521
   18.660    5.6170
   18.675    5.7399
   18.690    5.3888
   18.705    5.1606
   18.720    5.3361
   18.735    5.4590
   18.750    5.0202
   18.765    5.6170
   18.780    5.1606
   18.795    5.8803
   18.810    5.5292
   18.825    5.8452
   18.840    5.5643
   18.855    5.3888
   18.870    5.6170
   18.885    5.8101
   18.900    5.3537
   18.915    5.3712
   18.930    5.6170
   18.945    5.2835
   18.960    5.3010
   18.975    5.3712
   18.990    6.0207
   19.005    5.6697
   19.020    5.2133
   19.035    5.3888
   19.050    5.7574
   19.065    5.5292
   19.080    5.3888
   19.095    6.0032
   19.110    5.4590
   19.125    5.1431
   19.140    5.2484
   19.155    5.2133
   19.170    5.4239
   19.185    5.4239
   19.200    5.4064
   19.215    5.4590
   19.230    5.8452
   19.245    5.0904
   19.260    5.3010
   19.275    5.6697
   19.290    5.8101
   19.305    5.6697
   19.320    4.9851
   19.335    5.1957
   19.350    5.7223
   19.365    5.0904
   19.380    5.1606
   19.395    5.8276
   19.410    5.4941
   19.425    5.2835
   19.440    5.3537
   19.455    5.7223
   19.470    5.5292
   19.485    5.3537
   19.500    5.5468
   19.515    5.3888
   19.530    5.2308
   19.545    5.4941
   19.560    5.6697
   19.575    5.5643
   19.590    5.5292
   19.605    5.5117
   19.620    5.6345
   19.635    5.4415
   19.650    5.3537
   19.665    5.2835
   19.680    5.4941
   19.695    5.5117
   19.710    5.3888
   19.725    5.3712
   19.740    5.4941
   19.755    5.6345
   19.770    5.0026
   19.785    5.2133
   19.800    5.4766
   19.815    5.1080
   19.830    5.4766
   19.845    5.0377
   19.860    5.2133
   19.875    5.4941
   19.890    5.3712
   19.905    5.5994
   19.920    5.5117
   19.935    5.8627
   19.950    5.6872
   19.965    5.6170
   19.980    5.3537
   19.995    5.2659
   20.010    5.3361
   20.025    4.8973
   20.040    4.8798
   20.055    5.2835
   20.070    5.3361
   20.085    5.0904
   20.100    4.8973
   20.115    5.0202
   20.130    5.4239
   20.145    5.4590
   20.160    5.4239
   20.175    4.8622
   20.190    4.6165
   20.205    4.8973
   20.220    5.3712
   20.235    5.5643
   20.250    5.3712
   20.265    5.2308
   20.280    5.3537
   20.295    5.1782
   20.310    5.5117
   20.325    5.2659
   20.340    5.5643
   20.355    5.6170
   20.370    5.4239
   20.385    5.5117
   20.400    5.4766
   20.415    5.5643
   20.430    5.7750
   20.445    5.0202
   20.460    5.3010
   20.475    5.8627
   20.490    5.3888
   20.505    5.3010
   20.520    5.4590
   20.535    5.1606
   20.550    5.5292
   20.565    5.1080
   20.580    5.5292
   20.595    4.7920
   20.610    5.4941
   20.625    5.4415
   20.640    5.3186
   20.655    5.4415
   20.670    5.4239
   20.685    5.1255
   20.700    5.1255
   20.715    5.1782
   20.730    4.9851
   20.745    5.2659
   20.760    5.1606
   20.775    4.8973
   20.790    4.7042
   20.805    5.5819
   20.820    6.0207
   20.835    5.5292
   20.850    5.4590
   20.865    5.3186
   20.880    5.4766
   20.895    5.3186
   20.910    5.1431
   20.925    4.8798
   20.940    5.4590
   20.955    5.5819
   20.970    5.2484
   20.985    5.3010
   21.000    5.4941
   21.015    5.7399
   21.030    5.4064
   21.045    5.4239
   21.060    5.0728
   21.075    4.7744
   21.090    5.0202
   21.105    4.9851
   21.120    5.0377
   21.135    5.0904
   21.150    4.9500
   21.165    5.1080
   21.180    5.4415
   21.195    5.4064
   21.210    5.5994
   21.225    5.1606
   21.240    4.5463
   21.255    5.0202
   21.270    5.1431
   21.285    5.4239
   21.300    5.4064
   21.315    5.2835
   21.330    5.1957
   21.345    5.3712
   21.360    5.2308
   21.375    5.1255
   21.390    5.3010
   21.405    5.2659
   21.420    5.0202
   21.435    5.1255
   21.450    5.3010
   21.465    5.3537
   21.480    5.3186
   21.495    4.9675
   21.510    5.2484
   21.525    5.1782
   21.540    5.1080
   21.555    5.3186
   21.570    5.4064
   21.585    5.0553
   21.600    5.3010
   21.615    5.5468
   21.630    5.5117
   21.645    5.9329
   21.660    5.4941
   21.675    4.9149
   21.690    5.2659
   21.705    4.9851
   21.720    5.1255
   21.735    5.1255
   21.750    5.2308
   21.765    5.3010
   21.780    5.3888
   21.795    5.5643
   21.810    5.4239
   21.825    5.3888
   21.840    5.0377
   21.855    5.1255
   21.870    4.9149
   21.885    5.2484
   21.900    5.4064
   21.915    5.5117
   21.930    5.3361
   21.945    5.1431
   21.960    4.7218
   21.975    5.3712
   21.990    5.3010
   22.005    5.0553
   22.020    5.0904
   22.035    5.4239
   22.050    5.4415
   22.065    5.1255
   22.080    5.1782
   22.095    5.0377
   22.110    5.0202
   22.125    4.9675
   22.140    5.3712
   22.155    4.8973
   22.170    5.0553
   22.185    5.2484
   22.200    5.3712
   22.215    5.4590
   22.230    5.1431
   22.245    4.9675
   22.260    4.6516
   22.275    5.0728
   22.290    5.5117
   22.305    5.4064
   22.320    5.0904
   22.335    5.0553
   22.350    5.0026
   22.365    5.3888
   22.380    5.1782
   22.395    5.2484
   22.410    4.9324
   22.425    4.9324
   22.440    5.4064
   22.455    5.5643
   22.470    5.5117
   22.485    5.1957
   22.500    5.3186
   22.515    5.5117
   22.530    5.3712
   22.545    4.9675
   22.560    5.1255
   22.575    5.8452
   22.590    5.7048
   22.605    5.4415
   22.620    5.4941
   22.635    5.4415
   22.650    5.3361
   22.665    5.7223
   22.680    5.0026
   22.695    5.0553
   22.710    4.9851
   22.725    5.3010
   22.740    4.9500
   22.755    5.0553
   22.770    5.3186
   22.785    4.9324
   22.800    5.3361
   22.815    5.5468
   22.830    5.1431
   22.845    5.5117
   22.860    4.8271
   22.875    4.8798
   22.890    4.9149
   22.905    4.8622
   22.920    5.2308
   22.935    5.3537
   22.950    5.0553
   22.965    5.2659
   22.980    5.7223
   22.995    5.2835
   23.010    4.7393
   23.025    5.1957
   23.040    4.9851
   23.055    4.9500
   23.070    4.8447
   23.085    4.7744
   23.100    5.1782
   23.115    5.1255
   23.130    5.4064
   23.145    4.8271
   23.160    4.9500
   23.175    5.1431
   23.190    5.0553
   23.205    5.2133
   23.220    4.9851
   23.235    4.5989
   23.250    5.3010
   23.265    5.0728
   23.280    5.0202
   23.295    5.0904
   23.310    4.9149
   23.325    4.7920
   23.340    5.5117
   23.355    4.6691
   23.370    5.0904
   23.385    5.0553
   23.400    4.8798
   23.415    4.8798
   23.430    4.9324
   23.445    5.0202
   23.460    5.1606
   23.475    5.0377
   23.490    4.5989
   23.505    5.3361
   23.520    4.9324
   23.535    4.9851
   23.550    5.0377
   23.565    5.1606
   23.580    4.7744
   23.595    4.8622
   23.610    5.2308
   23.625    5.0728
   23.640    4.7920
   23.655    5.1957
   23.670    5.0904
   23.685    4.8973
   23.700    4.7042
   23.715    4.9149
   23.730    4.7744
   23.745    4.7569
   23.760    4.6691
   23.775    4.5638
   23.790    4.7393
   23.805    5.0904
   23.820    5.1957
   23.835    4.7569
   23.850    4.4409
   23.865    4.6165
   23.880    4.7569
   23.895    5.0553
   23.910    5.1080
   23.925    5.0026
   23.940    4.7920
   23.955    5.0553
   23.970    4.9149
   23.985    4.5463
   24.000    4.8095
   24.015    4.7042
   24.030    4.8798
   24.045    4.5463
   24.060    4.8973
   24.075    4.9324
   24.090    4.5287
   24.105    4.9324
   24.120    4.8798
   24.135    4.7042
   24.150    4.5814
   24.165    4.8271
   24.180    4.8622
   24.195    4.5989
   24.210    4.8973
   24.225    5.0026
   24.240    4.8622
   24.255    4.7218
   24.270    4.7920
   24.285    5.1431
   24.300    5.1782
   24.315    5.1431
   24.330    4.5111
   24.345    4.4585
   24.360    4.5989
   24.375    4.7569
   24.390    4.7393
   24.405    4.7920
   24.420    4.6165
   24.435    4.4936
   24.450    4.6165
   24.465    4.7920
   24.480    4.5989
   24.495    4.5463
   24.510    4.3883
   24.525    4.6516
   24.540    4.8798
   24.555    4.7744
   24.570    4.5111
   24.585    4.5814
   24.600    4.3532
   24.615    4.6691
   24.630    5.1255
   24.645    5.0728
   24.660    4.4058
   24.675    4.4409
   24.690    4.2654
   24.705    4.3005
   24.720    4.9851
   24.735    4.9500
   24.750    4.7042
   24.765    4.7218
   24.780    4.6165
   24.795    4.7744
   24.810    4.7393
   24.825    4.3707
   24.840    4.6516
   24.855    4.8447
   24.870    4.8973
   24.885    5.1255
   24.900    4.9149
   24.915    5.1431
   24.930    5.2659
   24.945    4.6165
   24.960    4.2654
   24.975    4.5989
   24.990    4.8622
   25.005    5.1080
   25.020    4.7569
   25.035    4.5287
   25.050    4.5989
   25.065    4.8447
   25.080    4.6516
   25.095    4.6516
   25.110    4.4936
   25.125    4.7393
   25.140    4.4234
   25.155    4.5989
   25.170    4.5814
   25.185    5.1782
   25.200    4.8798
   25.215    4.4760
   25.230    4.9500
   25.245    4.7393
   25.260    4.4058
   25.275    4.4760
   25.290    4.7393
   25.305    4.4409
   25.320    4.8095
   25.335    4.4760
   25.350    4.3532
   25.365    4.8798
   25.380    4.5638
   25.395    4.5638
   25.410    4.8095
   25.425    4.7042
   25.440    4.4058
   25.455    4.7218
   25.470    4.7569
   25.485    4.7569
   25.500    4.7744
   25.515    4.6867
   25.530    4.6516
   25.545    4.4234
   25.560    4.9675
   25.575    4.3356
   25.590    4.4234
   25.605    4.8095
   25.620    5.0728
   25.635    4.4234
   25.650    4.6516
   25.665    4.6867
   25.680    4.6691
   25.695    4.5287
   25.710    4.3883
   25.725    4.4058
   25.740    4.7218
   25.755    5.0026
   25.770    4.6340
   25.785    4.5111
   25.800    4.8271
   25.815    5.0026
   25.830    5.1606
   25.845    4.6867
   25.860    4.4760
   25.875    5.2133
   25.890    4.5814
   25.905    4.8271
   25.920    4.9500
   25.935    4.8622
   25.950    4.6867
   25.965    4.5989
   25.980    4.7920
   25.995    4.1952
   26.010    4.3883
   26.025    4.5287
   26.040    4.2478
   26.055    4.6340
   26.070    4.8447
   26.085    4.5638
   26.100    4.5111
   26.115    4.4585
   26.130    4.7569
   26.145    4.9500
   26.160    4.5638
   26.175    4.4585
   26.190    4.6340
   26.205    4.6516
   26.220    4.4585
   26.235    4.5463
   26.250    4.0021
   26.265    4.3707
   26.280    4.5989
   26.295    4.2654
   26.310    4.5638
   26.325    4.3532
   26.340    4.7744
   26.355    4.8622
   26.370    4.6691
   26.385    3.9846
   26.400    4.7042
   26.415    4.3356
   26.430    4.2478
   26.445    4.3707
   26.460    4.4409
   26.475    4.4936
   26.490    5.0026
   26.505    4.4058
   26.520    4.3356
   26.535    4.4585
   26.550    4.7393
   26.565    4.3883
   26.580    4.1074
   26.595    4.7042
   26.610    4.3707
   26.625    4.1425
   26.640    4.3707
   26.655    4.5463
   26.670    4.3883
   26.685    4.7042
   26.700    4.4234
   26.715    4.2654
   26.730    4.2303
   26.745    4.5287
   26.760    4.3005
   26.775    4.5111
   26.790    4.5463
   26.805    4.7393
   26.820    4.3707
   26.835    3.8266
   26.850    4.3707
   26.865    4.6691
   26.880    4.5111
   26.895    4.2830
   26.910    4.1601
   26.925    4.2654
   26.940    4.2303
   26.955    4.2830
   26.970    4.2127
   26.985    4.7218
   27.000    4.4409
   27.015    4.5287
   27.030    4.7920
   27.045    4.4058
   27.060    4.5463
   27.075    4.0372
   27.090    4.7218
   27.105    4.5287
   27.120    4.1250
   27.135    4.0899
   27.150    4.4585
   27.165    4.4234
   27.180    4.4760
   27.195    4.7393
   27.210    4.5111
   27.225    4.4585
   27.240    4.8622
   27.255    4.4234
   27.270    4.2303
   27.285    4.0548
   27.300    4.4585
   27.315    3.9319
   27.330    3.9494
   27.345    4.1776
   27.360    4.6340
   27.375    4.2127
   27.390    4.2303
   27.405    4.1601
   27.420    4.3356
   27.435    4.0723
   27.450    4.1425
   27.465    4.0372
   27.480    4.1776
   27.495    4.5989
   27.510    4.3181
   27.525    4.1074
   27.540    4.0899
   27.555    4.5463
   27.570    4.2830
   27.585    4.0548
   27.600    4.3883
   27.615    4.3707
   27.630    4.2830
   27.645    4.3005
   27.660    4.3532
   27.675    4.1250
   27.690    4.4409
   27.705    4.3532
   27.720    4.2830
   27.735    4.2478
   27.750    4.1250
   27.765    4.1952
   27.780    3.8792
   27.795    4.3005
   27.810    4.1952
   27.825    3.8792
   27.840    4.3005
   27.855    4.1250
   27.870    4.2478
   27.885    4.1776
   27.900    4.4585
   27.915    4.1601
   27.930    4.4234
   27.945    4.5287
   27.960    4.0372
   27.975    4.3883
   27.990    4.6691
   28.005    4.1601
   28.020    4.3181
   28.035    4.2478
   28.050    4.3532
   28.065    4.4760
   28.080    4.3005
   28.095    4.1776
   28.110    4.0723
   28.125    4.3181
   28.140    4.3181
   28.155    4.0372
   28.170    4.2127
   28.185    4.5111
   28.200    4.5111
   28.215    4.3532
   28.230    4.0723
   28.245    4.3707
   28.260    4.4760
   28.275    4.3005
   28.290    4.3532
   28.305    4.1425
   28.320    4.1250
   28.335    4.0723
   28.350    3.9319
   28.365    4.2303
   28.380    4.2127
   28.395    3.8617
   28.410    4.4409
   28.425    4.5463
   28.440    4.0197
   28.455    4.0899
   28.470    4.0021
   28.485    3.6159
   28.500    4.3181
   28.515    4.2127
   28.530    3.8266
   28.545    3.7213
   28.560    4.1952
   28.575    3.7564
   28.590    4.0899
   28.605    3.8266
   28.620    4.0021
   28.635    4.5111
   28.650    4.1601
   28.665    4.2478
   28.680    4.5463
   28.695    4.3181
   28.710    4.0899
   28.725    4.2654
   28.740    4.2127
   28.755    4.3707
   28.770    4.2478
   28.785    4.1601
   28.800    4.0723
   28.815    4.4936
   28.830    4.6165
   28.845    4.4585
   28.860    4.0372
   28.875    4.1074
   28.890    4.1425
   28.905    4.5111
   28.920    4.0548
   28.935    4.4234
   28.950    4.6867
   28.965    4.6165
   28.980    4.3181
   28.995    4.4409
   29.010    4.0548
   29.025    3.9319
   29.040    3.8617
   29.055    4.4585
   29.070    4.0548
   29.085    4.2303
   29.100    4.3883
   29.115    3.8441
   29.130    3.5282
   29.145    3.7739
   29.160    4.2303
   29.175    4.1601
   29.190    3.4580
   29.205    3.5808
   29.220    3.9846
   29.235    3.9846
   29.250    4.2127
   29.265    4.2303
   29.280    4.1074
   29.295    4.1250
   29.310    4.2478
   29.325    4.0197
   29.340    4.1776
   29.355    4.0548
   29.370    4.0548
   29.385    4.2127
   29.400    4.2303
   29.415    3.7388
   29.430    3.5457
   29.445    3.8617
   29.460    3.9494
   29.475    3.7564
   29.490    3.5984
   29.505    3.7564
   29.520    3.8441
   29.535    3.8968
   29.550    3.9846
   29.565    4.1952
   29.580    3.6510
   29.595    3.8441
   29.610    3.6159
   29.625    3.6686
   29.640    3.5984
   29.655    4.0372
   29.670    3.7564
   29.685    3.9319
   29.700    3.8090
   29.715    3.9670
   29.730    3.8792
   29.745    3.9670
   29.760    3.5984
   29.775    3.4580
   29.790    3.7915
   29.805    3.7037
   29.820    3.8617
   29.835    3.4580
   29.850    3.4229
   29.865    3.4931
   29.880    3.4580
   29.895    3.7739
   29.910    3.6335
   29.925    3.4755
   29.940    3.4404
   29.955    3.8968
   29.970    3.8441
   29.985    3.7213
   30.000    4.0372
   30.015    3.5457
   30.030    3.6335
   30.045    3.4931
   30.060    3.7037
   30.075    3.5984
   30.090    3.4404
   30.105    3.8968
   30.120    3.8441
   30.135    3.5808
   30.150    3.6159
   30.165    3.5808
   30.180    3.4229
   30.195    3.4404
   30.210    3.5808
   30.225    3.5808
   30.240    3.3175
   30.255    3.5282
   30.270    3.6862
   30.285    3.5984
   30.300    3.9143
   30.315    3.9143
   30.330    4.0723
   30.345    3.7915
   30.360    3.5282
   30.375    3.8266
   30.390    3.6862
   30.405    3.5282
   30.420    3.8090
   30.435    3.7739
   30.450    3.8968
   30.465    3.5633
   30.480    3.6686
   30.495    3.7739
   30.510    3.6862
   30.525    3.5457
   30.540    3.5282
   30.555    3.8792
   30.570    3.6862
   30.585    3.5984
   30.600    3.7388
   30.615    3.8792
   30.630    3.6159
   30.645    3.6862
   30.660    3.7915
   30.675    3.4931
   30.690    3.5106
   30.705    3.9319
   30.720    3.6335
   30.735    3.5633
   30.750    4.0021
   30.765    3.3175
   30.780    3.7915
   30.795    3.8090
   30.810    3.3175
   30.825    3.1771
   30.840    3.3351
   30.855    3.7915
   30.870    3.5984
   30.885    3.9846
   30.900    3.8617
   30.915    3.4580
   30.930    3.8792
   30.945    3.5984
   30.960    3.4404
   30.975    3.5633
   30.990    3.9319
   31.005    3.6159
   31.020    3.5457
   31.035    3.7564
   31.050    3.4931
   31.065    3.4404
   31.080    3.4229
   31.095    3.5633
   31.110    3.8968
   31.125    3.7213
   31.140    3.4931
   31.155    3.5457
   31.170    3.2824
   31.185    3.1245
   31.200    3.5282
   31.215    3.3526
   31.230    3.5633
   31.245    3.3526
   31.260    3.1420
   31.275    3.2298
   31.290    3.1069
   31.305    3.3000
   31.320    3.4931
   31.335    3.5106
   31.350    3.6159
   31.365    3.5808
   31.380    3.3702
   31.395    3.2824
   31.410    3.6335
   31.425    3.2298
   31.440    3.1596
   31.455    3.1069
   31.470    3.5984
   31.485    3.3702
   31.500    3.4931
   31.515    3.1245
   31.530    3.5282
   31.545    3.3877
   31.560    3.7915
   31.575    3.4053
   31.590    3.4404
   31.605    3.1245
   31.620    3.3000
   31.635    3.4404
   31.650    3.6159
   31.665    3.5984
   31.680    3.4053
   31.695    3.3000
   31.710    3.0542
   31.725    3.1069
   31.740    3.4404
   31.755    3.4580
   31.770    3.8266
   31.785    3.3702
   31.800    3.7213
   31.815    3.3702
   31.830    3.3351
   31.845    3.6510
   31.860    3.4404
   31.875    3.4931
   31.890    3.4931
   31.905    3.3175
   31.920    3.3702
   31.935    3.7564
   31.950    3.6335
   31.965    3.5984
   31.980    3.7213
   31.995    3.1947
   32.010    3.1947
   32.025    3.5106
   32.040    3.4404
   32.055    3.9319
   32.070    3.7564
   32.085    3.9670
   32.100    4.0372
   32.115    4.0723
   32.130    3.6159
   32.145    3.4931
   32.160    3.4755
   32.175    3.3175
   32.190    3.2473
   32.205    3.3175
   32.220    3.2473
   32.235    3.7739
   32.250    3.1596
   32.265    2.8963
   32.280    3.2298
   32.295    3.5633
   32.310    3.4229
   32.325    3.5457
   32.340    3.3526
   32.355    3.4755
   32.370    3.4931
   32.385    3.3702
   32.400    3.5457
   32.415    3.3702
   32.430    3.3175
   32.445    3.7213
   32.460    3.7915
   32.475    3.3702
   32.490    2.9489
   32.505    3.2649
   32.520    3.3526
   32.535    3.4229
   32.550    3.3175
   32.565    2.9489
   32.580    3.1771
   32.595    3.1069
   32.610    3.1947
   32.625    3.1771
   32.640    2.7558
   32.655    3.1069
   32.670    3.2649
   32.685    3.4404
   32.700    3.2824
   32.715    3.2298
   32.730    3.4580
   32.745    2.8612
   32.760    2.8963
   32.775    3.1771
   32.790    3.0016
   32.805    3.1420
   32.820    3.4755
   32.835    3.2122
   32.850    3.7037
   32.865    3.4931
   32.880    3.7037
   32.895    3.2473
   32.910    3.4404
   32.925    2.8963
   32.940    2.9314
   32.955    3.2298
   32.970    3.2649
   32.985    3.5808
   33.000    3.4931
   33.015    3.2298
   33.030    3.4404
   33.045    3.5106
   33.060    3.5106
   33.075    3.4931
   33.090    3.5457
   33.105    3.0016
   33.120    3.3526
   33.135    3.6686
   33.150    3.1596
   33.165    3.2122
   33.180    3.5633
   33.195    3.0893
   33.210    3.2824
   33.225    3.1069
   33.240    3.2298
   33.255    3.1596
   33.270    3.1245
   33.285    2.8963
   33.300    3.2122
   33.315    3.4229
   33.330    3.3000
   33.345    3.0542
   33.360    3.0367
   33.375    3.1947
   33.390    3.4931
   33.405    3.3702
   33.420    3.3175
   33.435    3.1069
   33.450    3.1771
   33.465    3.3877
   33.480    3.3702
   33.495    3.1596
   33.510    3.1771
   33.525    3.2824
   33.540    3.4580
   33.555    3.2122
   33.570    3.1420
   33.585    3.3000
   33.600    3.1245
   33.615    3.5984
   33.630    3.6335
   33.645    3.4404
   33.660    3.2824
   33.675    2.8963
   33.690    2.9840
   33.705    3.2122
   33.720    3.0718
   33.735    3.3877
   33.750    3.1420
   33.765    3.2122
   33.780    3.5282
   33.795    3.2473
   33.810    3.2649
   33.825    3.5282
   33.840    3.1947
   33.855    3.4229
   33.870    3.5457
   33.885    3.3877
   33.900    3.0718
   33.915    3.0893
   33.930    2.6856
   33.945    3.0542
   33.960    3.1245
   33.975    3.1245
   33.990    3.5282
   34.005    2.8436
   34.020    3.0191
   34.035    2.8963
   34.050    3.1069
   34.065    3.3175
   34.080    3.0191
   34.095    3.3000
   34.110    3.2473
   34.125    3.3702
   34.140    3.6159
   34.155    3.2122
   34.170    3.0191
   34.185    3.2298
   34.200    2.8963
   34.215    3.2298
   34.230    3.3175
   34.245    3.4580
   34.260    2.9314
   34.275    2.9665
   34.290    3.1245
   34.305    3.0367
   34.320    3.3877
   34.335    3.0191
   34.350    3.2298
   34.365    2.6505
   34.380    2.8260
   34.395    3.1069
   34.410    3.1420
   34.425    3.2298
   34.440    3.4755
   34.455    3.3175
   34.470    3.3351
   34.485    3.1245
   34.500    3.2122
   34.515    3.0367
   34.530    3.0893
   34.545    2.8787
   34.560    3.3000
   34.575    3.2122
   34.590    3.3175
   34.605    2.9489
   34.620    3.0367
   34.635    3.0893
   34.650    3.3351
   34.665    3.1420
   34.680    3.0191
   34.695    3.0191
   34.710    2.9138
   34.725    2.8612
   34.740    3.0367
   34.755    3.0191
   34.770    2.9665
   34.785    2.7558
   34.800    3.2298
   34.815    3.1596
   34.830    3.0718
   34.845    3.2649
   34.860    3.4404
   34.875    3.0367
   34.890    3.2473
   34.905    3.1245
   34.920    3.0191
   34.935    2.8260
   34.950    3.0367
   34.965    2.8787
   34.980    3.0893
   34.995    3.0016
   35.010    3.2473
   35.025    3.1947
   35.040    3.2824
   35.055    3.1420
   35.070    2.7032
   35.085    2.8436
   35.100    3.1069
   35.115    3.0542
   35.130    3.3526
   35.145    3.2473
   35.160    3.1245
   35.175    3.3702
   35.190    3.3000
   35.205    3.0367
   35.220    2.6505
   35.235    3.1947
   35.250    3.5457
   35.265    2.9840
   35.280    3.3702
   35.295    3.3175
   35.310    2.9314
   35.325    2.8085
   35.340    2.9314
   35.355    3.2649
   35.370    3.2122
   35.385    3.0893
   35.400    3.1245
   35.415    3.0542
   35.430    3.0191
   35.445    2.9840
   35.460    3.0542
   35.475    3.3877
   35.490    3.4229
   35.505    3.1947
   35.520    3.0718
   35.535    3.0191
   35.550    3.2649
   35.565    3.3000
   35.580    3.2122
   35.595    3.1947
   35.610    3.1947
   35.625    3.1596
   35.640    3.1420
   35.655    3.0542
   35.670    2.8963
   35.685    3.3175
   35.700    3.1771
   35.715    2.9665
   35.730    2.9840
   35.745    2.8787
   35.760    2.8612
   35.775    3.2122
   35.790    3.1596
   35.805    2.7909
   35.820    3.1771
   35.835    3.1947
   35.850    3.1947
   35.865    2.8436
   35.880    2.7909
   35.895    2.9840
   35.910    3.0542
   35.925    3.3702
   35.940    3.5457
   35.955    3.3175
   35.970    3.5457
   35.985    3.5282
   36.000    3.2824
   36.015    3.1245
   36.030    3.0191
   36.045    2.8085
   36.060    3.0718
   36.075    3.3702
   36.090    3.1771
   36.105    2.9489
   36.120    3.2649
   36.135    3.1771
   36.150    3.3175
   36.165    3.5808
   36.180    3.3000
   36.195    3.3702
   36.210    3.3175
   36.225    3.0718
   36.240    3.2298
   36.255    3.4229
   36.270    3.1596
   36.285    3.1420
   36.300    2.7558
   36.315    2.9489
   36.330    2.8787
   36.345    3.2298
   36.360    3.3877
   36.375    3.0367
   36.390    3.1245
   36.405    2.8436
   36.420    3.3526
   36.435    3.3351
   36.450    3.0191
   36.465    3.3877
   36.480    3.3175
   36.495    3.1245
   36.510    3.0718
   36.525    3.1069
   36.540    3.4755
   36.555    3.5633
   36.570    3.0718
   36.585    2.8963
   36.600    3.0893
   36.615    2.9314
   36.630    3.1245
   36.645    3.4229
   36.660    3.2298
   36.675    3.1771
   36.690    3.2122
   36.705    2.8260
   36.720    3.1069
   36.735    3.0718
   36.750    2.9840
   36.765    2.8787
   36.780    2.9489
   36.795    3.2824
   36.810    2.9665
   36.825    2.7558
   36.840    3.3526
   36.855    3.0542
   36.870    3.3877
   36.885    3.1420
   36.900    3.3000
   36.915    3.0367
   36.930    3.1069
   36.945    3.0893
   36.960    3.3877
   36.975    3.3351
   36.990    3.0191
   37.005    2.8787
   37.020    3.0542
   37.035    2.8963
   37.050    2.9665
   37.065    3.1771
   37.080    2.8787
   37.095    2.7558
   37.110    3.1420
   37.125    3.3000
   37.140    3.1069
   37.155    3.3702
   37.170    3.2122
   37.185    2.8436
   37.200    2.8612
   37.215    2.8260
   37.230    2.8963
   37.245    3.0191
   37.260    2.8612
   37.275    2.8787
   37.290    2.8787
   37.305    2.9840
   37.320    3.1596
   37.335    3.0367
   37.350    2.6856
   37.365    2.9314
   37.380    3.2122
   37.395    3.2122
   37.410    2.7734
   37.425    2.7909
   37.440    3.1245
   37.455    3.0542
   37.470    3.3351
   37.485    3.4755
   37.500    3.1245
   37.515    2.7909
   37.530    2.8085
   37.545    3.1245
   37.560    3.1771
   37.575    3.3000
   37.590    3.4755
   37.605    3.2649
   37.620    2.9840
   37.635    3.0718
   37.650    3.1947
   37.665    3.1245
   37.680    2.9665
   37.695    3.1771
   37.710    3.1771
   37.725    3.2122
   37.740    2.9840
   37.755    2.7909
   37.770    2.9489
   37.785    3.0542
   37.800    2.7558
   37.815    2.8787
   37.830    2.8436
   37.845    2.9489
   37.860    3.0718
   37.875    3.0542
   37.890    2.7734
   37.905    2.7558
   37.920    2.8612
   37.935    3.1596
   37.950    3.3351
   37.965    3.1947
   37.980    3.0542
   37.995    2.8436
   38.010    3.1245
   38.025    3.3175
   38.040    2.7558
   38.055    2.9840
   38.070    3.2649
   38.085    2.8612
   38.100    3.1771
   38.115    2.9314
   38.130    3.5808
   38.145    3.0016
   38.160    3.2122
   38.175    2.9314
   38.190    3.0367
   38.205    2.8963
   38.220    3.0191
   38.235    2.8085
   38.250    2.8963
   38.265    2.8612
   38.280    3.0191
   38.295    2.7383
   38.310    2.8612
   38.325    2.9665
   38.340    2.9314
   38.355    2.9314
   38.370    3.1245
   38.385    3.4580
   38.400    3.0893
   38.415    3.1420
   38.430    2.6505
   38.445    2.8963
   38.460    2.8963
   38.475    2.9840
   38.490    3.0893
   38.505    3.1069
   38.520    3.0718
   38.535    2.9840
   38.550    3.1596
   38.565    3.1596
   38.580    2.9314
   38.595    3.1420
   38.610    2.9665
   38.625    2.8787
   38.640    2.8787
   38.655    2.9840
   38.670    2.8436
   38.685    3.0367
   38.700    3.1596
   38.715    3.0893
   38.730    3.0191
   38.745    2.8963
   38.760    2.8612
   38.775    3.3175
   38.790    2.9840
   38.805    2.7207
   38.820    3.3702
   38.835    3.5106
   38.850    2.9840
   38.865    2.8612
   38.880    2.6856
   38.895    2.7909
   38.910    2.8260
   38.925    2.8787
   38.940    3.0718
   38.955    3.2824
   38.970    2.7207
   38.985    2.6154
   39.000    2.9840
   39.015    3.1771
   39.030    2.8963
   39.045    2.7032
   39.060    2.6856
   39.075    3.0191
   39.090    2.8436
   39.105    3.1771
   39.120    2.9840
   39.135    2.9665
   39.150    3.1245
   39.165    3.1596
   39.180    2.8085
   39.195    3.0367
   39.210    2.8612
   39.225    2.8963
   39.240    2.7909
   39.255    2.7558
   39.270    2.8787
   39.285    3.0542
   39.300    3.1069
   39.315    2.9138
   39.330    2.5803
   39.345    2.8436
   39.360    3.0542
   39.375    3.0893
   39.390    2.8260
   39.405    3.2473
   39.420    3.1771
   39.435    3.1771
   39.450    3.1420
   39.465    2.8787
   39.480    2.8436
   39.495    2.8612
   39.510    3.0367
   39.525    2.8963
   39.540    2.5452
   39.555    2.7734
   39.570    2.8787
   39.585    2.6505
   39.600    2.7383
   39.615    2.9840
   39.630    2.9489
   39.645    2.8436
   39.660    2.8963
   39.675    3.2649
   39.690    2.6330
   39.705    2.8260
   39.720    2.7734
   39.735    2.8612
   39.750    2.7207
   39.765    2.9138
   39.780    3.0191
   39.795    3.1596
   39.810    2.9314
   39.825    3.0718
   39.840    2.7734
   39.855    3.1947
   39.870    3.4053
   39.885    2.8436
   39.900    2.6505
   39.915    2.8260
   39.930    2.5101
   39.945    3.0191
   39.960    3.2122
   39.975    3.0367
   39.990    2.8787
