    1.500   50.1211
    1.515   50.7636
    1.530   49.4787
    1.545   48.2464
    1.560   47.8673
    1.575   46.0242
    1.590   45.7715
    1.605   43.8231
    1.620   42.8436
    1.635   41.3481
    1.650   40.6109
    1.665   40.9795
    1.680   39.6314
    1.695   39.0205
    1.710   37.6303
    1.725   37.4829
    1.740   37.3670
    1.755   35.7451
    1.770   33.8178
    1.785   34.3023
    1.800   33.7335
    1.815   33.3649
    1.830   33.1648
    1.845   31.5956
    1.860   31.0269
    1.875   30.6372
    1.890   29.9947
    1.905   29.6156
    1.920   29.4787
    1.935   28.4255
    1.950   27.2880
    1.965   27.3302
    1.980   26.8141
    1.995   25.8978
    2.010   25.4239
    2.025   25.5292
    2.040   25.0132
    2.055   24.8973
    2.070   24.6130
    2.085   23.9389
    2.100   23.0437
    2.115   22.8331
    2.130   22.2854
    2.145   22.5803
    2.160   22.5171
    2.175   22.1274
    2.190   21.2217
    2.205   21.0953
    2.220   21.6746
    2.235   20.5687
    2.250   20.2001
    2.265   19.5366
    2.280   20.1369
    2.295   19.6840
    2.310   19.0100
    2.325   18.4729
    2.340   19.0311
    2.355   18.7362
    2.370   18.5887
    2.385   17.7567
    2.400   17.2933
    2.415   18.0937
    2.430   18.2412
    2.445   16.7878
    2.460   17.1353
    2.475   16.1875
    2.490   16.9668
    2.505   16.7562
    2.520   16.7667
    2.535   16.3454
    2.550   15.9874
    2.565   15.8715
    2.580   15.3344
    2.595   15.8820
    2.610   15.0500
    2.625   15.1448
    2.640   14.8605
    2.655   14.3760
    2.670   14.7130
    2.685   14.7867
    2.700   14.2180
    2.715   14.4918
    2.730   14.1654
    2.745   14.3128
    2.760   13.9231
    2.775   13.7862
    2.790   13.7019
    2.805   14.2180
    2.820   13.7757
    2.835   13.6177
    2.850   12.4381
    2.865   13.0174
    2.880   13.0174
    2.895   12.2486
    2.910   12.7330
    2.925   12.8910
    2.940   12.6698
    2.955   12.0695
    2.970   12.0906
    2.985   12.2170
    3.000   12.3749
    3.015   12.6172
    3.030   11.8273
    3.045   12.3749
    3.060   12.1116
    3.075   12.0169
    3.090   11.9642
    3.105   12.3644
    3.120   11.6588
    3.135   11.5956
    3.150   11.1848
    3.165   11.3955
    3.180   11.4376
    3.195   11.1638
    3.210   11.0690
    3.225   11.7114
    3.240   10.9005
    3.255   10.4897
    3.270   10.6793
    3.285   10.8689
    3.300   10.9321
    3.315   10.6898
    3.330   10.9110
    3.345   10.8057
    3.360   10.7004
    3.375   10.5635
    3.390   10.6056
    3.405   10.4792
    3.420   10.1422
    3.435    9.9631
    3.450   10.4687
    3.465   10.2686
    3.480   10.1948
    3.495   10.2370
    3.510    9.9315
    3.525    9.8789
    3.540    9.8473
    3.555   10.1527
    3.570   10.1738
    3.585   10.0158
    3.600    9.4997
    3.615   10.2475
    3.630   10.2791
    3.645    9.9315
    3.660    9.8894
    3.675    9.8789
    3.690    9.8052
    3.705    9.5629
    3.720    9.2154
    3.735    9.6788
    3.750    9.7420
    3.765    8.9415
    3.780    9.0469
    3.795    8.9837
    3.810    8.7309
    3.825    8.8046
    3.840    8.8573
    3.855    9.0679
    3.870    9.2575
    3.885    8.9521
    3.900    8.6045
    3.915    9.0890
    3.930    9.4471
    3.945    9.0047
    3.960    9.2786
    3.975    8.7204
    3.990    8.6256
    4.005    9.2048
    4.020    8.7625
    4.035    8.3202
    4.050    8.4781
    4.065    8.8784
    4.080    9.3207
    4.095    8.5624
    4.110    8.4466
    4.125    8.4781
    4.140    8.8994
    4.155    8.3834
    4.170    8.5519
    4.185    8.3202
    4.200    8.3939
    4.215    8.5624
    4.230    8.4571
    4.245    8.6677
    4.260    8.5624
    4.275    8.4360
    4.290    8.3096
    4.305    8.4992
    4.320    8.4571
    4.335    8.2675
    4.350    8.0358
    4.365    8.1201
    4.380    8.2886
    4.395    7.8357
    4.410    8.3518
    4.425    8.1833
    4.440    8.3728
    4.455    7.8884
    4.470    7.8252
    4.485    7.6777
    4.500    8.2886
    4.515    8.4360
    4.530    7.9410
    4.545    8.0253
    4.560    8.0569
    4.575    8.0042
    4.590    8.2991
    4.605    7.6672
    4.620    8.1411
    4.635    8.0990
    4.650    8.1833
    4.665    8.1095
    4.680    7.9621
    4.695    7.7304
    4.710    7.7620
    4.725    7.8568
    4.740    8.2780
    4.755    8.1306
    4.770    7.8673
    4.785    7.8884
    4.800    7.5724
    4.815    7.7409
    4.830    8.2570
    4.845    7.8146
    4.860    7.3934
    4.875    7.8462
    4.890    8.1411
    4.905    7.8357
    4.920    8.0674
    4.935    7.5619
    4.950    7.4355
    4.965    7.8041
    4.980    7.8357
    4.995    7.9305
    5.010    7.9410
    5.025    7.7093
    5.040    7.1617
    5.055    7.8357
    5.070    7.8778
    5.085    7.6145
    5.100    7.7093
    5.115    7.8778
    5.130    7.7409
    5.145    7.4355
    5.160    7.6567
    5.175    7.8252
    5.190    7.7830
    5.205    7.8462
    5.220    7.8568
    5.235    7.7725
    5.250    7.6672
    5.265    7.2986
    5.280    7.6672
    5.295    7.6040
    5.310    7.6672
    5.325    7.7199
    5.340    7.3723
    5.355    7.8673
    5.370    7.7514
    5.385    7.7830
    5.400    7.4566
    5.415    7.4671
    5.430    7.6145
    5.445    7.7936
    5.460    7.4460
    5.475    7.6040
    5.490    7.4776
    5.505    7.4355
    5.520    7.2670
    5.535    7.5408
    5.550    7.4776
    5.565    7.3828
    5.580    7.2459
    5.595    7.0774
    5.610    7.4250
    5.625    7.2354
    5.640    7.3302
    5.655    7.2459
    5.670    7.2670
    5.685    7.1511
    5.700    7.7514
    5.715    7.6461
    5.730    7.4250
    5.745    7.1511
    5.760    7.0563
    5.775    7.6672
    5.790    7.2986
    5.805    7.8357
    5.820    7.4250
    5.835    7.4144
    5.850    7.4671
    5.865    7.0037
    5.880    7.1722
    5.895    7.3723
    5.910    7.1933
    5.925    7.4355
    5.940    7.7514
    5.955    7.6672
    5.970    7.4776
    5.985    7.2354
    6.000    7.1933
    6.015    7.2354
    6.030    7.3512
    6.045    7.4039
    6.060    7.5092
    6.075    7.9094
    6.090    7.6040
    6.105    7.4566
    6.120    7.0985
    6.135    7.2249
    6.150    7.3618
    6.165    6.9300
    6.180    7.3196
    6.195    7.0037
    6.210    7.3934
    6.225    7.4566
    6.240    7.3196
    6.255    7.1406
    6.270    7.0669
    6.285    6.9405
    6.300    6.7193
    6.315    7.2038
    6.330    7.1722
    6.345    7.1617
    6.360    6.8773
    6.375    7.1722
    6.390    7.6777
    6.405    7.2565
    6.420    7.4144
    6.435    7.2565
    6.450    7.3512
    6.465    7.6461
    6.480    7.2354
    6.495    7.4566
    6.510    7.1090
    6.525    6.9932
    6.540    7.0879
    6.555    7.5619
    6.570    6.7088
    6.585    7.1511
    6.600    7.2143
    6.615    7.4250
    6.630    6.6983
    6.645    7.3407
    6.660    7.2459
    6.675    7.1195
    6.690    7.2670
    6.705    7.1933
    6.720    7.2880
    6.735    7.1933
    6.750    6.8878
    6.765    7.1511
    6.780    7.3618
    6.795    7.3302
    6.810    6.7720
    6.825    7.1933
    6.840    7.6356
    6.855    7.0142
    6.870    6.9826
    6.885    6.9932
    6.900    7.1933
    6.915    6.8246
    6.930    7.2038
    6.945    7.0669
    6.960    7.3091
    6.975    6.7720
    6.990    7.1827
    7.005    6.9510
    7.020    7.3091
    7.035    6.9616
    7.050    6.9405
    7.065    7.2986
    7.080    7.0458
    7.095    6.9826
    7.110    6.8878
    7.125    6.7615
    7.140    6.6983
    7.155    7.3196
    7.170    7.2986
    7.185    7.3091
    7.200    7.2249
    7.215    7.0248
    7.230    7.0669
    7.245    6.6877
    7.260    6.8668
    7.275    7.1301
    7.290    7.4039
    7.305    7.0985
    7.320    7.0985
    7.335    6.9616
    7.350    7.2038
    7.365    6.6140
    7.380    6.9932
    7.395    7.2143
    7.410    7.2775
    7.425    7.4460
    7.440    6.8878
    7.455    7.1933
    7.470    7.6040
    7.485    7.3407
    7.500    6.9826
    7.515    7.1511
    7.530    7.4671
    7.545    6.9194
    7.560    7.0458
    7.575    6.4560
    7.590    6.5613
    7.605    6.8984
    7.620    7.2775
    7.635    6.9194
    7.650    6.8773
    7.665    7.0142
    7.680    7.1301
    7.695    6.8773
    7.710    6.8878
    7.725    6.7193
    7.740    6.8352
    7.755    6.5192
    7.770    7.1511
    7.785    6.9932
    7.800    7.1406
    7.815    6.9616
    7.830    6.8141
    7.845    7.2354
    7.860    7.3618
    7.875    7.0037
    7.890    7.4987
    7.905    7.2670
    7.920    6.9089
    7.935    7.1406
    7.950    6.7930
    7.965    6.7088
    7.980    6.8773
    7.995    7.0669
    8.010    7.1617
    8.025    7.0353
    8.040    7.4566
    8.055    7.0037
    8.070    7.0774
    8.085    7.0879
    8.100    7.0879
    8.115    7.1617
    8.130    6.9721
    8.145    6.7299
    8.160    6.8984
    8.175    6.9405
    8.190    6.7615
    8.205    6.8036
    8.220    7.2775
    8.235    7.2143
    8.250    6.8457
    8.265    6.8141
    8.280    7.4250
    8.295    7.9726
    8.310    6.7720
    8.325    6.8984
    8.340    6.8984
    8.355    6.7509
    8.370    7.0037
    8.385    7.1301
    8.400    7.1195
    8.415    7.0669
    8.430    6.9300
    8.445    6.8984
    8.460    7.2775
    8.475    7.3196
    8.490    7.5303
    8.505    7.3934
    8.520    7.3091
    8.535    6.8878
    8.550    6.9616
    8.565    6.9721
    8.580    6.5613
    8.595    6.8352
    8.610    7.2249
    8.625    7.2986
    8.640    7.1406
    8.655    7.1301
    8.670    6.8878
    8.685    7.3196
    8.700    7.0248
    8.715    6.7404
    8.730    7.2565
    8.745    7.1933
    8.760    7.1933
    8.775    7.3407
    8.790    7.3091
    8.805    7.2880
    8.820    6.9194
    8.835    7.1090
    8.850    7.1195
    8.865    7.1511
    8.880    7.0774
    8.895    7.0985
    8.910    7.4039
    8.925    7.1827
    8.940    7.0879
    8.955    7.0353
    8.970    6.6877
    8.985    7.0458
    9.000    6.9194
    9.015    7.2249
    9.030    6.8773
    9.045    6.9826
    9.060    6.7299
    9.075    6.9826
    9.090    6.7509
    9.105    6.9616
    9.120    7.3512
    9.135    7.1827
    9.150    6.8984
    9.165    7.0458
    9.180    6.9089
    9.195    6.8246
    9.210    6.8984
    9.225    7.1301
    9.240    7.0353
    9.255    6.8878
    9.270    7.0458
    9.285    7.0248
    9.300    6.8246
    9.315    6.9300
    9.330    7.0142
    9.345    7.5092
    9.360    6.9510
    9.375    6.9194
    9.390    7.0458
    9.405    7.2038
    9.420    6.9510
    9.435    7.1511
    9.450    6.8246
    9.465    6.7825
    9.480    6.7509
    9.495    6.8984
    9.510    7.0353
    9.525    6.8668
    9.540    7.1090
    9.555    7.1195
    9.570    7.1722
    9.585    6.6351
    9.600    6.4876
    9.615    7.0669
    9.630    7.3091
    9.645    6.9616
    9.660    6.7615
    9.675    6.8246
    9.690    6.4666
    9.705    6.6561
    9.720    7.2143
    9.735    6.9721
    9.750    6.8984
    9.765    6.8984
    9.780    6.7825
    9.795    6.9826
    9.810    6.8878
    9.825    7.1511
    9.840    6.9300
    9.855    7.1933
    9.870    7.3091
    9.885    6.8773
    9.900    6.9721
    9.915    6.8352
    9.930    6.9721
    9.945    7.2249
    9.960    7.0879
    9.975    7.0248
    9.990    6.7825
   10.005    7.1406
   10.020    6.9721
   10.035    6.9194
   10.050    7.3302
   10.065    7.0248
   10.080    6.7615
   10.095    6.9721
   10.110    7.1511
   10.125    7.2143
   10.140    7.0985
   10.155    6.8352
   10.170    6.9826
   10.185    7.0669
   10.200    6.7509
   10.215    7.1722
   10.230    7.2775
   10.245    6.9932
   10.260    6.5403
   10.275    6.5929
   10.290    6.3402
   10.305    6.8352
   10.320    6.7299
   10.335    6.5403
   10.350    6.8668
   10.365    6.9405
   10.380    7.2143
   10.395    6.9932
   10.410    6.8773
   10.425    6.8352
   10.440    6.9194
   10.455    6.7825
   10.470    7.2880
   10.485    7.1090
   10.500    6.8562
   10.515    6.7509
   10.530    6.6983
   10.545    6.8246
   10.560    6.7720
   10.575    6.9194
   10.590    6.7299
   10.605    7.0248
   10.620    7.0353
   10.635    6.8984
   10.650    6.7509
   10.665    7.0669
   10.680    7.0563
   10.695    6.6561
   10.710    6.6245
   10.725    6.7825
   10.740    6.8457
   10.755    6.5719
   10.770    6.7088
   10.785    7.2565
   10.800    6.9510
   10.815    6.9300
   10.830    7.1617
   10.845    7.4039
   10.860    7.1301
   10.875    6.8562
   10.890    6.9616
   10.905    6.7720
   10.920    6.7299
   10.935    6.9826
   10.950    6.8878
   10.965    6.6561
   10.980    6.7193
   10.995    7.1511
   11.010    7.0248
   11.025    6.9510
   11.040    6.6667
   11.055    6.8773
   11.070    6.7930
   11.085    7.2143
   11.100    7.0458
   11.115    7.0353
   11.130    6.7930
   11.145    6.7930
   11.160    6.7720
   11.175    6.8878
   11.190    6.8878
   11.205    6.8457
   11.220    7.0774
   11.235    7.2143
   11.250    6.9826
   11.265    6.9300
   11.280    6.8773
   11.295    6.7825
   11.310    7.1827
   11.325    7.3091
   11.340    7.1827
   11.355    6.8246
   11.370    6.3928
   11.385    6.5613
   11.400    6.7509
   11.415    7.2775
   11.430    7.0774
   11.445    6.8352
   11.460    7.1617
   11.475    7.1195
   11.490    6.7193
   11.505    6.5824
   11.520    6.8457
   11.535    7.2249
   11.550    7.4039
   11.565    6.8562
   11.580    6.6351
   11.595    6.5929
   11.610    6.4350
   11.625    6.8141
   11.640    6.8457
   11.655    6.4982
   11.670    6.6245
   11.685    6.7720
   11.700    7.3302
   11.715    7.1301
   11.730    6.6772
   11.745    6.1085
   11.760    6.8246
   11.775    6.8141
   11.790    6.9721
   11.805    6.6245
   11.820    6.7825
   11.835    6.7193
   11.850    6.6140
   11.865    6.5192
   11.880    6.5403
   11.895    6.8878
   11.910    6.8878
   11.925    6.8878
   11.940    6.6667
   11.955    6.8141
   11.970    6.2559
   11.985    6.7825
   12.000    6.4666
   12.015    6.5087
   12.030    6.6983
   12.045    6.5087
   12.060    6.6561
   12.075    6.5298
   12.090    6.6983
   12.105    7.0669
   12.120    6.7930
   12.135    6.8246
   12.150    7.1511
   12.165    6.9826
   12.180    6.8878
   12.195    6.7825
   12.210    6.6667
   12.225    6.9616
   12.240    6.6456
   12.255    6.8246
   12.270    6.8562
   12.285    6.7825
   12.300    6.6140
   12.315    6.6983
   12.330    6.8246
   12.345    6.6035
   12.360    6.5508
   12.375    6.6877
   12.390    6.3823
   12.405    6.7509
   12.420    6.5192
   12.435    6.3191
   12.450    7.1511
   12.465    7.1511
   12.480    6.5508
   12.495    6.9194
   12.510    6.9194
   12.525    7.0563
   12.540    6.7509
   12.555    6.7299
   12.570    6.7088
   12.585    6.6245
   12.600    6.6140
   12.615    6.3718
   12.630    6.8878
   12.645    6.7193
   12.660    6.7088
   12.675    6.8773
   12.690    6.8352
   12.705    6.4455
   12.720    6.3928
   12.735    6.5192
   12.750    6.4350
   12.765    6.6877
   12.780    6.4771
   12.795    6.6667
   12.810    6.5824
   12.825    6.8246
   12.840    6.6140
   12.855    6.6245
   12.870    6.5508
   12.885    6.6245
   12.900    6.6140
   12.915    6.6351
   12.930    6.3296
   12.945    6.6667
   12.960    6.6456
   12.975    6.3823
   12.990    6.4560
   13.005    6.3718
   13.020    6.5192
   13.035    6.3718
   13.050    6.2981
   13.065    6.4771
   13.080    6.2559
   13.095    6.4982
   13.110    6.5929
   13.125    6.6456
   13.140    6.5929
   13.155    6.5719
   13.170    6.6877
   13.185    6.7088
   13.200    6.6772
   13.215    6.5508
   13.230    6.8246
   13.245    6.6245
   13.260    6.6351
   13.275    6.2033
   13.290    6.3718
   13.305    6.6561
   13.320    6.4771
   13.335    6.5508
   13.350    6.6772
   13.365    6.6772
   13.380    6.4876
   13.395    6.9089
   13.410    7.0353
   13.425    6.6772
   13.440    6.4034
   13.455    6.4455
   13.470    6.7193
   13.485    6.3718
   13.500    6.6561
   13.515    6.7825
   13.530    6.6983
   13.545    6.2875
   13.560    6.6877
   13.575    6.6877
   13.590    6.4034
   13.605    6.6456
   13.620    6.4982
   13.635    6.5087
   13.650    6.7930
   13.665    6.8457
   13.680    7.0985
   13.695    6.8352
   13.710    6.5192
   13.725    6.3191
   13.740    6.1085
   13.755    6.3507
   13.770    7.0142
   13.785    6.8773
   13.800    6.7088
   13.815    6.5403
   13.830    6.7299
   13.845    6.3823
   13.860    6.6140
   13.875    6.5613
   13.890    6.6983
   13.905    6.4876
   13.920    6.6772
   13.935    6.7720
   13.950    6.1506
   13.965    6.4244
   13.980    6.8457
   13.995    6.4034
   14.010    6.2875
   14.025    6.2243
   14.040    6.6983
   14.055    6.3718
   14.070    6.5298
   14.085    7.0037
   14.100    6.6877
   14.115    6.6035
   14.130    6.2665
   14.145    6.2875
   14.160    6.5929
   14.175    6.5929
   14.190    6.8141
   14.205    6.7088
   14.220    6.4666
   14.235    6.6456
   14.250    6.6035
   14.265    6.5929
   14.280    6.6983
   14.295    6.6035
   14.310    6.6983
   14.325    6.6140
   14.340    6.7088
   14.355    7.1406
   14.370    6.5508
   14.385    6.3086
   14.400    6.4350
   14.415    6.8562
   14.430    6.6877
   14.445    6.6351
   14.460    6.6035
   14.475    6.4244
   14.490    6.2770
   14.505    6.6140
   14.520    6.5719
   14.535    6.5929
   14.550    6.4244
   14.565    6.2454
   14.580    6.4244
   14.595    6.4771
   14.610    6.6877
   14.625    6.3191
   14.640    5.9610
   14.655    6.1295
   14.670    6.6351
   14.685    6.5929
   14.700    6.6351
   14.715    6.3086
   14.730    7.0563
   14.745    6.8246
   14.760    6.7615
   14.775    6.0979
   14.790    6.1506
   14.805    6.5087
   14.820    6.6351
   14.835    6.7720
   14.850    6.7088
   14.865    6.5719
   14.880    6.5192
   14.895    6.4244
   14.910    6.8773
   14.925    6.6035
   14.940    6.4034
   14.955    6.6877
   14.970    6.4771
   14.985    6.4139
   15.000    6.2770
   15.015    6.6667
   15.030    6.8878
   15.045    6.6772
   15.060    6.9300
   15.075    6.3718
   15.090    6.8668
   15.105    6.7193
   15.120    6.4876
   15.135    6.1401
   15.150    6.4982
   15.165    6.2033
   15.180    6.5192
   15.195    6.5508
   15.210    6.5613
   15.225    6.9194
   15.240    6.3718
   15.255    6.5298
   15.270    6.7088
   15.285    6.2033
   15.300    6.4560
   15.315    6.5087
   15.330    6.2454
   15.345    6.6456
   15.360    6.6456
   15.375    6.6877
   15.390    6.4139
   15.405    6.5403
   15.420    6.5929
   15.435    6.5613
   15.450    6.3296
   15.465    6.8562
   15.480    6.6667
   15.495    6.5087
   15.510    6.8246
   15.525    6.7088
   15.540    6.7509
   15.555    6.6772
   15.570    6.7299
   15.585    6.4666
   15.600    6.2454
   15.615    6.8246
   15.630    6.9089
   15.645    6.4455
   15.660    6.2559
   15.675    6.1717
   15.690    6.7193
   15.705    6.6456
   15.720    6.6561
   15.735    6.4034
   15.750    6.1927
   15.765    6.3718
   15.780    6.7509
   15.795    6.3402
   15.810    6.5087
   15.825    6.6561
   15.840    6.5824
   15.855    6.7720
   15.870    6.8562
   15.885    6.8984
   15.900    6.6456
   15.915    6.6772
   15.930    6.3612
   15.945    6.5929
   15.960    6.4034
   15.975    6.7930
   15.990    6.7404
   16.005    7.1722
   16.020    6.4560
   16.035    6.6351
   16.050    7.0037
   16.065    6.7720
   16.080    6.6245
   16.095    6.5298
   16.110    6.5929
   16.125    6.2665
   16.140    6.3507
   16.155    6.8352
   16.170    6.9300
   16.185    6.6983
   16.200    6.3718
   16.215    6.7615
   16.230    6.2770
   16.245    6.5403
   16.260    6.6035
   16.275    6.8878
   16.290    6.9089
   16.305    6.2138
   16.320    6.4771
   16.335    6.3928
   16.350    6.4350
   16.365    6.2770
   16.380    6.6245
   16.395    6.5087
   16.410    6.9932
   16.425    6.4244
   16.440    6.4455
   16.455    6.8141
   16.470    6.7615
   16.485    6.8036
   16.500    6.9405
   16.515    6.8562
   16.530    6.6245
   16.545    6.8984
   16.560    6.5613
   16.575    6.4350
   16.590    6.5087
   16.605    6.4455
   16.620    6.7299
   16.635    6.2770
   16.650    6.6561
   16.665    6.5613
   16.680    6.6877
   16.695    6.7509
   16.710    6.5929
   16.725    6.6561
   16.740    6.3086
   16.755    6.4666
   16.770    6.5929
   16.785    6.8352
   16.800    6.6140
   16.815    6.5824
   16.830    6.3507
   16.845    6.3507
   16.860    6.7088
   16.875    6.8141
   16.890    6.4982
   16.905    6.8668
   16.920    6.5824
   16.935    6.5298
   16.950    6.3507
   16.965    6.0979
   16.980    6.4560
   16.995    6.5087
   17.010    6.5298
   17.025    6.4455
   17.040    6.2981
   17.055    6.8668
   17.070    6.8141
   17.085    6.2875
   17.100    5.9821
   17.115    6.1611
   17.130    6.4560
   17.145    6.6245
   17.160    6.3191
   17.175    6.3402
   17.190    6.6035
   17.205    6.4139
   17.220    6.8773
   17.235    6.8352
   17.250    6.2981
   17.265    6.2981
   17.280    6.3402
   17.295    6.4771
   17.310    6.2981
   17.325    6.5824
   17.340    6.5403
   17.355    6.3507
   17.370    6.8141
   17.385    6.5613
   17.400    6.6877
   17.415    6.7404
   17.430    6.1927
   17.445    6.1611
   17.460    6.8878
   17.475    6.7825
   17.490    6.3928
   17.505    6.3086
   17.520    6.6667
   17.535    6.1611
   17.550    5.9926
   17.565    6.6140
   17.580    6.7088
   17.595    6.5613
   17.610    6.3191
   17.625    6.0032
   17.640    6.5192
   17.655    6.3296
   17.670    6.6140
   17.685    6.7299
   17.700    6.5824
   17.715    6.7825
   17.730    6.3191
   17.745    6.7088
   17.760    6.5613
   17.775    6.4034
   17.790    6.6983
   17.805    6.7509
   17.820    6.5403
   17.835    6.7404
   17.850    6.4876
   17.865    6.6140
   17.880    6.4034
   17.895    6.8141
   17.910    6.8141
   17.925    6.5824
   17.940    6.7404
   17.955    6.6983
   17.970    6.5719
   17.985    6.7720
   18.000    6.9721
   18.015    6.7825
   18.030    6.6877
   18.045    6.6456
   18.060    6.8036
   18.075    6.8352
   18.090    6.3191
   18.105    6.2243
   18.120    6.6877
   18.135    6.3823
   18.150    6.4666
   18.165    6.4350
   18.180    6.7930
   18.195    6.4982
   18.210    6.4034
   18.225    6.2665
   18.240    6.3507
   18.255    6.5508
   18.270    6.5613
   18.285    6.6877
   18.300    6.4560
   18.315    6.1506
   18.330    6.2033
   18.345    6.5087
   18.360    6.3402
   18.375    6.9300
   18.390    6.4455
   18.405    6.3823
   18.420    6.3086
   18.435    6.4876
   18.450    6.3612
   18.465    6.8668
   18.480    6.6245
   18.495    6.5403
   18.510    6.7088
   18.525    6.5403
   18.540    6.6245
   18.555    6.5298
   18.570    6.4876
   18.585    6.4771
   18.600    6.4455
   18.615    6.3612
   18.630    6.5298
   18.645    6.7825
   18.660    6.5929
   18.675    6.9300
   18.690    6.8246
   18.705    6.3823
   18.720    6.6456
   18.735    6.6351
   18.750    6.8036
   18.765    6.1401
   18.780    6.6667
   18.795    6.4876
   18.810    6.2875
   18.825    6.6456
   18.840    6.4455
   18.855    6.2559
   18.870    6.6140
   18.885    6.8036
   18.900    6.4771
   18.915    6.8457
   18.930    6.8246
   18.945    6.9405
   18.960    7.4460
   18.975    8.0042
   18.990    8.1306
   19.005    8.0463
   19.020    8.2886
   19.035    7.9200
   19.050    8.1727
   19.065    7.3828
   19.080    6.9826
   19.095    6.9616
   19.110    6.9616
   19.125    6.6035
   19.140    6.8352
   19.155    6.6667
   19.170    6.2033
   19.185    6.6035
   19.200    6.8246
   19.215    6.5824
   19.230    6.5403
   19.245    6.7193
   19.260    6.6351
   19.275    7.1933
   19.290    6.5298
   19.305    6.4139
   19.320    6.5613
   19.335    6.2875
   19.350    6.5192
   19.365    6.6351
   19.380    6.6140
   19.395    6.0979
   19.410    6.6035
   19.425    6.5613
   19.440    6.5824
   19.455    6.3823
   19.470    6.5613
   19.485    6.8141
   19.500    6.5719
   19.515    6.8036
   19.530    6.7509
   19.545    6.7720
   19.560    6.7299
   19.575    6.4455
   19.590    6.7825
   19.605    6.7193
   19.620    6.8352
   19.635    6.6351
   19.650    6.7299
   19.665    6.3928
   19.680    6.0979
   19.695    6.2138
   19.710    6.6245
   19.725    6.4982
   19.740    6.2559
   19.755    6.2243
   19.770    6.5824
   19.785    6.6140
   19.800    6.3928
   19.815    6.4244
   19.830    6.7088
   19.845    6.7720
   19.860    6.8246
   19.875    6.7509
   19.890    6.7299
   19.905    6.5403
   19.920    6.7193
   19.935    6.8352
   19.950    6.8352
   19.965    6.6245
   19.980    6.5824
   19.995    6.3928
   20.010    6.2875
   20.025    6.0137
   20.040    6.3928
   20.055    6.3296
   20.070    6.2559
   20.085    6.7193
   20.100    6.1295
   20.115    6.1401
   20.130    6.2349
   20.145    6.7509
   20.160    6.3402
   20.175    6.6561
   20.190    6.5298
   20.205    6.9194
   20.220    6.7720
   20.235    6.5087
   20.250    6.2454
   20.265    6.2243
   20.280    6.2349
   20.295    6.4771
   20.310    6.5719
   20.325    6.6140
   20.340    6.4139
   20.355    6.8141
   20.370    6.8668
   20.385    6.4034
   20.400    6.6983
   20.415    6.5613
   20.430    6.6456
   20.445    6.5824
   20.460    6.4139
   20.475    6.7404
   20.490    6.7509
   20.505    6.4771
   20.520    6.5298
   20.535    6.7720
   20.550    6.4350
   20.565    6.7088
   20.580    6.5929
   20.595    6.0769
   20.610    6.2770
   20.625    6.5824
   20.640    6.8457
   20.655    6.5824
   20.670    6.3507
   20.685    6.6456
   20.700    6.6351
   20.715    6.4771
   20.730    6.6561
   20.745    6.6351
   20.760    6.2875
   20.775    6.4350
   20.790    6.5508
   20.805    6.7088
   20.820    6.8984
   20.835    6.7615
   20.850    6.9616
   20.865    6.9510
   20.880    6.4876
   20.895    6.4876
   20.910    6.4034
   20.925    6.0453
   20.940    6.3296
   20.955    6.3296
   20.970    6.2875
   20.985    6.7299
   21.000    6.5824
   21.015    6.6140
   21.030    6.5613
   21.045    6.1190
   21.060    6.9826
   21.075    6.9089
   21.090    6.6667
   21.105    6.5824
   21.120    6.9826
   21.135    6.8878
   21.150    6.6351
   21.165    6.6772
   21.180    6.8457
   21.195    6.7088
   21.210    6.8984
   21.225    6.5192
   21.240    6.5508
   21.255    6.6877
   21.270    6.4455
   21.285    6.5298
   21.300    7.0142
   21.315    6.5298
   21.330    7.0037
   21.345    7.4671
   21.360    6.9089
   21.375    7.0248
   21.390    7.2670
   21.405    7.1933
   21.420    6.6561
   21.435    6.6561
   21.450    6.7930
   21.465    6.8668
   21.480    6.8562
   21.495    7.3723
   21.510    7.0248
   21.525    7.0985
   21.540    6.7825
   21.555    6.5719
   21.570    6.5192
   21.585    7.2249
   21.600    7.0669
   21.615    6.4350
   21.630    6.4982
   21.645    6.6983
   21.660    6.3928
   21.675    6.5192
   21.690    6.5087
   21.705    6.7088
   21.720    6.4560
   21.735    6.5087
   21.750    6.4982
   21.765    6.2559
   21.780    6.6667
   21.795    6.7720
   21.810    6.4244
   21.825    6.6561
   21.840    6.2138
   21.855    6.8246
   21.870    6.1611
   21.885    6.5403
   21.900    6.7720
   21.915    6.8773
   21.930    6.7088
   21.945    6.7088
   21.960    6.6772
   21.975    6.6351
   21.990    6.4771
   22.005    7.0458
   22.020    6.7720
   22.035    6.6667
   22.050    6.3086
   22.065    6.5192
   22.080    6.6456
   22.095    6.6456
   22.110    6.6561
   22.125    6.4244
   22.140    6.5613
   22.155    6.6772
   22.170    6.3823
   22.185    6.8773
   22.200    6.5613
   22.215    6.5508
   22.230    7.0879
   22.245    6.9510
   22.260    6.7299
   22.275    6.7615
   22.290    6.6456
   22.305    6.7193
   22.320    6.5929
   22.335    6.7615
   22.350    6.2875
   22.365    6.3402
   22.380    6.4350
   22.395    6.5403
   22.410    6.4982
   22.425    6.4876
   22.440    6.7615
   22.455    6.8036
   22.470    6.6035
   22.485    6.4771
   22.500    6.4982
   22.515    6.9405
   22.530    6.8668
   22.545    6.7930
   22.560    7.0563
   22.575    6.9616
   22.590    7.0669
   22.605    6.6877
   22.620    6.8141
   22.635    6.9300
   22.650    7.1090
   22.665    6.8352
   22.680    6.6245
   22.695    6.5613
   22.710    6.6035
   22.725    6.5298
   22.740    6.8036
   22.755    6.4666
   22.770    6.9405
   22.785    6.9194
   22.800    6.4771
   22.815    6.7930
   22.830    6.4876
   22.845    6.5508
   22.860    6.5824
   22.875    6.8352
   22.890    7.0142
   22.905    6.7615
   22.920    6.5719
   22.935    6.4666
   22.950    6.7193
   22.965    6.5929
   22.980    6.9405
   22.995    6.6667
   23.010    6.9194
   23.025    6.8668
   23.040    6.6245
   23.055    6.6877
   23.070    6.5403
   23.085    6.9089
   23.100    6.8562
   23.115    7.1722
   23.130    6.8246
   23.145    7.2249
   23.160    6.9300
   23.175    6.8562
   23.190    7.0774
   23.205    6.5087
   23.220    6.8457
   23.235    6.5508
   23.250    6.5087
   23.265    6.4139
   23.280    6.2665
   23.295    6.3928
   23.310    6.8246
   23.325    6.5719
   23.340    6.2770
   23.355    6.7299
   23.370    6.5087
   23.385    6.6667
   23.400    6.5298
   23.415    6.4666
   23.430    6.8878
   23.445    7.0037
   23.460    6.7088
   23.475    6.6561
   23.490    6.7615
   23.505    6.6140
   23.520    6.3086
   23.535    6.5087
   23.550    6.7299
   23.565    6.7299
   23.580    6.8141
   23.595    7.0037
   23.610    6.7509
   23.625    6.4350
   23.640    6.6035
   23.655    6.5298
   23.670    6.6561
   23.685    6.6456
   23.700    6.8773
   23.715    6.9089
   23.730    6.9932
   23.745    6.7720
   23.760    6.8352
   23.775    6.5508
   23.790    6.3612
   23.805    6.3507
   23.820    6.7825
   23.835    6.4455
   23.850    6.6035
   23.865    6.7720
   23.880    6.7509
   23.895    6.7299
   23.910    6.4034
   23.925    6.7404
   23.940    6.6877
   23.955    6.3086
   23.970    6.3402
   23.985    6.4350
   24.000    6.8141
   24.015    6.5613
   24.030    6.6667
   24.045    6.1927
   24.060    6.4034
   24.075    6.5929
   24.090    6.8352
   24.105    6.5824
   24.120    6.7615
   24.135    6.2138
   24.150    6.4771
   24.165    6.6772
   24.180    6.9089
   24.195    6.4876
   24.210    6.5403
   24.225    6.8352
   24.240    6.8246
   24.255    6.7193
   24.270    6.7615
   24.285    6.6667
   24.300    6.7930
   24.315    6.4876
   24.330    6.7930
   24.345    6.5929
   24.360    6.0979
   24.375    6.3402
   24.390    6.5192
   24.405    6.9300
   24.420    6.8668
   24.435    6.3718
   24.450    6.6456
   24.465    6.7299
   24.480    6.6245
   24.495    6.7299
   24.510    6.4244
   24.525    6.7299
   24.540    6.7720
   24.555    6.5403
   24.570    6.2138
   24.585    6.3823
   24.600    6.4455
   24.615    6.4034
   24.630    6.0874
   24.645    6.7615
   24.660    6.2981
   24.675    6.6140
   24.690    6.5298
   24.705    6.5929
   24.720    6.1611
   24.735    6.2033
   24.750    6.6667
   24.765    6.6877
   24.780    6.6667
   24.795    6.3191
   24.810    6.2559
   24.825    6.8562
   24.840    6.6456
   24.855    6.3718
   24.870    6.5403
   24.885    6.3928
   24.900    6.5929
   24.915    6.6351
   24.930    6.5192
   24.945    6.8246
   24.960    6.5403
   24.975    6.8773
   24.990    6.6351
   25.005    6.4455
   25.020    6.2665
   25.035    6.4876
   25.050    6.2138
   25.065    6.2033
   25.080    6.2665
   25.095    6.3402
   25.110    6.1611
   25.125    6.4666
   25.140    6.3086
   25.155    6.1927
   25.170    6.2875
   25.185    6.7088
   25.200    6.5087
   25.215    6.1717
   25.230    6.4034
   25.245    6.4771
   25.260    6.4771
   25.275    6.4139
   25.290    6.3507
   25.305    6.6351
   25.320    6.4034
   25.335    6.4771
   25.350    6.7509
   25.365    6.7930
   25.380    6.6772
   25.395    6.5824
   25.410    6.4876
   25.425    6.0137
   25.440    6.5087
   25.455    6.4771
   25.470    6.3296
   25.485    6.9616
   25.500    6.9405
   25.515    6.9616
   25.530    6.7930
   25.545    6.9194
   25.560    6.3191
   25.575    7.0037
   25.590    6.5929
   25.605    6.4034
   25.620    6.2243
   25.635    6.5613
   25.650    6.2981
   25.665    6.4771
   25.680    6.5298
   25.695    6.6772
   25.710    6.6561
   25.725    6.5929
   25.740    6.3191
   25.755    6.4455
   25.770    6.1927
   25.785    6.6667
   25.800    6.3612
   25.815    6.4034
   25.830    6.1295
   25.845    6.4876
   25.860    6.2665
   25.875    6.3928
   25.890    6.2349
   25.905    6.4560
   25.920    6.3191
   25.935    6.6351
   25.950    6.5298
   25.965    6.4244
   25.980    6.7825
   25.995    6.6035
   26.010    6.5613
   26.025    6.8036
   26.040    6.4771
   26.055    6.4982
   26.070    6.3296
   26.085    6.5719
   26.100    6.6561
   26.115    6.6035
   26.130    6.4139
   26.145    6.2981
   26.160    6.2665
   26.175    6.4771
   26.190    6.8036
   26.205    6.5613
   26.220    6.4350
   26.235    6.3086
   26.250    5.9610
   26.265    6.1611
   26.280    6.3086
   26.295    6.1085
   26.310    6.7193
   26.325    6.5929
   26.340    6.4350
   26.355    6.6456
   26.370    6.1927
   26.385    6.4244
   26.400    6.5192
   26.415    6.3191
   26.430    6.6140
   26.445    6.4666
   26.460    6.5508
   26.475    6.5613
   26.490    6.1927
   26.505    6.3718
   26.520    6.0979
   26.535    6.2454
   26.550    6.4771
   26.565    6.5403
   26.580    6.4771
   26.595    6.1822
   26.610    5.9400
   26.625    6.0137
   26.640    6.3612
   26.655    6.5824
   26.670    6.2770
   26.685    6.6140
   26.700    6.4350
   26.715    6.2665
   26.730    6.0874
   26.745    6.7509
   26.760    6.6245
   26.775    6.5508
   26.790    6.5719
   26.805    6.5298
   26.820    6.0137
   26.835    5.9084
   26.850    7.0142
   26.865    6.8668
   26.880    6.1506
   26.895    5.8978
   26.910    6.1085
   26.925    6.1295
   26.940    6.5613
   26.955    6.3928
   26.970    6.2349
   26.985    6.4560
   27.000    6.3507
   27.015    6.0242
   27.030    5.7399
   27.045    6.2454
   27.060    5.9926
   27.075    6.3191
   27.090    6.3086
   27.105    6.0874
   27.120    6.4666
   27.135    6.3928
   27.150    6.6351
   27.165    6.3402
   27.180    6.4455
   27.195    6.4455
   27.210    6.6351
   27.225    6.2349
   27.240    6.1190
   27.255    6.0979
   27.270    5.9294
   27.285    6.2033
   27.300    6.2665
   27.315    6.2875
   27.330    6.3507
   27.345    6.4876
   27.360    6.2770
   27.375    6.4982
   27.390    6.6351
   27.405    6.0558
   27.420    5.9294
   27.435    6.4455
   27.450    6.3718
   27.465    6.2454
   27.480    5.7399
   27.495    6.3086
   27.510    6.4455
   27.525    6.5403
   27.540    6.2243
   27.555    6.4771
   27.570    6.3823
   27.585    6.5508
   27.600    6.3507
   27.615    6.1401
   27.630    6.1295
   27.645    6.4666
   27.660    6.2349
   27.675    5.9926
   27.690    6.3086
   27.705    6.2454
   27.720    5.7504
   27.735    6.3296
   27.750    6.1506
   27.765    6.1506
   27.780    5.9821
   27.795    6.2875
   27.810    5.9400
   27.825    6.1822
   27.840    6.0769
   27.855    6.0558
   27.870    5.8768
   27.885    5.8768
   27.900    6.2138
   27.915    6.3612
   27.930    6.2243
   27.945    6.9826
   27.960    7.1933
   27.975    7.1090
   27.990    7.2459
   28.005    7.2459
   28.020    7.3196
   28.035    7.1301
   28.050    7.1827
   28.065    6.8668
   28.080    6.9510
   28.095    6.8457
   28.110    6.3612
   28.125    6.3296
   28.140    6.2454
   28.155    6.2138
   28.170    6.2243
   28.185    5.8347
   28.200    6.2243
   28.215    6.0348
   28.230    6.0032
   28.245    6.2243
   28.260    6.0137
   28.275    6.3402
   28.290    6.2033
   28.305    6.0453
   28.320    6.2033
   28.335    6.3823
   28.350    6.4350
   28.365    6.4350
   28.380    6.3718
   28.395    6.2349
   28.410    6.1717
   28.425    6.4034
   28.440    6.1822
   28.455    5.7715
   28.470    6.2981
   28.485    6.2454
   28.500    6.2559
   28.515    6.0137
   28.530    6.3928
   28.545    6.2454
   28.560    5.9821
   28.575    6.0979
   28.590    6.2665
   28.605    6.3296
   28.620    6.2138
   28.635    6.3191
   28.650    6.0874
   28.665    6.1085
   28.680    6.3718
   28.695    5.9926
   28.710    6.1927
   28.725    6.4139
   28.740    6.3718
   28.755    6.2559
   28.770    5.8978
   28.785    6.2138
   28.800    6.3086
   28.815    6.2138
   28.830    6.2349
   28.845    6.0979
   28.860    6.4455
   28.875    6.7615
   28.890    6.4244
   28.905    6.5508
   28.920    7.1827
   28.935    7.2249
   28.950    7.6145
   28.965    7.3723
   28.980    7.3196
   28.995    7.3196
   29.010    7.1827
   29.025    7.2775
   29.040    6.6035
   29.055    6.4771
   29.070    6.0032
   29.085    6.5403
   29.100    6.1295
   29.115    6.2033
   29.130    6.3612
   29.145    6.2770
   29.160    6.2665
   29.175    6.2033
   29.190    5.9084
   29.205    6.0242
   29.220    5.9716
   29.235    6.2770
   29.250    6.0664
   29.265    6.2349
   29.280    6.0348
   29.295    5.9821
   29.310    6.4139
   29.325    6.0242
   29.340    6.0664
   29.355    6.2981
   29.370    6.5298
   29.385    6.1085
   29.400    6.3928
   29.415    6.2349
   29.430    6.0664
   29.445    6.2454
   29.460    5.8241
   29.475    6.0137
   29.490    6.0874
   29.505    5.8347
   29.520    6.0453
   29.535    6.0032
   29.550    5.9926
   29.565    5.9821
   29.580    5.9294
   29.595    5.8031
   29.610    6.0769
   29.625    6.0664
   29.640    6.2559
   29.655    6.2243
   29.670    5.9610
   29.685    5.8662
   29.700    5.8452
   29.715    6.3507
   29.730    6.4982
   29.745    6.2033
   29.760    6.0979
   29.775    6.0558
   29.790    6.3507
   29.805    6.2033
   29.820    6.0874
   29.835    6.4771
   29.850    6.2349
   29.865    5.9821
   29.880    6.2349
   29.895    6.3191
   29.910    6.2243
   29.925    6.0558
   29.940    6.1927
   29.955    5.9400
   29.970    5.9821
   29.985    6.0664
   30.000    5.7715
   30.015    6.1927
   30.030    5.9294
   30.045    5.9084
   30.060    5.8662
   30.075    6.0032
   30.090    5.7820
   30.105    5.7083
   30.120    5.8662
   30.135    6.2665
   30.150    6.1506
   30.165    6.0664
   30.180    6.0348
   30.195    6.0032
   30.210    6.6245
   30.225    6.2454
   30.240    5.9610
   30.255    5.9505
   30.270    6.2349
   30.285    6.1085
   30.300    5.7925
   30.315    6.3191
   30.330    6.5087
   30.345    6.1295
   30.360    6.3718
   30.375    5.9400
   30.390    5.8136
   30.405    5.8241
   30.420    5.8241
   30.435    5.7083
   30.450    5.6556
   30.465    6.0558
   30.480    5.7609
   30.495    6.1401
   30.510    6.4139
   30.525    6.1611
   30.540    5.8978
   30.555    5.8031
   30.570    5.5924
   30.585    5.9610
   30.600    6.3086
   30.615    6.1190
   30.630    5.8347
   30.645    5.8241
   30.660    5.7188
   30.675    6.0348
   30.690    5.9505
   30.705    5.9610
   30.720    6.4244
   30.735    6.2243
   30.750    6.1190
   30.765    5.9189
   30.780    6.4982
   30.795    5.9926
   30.810    6.2559
   30.825    5.9926
   30.840    6.5613
   30.855    5.9294
   30.870    5.9926
   30.885    5.9400
   30.900    5.7083
   30.915    5.8347
   30.930    6.2243
   30.945    6.2138
   30.960    6.1295
   30.975    6.1295
   30.990    5.8452
   31.005    6.0032
   31.020    6.0032
   31.035    6.1085
   31.050    6.2138
   31.065    6.1190
   31.080    5.9716
   31.095    6.0874
   31.110    5.9189
   31.125    5.9084
   31.140    6.0874
   31.155    6.1401
   31.170    5.9610
   31.185    5.9400
   31.200    6.2349
   31.215    6.0769
   31.230    6.1190
   31.245    5.9716
   31.260    5.6977
   31.275    5.9926
   31.290    6.2770
   31.305    6.1927
   31.320    5.8557
   31.335    6.0874
   31.350    6.4139
   31.365    6.2138
   31.380    5.8241
   31.395    5.8978
   31.410    5.8873
   31.425    6.2770
   31.440    6.2875
   31.455    5.9084
   31.470    5.6556
   31.485    6.0558
   31.500    5.8978
   31.515    5.9926
   31.530    6.0348
   31.545    5.9716
   31.560    6.1085
   31.575    6.1611
   31.590    5.8136
   31.605    6.1085
   31.620    6.4034
   31.635    6.2033
   31.650    6.2454
   31.665    6.2559
   31.680    6.1611
   31.695    6.2454
   31.710    6.3718
   31.725    6.4139
   31.740    6.4139
   31.755    6.4139
   31.770    6.7088
   31.785    6.5613
   31.800    6.7930
   31.815    6.4982
   31.830    6.7615
   31.845    7.0037
   31.860    7.2880
   31.875    6.7720
   31.890    6.5298
   31.905    6.5192
   31.920    6.4244
   31.935    6.0664
   31.950    5.8557
   31.965    5.9821
   31.980    6.1717
   31.995    6.6983
   32.010    6.6351
   32.025    7.0248
   32.040    7.2880
   32.055    7.5829
   32.070    7.8146
   32.085    8.0885
   32.100    8.4044
   32.115    8.5729
   32.130    8.0463
   32.145    8.1095
   32.160    8.0674
   32.175    7.5408
   32.190    7.5513
   32.205    6.7404
   32.220    6.4560
   32.235    6.4244
   32.250    6.6245
   32.265    6.6245
   32.280    5.9926
   32.295    6.2665
   32.310    6.0979
   32.325    5.9294
   32.340    6.0558
   32.355    5.8873
   32.370    5.7925
   32.385    6.1295
   32.400    5.8452
   32.415    5.8452
   32.430    6.0558
   32.445    6.1295
   32.460    5.9400
   32.475    5.6872
   32.490    5.9400
   32.505    5.8136
   32.520    6.0874
   32.535    6.0979
   32.550    5.5398
   32.565    5.7293
   32.580    6.1401
   32.595    6.0874
   32.610    5.9084
   32.625    6.0453
   32.640    6.1611
   32.655    6.2033
   32.670    6.0137
   32.685    6.0348
   32.700    6.2559
   32.715    6.0137
   32.730    5.8452
   32.745    6.0348
   32.760    6.2454
   32.775    6.2559
   32.790    6.0137
   32.805    6.0664
   32.820    5.7293
   32.835    6.2138
   32.850    5.9716
   32.865    5.8452
   32.880    5.5714
   32.895    6.0769
   32.910    5.5819
   32.925    6.0137
   32.940    5.5503
   32.955    5.9084
   32.970    6.3823
   32.985    5.8768
   33.000    6.2033
   33.015    5.9400
   33.030    6.0137
   33.045    5.8873
   33.060    6.2243
   33.075    5.9294
   33.090    6.0242
   33.105    5.5819
   33.120    5.8136
   33.135    6.0664
   33.150    6.2033
   33.165    5.6767
   33.180    5.4766
   33.195    5.9505
   33.210    5.7188
   33.225    5.7399
   33.240    5.6135
   33.255    6.1822
   33.270    6.0558
   33.285    6.3507
   33.300    5.8873
   33.315    6.1190
   33.330    5.4766
   33.345    5.7399
   33.360    5.8557
   33.375    5.7083
   33.390    6.0664
   33.405    6.0664
   33.420    6.0242
   33.435    5.8452
   33.450    6.0348
   33.465    5.9821
   33.480    5.9084
   33.495    5.9400
   33.510    5.8662
   33.525    5.7820
   33.540    5.7925
   33.555    5.9610
   33.570    6.1822
   33.585    6.3086
   33.600    6.1611
   33.615    6.0769
   33.630    6.0979
   33.645    6.3402
   33.660    6.0664
   33.675    6.3296
   33.690    5.7820
   33.705    5.6345
   33.720    6.2033
   33.735    6.1927
   33.750    6.4560
   33.765    6.1190
   33.780    6.5508
   33.795    6.6351
   33.810    6.6456
   33.825    6.6245
   33.840    6.9510
   33.855    6.8773
   33.870    6.5824
   33.885    6.7509
   33.900    6.6561
   33.915    6.7299
   33.930    6.3612
   33.945    6.6140
   33.960    6.2138
   33.975    6.4455
   33.990    6.6561
   34.005    6.4139
   34.020    6.2033
   34.035    6.0137
   34.050    6.0769
   34.065    6.0664
   34.080    5.8136
   34.095    6.3191
   34.110    6.1611
   34.125    5.6451
   34.140    5.8136
   34.155    5.8241
   34.170    6.1295
   34.185    5.5924
   34.200    5.5714
   34.215    5.8557
   34.230    5.8557
   34.245    5.9926
   34.260    6.0348
   34.275    5.8662
   34.290    5.5924
   34.305    5.8347
   34.320    5.5082
   34.335    5.6767
   34.350    5.8136
   34.365    5.8452
   34.380    5.8347
   34.395    5.6661
   34.410    5.9400
   34.425    6.0558
   34.440    5.7609
   34.455    5.7715
   34.470    5.5292
   34.485    5.8347
   34.500    5.8136
   34.515    5.6661
   34.530    5.5082
   34.545    5.5503
   34.560    5.7293
   34.575    5.4134
   34.590    5.7609
   34.605    5.9294
   34.620    5.7083
   34.635    5.6872
   34.650    5.8662
   34.665    5.6135
   34.680    5.8768
   34.695    5.8557
   34.710    5.9505
   34.725    5.9821
   34.740    5.4871
   34.755    5.9505
   34.770    6.1822
   34.785    6.2454
   34.800    6.1401
   34.815    6.1295
   34.830    5.9189
   34.845    5.4344
   34.860    5.4134
   34.875    5.4028
   34.890    5.9505
   34.905    5.8241
   34.920    5.8768
   34.935    5.8241
   34.950    5.6029
   34.965    5.7609
   34.980    5.8347
   34.995    5.7715
   35.010    5.7820
   35.025    5.7715
   35.040    5.5819
   35.055    5.8136
   35.070    5.7293
   35.085    5.8136
   35.100    5.7715
   35.115    5.8136
   35.130    5.5924
   35.145    5.8768
   35.160    6.0032
   35.175    5.8768
   35.190    5.6345
   35.205    5.6977
   35.220    5.7293
   35.235    5.9189
   35.250    5.8978
   35.265    6.0453
   35.280    5.7609
   35.295    6.0558
   35.310    5.6240
   35.325    5.5714
   35.340    5.8978
   35.355    5.5082
   35.370    5.8136
   35.385    5.5819
   35.400    5.5503
   35.415    5.5819
   35.430    5.7188
   35.445    5.8136
   35.460    5.5503
   35.475    5.5608
   35.490    6.0032
   35.505    5.7820
   35.520    5.5924
   35.535    5.8978
   35.550    6.0348
   35.565    5.9400
   35.580    5.9926
   35.595    5.5924
   35.610    5.7399
   35.625    5.8136
   35.640    5.7083
   35.655    5.8768
   35.670    5.4871
   35.685    5.3923
   35.700    5.5292
   35.715    5.5503
   35.730    5.7293
   35.745    5.8662
   35.760    5.7609
   35.775    5.6767
   35.790    5.5398
   35.805    5.6451
   35.820    5.7820
   35.835    5.6451
   35.850    5.6977
   35.865    6.0137
   35.880    5.6345
   35.895    5.6451
   35.910    5.3291
   35.925    5.8662
   35.940    5.8768
   35.955    5.8768
   35.970    5.7083
   35.985    5.9294
   36.000    5.8031
   36.015    5.6661
   36.030    5.3923
   36.045    5.3502
   36.060    5.3712
   36.075    5.8978
   36.090    5.4660
   36.105    5.4871
   36.120    5.6556
   36.135    5.3081
   36.150    5.3712
   36.165    5.1922
   36.180    5.7293
   36.195    6.0558
   36.210    5.4134
   36.225    5.7504
   36.240    5.4134
   36.255    5.6556
   36.270    6.4560
   36.285    6.0032
   36.300    5.7188
   36.315    5.4239
   36.330    5.3186
   36.345    5.7083
   36.360    5.5292
   36.375    5.7293
   36.390    5.3186
   36.405    5.6451
   36.420    6.0348
   36.435    5.9294
   36.450    5.8557
   36.465    5.9821
   36.480    5.5819
   36.495    5.3607
   36.510    5.5503
   36.525    5.3291
   36.540    5.3923
   36.555    5.9084
   36.570    5.1922
   36.585    5.2343
   36.600    5.5082
   36.615    5.4028
   36.630    5.6556
   36.645    5.5187
   36.660    5.4871
   36.675    5.8557
   36.690    5.7609
   36.705    5.7399
   36.720    5.6872
   36.735    5.7083
   36.750    5.6135
   36.765    5.6345
   36.780    5.2238
   36.795    5.5292
   36.810    6.1717
   36.825    5.7504
   36.840    5.4344
   36.855    5.2659
   36.870    5.5187
   36.885    5.5292
   36.900    5.4344
   36.915    5.3397
   36.930    5.7715
   36.945    5.3712
   36.960    5.5398
   36.975    5.7399
   36.990    5.8136
   37.005    5.8978
   37.020    5.9821
   37.035    5.5398
   37.050    5.6767
   37.065    5.6872
   37.080    5.5398
   37.095    5.5714
   37.110    5.4976
   37.125    5.4660
   37.140    5.8557
   37.155    6.0348
   37.170    5.7293
   37.185    5.9926
   37.200    5.4344
   37.215    5.4976
   37.230    5.7715
   37.245    5.4766
   37.260    5.6240
   37.275    5.7293
   37.290    5.4976
   37.305    5.5082
   37.320    5.7925
   37.335    5.4766
   37.350    5.3923
   37.365    5.8557
   37.380    6.0348
   37.395    5.2133
   37.410    5.3923
   37.425    5.6872
   37.440    5.8136
   37.455    5.8136
   37.470    5.8241
   37.485    5.6556
   37.500    5.2554
   37.515    5.3607
   37.530    5.5714
   37.545    5.3818
   37.560    5.2027
   37.575    5.5398
   37.590    5.5714
   37.605    5.6556
   37.620    5.6977
   37.635    5.4344
   37.650    5.3712
   37.665    5.8452
   37.680    5.4976
   37.695    5.4134
   37.710    5.8136
   37.725    5.9189
   37.740    5.9294
   37.755    5.8978
   37.770    5.8031
   37.785    5.4871
   37.800    5.3186
   37.815    5.4871
   37.830    5.6135
   37.845    5.4555
   37.860    5.6977
   37.875    5.9821
   37.890    5.6029
   37.905    5.4239
   37.920    5.7083
   37.935    5.3291
   37.950    5.8557
   37.965    5.7504
   37.980    5.5608
   37.995    5.2133
   38.010    5.4239
   38.025    5.7083
   38.040    5.8347
   38.055    5.3607
   38.070    5.4028
   38.085    5.3923
   38.100    5.7715
   38.115    5.8452
   38.130    5.4871
   38.145    5.8031
   38.160    5.5187
   38.175    5.2133
   38.190    5.3923
   38.205    5.5187
   38.220    5.4028
   38.235    5.6767
   38.250    5.6240
   38.265    5.8557
   38.280    5.6767
   38.295    5.4766
   38.310    5.5082
   38.325    5.7715
   38.340    5.5608
   38.355    5.6872
   38.370    5.5292
   38.385    5.4766
   38.400    5.4344
   38.415    5.4871
   38.430    5.6029
   38.445    5.5714
   38.460    5.7188
   38.475    5.9084
   38.490    5.4239
   38.505    5.7399
   38.520    6.0558
   38.535    5.9610
   38.550    5.7293
   38.565    5.6767
   38.580    5.8241
   38.595    5.7715
   38.610    5.9821
   38.625    6.2349
   38.640    5.8978
   38.655    5.7820
   38.670    5.3818
   38.685    5.9084
   38.700    5.6451
   38.715    5.6345
   38.730    5.5187
   38.745    5.5187
   38.760    5.5608
   38.775    5.5187
   38.790    5.6345
   38.805    5.5398
   38.820    5.5187
   38.835    5.7188
   38.850    5.2133
   38.865    5.7188
   38.880    5.8452
   38.895    5.2870
   38.910    5.5503
   38.925    5.4871
   38.940    5.3291
   38.955    5.5503
   38.970    5.4450
   38.985    5.7083
   39.000    5.5082
   39.015    5.4134
   39.030    5.7399
   39.045    5.7504
   39.060    5.5187
   39.075    5.4871
   39.090    5.6345
   39.105    5.6977
   39.120    5.7188
   39.135    5.6345
   39.150    5.6977
   39.165    5.6451
   39.180    5.4766
   39.195    5.4028
   39.210    5.3081
   39.225    5.5924
   39.240    5.5819
   39.255    5.6240
   39.270    5.2238
   39.285    5.5398
   39.300    5.4976
   39.315    5.5503
   39.330    5.5187
   39.345    5.3291
   39.360    5.4555
   39.375    5.7820
   39.390    5.4871
   39.405    5.1606
   39.420    5.4344
   39.435    5.6556
   39.450    5.2870
   39.465    5.4028
   39.480    5.3712
   39.495    5.2870
   39.510    5.5398
   39.525    5.6029
   39.540    5.6451
   39.555    5.4555
   39.570    5.5608
   39.585    5.5082
   39.600    5.2659
   39.615    5.3607
   39.630    5.0974
   39.645    5.1711
   39.660    5.4660
   39.675    5.4555
   39.690    5.6345
   39.705    5.6556
   39.720    5.2975
   39.735    5.2975
   39.750    5.2765
   39.765    5.2870
   39.780    5.4660
   39.795    5.4028
   39.810    5.3818
   39.825    5.5608
   39.840    5.3397
   39.855    5.4766
   39.870    5.3607
   39.885    5.4450
   39.900    5.4555
   39.915    5.1922
   39.930    5.6029
   39.945    5.6556
   39.960    5.7083
   39.975    5.7715
   39.990    5.3502
