    1.500   15.3818
    1.515   15.5608
    1.530   15.2027
    1.545   15.0974
    1.560   15.1132
    1.575   15.1501
    1.590   14.9447
    1.605   14.9605
    1.620   14.4497
    1.635   14.2654
    1.650   13.8441
    1.665   14.3075
    1.680   14.1390
    1.695   13.7072
    1.710   13.9547
    1.725   13.8915
    1.740   13.7757
    1.755   13.7493
    1.770   13.7019
    1.785   13.4387
    1.800   13.0806
    1.815   12.7330
    1.830   13.1332
    1.845   13.0016
    1.860   12.9279
    1.875   13.0384
    1.890   12.6751
    1.905   13.1596
    1.920   13.2017
    1.935   12.7436
    1.950   12.9279
    1.965   13.1069
    1.980   12.6435
    1.995   13.1332
    2.010   12.7436
    2.025   12.3907
    2.040   12.6330
    2.055   12.8541
    2.070   12.6277
    2.085   12.5382
    2.100   13.0806
    2.115   13.1332
    2.130   13.0542
    2.145   12.9595
    2.160   12.7804
    2.175   12.6172
    2.190   12.9858
    2.205   12.9068
    2.220   12.8910
    2.235   12.9700
    2.250   12.9331
    2.265   13.3807
    2.280   13.2807
    2.295   12.8805
    2.310   13.2438
    2.325   13.3439
    2.340   13.8178
    2.355   13.4387
    2.370   13.4229
    2.385   13.6704
    2.400   13.6072
    2.415   13.6124
    2.430   14.0021
    2.445   14.1127
    2.460   14.2127
    2.475   14.4181
    2.490   14.2338
    2.505   14.7288
    2.520   14.8341
    2.535   14.7025
    2.550   14.8815
    2.565   15.3133
    2.580   15.6240
    2.595   15.8294
    2.610   16.0295
    2.625   16.1243
    2.640   15.9452
    2.655   16.3454
    2.670   16.6614
    2.685   17.0932
    2.700   17.3881
    2.715   17.8620
    2.730   18.2306
    2.745   18.0885
    2.760   18.2675
    2.775   18.3781
    2.790   18.8889
    2.805   18.9626
    2.820   19.7472
    2.835   19.7841
    2.850   21.1374
    2.865   21.3060
    2.880   21.1954
    2.895   21.6219
    2.910   21.8115
    2.925   23.1438
    2.940   23.5124
    2.955   24.1180
    2.970   25.0711
    2.985   25.0606
    3.000   25.5608
    3.015   26.7773
    3.030   27.6198
    3.045   27.8620
    3.060   28.7204
    3.075   29.6998
    3.090   30.0843
    3.105   31.9221
    3.120   33.1754
    3.135   34.1022
    3.150   34.5340
    3.165   35.5714
    3.180   37.3670
    3.195   38.4887
    3.210   39.3207
    3.225   40.6424
    3.240   42.9542
    3.255   44.3075
    3.270   46.8141
    3.285   49.0785
    3.300   51.1638
    3.315   54.2180
    3.330   57.2407
    3.345   60.5424
    3.360   64.0495
    3.375   68.0358
    3.390   72.4697
    3.405   77.7462
    3.420   84.1654
    3.435   90.6740
    3.450   97.1933
    3.465  101.3060
    3.480  102.8647
    3.495  100.7214
    3.510   92.7804
    3.525   81.1217
    3.540   66.4192
    3.555   54.5656
    3.570   43.8599
    3.585   37.1195
    3.600   32.2117
    3.615   28.8994
    3.630   27.2091
    3.645   26.4350
    3.660   25.3607
    3.675   25.2975
    3.690   25.0448
    3.705   25.3870
    3.720   25.5345
    3.735   26.1664
    3.750   26.6403
    3.765   27.1353
    3.780   28.5255
    3.795   28.4044
    3.810   29.1996
    3.825   30.7109
    3.840   31.9589
    3.855   33.3333
    3.870   35.0395
    3.885   37.1985
    3.900   38.9258
    3.915   41.1585
    3.930   41.6851
    3.945   42.0485
    3.960   41.8747
    3.975   41.7430
    3.990   42.4118
    4.005   42.3012
    4.020   43.5598
    4.035   45.0079
    4.050   46.1822
    4.065   46.5771
    4.080   47.9042
    4.095   47.3460
    4.110   46.5350
    4.125   45.4081
    4.140   44.1969
    4.155   43.3755
    4.170   41.1901
    4.185   38.6888
    4.200   37.1090
    4.215   35.0132
    4.230   32.9753
    4.245   31.1901
    4.260   28.7572
    4.275   25.9347
    4.290   24.4023
    4.305   22.3223
    4.320   20.8899
    4.335   18.6309
    4.350   17.2933
    4.365   15.7609
    4.380   14.4181
    4.395   13.7651
    4.410   12.6751
    4.425   11.8852
    4.440   10.9163
    4.455   10.1053
    4.470    9.8052
    4.485    9.7051
    4.500    9.0943
    4.515    8.5150
    4.530    8.4623
    4.545    8.5677
    4.560    7.9726
    4.575    7.6567
    4.590    7.6777
    4.605    7.6145
    4.620    6.8826
    4.635    6.9194
    4.650    6.6509
    4.665    6.4718
    4.680    6.9932
    4.695    6.6298
    4.710    6.6087
    4.725    6.4297
    4.740    6.4402
    4.755    6.4982
    4.770    6.4771
    4.785    6.5561
    4.800    6.3560
    4.815    6.2559
    4.830    6.1401
    4.845    6.0558
    4.860    5.7609
    4.875    6.0558
    4.890    5.9610
    4.905    5.7504
    4.920    6.1453
    4.935    5.8031
    4.950    5.9716
    4.965    5.8347
    4.980    6.2349
    4.995    5.8978
    5.010    5.8504
    5.025    5.8715
    5.040    5.9189
    5.055    5.7557
    5.070    5.8241
    5.085    6.0190
    5.100    5.8557
    5.115    5.8662
    5.130    6.0242
    5.145    5.8715
    5.160    5.8768
    5.175    5.7188
    5.190    5.9189
    5.205    6.2085
    5.220    6.0295
    5.235    5.9031
    5.250    6.1190
    5.265    5.8083
    5.280    5.9610
    5.295    6.2665
    5.310    6.1822
    5.325    6.2823
    5.340    6.0032
    5.355    5.8610
    5.370    5.8610
    5.385    6.0084
    5.400    6.2243
    5.415    6.6193
    5.430    6.4297
    5.445    6.5456
    5.460    6.4034
    5.475    6.5456
    5.490    6.7193
    5.505    6.9984
    5.520    6.8404
    5.535    7.2196
    5.550    7.2986
    5.565    7.2143
    5.580    6.5350
    5.595    5.9768
    5.610    5.6661
    5.625    5.3765
    5.640    5.3239
    5.655    5.3870
    5.670    5.4028
    5.685    5.3660
    5.700    5.3976
    5.715    5.1448
    5.730    5.1395
    5.745    5.3344
    5.760    5.6345
    5.775    5.2343
    5.790    5.3607
    5.805    5.1080
    5.820    5.0184
    5.835    5.2975
    5.850    5.3186
    5.865    5.2185
    5.880    5.2133
    5.895    5.3239
    5.910    5.3449
    5.925    5.4239
    5.940    5.3923
    5.955    5.5029
    5.970    5.3502
    5.985    5.4028
    6.000    5.3712
    6.015    5.2343
    6.030    5.3502
    6.045    5.6135
    6.060    5.2923
    6.075    5.3660
    6.090    5.4239
    6.105    5.6082
    6.120    5.6609
    6.135    5.5872
    6.150    5.2923
    6.165    5.6503
    6.180    5.4186
    6.195    5.5556
    6.210    5.5240
    6.225    5.4292
    6.240    5.6082
    6.255    5.3660
    6.270    5.7925
    6.285    5.5924
    6.300    5.6872
    6.315    5.7925
    6.330    5.6767
    6.345    5.4766
    6.360    5.6451
    6.375    5.9084
    6.390    5.9558
    6.405    5.7557
    6.420    5.7715
    6.435    5.8768
    6.450    5.7346
    6.465    5.8347
    6.480    6.1295
    6.495    6.2401
    6.510    6.2507
    6.525    5.9874
    6.540    6.3665
    6.555    6.3296
    6.570    6.3402
    6.585    6.2770
    6.600    6.3981
    6.615    6.8194
    6.630    6.9300
    6.645    7.1248
    6.660    7.0511
    6.675    7.2459
    6.690    7.7357
    6.705    7.5724
    6.720    7.7936
    6.735    8.0200
    6.750    8.5887
    6.765    8.7151
    6.780    9.3944
    6.795    9.5366
    6.810    9.7736
    6.825    9.8157
    6.840   10.3791
    6.855   10.5003
    6.870   11.0900
    6.885   11.2480
    6.900   11.9589
    6.915   12.9384
    6.930   14.0653
    6.945   14.8815
    6.960   15.5556
    6.975   15.4766
    6.990   15.4608
    7.005   14.6709
    7.020   13.2912
    7.035   11.7062
    7.050   10.2475
    7.065    8.6835
    7.080    7.6093
    7.095    7.0195
    7.110    6.8615
    7.125    6.4666
    7.140    6.0084
    7.155    6.1717
    7.170    6.0611
    7.185    5.8504
    7.200    5.8399
    7.215    5.6925
    7.230    5.8978
    7.245    5.6872
    7.260    5.4818
    7.275    5.5977
    7.290    5.7451
    7.305    5.5977
    7.320    5.3976
    7.335    5.7083
    7.350    5.6819
    7.365    5.8610
    7.380    5.7346
    7.395    5.6082
    7.410    5.6398
    7.425    5.4924
    7.440    5.5292
    7.455    5.8504
    7.470    5.6661
    7.485    5.6082
    7.500    5.5556
    7.515    5.3818
    7.530    5.6767
    7.545    5.7557
    7.560    5.7662
    7.575    5.7609
    7.590    5.6187
    7.605    5.4555
    7.620    5.8978
    7.635    6.0821
    7.650    6.1243
    7.665    5.6819
    7.680    5.7504
    7.695    6.1875
    7.710    5.8504
    7.725    6.0611
    7.740    6.3296
    7.755    6.0137
    7.770    6.0979
    7.785    6.4402
    7.800    6.6667
    7.815    6.5824
    7.830    6.9458
    7.845    6.9721
    7.860    6.9300
    7.875    7.0458
    7.890    7.0616
    7.905    7.0142
    7.920    7.3986
    7.935    7.1880
    7.950    7.1037
    7.965    7.5724
    7.980    7.5566
    7.995    7.5987
    8.010    7.7830
    8.025    7.8199
    8.040    8.0727
    8.055    8.0569
    8.070    7.8357
    8.085    8.2464
    8.100    8.1517
    8.115    8.3834
    8.130    8.4466
    8.145    8.8678
    8.160    8.8468
    8.175    9.0100
    8.190    8.6625
    8.205    8.7046
    8.220    8.6888
    8.235    9.3523
    8.250    8.9679
    8.265    8.9047
    8.280    8.8310
    8.295    8.8889
    8.310    9.1469
    8.325    9.1259
    8.340    9.0785
    8.355    8.8626
    8.370    9.0258
    8.385    8.6993
    8.400    8.5466
    8.415    8.4413
    8.430    8.5097
    8.445    8.2622
    8.460    8.6045
    8.475    8.2570
    8.490    8.2464
    8.505    8.4044
    8.520    7.9410
    8.535    8.1306
    8.550    7.6935
    8.565    7.2722
    8.580    7.1143
    8.595    7.0669
    8.610    7.4460
    8.625    7.0511
    8.640    7.0616
    8.655    7.2933
    8.670    6.8773
    8.685    6.8141
    8.700    6.9405
    8.715    6.4876
    8.730    6.4086
    8.745    6.3138
    8.760    6.2243
    8.775    5.8820
    8.790    6.0611
    8.805    6.0453
    8.820    6.0348
    8.835    6.0348
    8.850    5.8978
    8.865    5.6609
    8.880    5.8083
    8.895    5.8452
    8.910    5.9716
    8.925    5.8820
    8.940    5.7873
    8.955    5.6398
    8.970    5.6872
    8.985    5.9031
    9.000    6.0874
    9.015    6.1085
    9.030    5.7662
    9.045    5.6661
    9.060    5.8452
    9.075    5.9294
    9.090    5.5924
    9.105    5.9136
    9.120    6.2138
    9.135    6.1401
    9.150    6.0769
    9.165    6.0506
    9.180    6.0242
    9.195    6.1875
    9.210    6.2454
    9.225    6.4139
    9.240    6.3928
    9.255    6.0611
    9.270    6.4929
    9.285    6.8352
    9.300    6.6719
    9.315    6.3138
    9.330    6.6456
    9.345    6.6140
    9.360    6.2717
    9.375    6.1401
    9.390    6.0453
    9.405    5.9716
    9.420    6.1822
    9.435    5.8768
    9.450    5.6819
    9.465    5.7030
    9.480    5.5292
    9.495    5.4450
    9.510    5.7293
    9.525    5.6872
    9.540    5.7715
    9.555    5.6029
    9.570    5.9768
    9.585    6.0716
    9.600    5.9558
    9.615    5.8768
    9.630    5.7241
    9.645    5.6029
    9.660    5.4713
    9.675    5.5345
    9.690    5.4608
    9.705    5.3607
    9.720    5.4713
    9.735    5.3344
    9.750    5.3133
    9.765    5.3344
    9.780    5.5503
    9.795    5.2343
    9.810    5.4081
    9.825    5.3502
    9.840    5.2501
    9.855    5.0974
    9.870    5.3291
    9.885    5.1869
    9.900    5.0764
    9.915    5.1080
    9.930    5.1764
    9.945    5.3660
    9.960    5.4134
    9.975    5.3765
    9.990    5.4976
   10.005    5.6503
   10.020    5.2343
   10.035    5.3660
   10.050    5.4502
   10.065    5.5503
   10.080    5.4976
   10.095    5.6556
   10.110    5.4397
   10.125    5.6029
   10.140    5.4397
   10.155    5.5766
   10.170    5.5661
   10.185    5.5082
   10.200    5.5503
   10.215    5.7293
   10.230    5.6503
   10.245    5.8452
   10.260    5.5292
   10.275    5.5872
   10.290    5.8662
   10.305    5.4660
   10.320    5.7609
   10.335    5.9874
   10.350    5.9136
   10.365    6.0084
   10.380    6.0506
   10.395    5.8557
   10.410    6.0032
   10.425    6.2770
   10.440    6.0242
   10.455    5.9926
   10.470    6.0611
   10.485    6.0295
   10.500    5.9347
   10.515    6.0137
   10.530    5.9610
   10.545    5.6661
   10.560    5.4713
   10.575    5.3449
   10.590    5.2659
   10.605    5.2923
   10.620    5.1343
   10.635    5.0342
   10.650    5.2080
   10.665    5.2185
   10.680    5.1501
   10.695    5.1659
   10.710    5.1659
   10.725    5.3818
   10.740    5.3291
   10.755    5.3186
   10.770    5.3449
   10.785    5.2396
   10.800    5.1659
   10.815    5.1606
   10.830    5.4081
   10.845    5.3660
   10.860    5.5029
   10.875    5.2923
   10.890    5.1764
   10.905    5.2501
   10.920    5.3291
   10.935    5.2975
   10.950    5.2238
   10.965    5.1975
   10.980    4.9658
   10.995    4.8973
   11.010    4.9500
   11.025    5.2396
   11.040    5.1711
   11.055    5.0658
   11.070    5.3818
   11.085    5.0553
   11.100    5.3397
   11.115    5.2133
   11.130    4.9394
   11.145    4.9289
   11.160    5.2975
   11.175    4.9447
   11.190    5.0342
   11.205    5.0553
   11.220    5.1290
   11.235    5.2554
   11.250    5.0342
   11.265    5.0395
   11.280    5.3449
   11.295    5.3344
   11.310    5.3818
   11.325    5.0553
   11.340    4.9816
   11.355    5.0184
   11.370    5.0079
   11.385    5.0184
   11.400    5.0869
   11.415    5.1395
   11.430    5.2396
   11.445    5.0500
   11.460    5.0132
   11.475    5.2343
   11.490    5.2185
   11.505    5.0974
   11.520    5.1027
   11.535    5.3186
   11.550    5.3133
   11.565    5.2554
   11.580    5.0079
   11.595    5.3028
   11.610    5.1817
   11.625    5.0974
   11.640    5.2923
   11.655    5.1501
   11.670    5.1553
   11.685    5.3607
   11.700    5.0658
   11.715    5.2396
   11.730    5.4976
   11.745    5.5029
   11.760    5.5450
   11.775    5.6714
   11.790    5.4766
   11.805    5.6082
   11.820    5.3555
   11.835    5.3818
   11.850    5.4608
   11.865    5.3186
   11.880    5.1343
   11.895    5.3607
   11.910    5.2870
   11.925    5.6029
   11.940    5.3765
   11.955    5.4608
   11.970    5.3607
   11.985    5.4028
   12.000    5.4608
   12.015    5.4924
   12.030    5.2870
   12.045    5.5292
   12.060    5.6240
   12.075    5.5082
   12.090    5.3397
   12.105    5.4555
   12.120    5.6187
   12.135    5.7241
   12.150    5.7030
   12.165    5.6925
   12.180    5.7188
   12.195    5.6398
   12.210    5.9084
   12.225    5.7030
   12.240    5.8452
   12.255    5.6977
   12.270    5.6977
   12.285    6.0558
   12.300    5.8083
   12.315    6.0348
   12.330    5.8926
   12.345    6.0242
   12.360    5.8241
   12.375    5.7609
   12.390    5.6925
   12.405    5.6925
   12.420    5.5977
   12.435    5.7767
   12.450    5.7609
   12.465    5.8136
   12.480    5.6345
   12.495    5.6398
   12.510    5.7662
   12.525    5.5608
   12.540    5.5029
   12.555    5.6135
   12.570    5.6872
   12.585    5.3502
   12.600    5.5924
   12.615    5.6925
   12.630    5.7293
   12.645    5.8452
   12.660    5.8136
   12.675    5.6609
   12.690    5.6714
   12.705    5.5556
   12.720    5.6345
   12.735    5.5240
   12.750    5.5872
   12.765    5.7135
   12.780    5.4292
   12.795    5.4450
   12.810    5.5556
   12.825    5.4450
   12.840    5.4871
   12.855    5.5134
   12.870    5.7293
   12.885    5.1975
   12.900    5.3712
   12.915    5.5766
   12.930    5.5029
   12.945    5.2765
   12.960    5.5398
   12.975    5.6451
   12.990    5.6082
   13.005    5.6187
   13.020    5.3502
   13.035    5.4134
   13.050    5.6872
   13.065    5.7241
   13.080    5.5556
   13.095    5.3976
   13.110    5.1237
   13.125    5.3502
   13.140    5.3186
   13.155    5.4186
   13.170    5.4871
   13.185    5.2396
   13.200    5.3239
   13.215    5.3870
   13.230    5.2080
   13.245    5.1975
   13.260    5.2712
   13.275    5.1395
   13.290    5.1869
   13.305    5.2765
   13.320    5.3502
   13.335    5.2501
   13.350    5.4028
   13.365    5.4292
   13.380    5.3870
   13.395    5.2923
   13.410    5.1448
   13.425    5.4871
   13.440    5.3344
   13.455    5.2712
   13.470    5.2975
   13.485    5.4450
   13.500    5.4818
   13.515    5.4186
   13.530    5.5398
   13.545    5.3344
   13.560    5.1448
   13.575    5.3239
   13.590    5.6398
   13.605    5.4608
   13.620    5.5661
   13.635    5.5872
   13.650    5.2712
   13.665    5.2554
   13.680    5.3397
   13.695    5.4081
   13.710    5.1817
   13.725    5.1290
   13.740    5.1027
   13.755    5.1975
   13.770    5.3976
   13.785    5.2765
   13.800    5.2817
   13.815    5.3239
   13.830    5.2607
   13.845    5.1501
   13.860    4.9868
   13.875    5.0922
   13.890    5.3607
   13.905    5.0500
   13.920    5.0922
   13.935    5.1080
   13.950    5.1869
   13.965    5.1027
   13.980    5.0342
   13.995    5.3607
   14.010    5.0922
   14.025    4.9078
   14.040    5.1711
   14.055    5.3028
   14.070    5.0500
   14.085    4.9763
   14.100    4.9131
   14.115    5.1659
   14.130    5.2975
   14.145    5.1237
   14.160    5.0448
   14.175    5.0711
   14.190    5.2133
   14.205    5.1395
   14.220    4.9289
   14.235    4.9816
   14.250    4.7709
   14.265    4.8447
   14.280    4.8447
   14.295    4.8025
   14.310    4.6972
   14.325    5.0869
   14.340    4.9974
   14.355    4.9868
   14.370    4.8025
   14.385    4.7867
   14.400    4.8920
   14.415    4.8183
   14.430    4.8868
   14.445    4.7867
   14.460    4.9289
   14.475    4.7973
   14.490    4.6445
   14.505    5.0079
   14.520    4.9763
   14.535    4.7815
   14.550    4.6972
   14.565    4.7393
   14.580    4.6972
   14.595    4.8131
   14.610    4.9026
   14.625    4.9816
   14.640    4.8289
   14.655    4.9026
   14.670    4.7973
   14.685    5.0079
   14.700    4.9552
   14.715    5.0764
   14.730    4.8236
   14.745    4.6814
   14.760    4.7709
   14.775    4.8763
   14.790    4.8552
   14.805    4.9342
   14.820    4.8236
   14.835    4.8394
   14.850    4.9078
   14.865    4.8447
   14.880    4.9131
   14.895    4.9500
   14.910    4.8815
   14.925    4.9026
   14.940    4.7077
   14.955    4.8025
   14.970    4.8657
   14.985    4.7551
   15.000    4.8341
   15.015    4.8078
   15.030    4.7920
   15.045    4.8289
   15.060    4.8499
   15.075    4.9342
   15.090    4.6498
   15.105    4.9500
   15.120    4.9026
   15.135    4.7657
   15.150    4.7551
   15.165    4.8605
   15.180    5.0026
   15.195    5.1817
   15.210    5.0816
   15.225    5.0974
   15.240    5.1343
   15.255    5.1080
   15.270    4.9868
   15.285    4.9078
   15.300    4.9552
   15.315    4.9816
   15.330    5.1237
   15.345    4.9658
   15.360    4.9289
   15.375    4.8605
   15.390    5.0132
   15.405    5.2607
   15.420    5.1027
   15.435    4.8499
   15.450    5.1975
   15.465    4.9763
   15.480    4.8552
   15.495    4.8763
   15.510    5.1185
   15.525    4.8131
   15.540    4.8131
   15.555    5.1237
   15.570    5.1448
   15.585    5.3555
   15.600    5.1711
   15.615    4.9552
   15.630    4.8131
   15.645    4.9394
   15.660    4.9394
   15.675    4.9184
   15.690    5.0395
   15.705    5.1343
   15.720    5.0237
   15.735    4.9078
   15.750    5.0974
   15.765    5.1869
   15.780    4.9658
   15.795    4.8605
   15.810    4.9447
   15.825    4.9868
   15.840    4.9868
   15.855    5.0132
   15.870    4.9447
   15.885    5.0500
   15.900    5.0342
   15.915    5.0342
   15.930    5.0922
   15.945    5.0764
   15.960    4.9974
   15.975    4.9184
   15.990    4.9816
   16.005    5.0711
   16.020    5.1027
   16.035    4.9552
   16.050    5.0395
   16.065    5.0974
   16.080    4.8447
   16.095    4.9974
   16.110    4.9710
   16.125    5.1395
   16.140    4.7815
   16.155    4.8815
   16.170    5.2607
   16.185    5.1711
   16.200    4.7183
   16.215    4.8289
   16.230    4.9658
   16.245    5.1080
   16.260    4.6656
   16.275    4.9447
   16.290    4.8710
   16.305    4.8183
   16.320    4.7130
   16.335    4.6235
   16.350    4.7130
   16.365    4.8447
   16.380    4.9763
   16.395    5.0342
   16.410    5.0974
   16.425    4.8499
   16.440    5.1922
   16.455    4.9605
   16.470    5.0290
   16.485    4.6393
   16.500    4.7341
   16.515    4.9078
   16.530    5.0395
   16.545    4.8763
   16.560    5.0764
   16.575    4.7867
   16.590    4.7341
   16.605    5.0869
   16.620    4.8236
   16.635    4.9658
   16.650    4.8131
   16.665    5.0237
   16.680    5.2291
   16.695    4.7183
   16.710    4.7077
   16.725    4.9500
   16.740    4.9763
   16.755    5.1080
   16.770    4.9552
   16.785    5.0079
   16.800    4.9710
   16.815    5.1080
   16.830    5.0132
   16.845    5.0922
   16.860    4.9131
   16.875    4.8657
   16.890    4.8447
   16.905    4.8657
   16.920    4.8394
   16.935    4.9552
   16.950    5.0132
   16.965    5.0132
   16.980    4.9710
   16.995    4.8973
   17.010    4.6919
   17.025    5.0869
   17.040    5.0553
   17.055    5.0342
   17.070    4.9710
   17.085    5.0132
   17.100    5.3397
   17.115    5.1395
   17.130    5.1606
   17.145    5.0711
   17.160    5.1606
   17.175    4.9921
   17.190    5.0026
   17.205    4.7973
   17.220    4.7604
   17.235    4.8868
   17.250    4.7815
   17.265    5.0395
   17.280    4.9868
   17.295    4.9658
   17.310    4.8183
   17.325    5.0026
   17.340    5.0606
   17.355    4.9710
   17.370    4.9605
   17.385    5.5029
   17.400    5.0342
   17.415    4.9184
   17.430    4.9921
   17.445    5.0237
   17.460    4.9763
   17.475    4.9500
   17.490    5.0711
   17.505    4.9658
   17.520    4.8710
   17.535    4.9763
   17.550    4.9710
   17.565    5.0711
   17.580    5.0764
   17.595    5.1659
   17.610    5.4134
   17.625    5.0658
   17.640    5.0816
   17.655    5.0184
   17.670    5.0816
   17.685    4.9710
   17.700    4.8447
   17.715    4.7973
   17.730    5.0184
   17.745    4.8920
   17.760    5.2765
   17.775    5.2396
   17.790    5.1606
   17.805    5.0132
   17.820    5.1659
   17.835    4.8341
   17.850    5.0184
   17.865    5.1185
   17.880    5.2975
   17.895    5.0448
   17.910    4.9236
   17.925    5.1080
   17.940    5.1606
   17.955    5.0500
   17.970    5.3660
   17.985    5.2185
   18.000    5.1869
   18.015    5.2870
   18.030    5.1395
   18.045    4.9078
   18.060    4.9236
   18.075    5.1606
   18.090    5.0606
   18.105    5.3765
   18.120    5.0395
   18.135    4.8499
   18.150    4.9974
   18.165    5.1237
   18.180    5.2396
   18.195    5.2343
   18.210    5.0974
   18.225    5.2133
   18.240    5.3344
   18.255    5.3186
   18.270    4.9552
   18.285    5.1132
   18.300    5.2659
   18.315    4.9658
   18.330    5.0132
   18.345    5.0132
   18.360    5.2133
   18.375    5.2501
   18.390    5.0026
   18.405    5.2396
   18.420    5.0606
   18.435    5.0184
   18.450    5.0764
   18.465    5.4555
   18.480    5.1395
   18.495    5.1290
   18.510    5.0132
   18.525    5.0500
   18.540    4.9184
   18.555    4.8236
   18.570    5.0658
   18.585    5.0290
   18.600    4.9974
   18.615    5.2291
   18.630    4.8657
   18.645    5.0079
   18.660    5.0237
   18.675    4.7446
   18.690    4.7815
   18.705    5.0448
   18.720    4.7446
   18.735    5.1027
   18.750    4.9184
   18.765    4.7867
   18.780    5.0553
   18.795    4.8499
   18.810    4.9658
   18.825    5.0395
   18.840    4.8605
   18.855    4.8499
   18.870    4.8552
   18.885    4.6761
   18.900    4.8763
   18.915    4.8815
   18.930    5.1343
   18.945    5.1553
   18.960    5.0606
   18.975    4.7499
   18.990    4.9974
   19.005    5.0869
   19.020    5.1659
   19.035    4.9026
   19.050    4.9763
   19.065    5.2185
   19.080    5.0026
   19.095    5.0711
   19.110    5.0132
   19.125    5.0079
   19.140    5.0184
   19.155    4.9394
   19.170    4.9184
   19.185    5.0606
   19.200    5.0658
   19.215    5.0132
   19.230    4.9026
   19.245    4.8920
   19.260    4.9078
   19.275    4.8605
   19.290    4.8552
   19.305    4.8763
   19.320    4.7973
   19.335    4.9552
   19.350    5.0079
   19.365    5.0974
   19.380    5.2712
   19.395    5.1132
   19.410    5.1817
   19.425    5.5872
   19.440    5.2238
   19.455    5.1922
   19.470    5.2870
   19.485    5.4081
   19.500    5.4924
   19.515    5.2501
   19.530    5.3660
   19.545    5.4976
   19.560    5.4397
   19.575    5.5029
   19.590    5.3818
   19.605    5.2501
   19.620    5.2291
   19.635    5.3923
   19.650    5.5345
   19.665    5.3923
   19.680    5.6609
   19.695    5.4134
   19.710    5.3712
   19.725    5.5029
   19.740    5.4134
   19.755    5.5714
   19.770    5.5292
   19.785    5.4397
   19.800    5.6819
   19.815    5.6398
   19.830    5.5503
   19.845    5.6556
   19.860    5.6977
   19.875    5.4818
   19.890    5.7030
   19.905    5.7083
   19.920    5.9136
   19.935    5.6135
   19.950    5.5714
   19.965    5.5450
   19.980    5.8978
   19.995    5.7557
   20.010    5.6029
   20.025    5.6398
   20.040    5.6609
   20.055    5.8241
   20.070    5.6661
   20.085    5.8189
   20.100    5.5292
   20.115    5.6503
   20.130    5.5240
   20.145    5.7451
   20.160    5.6503
   20.175    5.5661
   20.190    5.5187
   20.205    5.6556
   20.220    5.5556
   20.235    5.5556
   20.250    5.5398
   20.265    5.4450
   20.280    5.4344
   20.295    5.3502
   20.310    5.3923
   20.325    5.5819
   20.340    5.5450
   20.355    5.4028
   20.370    5.5345
   20.385    5.7188
   20.400    5.5924
   20.415    5.4502
   20.430    5.5398
   20.445    5.7399
   20.460    5.6451
   20.475    5.7135
   20.490    5.8189
   20.505    5.8136
   20.520    5.4397
   20.535    5.4818
   20.550    5.2765
   20.565    5.4976
   20.580    5.4713
   20.595    5.4397
   20.610    5.5345
   20.625    5.3449
   20.640    5.2133
   20.655    5.4660
   20.670    5.5556
   20.685    5.2712
   20.700    5.2975
   20.715    5.6082
   20.730    5.5450
   20.745    5.4818
   20.760    5.3923
   20.775    5.3818
   20.790    5.4660
   20.805    5.4344
   20.820    5.4239
   20.835    5.5240
   20.850    5.5977
   20.865    5.6503
   20.880    5.7925
   20.895    5.6135
   20.910    5.4081
   20.925    5.4186
   20.940    5.5292
   20.955    5.6240
   20.970    5.6819
   20.985    5.6819
   21.000    5.6240
   21.015    5.4028
   21.030    5.7346
   21.045    5.8820
   21.060    5.6556
   21.075    5.6609
   21.090    5.5924
   21.105    5.7873
   21.120    5.8083
   21.135    5.7767
   21.150    5.5977
   21.165    5.4555
   21.180    5.5398
   21.195    5.4344
   21.210    5.4134
   21.225    5.4502
   21.240    5.9084
   21.255    5.4766
   21.270    5.9242
   21.285    5.6451
   21.300    5.4871
   21.315    5.7399
   21.330    5.7609
   21.345    5.7715
   21.360    5.6398
   21.375    5.5766
   21.390    5.5714
   21.405    5.5082
   21.420    5.7451
   21.435    5.4976
   21.450    5.3870
   21.465    5.5503
   21.480    5.5977
   21.495    5.7609
   21.510    5.4239
   21.525    5.5977
   21.540    5.8031
   21.555    5.8715
   21.570    5.6714
   21.585    5.5082
   21.600    5.5661
   21.615    5.5029
   21.630    5.5029
   21.645    5.6819
   21.660    5.7188
   21.675    5.4766
   21.690    5.2765
   21.705    5.7715
   21.720    5.4081
   21.735    5.3976
   21.750    5.3397
   21.765    5.1553
   21.780    5.3502
   21.795    5.4502
   21.810    5.5714
   21.825    5.7083
   21.840    5.6872
   21.855    5.3449
   21.870    5.5872
   21.885    5.4818
   21.900    5.5345
   21.915    5.5082
   21.930    5.6872
   21.945    5.6398
   21.960    5.3923
   21.975    5.3765
   21.990    5.7030
   22.005    5.8031
   22.020    5.3344
   22.035    5.6187
   22.050    5.4713
   22.065    5.6819
   22.080    5.4818
   22.095    5.4660
   22.110    5.3660
   22.125    5.3344
   22.140    5.5450
   22.155    5.4450
   22.170    5.5766
   22.185    5.6872
   22.200    5.2501
   22.215    5.4239
   22.230    5.4502
   22.245    5.6451
   22.260    5.4555
   22.275    5.5450
   22.290    5.4081
   22.305    5.4555
   22.320    5.5450
   22.335    5.7135
   22.350    5.4186
   22.365    5.5345
   22.380    5.5608
   22.395    5.8715
   22.410    5.5977
   22.425    5.5240
   22.440    5.3186
   22.455    5.5819
   22.470    5.2607
   22.485    5.2449
   22.500    5.3081
   22.515    5.2238
   22.530    5.4397
   22.545    5.7030
   22.560    5.3186
   22.575    5.2975
   22.590    5.3818
   22.605    5.3870
   22.620    5.5345
   22.635    5.3818
   22.650    5.5240
   22.665    5.4344
   22.680    5.5082
   22.695    5.5766
   22.710    5.4450
   22.725    5.7504
   22.740    5.5292
   22.755    5.3976
   22.770    5.2870
   22.785    5.4766
   22.800    5.7135
   22.815    5.3291
   22.830    5.3923
   22.845    5.3712
   22.860    5.4555
   22.875    5.4766
   22.890    5.5345
   22.905    5.4186
   22.920    5.4028
   22.935    5.6240
   22.950    5.4450
   22.965    5.4502
   22.980    5.4344
   22.995    5.2185
   23.010    5.6503
   23.025    5.7030
   23.040    5.5398
   23.055    5.4766
   23.070    5.5029
   23.085    5.5029
   23.100    5.8294
   23.115    5.4713
   23.130    5.5714
   23.145    5.5924
   23.160    5.3765
   23.175    5.3923
   23.190    5.4924
   23.205    5.5608
   23.220    5.4818
   23.235    5.5134
   23.250    5.5924
   23.265    5.5766
   23.280    5.3923
   23.295    5.5292
   23.310    5.3870
   23.325    5.4239
   23.340    5.5556
   23.355    5.5082
   23.370    5.2554
   23.385    5.2712
   23.400    5.3870
   23.415    5.6240
   23.430    5.4028
   23.445    5.4871
   23.460    5.3607
   23.475    5.4713
   23.490    5.4292
   23.505    5.3291
   23.520    5.2870
   23.535    5.4134
   23.550    5.3344
   23.565    5.4502
   23.580    5.1869
   23.595    5.2659
   23.610    5.5029
   23.625    5.5082
   23.640    5.6029
   23.655    5.3923
   23.670    5.1869
   23.685    5.5608
   23.700    5.4976
   23.715    5.0922
   23.730    5.2659
   23.745    5.5503
   23.760    5.4134
   23.775    5.3502
   23.790    5.3870
   23.805    5.2870
   23.820    5.3923
   23.835    5.4818
   23.850    5.6398
   23.865    5.2765
   23.880    5.4239
   23.895    5.3028
   23.910    5.3028
   23.925    5.4081
   23.940    5.0869
   23.955    5.0658
   23.970    5.2607
   23.985    5.2817
   24.000    5.3133
   24.015    5.4028
   24.030    5.3239
   24.045    5.3818
   24.060    5.2870
   24.075    5.2712
   24.090    5.3765
   24.105    5.1448
   24.120    5.2396
   24.135    4.9236
   24.150    5.2817
   24.165    5.1185
   24.180    5.4608
   24.195    5.2659
   24.210    4.8920
   24.225    5.1606
   24.240    4.9763
   24.255    5.1343
   24.270    5.2607
   24.285    5.1975
   24.300    4.9552
   24.315    4.9868
   24.330    5.2027
   24.345    5.2396
   24.360    5.2817
   24.375    5.2396
   24.390    5.4186
   24.405    5.0764
   24.420    5.3133
   24.435    5.3449
   24.450    5.0500
   24.465    5.3239
   24.480    5.4397
   24.495    5.3239
   24.510    5.4660
   24.525    5.2133
   24.540    4.9658
   24.555    5.0974
   24.570    5.2554
   24.585    5.1659
   24.600    5.3555
   24.615    5.5082
   24.630    5.4081
   24.645    5.3449
   24.660    5.3291
   24.675    5.4818
   24.690    5.2817
   24.705    5.4397
   24.720    5.4397
   24.735    5.2765
   24.750    5.1711
   24.765    5.2501
   24.780    5.1975
   24.795    5.3555
   24.810    5.0237
   24.825    5.2027
   24.840    5.1922
   24.855    5.1764
   24.870    5.1606
   24.885    5.0658
   24.900    5.1553
   24.915    5.1711
   24.930    5.0079
   24.945    5.0974
   24.960    5.0711
   24.975    5.2396
   24.990    5.1501
   25.005    4.9974
   25.020    5.2291
   25.035    5.2923
   25.050    5.1764
   25.065    5.0764
   25.080    5.1553
   25.095    5.1975
   25.110    4.9500
   25.125    4.7973
   25.140    5.1395
   25.155    5.0500
   25.170    5.2027
   25.185    4.8447
   25.200    5.0237
   25.215    5.1080
   25.230    5.1237
   25.245    5.2185
   25.260    5.2817
   25.275    5.3818
   25.290    5.2554
   25.305    5.0658
   25.320    5.1132
   25.335    5.2870
   25.350    5.0816
   25.365    5.0711
   25.380    5.2765
   25.395    4.8763
   25.410    4.9974
   25.425    5.2343
   25.440    5.2185
   25.455    5.1290
   25.470    4.9552
   25.485    4.9236
   25.500    4.9816
   25.515    5.2343
   25.530    5.2291
   25.545    5.1764
   25.560    5.1080
   25.575    5.0237
   25.590    4.9710
   25.605    5.0553
   25.620    4.8289
   25.635    5.0079
   25.650    4.8605
   25.665    5.2291
   25.680    5.3344
   25.695    4.9710
   25.710    5.1237
   25.725    5.2080
   25.740    4.9289
   25.755    5.3186
   25.770    5.0026
   25.785    4.7762
   25.800    5.0869
   25.815    4.9447
   25.830    4.8657
   25.845    4.9289
   25.860    5.1817
   25.875    4.9868
   25.890    5.0816
   25.905    5.2185
   25.920    4.9605
   25.935    4.8236
   25.950    4.8236
   25.965    5.1395
   25.980    5.0869
   25.995    4.8078
   26.010    5.0290
   26.025    5.0132
   26.040    4.8710
   26.055    4.7709
   26.070    4.8025
   26.085    5.0237
   26.100    4.9658
   26.115    4.9026
   26.130    4.7446
   26.145    4.7235
   26.160    4.9394
   26.175    4.7920
   26.190    4.9026
   26.205    4.7657
   26.220    5.0184
   26.235    4.7235
   26.250    5.0237
   26.265    5.1237
   26.280    4.8552
   26.295    4.8289
   26.310    4.8763
   26.325    4.9236
   26.340    4.9289
   26.355    4.7973
   26.370    4.8025
   26.385    4.8868
   26.400    4.7288
   26.415    4.8025
   26.430    5.0553
   26.445    4.5708
   26.460    4.8394
   26.475    4.6077
   26.490    4.7341
   26.505    4.9342
   26.520    5.0290
   26.535    4.9552
   26.550    5.0869
   26.565    5.0184
   26.580    4.8183
   26.595    4.7446
   26.610    4.8447
   26.625    4.7815
   26.640    4.9394
   26.655    4.9921
   26.670    4.9974
   26.685    5.0184
   26.700    4.8447
   26.715    4.7867
   26.730    4.7025
   26.745    5.0500
   26.760    4.7288
   26.775    4.6972
   26.790    4.6603
   26.805    4.9605
   26.820    4.8394
   26.835    4.6551
   26.850    4.9500
   26.865    5.0869
   26.880    4.9342
   26.895    4.8973
   26.910    4.8078
   26.925    4.8131
   26.940    4.8499
   26.955    4.7077
   26.970    4.7235
   26.985    4.8183
   27.000    4.7709
   27.015    4.8236
   27.030    4.8236
   27.045    4.6445
   27.060    4.5182
   27.075    4.7235
   27.090    4.8236
   27.105    4.9816
   27.120    5.1922
   27.135    4.9605
   27.150    4.8868
   27.165    4.7183
   27.180    4.8025
   27.195    5.0237
   27.210    4.9236
   27.225    4.7867
   27.240    4.7867
   27.255    4.8394
   27.270    4.8341
   27.285    4.8131
   27.300    4.7657
   27.315    4.7393
   27.330    4.7499
   27.345    4.8605
   27.360    4.5761
   27.375    4.8025
   27.390    4.9921
   27.405    5.0026
   27.420    4.7025
   27.435    4.7393
   27.450    4.7867
   27.465    4.6551
   27.480    4.5076
   27.495    4.5287
   27.510    4.5498
   27.525    4.7604
   27.540    4.5129
   27.555    4.6077
   27.570    4.6182
   27.585    4.5866
   27.600    4.6393
   27.615    4.5919
   27.630    4.4444
   27.645    4.6867
   27.660    4.6393
   27.675    4.7025
   27.690    4.7183
   27.705    4.7709
   27.720    4.8499
   27.735    4.5340
   27.750    4.6130
   27.765    4.7657
   27.780    4.6498
   27.795    4.5761
   27.810    4.6761
   27.825    4.4708
   27.840    4.6182
   27.855    4.5603
   27.870    4.6603
   27.885    4.7393
   27.900    4.8183
   27.915    5.0237
   27.930    4.7183
   27.945    4.5603
   27.960    4.7025
   27.975    4.8394
   27.990    4.7867
   28.005    4.7130
   28.020    5.0869
   28.035    4.9447
   28.050    4.7657
   28.065    4.8341
   28.080    4.9131
   28.095    4.7920
   28.110    4.7130
   28.125    4.6077
   28.140    4.7446
   28.155    4.9605
   28.170    4.8657
   28.185    5.0869
   28.200    5.0448
   28.215    4.9658
   28.230    5.0922
   28.245    5.0922
   28.260    5.0606
   28.275    4.9131
   28.290    4.5076
   28.305    4.5445
   28.320    4.7446
   28.335    4.9078
   28.350    4.6445
   28.365    4.6814
   28.380    4.6603
   28.395    4.7446
   28.410    4.7183
   28.425    4.8289
   28.440    4.4655
   28.455    4.5392
   28.470    4.7815
   28.485    4.8025
   28.500    4.8552
   28.515    4.6709
   28.530    4.6656
   28.545    4.7025
   28.560    4.5919
   28.575    4.6288
   28.590    4.7077
   28.605    4.5972
   28.620    4.6919
   28.635    4.7973
   28.650    4.9447
   28.665    4.6445
   28.680    4.5024
   28.695    4.5340
   28.710    4.5708
   28.725    4.4602
   28.740    4.3391
   28.755    4.5340
   28.770    4.6235
   28.785    4.6024
   28.800    4.7183
   28.815    4.4023
   28.830    4.5234
   28.845    4.5024
   28.860    4.7288
   28.875    4.4128
   28.890    4.6761
   28.905    4.4918
   28.920    4.6603
   28.935    4.6130
   28.950    4.5603
   28.965    4.5972
   28.980    4.5550
   28.995    4.6498
   29.010    4.6709
   29.025    4.5445
   29.040    4.5761
   29.055    4.4918
   29.070    4.6551
   29.085    4.6972
   29.100    4.4076
   29.115    4.4234
   29.130    4.5445
   29.145    4.5182
   29.160    4.5340
   29.175    4.3707
   29.190    4.4181
   29.205    4.3339
   29.220    4.2970
   29.235    4.4918
   29.250    4.4181
   29.265    4.4181
   29.280    4.3971
   29.295    4.5919
   29.310    4.1706
   29.325    4.3549
   29.340    4.6235
   29.355    4.7288
   29.370    4.5972
   29.385    4.4181
   29.400    4.5076
   29.415    4.4866
   29.430    4.4971
   29.445    4.5814
   29.460    4.5129
   29.475    4.5550
   29.490    4.5972
   29.505    4.4392
   29.520    4.4866
   29.535    4.7183
   29.550    4.3128
   29.565    4.2759
   29.580    4.2443
   29.595    4.5234
   29.610    4.3971
   29.625    4.4128
   29.640    4.4602
   29.655    4.3971
   29.670    4.3971
   29.685    4.5550
   29.700    4.4076
   29.715    4.2759
   29.730    4.4392
   29.745    4.4181
   29.760    4.4550
   29.775    4.4918
   29.790    4.3497
   29.805    4.3075
   29.820    4.7551
   29.835    4.6340
   29.850    4.3971
   29.865    4.3023
   29.880    4.3918
   29.895    4.5024
   29.910    4.4655
   29.925    4.4866
   29.940    4.3181
   29.955    4.2391
   29.970    4.3865
   29.985    4.3918
   30.000    4.6130
   30.015    4.8552
   30.030    4.5340
   30.045    4.3128
   30.060    4.3391
   30.075    4.5708
   30.090    4.4655
   30.105    4.5287
   30.120    4.3549
   30.135    4.4392
   30.150    4.3865
   30.165    4.4760
   30.180    4.3181
   30.195    4.5498
   30.210    4.4866
   30.225    4.2127
   30.240    4.3075
   30.255    4.5498
   30.270    4.3339
   30.285    4.2075
   30.300    4.3181
   30.315    4.2285
   30.330    4.3971
   30.345    4.3286
   30.360    4.3339
   30.375    4.4339
   30.390    4.6077
   30.405    4.4708
   30.420    4.5550
   30.435    4.2654
   30.450    4.2022
   30.465    4.0916
   30.480    4.4076
   30.495    4.6130
   30.510    4.4286
   30.525    4.4181
   30.540    4.2549
   30.555    4.1074
   30.570    4.2707
   30.585    4.3339
   30.600    4.4602
   30.615    4.3918
   30.630    4.4866
   30.645    4.2127
   30.660    4.3391
   30.675    4.3549
   30.690    4.2075
   30.705    4.3813
   30.720    4.3128
   30.735    4.4866
   30.750    4.5814
   30.765    4.4023
   30.780    3.9284
   30.795    4.2549
   30.810    4.1127
   30.825    4.3286
   30.840    4.3602
   30.855    4.3128
   30.870    4.2812
   30.885    4.4339
   30.900    4.3075
   30.915    4.2812
   30.930    4.1969
   30.945    4.2391
   30.960    4.3918
   30.975    4.2443
   30.990    4.3128
   31.005    4.3181
   31.020    4.1285
   31.035    4.2127
   31.050    4.4286
   31.065    4.2443
   31.080    4.2285
   31.095    4.3128
   31.110    4.3181
   31.125    4.0758
   31.140    4.2759
   31.155    4.4444
   31.170    4.2075
   31.185    4.3233
   31.200    4.0390
   31.215    4.2601
   31.230    4.3655
   31.245    4.4497
   31.260    4.0706
   31.275    4.4760
   31.290    4.2917
   31.305    4.2285
   31.320    4.2707
   31.335    4.0495
   31.350    3.9600
   31.365    4.3497
   31.380    4.4076
   31.395    4.2917
   31.410    4.3444
   31.425    4.2022
   31.440    4.3760
   31.455    4.3497
   31.470    4.2233
   31.485    4.0074
   31.500    4.2707
   31.515    4.2601
   31.530    4.2180
   31.545    4.3707
   31.560    4.0600
   31.575    4.1548
   31.590    4.4708
   31.605    4.4181
   31.620    4.2759
   31.635    4.2917
   31.650    4.4708
   31.665    4.4181
   31.680    4.3497
   31.695    4.5234
   31.710    4.5498
   31.725    4.3707
   31.740    4.5287
   31.755    4.2496
   31.770    4.4760
   31.785    4.3339
   31.800    4.1864
   31.815    4.2338
   31.830    4.2496
   31.845    4.2654
   31.860    4.4866
   31.875    4.3444
   31.890    4.2443
   31.905    4.2601
   31.920    4.3391
   31.935    4.4234
   31.950    4.3707
   31.965    4.4497
   31.980    4.2022
   31.995    4.3971
   32.010    4.1180
   32.025    4.3233
   32.040    4.2601
   32.055    4.2022
   32.070    4.0653
   32.085    4.2917
   32.100    4.1759
   32.115    3.9179
   32.130    4.1601
   32.145    4.2022
   32.160    4.1811
   32.175    4.0969
   32.190    4.0653
   32.205    4.1390
   32.220    4.0758
   32.235    3.9863
   32.250    3.9810
   32.265    4.1654
   32.280    4.0706
   32.295    4.1390
   32.310    3.9494
   32.325    3.9705
   32.340    4.1496
   32.355    4.1390
   32.370    4.0284
   32.385    4.0653
   32.400    4.2127
   32.415    3.9073
   32.430    4.1285
   32.445    4.0021
   32.460    3.9547
   32.475    4.0442
   32.490    3.9916
   32.505    4.1285
   32.520    4.3865
   32.535    3.9916
   32.550    4.0653
   32.565    3.9126
   32.580    4.0232
   32.595    3.9494
   32.610    4.0284
   32.625    4.1074
   32.640    4.1443
   32.655    3.9968
   32.670    4.2391
   32.685    4.0390
   32.700    4.0232
   32.715    4.0390
   32.730    4.0232
   32.745    3.9389
   32.760    3.8547
   32.775    4.0074
   32.790    4.0548
   32.805    4.1285
   32.820    3.8020
   32.835    3.8652
   32.850    3.7441
   32.865    3.8705
   32.880    3.9494
   32.895    4.1074
   32.910    3.8599
   32.925    4.0548
   32.940    3.9810
   32.955    3.8441
   32.970    3.9494
   32.985    3.9705
   33.000    4.0548
   33.015    3.9231
   33.030    4.1548
   33.045    4.2338
   33.060    4.0126
   33.075    3.9758
   33.090    3.8915
   33.105    3.9863
   33.120    3.9021
   33.135    4.0811
   33.150    4.1285
   33.165    4.0969
   33.180    4.0390
   33.195    3.8705
   33.210    3.8336
   33.225    3.9179
   33.240    3.8652
   33.255    3.9494
   33.270    3.8810
   33.285    3.9389
   33.300    3.7915
   33.315    3.8494
   33.330    3.7651
   33.345    3.7967
   33.360    4.1496
   33.375    4.0864
   33.390    3.8073
   33.405    3.9389
   33.420    3.8125
   33.435    3.6546
   33.450    3.9968
   33.465    4.0337
   33.480    3.8441
   33.495    3.8494
   33.510    4.1496
   33.525    3.9021
   33.540    3.5229
   33.555    3.5914
   33.570    3.8389
   33.585    3.9758
   33.600    3.7862
   33.615    3.8968
   33.630    3.8336
   33.645    4.1232
   33.660    3.7388
   33.675    3.6440
   33.690    3.7967
   33.705    3.6282
   33.720    3.7809
   33.735    3.7335
   33.750    3.9600
   33.765    3.8441
   33.780    3.6809
   33.795    3.7441
   33.810    3.7441
   33.825    3.8231
   33.840    3.7072
   33.855    3.7072
   33.870    3.8863
   33.885    3.8178
   33.900    3.6862
   33.915    3.6546
   33.930    3.7546
   33.945    3.9073
   33.960    3.7967
   33.975    3.7230
   33.990    3.8915
   34.005    3.9284
   34.020    3.6967
   34.035    3.5756
   34.050    3.7915
   34.065    3.9916
   34.080    3.8336
   34.095    3.7704
   34.110    3.8547
   34.125    3.7862
   34.140    3.6756
   34.155    3.8652
   34.170    4.0179
   34.185    3.9021
   34.200    3.7599
   34.215    3.5808
   34.230    3.6862
   34.245    3.9547
   34.260    3.7072
   34.275    3.6651
   34.290    3.8020
   34.305    3.7177
   34.320    3.6546
   34.335    3.7230
   34.350    3.7177
   34.365    3.6335
   34.380    3.7388
   34.395    3.5650
   34.410    3.6651
   34.425    3.6704
   34.440    3.7177
   34.455    3.8389
   34.470    3.7072
   34.485    3.6124
   34.500    3.7230
   34.515    3.7915
   34.530    3.6177
   34.545    3.7809
   34.560    3.6177
   34.575    3.5650
   34.590    3.8336
   34.605    3.7599
   34.620    3.7335
   34.635    3.6862
   34.650    3.8178
   34.665    3.6440
   34.680    3.7335
   34.695    3.6967
   34.710    3.4597
   34.725    3.5545
   34.740    3.6282
   34.755    3.5440
   34.770    3.6651
   34.785    3.6124
   34.800    3.7757
   34.815    3.5440
   34.830    3.5650
   34.845    3.5124
   34.860    3.5914
   34.875    3.7388
   34.890    3.5282
   34.905    3.5334
   34.920    3.9021
   34.935    3.6388
   34.950    3.5492
   34.965    3.6019
   34.980    3.7335
   34.995    3.5861
   35.010    3.5492
   35.025    3.6440
   35.040    3.7546
   35.055    3.5703
   35.070    3.6809
   35.085    3.6124
   35.100    3.5387
   35.115    3.5282
   35.130    3.6124
   35.145    3.5650
   35.160    3.5966
   35.175    3.4966
   35.190    3.5229
   35.205    3.7072
   35.220    3.7546
   35.235    3.5176
   35.250    3.6598
   35.265    3.5808
   35.280    3.6862
   35.295    3.6335
   35.310    3.7441
   35.325    3.6809
   35.340    3.7177
   35.355    3.6335
   35.370    3.6914
   35.385    3.8547
   35.400    3.6124
   35.415    3.5282
   35.430    3.5018
   35.445    3.7388
   35.460    3.8705
   35.475    3.9073
   35.490    3.8915
   35.505    3.6967
   35.520    3.7651
   35.535    3.5176
   35.550    3.4860
   35.565    3.5387
   35.580    3.5176
   35.595    3.4913
   35.610    3.4387
   35.625    3.7599
   35.640    3.6704
   35.655    3.4018
   35.670    3.4966
   35.685    3.8125
   35.700    3.6019
   35.715    3.6809
   35.730    3.6546
   35.745    3.6440
   35.760    3.4176
   35.775    3.6282
   35.790    3.6124
   35.805    3.4439
   35.820    3.6019
   35.835    3.6651
   35.850    3.4650
   35.865    3.5071
   35.880    3.5756
   35.895    3.4650
   35.910    3.5124
   35.925    3.5282
   35.940    3.4597
   35.955    3.3965
   35.970    3.4597
   35.985    3.5440
   36.000    3.6862
   36.015    3.5071
   36.030    3.5334
   36.045    3.5756
   36.060    3.7019
   36.075    3.4913
   36.090    3.5914
   36.105    3.6072
   36.120    3.2754
   36.135    3.4123
   36.150    3.5492
   36.165    3.6546
   36.180    3.5545
   36.195    3.5176
   36.210    3.4544
   36.225    3.5387
   36.240    3.5598
   36.255    3.6493
   36.270    3.5018
   36.285    3.4387
   36.300    3.6072
   36.315    3.6230
   36.330    3.4176
   36.345    3.5176
   36.360    3.7230
   36.375    3.7019
   36.390    3.4913
   36.405    3.4334
   36.420    3.4913
   36.435    3.5229
   36.450    3.4808
   36.465    3.7177
   36.480    3.5440
   36.495    3.4544
   36.510    3.5071
   36.525    3.2649
   36.540    3.5334
   36.555    3.3913
   36.570    3.3965
   36.585    3.5387
   36.600    3.4702
   36.615    3.4544
   36.630    3.4808
   36.645    3.4334
   36.660    3.5124
   36.675    3.4176
   36.690    3.3649
   36.705    3.6072
   36.720    3.5650
   36.735    3.5808
   36.750    3.4755
   36.765    3.2965
   36.780    3.4808
   36.795    3.4334
   36.810    3.4492
   36.825    3.4650
   36.840    3.2912
   36.855    3.3702
   36.870    3.4597
   36.885    3.4650
   36.900    3.5703
   36.915    3.3649
   36.930    3.4966
   36.945    3.4597
   36.960    3.4071
   36.975    3.5282
   36.990    3.4492
   37.005    3.5861
   37.020    3.4387
   37.035    3.4439
   37.050    3.4229
   37.065    3.4755
   37.080    3.4176
   37.095    3.2385
   37.110    3.2227
   37.125    3.2754
   37.140    3.4808
   37.155    3.3965
   37.170    3.3860
   37.185    3.3702
   37.200    3.4387
   37.215    3.5071
   37.230    3.5440
   37.245    3.4071
   37.260    3.4492
   37.275    3.3386
   37.290    3.5440
   37.305    3.4597
   37.320    3.3228
   37.335    3.4176
   37.350    3.1754
   37.365    3.3649
   37.380    3.3017
   37.395    3.4018
   37.410    3.3281
   37.425    3.3070
   37.440    3.4334
   37.455    3.4071
   37.470    3.3017
   37.485    3.2017
   37.500    3.2122
   37.515    3.3017
   37.530    3.3281
   37.545    3.3439
   37.560    3.3649
   37.575    3.3175
   37.590    3.4123
   37.605    3.2859
   37.620    3.2491
   37.635    3.3702
   37.650    3.2017
   37.665    3.2175
   37.680    3.0700
   37.695    3.1174
   37.710    3.1332
   37.725    3.3649
   37.740    3.5071
   37.755    3.4597
   37.770    3.4071
   37.785    3.3491
   37.800    3.4281
   37.815    3.3333
   37.830    3.3702
   37.845    3.3228
   37.860    3.4387
   37.875    3.4281
   37.890    3.2701
   37.905    3.3649
   37.920    3.2385
   37.935    3.2491
   37.950    3.4439
   37.965    3.3333
   37.980    3.3702
   37.995    3.2912
   38.010    3.3175
   38.025    3.2754
   38.040    3.3439
   38.055    3.4860
   38.070    3.3965
   38.085    3.3070
   38.100    3.2385
   38.115    3.0858
   38.130    3.0648
   38.145    3.2754
   38.160    3.4281
   38.175    3.3860
   38.190    3.3702
   38.205    3.3544
   38.220    3.1859
   38.235    3.2227
   38.250    3.2227
   38.265    3.3860
   38.280    3.3544
   38.295    3.4702
   38.310    3.2333
   38.325    3.2596
   38.340    3.2965
   38.355    3.3913
   38.370    3.3228
   38.385    3.3175
   38.400    3.2859
   38.415    3.1016
   38.430    3.2543
   38.445    3.3228
   38.460    3.3439
   38.475    3.1438
   38.490    3.0858
   38.505    3.2227
   38.520    3.4966
   38.535    3.2754
   38.550    3.3597
   38.565    3.2227
   38.580    3.1754
   38.595    3.2227
   38.610    3.4123
   38.625    3.3913
   38.640    3.4387
   38.655    3.2280
   38.670    3.2280
   38.685    3.4702
   38.700    3.5282
   38.715    3.3755
   38.730    3.2543
   38.745    3.2227
   38.760    3.3333
   38.775    3.2596
   38.790    3.0964
   38.805    3.4913
   38.820    3.3649
   38.835    3.5282
   38.850    3.3965
   38.865    3.2965
   38.880    3.2649
   38.895    3.2280
   38.910    3.3439
   38.925    3.1964
   38.940    3.4755
   38.955    3.1912
   38.970    3.1596
   38.985    3.3228
   39.000    3.3649
   39.015    3.2017
   39.030    3.3755
   39.045    3.3228
   39.060    3.3281
   39.075    3.1912
   39.090    3.3017
   39.105    3.3597
   39.120    3.3544
   39.135    3.4860
   39.150    3.2491
   39.165    3.2227
   39.180    3.1174
   39.195    3.2543
   39.210    3.2965
   39.225    3.1227
   39.240    3.3439
   39.255    3.3228
   39.270    3.4123
   39.285    3.4387
   39.300    3.4597
   39.315    3.2701
   39.330    3.1280
   39.345    3.2596
   39.360    3.2017
   39.375    3.2596
   39.390    3.2649
   39.405    3.3123
   39.420    3.3017
   39.435    3.3123
   39.450    3.2596
   39.465    3.2596
   39.480    3.2491
   39.495    3.2965
   39.510    3.3860
   39.525    3.2965
   39.540    3.3386
   39.555    3.3491
   39.570    3.2385
   39.585    3.1596
   39.600    3.2649
   39.615    3.0332
   39.630    3.1332
   39.645    3.3913
   39.660    3.2596
   39.675    3.2491
   39.690    3.2701
   39.705    3.3649
   39.720    3.5282
   39.735    3.4387
   39.750    3.2385
   39.765    3.1596
   39.780    3.3333
   39.795    3.3228
   39.810    3.2859
   39.825    3.2596
   39.840    3.2912
   39.855    3.1912
   39.870    3.3070
   39.885    3.3439
   39.900    3.4544
   39.915    3.1964
   39.930    3.0858
   39.945    3.2859
   39.960    3.3491
   39.975    3.3175
   39.990    3.2701
