    1.500    4.8511
    1.515    5.0116
    1.530    4.6906
    1.545    4.8867
    1.560    4.5301
    1.575    4.0842
    1.590    4.8689
    1.605    4.3339
    1.620    4.2447
    1.635    4.2625
    1.650    4.0307
    1.665    4.2804
    1.680    3.9950
    1.695    3.9593
    1.710    3.8167
    1.725    4.1912
    1.740    4.0663
    1.755    3.9772
    1.770    4.0485
    1.785    3.7810
    1.800    4.0128
    1.815    4.1377
    1.830    3.8345
    1.845    4.2090
    1.860    4.0663
    1.875    3.7810
    1.890    3.7632
    1.905    3.6383
    1.920    3.6561
    1.935    3.5670
    1.950    3.5313
    1.965    3.8167
    1.980    3.9415
    1.995    3.5848
    2.010    3.7988
    2.025    3.7096
    2.040    3.9237
    2.055    3.5313
    2.070    3.0854
    2.085    3.5670
    2.100    3.1924
    2.115    3.6740
    2.130    3.5848
    2.145    3.7275
    2.160    3.1211
    2.175    3.5491
    2.190    3.7453
    2.205    3.4600
    2.220    3.5670
    2.235    3.5670
    2.250    3.4778
    2.265    3.1211
    2.280    3.6918
    2.295    3.9237
    2.310    3.2103
    2.325    3.4065
    2.340    3.2994
    2.355    3.1033
    2.370    3.5135
    2.385    3.4065
    2.400    3.3351
    2.415    3.6205
    2.430    3.1033
    2.445    2.8892
    2.460    3.3708
    2.475    3.3708
    2.490    3.0498
    2.505    3.1568
    2.520    2.9606
    2.535    3.1746
    2.550    3.2459
    2.565    3.1389
    2.580    2.9963
    2.595    3.3173
    2.610    3.3886
    2.625    3.4243
    2.640    3.3173
    2.655    3.1924
    2.670    3.1746
    2.685    2.8536
    2.700    3.2638
    2.715    3.0854
    2.730    3.2103
    2.745    3.2281
    2.760    3.1568
    2.775    3.0319
    2.790    3.1924
    2.805    3.3351
    2.820    3.0141
    2.835    3.3351
    2.850    3.1568
    2.865    3.1568
    2.880    3.2994
    2.895    3.0854
    2.910    2.6217
    2.925    2.9784
    2.940    3.2103
    2.955    3.0319
    2.970    2.5682
    2.985    3.1746
    3.000    3.0319
    3.015    2.9071
    3.030    3.2459
    3.045    3.2281
    3.060    2.9963
    3.075    2.8357
    3.090    3.3708
    3.105    3.0676
    3.120    2.8001
    3.135    2.9249
    3.150    2.9606
    3.165    3.1568
    3.180    2.9071
    3.195    2.5504
    3.210    3.2103
    3.225    3.1389
    3.240    2.8892
    3.255    2.7109
    3.270    3.1568
    3.285    2.9963
    3.300    2.9428
    3.315    2.9428
    3.330    2.7822
    3.345    3.0141
    3.360    3.2281
    3.375    2.9071
    3.390    3.1924
    3.405    3.1389
    3.420    2.9606
    3.435    2.7109
    3.450    2.9428
    3.465    3.0141
    3.480    2.9606
    3.495    2.8001
    3.510    3.0141
    3.525    2.9428
    3.540    3.3708
    3.555    3.3708
    3.570    2.8536
    3.585    3.0141
    3.600    3.0676
    3.615    2.8357
    3.630    3.0498
    3.645    3.2103
    3.660    2.8179
    3.675    2.5861
    3.690    2.9963
    3.705    2.9428
    3.720    2.7466
    3.735    2.9784
    3.750    2.9428
    3.765    3.3530
    3.780    2.8714
    3.795    3.0141
    3.810    2.6752
    3.825    2.8536
    3.840    2.9071
    3.855    3.0854
    3.870    3.1033
    3.885    2.6752
    3.900    2.8892
    3.915    2.7466
    3.930    2.7109
    3.945    2.9428
    3.960    2.8536
    3.975    2.9071
    3.990    2.7109
    4.005    2.7644
    4.020    3.0141
    4.035    3.5313
    4.050    2.9784
    4.065    3.1568
    4.080    2.9606
    4.095    2.8001
    4.110    2.8001
    4.125    2.7822
    4.140    3.0676
    4.155    3.2994
    4.170    2.9784
    4.185    2.6752
    4.200    2.9071
    4.215    2.9428
    4.230    2.7822
    4.245    2.9606
    4.260    2.8536
    4.275    2.7466
    4.290    2.9606
    4.305    2.9606
    4.320    2.7109
    4.335    2.9071
    4.350    2.8179
    4.365    2.7287
    4.380    3.3173
    4.395    2.6217
    4.410    3.1211
    4.425    2.9963
    4.440    2.8892
    4.455    2.9784
    4.470    3.4421
    4.485    3.4421
    4.500    2.8179
    4.515    2.9784
    4.530    3.0319
    4.545    3.1389
    4.560    2.9784
    4.575    3.3886
    4.590    2.7109
    4.605    2.9249
    4.620    2.8357
    4.635    3.3351
    4.650    3.2459
    4.665    2.6396
    4.680    2.7109
    4.695    3.1924
    4.710    3.2281
    4.725    3.2638
    4.740    3.2103
    4.755    2.9428
    4.770    3.1568
    4.785    3.0854
    4.800    2.9428
    4.815    2.8536
    4.830    3.1746
    4.845    3.0676
    4.860    2.5504
    4.875    3.0141
    4.890    2.8892
    4.905    3.0319
    4.920    2.6217
    4.935    2.8714
    4.950    3.0319
    4.965    2.8714
    4.980    2.9784
    4.995    2.9784
    5.010    2.9784
    5.025    3.1033
    5.040    3.1746
    5.055    3.2103
    5.070    2.9606
    5.085    3.2103
    5.100    2.7822
    5.115    2.9071
    5.130    2.9428
    5.145    3.0676
    5.160    2.7109
    5.175    2.7644
    5.190    2.8179
    5.205    3.2638
    5.220    2.8536
    5.235    2.5861
    5.250    2.8001
    5.265    2.7287
    5.280    2.8714
    5.295    2.8892
    5.310    3.1389
    5.325    3.0498
    5.340    3.3173
    5.355    3.3886
    5.370    3.2281
    5.385    2.9428
    5.400    2.9071
    5.415    3.0854
    5.430    2.9963
    5.445    2.9963
    5.460    2.8001
    5.475    2.8536
    5.490    3.0854
    5.505    2.8892
    5.520    3.1033
    5.535    2.8714
    5.550    2.7287
    5.565    2.6752
    5.580    3.1924
    5.595    2.9071
    5.610    3.3351
    5.625    3.2281
    5.640    3.3173
    5.655    2.9963
    5.670    3.2103
    5.685    3.5313
    5.700    3.2638
    5.715    3.6026
    5.730    3.0854
    5.745    3.0498
    5.760    3.2994
    5.775    3.2638
    5.790    3.3173
    5.805    3.2459
    5.820    3.1746
    5.835    3.2103
    5.850    3.0854
    5.865    3.6205
    5.880    3.3173
    5.895    3.4600
    5.910    3.4421
    5.925    3.3351
    5.940    3.4065
    5.955    3.5313
    5.970    3.1746
    5.985    3.4065
    6.000    3.4065
    6.015    3.6918
    6.030    3.3351
    6.045    3.3530
    6.060    3.8880
    6.075    3.9593
    6.090    3.4421
    6.105    3.7275
    6.120    3.2103
    6.135    3.1746
    6.150    3.5848
    6.165    3.8702
    6.180    3.6561
    6.195    3.6026
    6.210    3.7453
    6.225    3.6026
    6.240    3.6026
    6.255    3.8702
    6.270    3.7810
    6.285    3.8702
    6.300    3.8702
    6.315    3.9950
    6.330    4.0128
    6.345    4.3874
    6.360    3.6740
    6.375    3.9058
    6.390    3.5848
    6.405    4.0485
    6.420    3.8702
    6.435    4.0485
    6.450    4.1020
    6.465    3.9950
    6.480    4.0128
    6.495    3.7988
    6.510    3.9237
    6.525    4.0128
    6.540    3.9415
    6.555    4.4765
    6.570    4.3874
    6.585    3.9950
    6.600    3.4065
    6.615    3.7275
    6.630    3.8702
    6.645    3.9593
    6.660    3.7096
    6.675    3.7988
    6.690    3.4956
    6.705    3.6740
    6.720    3.2816
    6.735    3.4600
    6.750    3.4065
    6.765    3.6383
    6.780    3.5670
    6.795    3.2459
    6.810    3.1033
    6.825    3.7632
    6.840    3.5313
    6.855    3.6383
    6.870    3.4421
    6.885    3.6561
    6.900    3.4243
    6.915    3.4778
    6.930    3.3886
    6.945    3.2816
    6.960    3.1389
    6.975    3.2638
    6.990    2.9249
    7.005    3.0141
    7.020    3.0676
    7.035    3.2103
    7.050    2.8001
    7.065    3.0854
    7.080    3.0319
    7.095    3.2459
    7.110    3.2994
    7.125    2.9963
    7.140    2.8001
    7.155    3.0319
    7.170    2.8536
    7.185    2.6574
    7.200    2.5682
    7.215    2.9784
    7.230    2.6931
    7.245    2.6217
    7.260    3.0854
    7.275    2.9963
    7.290    2.6574
    7.305    3.0141
    7.320    2.9249
    7.335    3.2816
    7.350    3.3351
    7.365    2.5861
    7.380    2.8357
    7.395    2.9428
    7.410    2.6931
    7.425    2.6039
    7.440    2.8892
    7.455    2.8001
    7.470    2.5325
    7.485    2.7822
    7.500    3.2281
    7.515    2.5147
    7.530    2.5861
    7.545    2.7287
    7.560    2.6931
    7.575    2.8357
    7.590    2.6574
    7.605    2.8001
    7.620    2.7644
    7.635    2.5861
    7.650    2.5682
    7.665    2.5147
    7.680    2.6396
    7.695    2.3185
    7.710    2.3364
    7.725    2.9428
    7.740    2.5682
    7.755    2.5504
    7.770    2.6574
    7.785    2.5147
    7.800    2.6039
    7.815    2.4969
    7.830    2.4969
    7.845    2.6931
    7.860    2.8179
    7.875    2.8179
    7.890    2.4077
    7.905    2.5504
    7.920    2.6931
    7.935    2.6396
    7.950    2.8536
    7.965    2.1937
    7.980    2.4790
    7.995    2.4255
    8.010    2.4612
    8.025    2.2829
    8.040    2.4969
    8.055    2.5325
    8.070    2.7287
    8.085    2.3720
    8.100    2.3542
    8.115    2.2650
    8.130    2.3185
    8.145    2.3542
    8.160    2.5325
    8.175    2.3720
    8.190    2.1402
    8.205    2.1580
    8.220    2.4790
    8.235    2.4077
    8.250    2.1580
    8.265    2.6039
    8.280    2.4612
    8.295    2.6931
    8.310    2.7644
    8.325    2.3185
    8.340    2.0688
    8.355    2.4612
    8.370    2.5861
    8.385    2.4077
    8.400    2.3899
    8.415    2.3720
    8.430    2.3542
    8.445    2.0332
    8.460    2.1580
    8.475    2.3720
    8.490    2.1580
    8.505    2.1580
    8.520    2.4612
    8.535    2.2115
    8.550    2.5861
    8.565    2.1759
    8.580    1.9618
    8.595    1.6943
    8.610    1.7478
    8.625    2.1223
    8.640    2.0332
    8.655    1.9262
    8.670    2.1937
    8.685    1.8905
    8.700    2.1045
    8.715    2.4969
    8.730    2.3364
    8.745    2.0867
    8.760    1.8905
    8.775    2.1402
    8.790    2.1402
    8.805    2.1937
    8.820    2.2294
    8.835    1.9262
    8.850    2.1580
    8.865    2.3007
    8.880    2.2472
    8.895    2.3185
    8.910    2.2294
    8.925    2.1580
    8.940    2.2829
    8.955    2.1045
    8.970    2.0510
    8.985    2.3185
    9.000    2.2294
    9.015    1.9262
    9.030    1.7478
    9.045    2.0688
    9.060    2.1937
    9.075    2.0867
    9.090    1.9975
    9.105    1.8013
    9.120    2.0510
    9.135    1.8370
    9.150    1.9440
    9.165    2.0688
    9.180    2.0867
    9.195    2.2472
    9.210    1.9262
    9.225    1.7657
    9.240    1.7835
    9.255    1.9262
    9.270    1.6765
    9.285    1.9262
    9.300    1.8370
    9.315    1.9975
    9.330    2.0153
    9.345    1.8013
    9.360    1.8370
    9.375    1.8727
    9.390    1.8727
    9.405    1.8548
    9.420    1.7300
    9.435    1.9975
    9.450    2.1402
    9.465    1.6765
    9.480    1.6586
    9.495    1.8013
    9.510    1.7478
    9.525    1.9618
    9.540    2.0153
    9.555    1.8370
    9.570    1.6943
    9.585    1.8013
    9.600    1.7121
    9.615    1.9975
    9.630    1.9262
    9.645    1.8548
    9.660    1.8548
    9.675    1.9083
    9.690    1.6943
    9.705    1.6408
    9.720    1.8905
    9.735    1.9618
    9.750    1.8548
    9.765    1.8548
    9.780    1.9262
    9.795    1.7835
    9.810    1.9083
    9.825    1.7657
    9.840    1.7478
    9.855    1.8370
    9.870    1.8548
    9.885    1.6408
    9.900    2.0332
    9.915    1.9797
    9.930    1.6586
    9.945    1.5695
    9.960    1.9083
    9.975    1.8013
    9.990    1.8192
   10.005    1.7657
   10.020    1.6586
   10.035    1.6408
   10.050    1.6765
   10.065    1.7300
   10.080    1.9440
   10.095    2.0510
   10.110    1.8548
   10.125    1.6230
   10.140    1.6230
   10.155    1.8192
   10.170    1.7835
   10.185    1.6943
   10.200    1.7300
   10.215    1.8905
   10.230    1.6765
   10.245    1.8548
   10.260    1.6586
   10.275    2.0688
   10.290    1.6586
   10.305    1.5695
   10.320    1.5338
   10.335    1.7121
   10.350    1.8548
   10.365    1.8013
   10.380    1.7478
   10.395    1.5160
   10.410    1.3019
   10.425    1.5338
   10.440    1.6586
   10.455    1.5873
   10.470    1.6943
   10.485    1.5516
   10.500    1.4268
   10.515    1.4625
   10.530    1.5338
   10.545    1.5695
   10.560    1.7835
   10.575    1.7657
   10.590    1.6408
   10.605    1.8548
   10.620    1.9797
   10.635    1.6051
   10.650    1.8013
   10.665    1.3733
   10.680    1.2484
   10.695    1.4803
   10.710    1.6765
   10.725    1.9797
   10.740    1.5516
   10.755    1.5873
   10.770    1.6408
   10.785    1.8905
   10.800    1.6943
   10.815    1.5873
   10.830    1.5873
   10.845    1.6408
   10.860    1.7657
   10.875    1.8192
   10.890    1.8370
   10.905    1.6943
   10.920    1.4446
   10.935    1.4981
   10.950    1.4981
   10.965    1.5873
   10.980    1.3911
   10.995    1.4803
   11.010    1.5516
   11.025    1.5873
   11.040    1.6051
   11.055    1.4625
   11.070    1.3911
   11.085    1.6230
   11.100    1.7300
   11.115    1.4803
   11.130    1.6051
   11.145    1.7121
   11.160    1.7835
   11.175    1.6051
   11.190    1.8905
   11.205    1.6943
   11.220    1.6765
   11.235    1.5516
   11.250    1.4446
   11.265    1.8013
   11.280    1.6943
   11.295    1.6765
   11.310    1.6051
   11.325    1.8727
   11.340    1.7835
   11.355    1.4803
   11.370    1.6051
   11.385    1.5338
   11.400    1.3198
   11.415    1.4268
   11.430    1.9262
   11.445    1.6051
   11.460    1.6408
   11.475    1.5160
   11.490    1.7121
   11.505    1.7300
   11.520    1.6051
   11.535    1.4803
   11.550    1.3198
   11.565    1.2841
   11.580    1.2663
   11.595    1.8192
   11.610    1.7478
   11.625    1.6051
   11.640    1.6051
   11.655    1.5516
   11.670    1.5338
   11.685    1.5338
   11.700    1.6051
   11.715    1.8192
   11.730    1.8192
   11.745    1.5160
   11.760    1.6765
   11.775    1.8548
   11.790    1.5338
   11.805    1.6408
   11.820    1.6765
   11.835    1.5338
   11.850    1.7300
   11.865    1.6051
   11.880    1.7300
   11.895    1.4803
   11.910    1.7300
   11.925    1.6586
   11.940    1.4268
   11.955    1.6051
   11.970    1.6765
   11.985    1.8548
   12.000    1.4803
   12.015    1.5338
   12.030    1.6051
   12.045    1.7121
   12.060    1.9618
   12.075    1.7835
   12.090    1.7657
   12.105    1.7478
   12.120    1.6230
   12.135    1.6765
   12.150    1.4090
   12.165    1.6051
   12.180    1.7478
   12.195    1.5160
   12.210    1.6230
   12.225    1.5338
   12.240    1.6943
   12.255    1.7300
   12.270    1.6230
   12.285    1.7300
   12.300    1.6051
   12.315    1.9083
   12.330    1.8370
   12.345    1.7657
   12.360    1.5338
   12.375    1.6408
   12.390    1.7300
   12.405    1.9262
   12.420    1.6943
   12.435    1.7300
   12.450    1.7121
   12.465    1.6586
   12.480    1.6051
   12.495    1.5695
   12.510    1.8548
   12.525    1.7121
   12.540    1.5695
   12.555    1.6586
   12.570    1.9618
   12.585    1.7657
   12.600    1.5695
   12.615    1.7300
   12.630    1.6408
   12.645    1.6765
   12.660    1.6943
   12.675    1.7121
   12.690    2.0688
   12.705    1.8192
   12.720    1.6408
   12.735    1.5338
   12.750    1.6408
   12.765    1.7300
   12.780    1.9262
   12.795    1.5695
   12.810    1.6586
   12.825    1.6051
   12.840    1.8548
   12.855    1.6408
   12.870    1.6230
   12.885    1.6586
   12.900    1.6230
   12.915    2.0688
   12.930    1.6230
   12.945    1.5160
   12.960    1.6408
   12.975    1.7300
   12.990    1.6408
   13.005    1.7478
   13.020    1.8548
   13.035    1.7657
   13.050    1.9262
   13.065    1.9262
   13.080    1.7835
   13.095    1.8370
   13.110    1.9440
   13.125    1.7835
   13.140    2.0153
   13.155    1.5873
   13.170    1.5873
   13.185    1.6230
   13.200    1.7835
   13.215    1.8548
   13.230    1.7121
   13.245    1.6765
   13.260    1.7478
   13.275    1.7657
   13.290    1.9440
   13.305    1.8370
   13.320    1.7835
   13.335    1.6765
   13.350    1.6586
   13.365    1.6051
   13.380    1.7121
   13.395    1.9797
   13.410    1.6408
   13.425    1.6943
   13.440    1.8905
   13.455    1.6051
   13.470    1.8727
   13.485    1.7657
   13.500    1.7300
   13.515    1.7657
   13.530    1.7478
   13.545    1.7478
   13.560    1.6943
   13.575    1.6943
   13.590    1.5160
   13.605    1.4803
   13.620    1.6230
   13.635    1.9262
   13.650    1.6051
   13.665    1.6765
   13.680    1.7835
   13.695    1.6586
   13.710    1.7300
   13.725    1.7835
   13.740    1.5516
   13.755    1.7300
   13.770    1.7657
   13.785    1.6586
   13.800    1.6230
   13.815    2.0510
   13.830    1.7835
   13.845    1.7478
   13.860    1.7835
   13.875    1.7121
   13.890    1.6408
   13.905    1.6408
   13.920    1.5873
   13.935    1.2841
   13.950    1.5873
   13.965    2.0332
   13.980    1.6943
   13.995    1.7835
   14.010    1.7300
   14.025    1.8370
   14.040    1.8727
   14.055    1.7300
   14.070    1.6943
   14.085    1.6765
   14.100    1.4803
   14.115    1.5516
   14.130    1.6408
   14.145    1.9440
   14.160    1.5695
   14.175    1.7121
   14.190    1.6586
   14.205    1.6230
   14.220    1.5516
   14.235    1.6943
   14.250    1.7300
   14.265    1.6943
   14.280    1.8370
   14.295    1.7121
   14.310    1.4090
   14.325    1.4803
   14.340    1.5160
   14.355    1.7300
   14.370    1.7657
   14.385    1.7300
   14.400    1.7121
   14.415    1.8013
   14.430    1.6408
   14.445    1.6943
   14.460    1.7835
   14.475    1.5160
   14.490    1.6408
   14.505    1.6408
   14.520    1.5160
   14.535    1.5338
   14.550    1.4625
   14.565    1.7835
   14.580    1.7121
   14.595    1.5338
   14.610    1.4446
   14.625    1.8013
   14.640    1.3198
   14.655    1.2663
   14.670    1.3911
   14.685    1.2306
   14.700    1.5695
   14.715    1.4803
   14.730    1.7300
   14.745    1.4268
   14.760    1.5873
   14.775    1.6230
   14.790    1.4803
   14.805    1.7657
   14.820    1.3733
   14.835    1.4981
   14.850    1.5516
   14.865    1.6408
   14.880    1.6230
   14.895    1.5338
   14.910    1.8727
   14.925    1.5873
   14.940    1.6765
   14.955    1.6943
   14.970    1.5338
   14.985    1.4268
   15.000    1.5516
   15.015    1.6051
   15.030    1.6943
   15.045    1.5873
   15.060    1.5160
   15.075    1.6586
   15.090    1.3198
   15.105    1.6943
   15.120    1.6408
   15.135    1.8013
   15.150    1.4981
   15.165    1.4268
   15.180    1.3733
   15.195    1.3733
   15.210    1.4625
   15.225    1.3733
   15.240    1.5873
   15.255    1.4625
   15.270    1.5160
   15.285    1.5338
   15.300    1.7300
   15.315    1.6586
   15.330    1.6586
   15.345    1.6943
   15.360    1.7121
   15.375    1.2841
   15.390    1.3376
   15.405    1.5160
   15.420    1.4803
   15.435    1.3198
   15.450    1.6943
   15.465    1.7835
   15.480    1.7300
   15.495    1.4803
   15.510    1.8192
   15.525    1.5873
   15.540    1.4090
   15.555    1.3733
   15.570    1.4803
   15.585    1.7121
   15.600    1.7478
   15.615    1.5516
   15.630    1.4446
   15.645    1.7300
   15.660    1.4803
   15.675    1.1593
   15.690    1.1593
   15.705    1.7121
   15.720    1.4268
   15.735    1.4090
   15.750    1.3911
   15.765    1.1949
   15.780    1.6586
   15.795    1.5516
   15.810    1.5695
   15.825    1.4090
   15.840    1.6230
   15.855    1.6230
   15.870    1.3733
   15.885    1.5873
   15.900    1.6765
   15.915    1.7478
   15.930    1.5338
   15.945    1.4268
   15.960    1.5516
   15.975    1.4981
   15.990    1.7121
   16.005    1.5338
   16.020    1.5873
   16.035    1.5695
   16.050    1.6408
   16.065    1.5695
   16.080    1.3911
   16.095    1.5160
   16.110    1.3911
   16.125    1.5516
   16.140    1.9083
   16.155    1.7300
   16.170    1.4803
   16.185    1.4625
   16.200    1.4981
   16.215    1.4625
   16.230    1.4090
   16.245    1.4268
   16.260    1.6586
   16.275    1.6230
   16.290    1.4803
   16.305    1.5516
   16.320    1.6051
   16.335    1.6408
   16.350    1.4803
   16.365    1.4446
   16.380    1.4625
   16.395    1.4803
   16.410    1.5873
   16.425    1.6051
   16.440    1.6051
   16.455    1.4803
   16.470    1.4446
   16.485    1.3911
   16.500    1.5695
   16.515    1.7300
   16.530    1.7300
   16.545    1.8727
   16.560    1.6765
   16.575    1.7121
   16.590    1.7835
   16.605    1.8905
   16.620    1.8192
   16.635    1.6408
   16.650    1.7657
   16.665    1.6943
   16.680    1.8727
   16.695    1.6943
   16.710    1.7835
   16.725    1.6765
   16.740    1.5338
   16.755    1.7835
   16.770    1.8192
   16.785    1.5516
   16.800    1.7657
   16.815    1.9440
   16.830    1.8013
   16.845    1.7478
   16.860    1.6230
   16.875    1.7657
   16.890    1.9083
   16.905    1.8727
   16.920    1.5338
   16.935    1.6765
   16.950    1.4981
   16.965    1.7300
   16.980    1.7478
   16.995    1.7657
   17.010    1.6943
   17.025    1.5695
   17.040    1.9262
   17.055    1.8905
   17.070    1.4625
   17.085    1.6051
   17.100    1.6586
   17.115    1.5516
   17.130    1.6051
   17.145    1.6051
   17.160    1.5695
   17.175    1.5516
   17.190    1.8192
   17.205    1.5338
   17.220    1.4446
   17.235    1.6765
   17.250    1.6586
   17.265    1.7478
   17.280    1.9262
   17.295    1.6765
   17.310    1.4981
   17.325    1.5338
   17.340    1.6408
   17.355    1.6230
   17.370    1.4981
   17.385    1.3376
   17.400    1.5160
   17.415    1.7121
   17.430    1.4268
   17.445    1.5338
   17.460    1.7300
   17.475    1.5873
   17.490    1.5338
   17.505    1.6586
   17.520    1.7121
   17.535    1.5338
   17.550    1.7300
   17.565    1.7478
   17.580    1.6051
   17.595    1.8548
   17.610    1.7657
   17.625    1.4803
   17.640    1.4981
   17.655    1.3019
   17.670    1.8192
   17.685    1.6408
   17.700    1.7478
   17.715    1.5873
   17.730    1.7478
   17.745    1.5338
   17.760    1.5873
   17.775    1.4625
   17.790    1.5695
   17.805    1.6230
   17.820    1.4268
   17.835    1.5695
   17.850    1.6051
   17.865    1.5516
   17.880    1.3554
   17.895    1.3911
   17.910    1.5695
   17.925    1.5338
   17.940    1.3554
   17.955    1.5873
   17.970    1.6051
   17.985    1.2484
   18.000    1.1414
   18.015    1.4446
   18.030    1.3554
   18.045    1.5160
   18.060    1.4446
   18.075    1.3733
   18.090    1.4625
   18.105    1.3019
   18.120    1.4625
   18.135    1.3733
   18.150    1.5160
   18.165    1.3911
   18.180    1.1593
   18.195    1.3733
   18.210    1.7300
   18.225    1.7300
   18.240    1.3733
   18.255    1.3554
   18.270    1.5873
   18.285    1.5516
   18.300    1.6586
   18.315    1.4803
   18.330    1.6765
   18.345    1.4981
   18.360    1.4625
   18.375    1.3019
   18.390    1.4268
   18.405    1.2663
   18.420    1.2663
   18.435    1.4446
   18.450    1.6765
   18.465    1.2663
   18.480    1.3911
   18.495    1.1949
   18.510    1.5338
   18.525    1.3733
   18.540    1.5873
   18.555    1.4446
   18.570    1.3198
   18.585    1.4803
   18.600    1.1593
   18.615    1.3376
   18.630    1.4090
   18.645    1.2128
   18.660    1.4268
   18.675    1.4090
   18.690    1.3733
   18.705    1.5338
   18.720    1.4981
   18.735    1.5160
   18.750    1.4803
   18.765    1.4268
   18.780    1.4981
   18.795    1.3733
   18.810    1.4625
   18.825    1.4090
   18.840    1.7835
   18.855    1.4981
   18.870    1.3733
   18.885    1.4090
   18.900    1.5873
   18.915    1.5160
   18.930    1.6051
   18.945    1.4446
   18.960    1.6051
   18.975    1.6230
   18.990    1.4981
   19.005    1.7121
   19.020    1.7300
   19.035    1.6051
   19.050    1.2128
   19.065    1.3911
   19.080    1.5338
   19.095    1.3911
   19.110    1.5516
   19.125    1.4446
   19.140    1.5873
   19.155    1.6943
   19.170    1.4803
   19.185    1.4446
   19.200    1.4446
   19.215    1.3019
   19.230    1.5695
   19.245    1.5695
   19.260    1.3376
   19.275    1.2663
   19.290    1.4981
   19.305    1.5160
   19.320    1.9262
   19.335    1.5695
   19.350    1.7835
   19.365    1.7657
   19.380    1.3554
   19.395    1.2841
   19.410    1.0701
   19.425    1.3911
   19.440    1.3911
   19.455    1.6051
   19.470    1.6051
   19.485    1.6408
   19.500    1.5873
   19.515    1.3911
   19.530    1.6586
   19.545    1.4446
   19.560    1.5338
   19.575    1.6586
   19.590    1.3911
   19.605    1.5516
   19.620    1.5160
   19.635    1.3911
   19.650    1.4981
   19.665    1.5160
   19.680    1.4090
   19.695    1.4090
   19.710    1.6765
   19.725    1.4090
   19.740    1.5695
   19.755    1.5160
   19.770    1.2484
   19.785    1.4625
   19.800    1.7835
   19.815    1.3733
   19.830    1.4090
   19.845    1.3911
   19.860    1.4268
   19.875    1.4268
   19.890    1.3198
   19.905    1.6230
   19.920    1.3911
   19.935    1.5695
   19.950    1.4803
   19.965    1.6586
   19.980    1.4268
   19.995    1.2128
   20.010    1.3554
   20.025    1.4090
   20.040    1.5873
   20.055    1.4803
   20.070    1.4268
   20.085    1.4803
   20.100    1.3198
   20.115    1.5516
   20.130    1.7657
   20.145    1.5338
   20.160    1.6408
   20.175    1.6408
   20.190    1.7478
   20.205    1.2841
   20.220    1.4090
   20.235    1.5695
   20.250    1.7121
   20.265    1.3554
   20.280    1.6408
   20.295    1.3554
   20.310    1.5695
   20.325    1.6408
   20.340    1.3911
   20.355    1.4268
   20.370    1.5338
   20.385    1.6230
   20.400    1.4625
   20.415    1.3376
   20.430    1.3019
   20.445    1.5873
   20.460    1.4981
   20.475    1.5338
   20.490    1.7657
   20.505    1.5160
   20.520    1.3554
   20.535    1.5516
   20.550    1.3198
   20.565    1.1949
   20.580    1.6230
   20.595    1.4268
   20.610    1.1771
   20.625    1.5695
   20.640    1.3554
   20.655    1.3911
   20.670    1.5873
   20.685    1.6943
   20.700    1.4625
   20.715    1.4268
   20.730    1.3911
   20.745    1.5516
   20.760    1.2128
   20.775    1.2663
   20.790    1.4090
   20.805    1.4446
   20.820    1.3198
   20.835    1.4625
   20.850    1.4981
   20.865    1.2128
   20.880    1.2484
   20.895    1.3198
   20.910    1.4090
   20.925    1.6230
   20.940    1.4268
   20.955    1.4268
   20.970    1.3198
   20.985    1.6051
   21.000    1.6408
   21.015    1.5516
   21.030    1.4090
   21.045    1.3554
   21.060    1.4981
   21.075    1.3019
   21.090    1.3198
   21.105    1.3198
   21.120    1.4981
   21.135    1.4446
   21.150    1.3376
   21.165    1.2663
   21.180    1.3733
   21.195    1.3911
   21.210    1.4981
   21.225    1.3733
   21.240    1.4803
   21.255    1.2484
   21.270    1.4625
   21.285    1.6765
   21.300    1.6051
   21.315    1.6230
   21.330    1.6943
   21.345    1.4268
   21.360    1.3911
   21.375    1.0523
   21.390    1.3554
   21.405    1.3733
   21.420    1.5160
   21.435    1.5338
   21.450    1.6408
   21.465    1.3376
   21.480    1.3019
   21.495    1.5160
   21.510    1.3733
   21.525    1.3198
   21.540    1.3733
   21.555    1.3554
   21.570    1.4268
   21.585    1.5160
   21.600    1.4803
   21.615    1.4090
   21.630    1.4803
   21.645    1.7478
   21.660    1.2663
   21.675    1.4625
   21.690    1.5160
   21.705    1.2841
   21.720    1.2663
   21.735    1.3376
   21.750    1.4446
   21.765    1.4446
   21.780    1.6230
   21.795    1.4625
   21.810    1.1236
   21.825    1.2128
   21.840    1.5695
   21.855    1.1593
   21.870    1.1593
   21.885    1.5338
   21.900    1.3376
   21.915    1.3911
   21.930    1.6051
   21.945    1.2841
   21.960    1.3911
   21.975    1.4625
   21.990    1.6943
   22.005    1.4803
   22.020    1.3733
   22.035    1.1414
   22.050    1.2128
   22.065    1.4625
   22.080    1.4625
   22.095    1.3911
   22.110    1.3376
   22.125    1.3733
   22.140    1.4090
   22.155    1.4268
   22.170    1.3554
   22.185    1.3911
   22.200    1.3733
   22.215    1.2484
   22.230    1.3019
   22.245    1.0701
   22.260    1.2306
   22.275    1.3019
   22.290    1.1949
   22.305    1.4446
   22.320    1.3376
   22.335    1.3019
   22.350    1.3554
   22.365    1.5338
   22.380    1.2484
   22.395    1.3911
   22.410    1.3733
   22.425    1.2663
   22.440    1.5873
   22.455    1.3733
   22.470    1.6765
   22.485    1.5873
   22.500    1.4268
   22.515    1.4981
   22.530    1.3554
   22.545    1.3733
   22.560    1.4625
   22.575    1.5873
   22.590    1.4446
   22.605    1.3376
   22.620    1.7835
   22.635    1.4981
   22.650    1.4446
   22.665    1.2841
   22.680    1.5516
   22.695    1.3733
   22.710    1.4625
   22.725    1.5873
   22.740    1.4981
   22.755    1.5695
   22.770    1.3019
   22.785    1.6586
   22.800    1.3911
   22.815    1.3376
   22.830    1.4981
   22.845    1.3554
   22.860    1.3198
   22.875    1.5160
   22.890    1.1058
   22.905    1.5338
   22.920    1.3376
   22.935    1.4625
   22.950    1.4090
   22.965    1.2306
   22.980    1.2128
   22.995    1.2663
   23.010    1.2306
   23.025    1.1414
   23.040    1.6230
   23.055    1.1414
   23.070    1.2128
   23.085    1.2484
   23.100    1.3554
   23.115    1.5338
   23.130    1.2663
   23.145    1.2841
   23.160    1.5160
   23.175    1.6586
   23.190    1.5695
   23.205    1.2841
   23.220    1.3376
   23.235    1.1414
   23.250    1.2484
   23.265    1.2306
   23.280    1.4446
   23.295    1.4803
   23.310    1.3019
   23.325    1.3019
   23.340    1.2306
   23.355    1.3554
   23.370    1.2484
   23.385    1.1949
   23.400    1.1949
   23.415    1.2306
   23.430    1.2128
   23.445    1.3733
   23.460    1.4803
   23.475    1.2306
   23.490    1.2306
   23.505    1.2841
   23.520    1.5160
   23.535    1.2663
   23.550    1.5160
   23.565    1.2484
   23.580    1.2128
   23.595    1.2128
   23.610    1.2306
   23.625    1.1771
   23.640    1.4803
   23.655    1.2841
   23.670    1.2306
   23.685    1.3911
   23.700    1.3019
   23.715    1.2841
   23.730    1.5338
   23.745    1.2306
   23.760    1.3376
   23.775    1.3554
   23.790    1.2663
   23.805    1.1058
   23.820    1.1949
   23.835    1.2484
   23.850    1.2128
   23.865    1.3554
   23.880    1.2484
   23.895    1.2841
   23.910    1.3911
   23.925    1.6408
   23.940    1.6230
   23.955    1.2663
   23.970    1.1058
   23.985    1.3733
   24.000    1.1593
   24.015    1.2484
   24.030    1.2841
   24.045    1.1949
   24.060    1.2841
   24.075    1.3198
   24.090    1.2128
   24.105    1.3198
   24.120    1.3733
   24.135    1.3376
   24.150    1.2484
   24.165    1.3019
   24.180    1.2128
   24.195    1.3733
   24.210    1.3911
   24.225    1.1771
   24.240    1.1771
   24.255    1.3198
   24.270    1.4625
   24.285    1.4268
   24.300    1.1949
   24.315    1.1236
   24.330    1.2306
   24.345    1.3019
   24.360    1.0701
   24.375    1.3733
   24.390    1.3376
   24.405    1.4090
   24.420    1.1236
   24.435    1.2306
   24.450    1.2306
   24.465    1.1236
   24.480    1.1414
   24.495    1.1949
   24.510    1.4625
   24.525    1.5160
   24.540    0.9988
   24.555    1.1771
   24.570    1.1949
   24.585    1.1058
   24.600    0.9096
   24.615    1.1771
   24.630    1.3376
   24.645    1.4803
   24.660    1.2663
   24.675    1.1593
   24.690    1.1058
   24.705    1.2484
   24.720    1.1236
   24.735    1.2128
   24.750    1.2663
   24.765    1.2484
   24.780    1.4446
   24.795    1.3376
   24.810    1.1236
   24.825    1.2128
   24.840    1.1414
   24.855    1.3019
   24.870    1.3198
   24.885    1.2484
   24.900    1.2128
   24.915    1.2663
   24.930    1.2306
   24.945    1.3198
   24.960    1.4268
   24.975    1.3554
   24.990    1.3376
   25.005    1.1949
   25.020    1.1414
   25.035    1.5516
   25.050    1.3733
   25.065    1.2841
   25.080    1.3911
   25.095    1.1949
   25.110    1.0523
   25.125    1.0879
   25.140    1.1771
   25.155    1.2841
   25.170    1.0344
   25.185    1.3376
   25.200    1.4090
   25.215    1.4981
   25.230    1.3198
   25.245    1.3376
   25.260    1.2484
   25.275    1.4803
   25.290    1.3733
   25.305    1.2484
   25.320    1.4268
   25.335    1.1058
   25.350    1.1771
   25.365    1.0344
   25.380    1.2841
   25.395    1.1236
   25.410    1.0523
   25.425    0.9809
   25.440    1.1593
   25.455    1.0879
   25.470    1.3376
   25.485    1.2128
   25.500    1.2128
   25.515    1.1949
   25.530    1.2128
   25.545    1.2128
   25.560    1.1236
   25.575    1.2484
   25.590    1.3376
   25.605    1.1771
   25.620    1.1236
   25.635    1.2306
   25.650    1.1771
   25.665    1.2128
   25.680    1.2306
   25.695    1.1593
   25.710    1.2663
   25.725    1.2306
   25.740    1.0523
   25.755    1.2484
   25.770    1.2484
   25.785    1.1058
   25.800    1.1414
   25.815    1.2128
   25.830    1.3376
   25.845    1.3198
   25.860    1.1236
   25.875    1.3198
   25.890    1.1771
   25.905    1.0701
   25.920    1.0879
   25.935    1.2841
   25.950    0.9809
   25.965    1.2128
   25.980    1.1414
   25.995    1.3198
   26.010    1.1414
   26.025    1.1236
   26.040    1.1949
   26.055    1.0344
   26.070    1.2484
   26.085    1.2663
   26.100    1.1236
   26.115    1.2663
   26.130    1.0344
   26.145    1.0344
   26.160    1.2841
   26.175    1.2306
   26.190    1.1414
   26.205    1.3554
   26.220    1.1236
   26.235    1.0344
   26.250    1.0701
   26.265    1.2128
   26.280    1.2484
   26.295    1.3554
   26.310    1.0166
   26.325    0.9631
   26.340    1.0523
   26.355    1.0166
   26.370    1.2484
   26.385    1.2841
   26.400    1.0523
   26.415    1.1593
   26.430    1.3733
   26.445    1.1236
   26.460    1.1771
   26.475    1.3733
   26.490    1.0523
   26.505    1.1058
   26.520    1.1414
   26.535    1.0701
   26.550    1.1949
   26.565    1.1414
   26.580    0.9988
   26.595    0.9988
   26.610    1.0701
   26.625    1.0523
   26.640    1.0701
   26.655    0.9274
   26.670    0.9631
   26.685    1.2128
   26.700    1.0166
   26.715    0.9452
   26.730    1.0166
   26.745    0.9809
   26.760    1.0701
   26.775    1.2663
   26.790    1.2484
   26.805    1.2841
   26.820    1.3554
   26.835    1.1593
   26.850    1.0879
   26.865    0.9809
   26.880    1.0166
   26.895    0.9452
   26.910    1.0879
   26.925    1.0166
   26.940    1.0701
   26.955    1.1414
   26.970    0.9988
   26.985    1.0701
   27.000    1.1058
   27.015    1.2841
   27.030    1.0344
   27.045    0.8382
   27.060    0.9452
   27.075    1.0879
   27.090    0.9274
   27.105    1.1058
   27.120    1.2306
   27.135    1.1771
   27.150    1.0166
   27.165    1.0344
   27.180    1.0879
   27.195    0.9274
   27.210    1.0344
   27.225    1.1058
   27.240    1.1771
   27.255    1.0523
   27.270    1.0344
   27.285    1.1058
   27.300    1.0166
   27.315    0.9631
   27.330    0.9631
   27.345    1.0344
   27.360    1.0523
   27.375    0.9274
   27.390    1.0166
   27.405    1.2306
   27.420    1.0166
   27.435    0.9631
   27.450    1.1593
   27.465    1.1414
   27.480    1.0701
   27.495    1.1058
   27.510    1.1771
   27.525    0.8917
   27.540    0.8739
   27.555    0.9988
   27.570    1.1593
   27.585    1.0879
   27.600    1.1236
   27.615    1.1236
   27.630    0.8026
   27.645    0.9452
   27.660    1.1771
   27.675    1.1771
   27.690    1.0344
   27.705    1.0701
   27.720    1.0701
   27.735    0.9452
   27.750    1.1771
   27.765    1.0879
   27.780    1.1771
   27.795    1.0344
   27.810    1.0701
   27.825    1.0879
   27.840    0.6599
   27.855    0.9096
   27.870    1.2128
   27.885    1.1058
   27.900    1.1058
   27.915    1.0166
   27.930    1.0344
   27.945    0.9274
   27.960    1.1593
   27.975    1.0701
   27.990    1.1414
   28.005    1.1414
   28.020    0.9274
   28.035    1.1593
   28.050    0.8739
   28.065    1.0344
   28.080    1.1771
   28.095    0.9809
   28.110    1.0344
   28.125    0.9631
   28.140    1.1771
   28.155    0.9988
   28.170    1.1949
   28.185    1.1058
   28.200    1.0344
   28.215    0.9809
   28.230    1.0523
   28.245    0.9988
   28.260    1.0879
   28.275    0.9809
   28.290    0.9631
   28.305    1.2306
   28.320    1.0344
   28.335    1.0344
   28.350    1.3019
   28.365    1.1236
   28.380    0.9452
   28.395    0.9988
   28.410    0.9452
   28.425    0.8204
   28.440    0.9988
   28.455    0.9988
   28.470    0.8739
   28.485    0.9631
   28.500    1.0701
   28.515    0.9631
   28.530    1.0166
   28.545    0.9809
   28.560    0.9452
   28.575    1.2128
   28.590    1.1593
   28.605    0.9274
   28.620    0.8917
   28.635    0.9809
   28.650    0.8561
   28.665    0.9274
   28.680    0.8917
   28.695    0.8917
   28.710    0.9988
   28.725    0.7491
   28.740    0.8739
   28.755    1.1414
   28.770    0.8026
   28.785    1.2128
   28.800    0.7491
   28.815    0.8561
   28.830    0.8739
   28.845    1.0523
   28.860    1.0523
   28.875    0.9274
   28.890    1.0879
   28.905    1.2128
   28.920    0.8561
   28.935    0.9096
   28.950    0.9631
   28.965    0.9631
   28.980    0.8382
   28.995    0.9096
   29.010    0.8917
   29.025    0.8561
   29.040    0.9096
   29.055    0.9274
   29.070    0.9274
   29.085    0.9452
   29.100    0.8561
   29.115    1.0166
   29.130    0.8026
   29.145    0.9988
   29.160    1.0879
   29.175    0.7134
   29.190    0.9096
   29.205    0.9274
   29.220    0.9096
   29.235    0.9631
   29.250    0.9631
   29.265    0.8917
   29.280    0.9274
   29.295    0.9274
   29.310    0.9809
   29.325    0.9809
   29.340    0.8026
   29.355    1.0344
   29.370    1.0523
   29.385    1.0344
   29.400    0.9452
   29.415    0.8561
   29.430    1.0166
   29.445    0.8561
   29.460    0.9452
   29.475    1.0344
   29.490    1.0879
   29.505    0.9988
   29.520    0.8561
   29.535    0.9988
   29.550    0.8561
   29.565    0.8204
   29.580    0.9452
   29.595    1.1058
   29.610    0.9988
   29.625    0.7312
   29.640    0.8382
   29.655    0.9809
   29.670    0.9096
   29.685    1.1058
   29.700    0.9631
   29.715    0.8382
   29.730    1.0701
   29.745    0.9988
   29.760    0.9096
   29.775    1.1414
   29.790    0.9452
   29.805    0.9631
   29.820    0.8382
   29.835    0.9809
   29.850    1.0344
   29.865    0.8382
   29.880    1.0166
   29.895    0.8739
   29.910    0.8382
   29.925    0.9988
   29.940    1.1414
   29.955    0.9096
   29.970    1.0701
   29.985    0.9988
   30.000    0.8917
   30.015    0.8561
   30.030    1.0523
   30.045    0.9809
   30.060    1.0523
   30.075    1.0523
   30.090    0.9631
   30.105    0.8917
   30.120    1.0701
   30.135    0.9096
   30.150    0.9631
   30.165    0.9631
   30.180    0.9452
   30.195    0.8917
   30.210    0.8561
   30.225    0.8739
   30.240    0.9274
   30.255    0.9631
   30.270    0.9988
   30.285    1.1236
   30.300    0.9096
   30.315    0.7847
   30.330    0.9096
   30.345    1.1058
   30.360    0.8026
   30.375    1.0344
   30.390    1.1414
   30.405    0.9631
   30.420    0.8204
   30.435    0.8917
   30.450    0.9452
   30.465    0.9452
   30.480    0.7312
   30.495    0.8917
   30.510    1.0879
   30.525    1.0166
   30.540    0.8561
   30.555    0.9096
   30.570    1.0701
   30.585    0.9809
   30.600    0.8917
   30.615    1.0166
   30.630    0.9452
   30.645    1.0166
   30.660    0.8382
   30.675    0.9809
   30.690    1.0879
   30.705    1.0166
   30.720    0.9809
   30.735    0.9452
   30.750    0.9452
   30.765    0.7312
   30.780    1.0166
   30.795    0.9096
   30.810    0.9988
   30.825    0.8739
   30.840    0.7669
   30.855    0.8204
   30.870    0.8204
   30.885    1.0523
   30.900    1.0879
   30.915    0.8917
   30.930    0.9452
   30.945    0.9631
   30.960    0.8382
   30.975    0.7491
   30.990    0.8026
   31.005    0.7312
   31.020    0.9452
   31.035    0.8204
   31.050    0.7312
   31.065    0.8382
   31.080    0.7491
   31.095    0.8917
   31.110    0.8561
   31.125    0.9809
   31.140    0.7134
   31.155    0.8917
   31.170    0.9274
   31.185    0.9452
   31.200    0.8561
   31.215    0.8204
   31.230    0.8204
   31.245    0.9274
   31.260    1.1593
   31.275    0.9274
   31.290    0.9452
   31.305    0.8204
   31.320    0.8204
   31.335    0.9631
   31.350    0.8204
   31.365    0.8382
   31.380    1.2128
   31.395    1.0166
   31.410    0.7134
   31.425    0.9096
   31.440    0.8561
   31.455    0.7669
   31.470    0.9274
   31.485    1.0166
   31.500    0.9096
   31.515    0.9631
   31.530    1.0166
   31.545    0.9452
   31.560    0.9809
   31.575    0.8739
   31.590    1.0344
   31.605    0.8382
   31.620    0.8917
   31.635    0.9631
   31.650    0.8382
   31.665    0.6777
   31.680    0.6599
   31.695    0.9274
   31.710    0.8026
   31.725    1.1593
   31.740    0.9274
   31.755    0.6242
   31.770    0.7847
   31.785    0.6956
   31.800    0.8382
   31.815    0.9809
   31.830    0.7669
   31.845    0.7312
   31.860    0.9809
   31.875    0.9988
   31.890    0.8561
   31.905    0.7134
   31.920    0.7847
   31.935    0.8382
   31.950    0.6956
   31.965    0.8204
   31.980    0.8561
   31.995    0.9809
   32.010    0.6599
   32.025    0.7847
   32.040    0.7669
   32.055    0.8026
   32.070    0.5886
   32.085    0.7312
   32.100    0.7491
   32.115    0.7312
   32.130    0.7669
   32.145    0.7669
   32.160    0.7847
   32.175    0.9274
   32.190    0.7847
   32.205    0.6421
   32.220    0.7491
   32.235    0.9452
   32.250    0.7491
   32.265    0.9988
   32.280    0.8204
   32.295    0.8204
   32.310    0.7669
   32.325    0.7134
   32.340    0.6064
   32.355    0.9274
   32.370    0.8382
   32.385    0.8026
   32.400    0.6777
   32.415    0.8026
   32.430    0.8026
   32.445    0.7847
   32.460    0.8204
   32.475    0.7669
   32.490    0.9809
   32.505    0.9631
   32.520    0.8917
   32.535    0.9274
   32.550    0.8204
   32.565    0.7491
   32.580    0.7134
   32.595    0.8382
   32.610    0.8026
   32.625    0.7134
   32.640    0.7491
   32.655    0.7312
   32.670    0.6956
   32.685    0.7491
   32.700    0.8026
   32.715    0.7669
   32.730    0.6242
   32.745    0.7847
   32.760    0.7669
   32.775    0.8561
   32.790    0.7134
   32.805    0.7312
   32.820    0.7491
   32.835    0.7312
   32.850    0.8561
   32.865    0.8026
   32.880    0.7669
   32.895    0.8561
   32.910    0.7669
   32.925    0.7669
   32.940    0.7669
   32.955    0.8026
   32.970    0.8204
   32.985    0.8917
   33.000    0.9631
   33.015    0.7847
   33.030    0.8382
   33.045    0.8026
   33.060    0.6956
   33.075    0.8026
   33.090    0.6956
   33.105    0.6956
   33.120    0.7134
   33.135    0.7312
   33.150    0.7669
   33.165    0.6956
   33.180    0.7134
   33.195    0.9274
   33.210    0.8026
   33.225    0.7669
   33.240    0.8561
   33.255    0.8561
   33.270    0.8204
   33.285    0.8026
   33.300    0.8026
   33.315    0.7312
   33.330    0.7847
   33.345    0.8739
   33.360    0.7847
   33.375    0.7669
   33.390    0.9452
   33.405    0.8739
   33.420    0.7847
   33.435    0.6242
   33.450    0.4994
   33.465    0.6599
   33.480    0.7134
   33.495    0.8917
   33.510    0.6242
   33.525    0.6956
   33.540    0.6956
   33.555    0.7491
   33.570    0.8382
   33.585    0.5707
   33.600    0.8026
   33.615    0.8026
   33.630    0.9096
   33.645    0.7847
   33.660    0.8204
   33.675    0.7312
   33.690    0.6956
   33.705    0.7134
   33.720    0.7134
   33.735    0.8204
   33.750    0.6777
   33.765    0.7134
   33.780    0.7491
   33.795    0.8917
   33.810    0.6956
   33.825    0.8204
   33.840    0.6599
   33.855    0.8026
   33.870    0.8739
   33.885    0.7312
   33.900    0.7312
   33.915    0.8561
   33.930    0.7847
   33.945    0.8204
   33.960    0.7847
   33.975    0.7847
   33.990    0.8382
   34.005    0.7669
   34.020    0.7669
   34.035    0.5886
   34.050    0.6777
   34.065    0.7134
   34.080    0.6956
   34.095    0.7491
   34.110    1.0166
   34.125    0.8739
   34.140    0.6777
   34.155    0.7134
   34.170    0.6242
   34.185    0.6956
   34.200    0.6777
   34.215    0.6956
   34.230    0.9274
   34.245    0.8561
   34.260    0.9809
   34.275    0.8561
   34.290    0.8204
   34.305    0.7312
   34.320    0.7847
   34.335    0.7491
   34.350    0.7491
   34.365    0.7669
   34.380    0.7669
   34.395    0.8382
   34.410    0.7134
   34.425    0.5172
   34.440    0.5886
   34.455    0.6956
   34.470    0.5886
   34.485    0.8739
   34.500    0.7491
   34.515    0.8026
   34.530    0.8026
   34.545    0.7847
   34.560    0.8561
   34.575    0.8026
   34.590    0.6777
   34.605    0.8382
   34.620    0.7491
   34.635    0.8382
   34.650    0.6599
   34.665    0.5529
   34.680    0.6956
   34.695    0.7491
   34.710    0.7491
   34.725    0.6421
   34.740    0.6599
   34.755    0.6599
   34.770    0.7134
   34.785    0.5707
   34.800    0.5350
   34.815    0.6956
   34.830    0.7312
   34.845    0.6242
   34.860    0.6956
   34.875    0.6777
   34.890    0.6777
   34.905    0.5350
   34.920    0.5707
   34.935    0.8204
   34.950    0.7491
   34.965    0.6599
   34.980    0.5886
   34.995    0.4815
   35.010    0.5172
   35.025    0.6242
   35.040    0.9809
   35.055    0.7847
   35.070    0.7134
   35.085    0.6777
   35.100    0.6599
   35.115    0.5707
   35.130    0.4994
   35.145    0.6064
   35.160    0.6956
   35.175    0.6956
   35.190    0.7134
   35.205    0.6421
   35.220    0.5350
   35.235    0.5350
   35.250    0.6242
   35.265    0.4815
   35.280    0.5172
   35.295    0.5529
   35.310    0.6599
   35.325    0.6064
   35.340    0.5350
   35.355    0.5172
   35.370    0.6064
   35.385    0.6599
   35.400    0.6242
   35.415    0.5707
   35.430    0.7134
   35.445    0.7491
   35.460    0.6956
   35.475    0.4815
   35.490    0.6777
   35.505    0.6242
   35.520    0.6421
   35.535    0.5707
   35.550    0.5529
   35.565    0.5350
   35.580    0.5707
   35.595    0.6421
   35.610    0.6956
   35.625    0.5707
   35.640    0.6956
   35.655    0.6777
   35.670    0.7134
   35.685    0.5886
   35.700    0.5886
   35.715    0.6064
   35.730    0.7134
   35.745    0.6599
   35.760    0.6064
   35.775    0.5707
   35.790    0.5707
   35.805    0.5350
   35.820    0.7134
   35.835    0.5529
   35.850    0.5350
   35.865    0.5529
   35.880    0.5707
   35.895    0.5886
   35.910    0.4637
   35.925    0.4815
   35.940    0.6064
   35.955    0.7134
   35.970    0.6242
   35.985    0.7491
   36.000    0.6599
   36.015    0.6956
   36.030    0.7134
   36.045    0.6599
   36.060    0.6242
   36.075    0.6064
   36.090    0.8026
   36.105    0.6242
   36.120    0.5529
   36.135    0.4994
   36.150    0.5707
   36.165    0.6242
   36.180    0.5886
   36.195    0.6421
   36.210    0.6599
   36.225    0.6421
   36.240    0.5529
   36.255    0.7312
   36.270    0.5350
   36.285    0.5350
   36.300    0.6777
   36.315    0.6242
   36.330    0.5707
   36.345    0.6956
   36.360    0.4280
   36.375    0.5529
   36.390    0.6242
   36.405    0.6242
   36.420    0.4637
   36.435    0.5886
   36.450    0.6956
   36.465    0.5350
   36.480    0.6242
   36.495    0.7491
   36.510    0.5707
   36.525    0.6242
   36.540    0.6599
   36.555    0.5529
   36.570    0.6599
   36.585    0.4815
   36.600    0.7312
   36.615    0.5707
   36.630    0.4459
   36.645    0.5350
   36.660    0.6599
   36.675    0.5350
   36.690    0.5350
   36.705    0.6421
   36.720    0.6421
   36.735    0.7847
   36.750    0.5172
   36.765    0.5172
   36.780    0.3745
   36.795    0.5707
   36.810    0.6242
   36.825    0.4994
   36.840    0.6599
   36.855    0.5350
   36.870    0.4994
   36.885    0.5529
   36.900    0.6777
   36.915    0.7134
   36.930    0.6777
   36.945    0.5886
   36.960    0.5350
   36.975    0.4815
   36.990    0.5172
   37.005    0.5707
   37.020    0.4280
   37.035    0.4815
   37.050    0.5172
   37.065    0.4815
   37.080    0.4459
   37.095    0.5529
   37.110    0.6777
   37.125    0.7134
   37.140    0.4459
   37.155    0.4815
   37.170    0.6064
   37.185    0.6064
   37.200    0.6777
   37.215    0.5529
   37.230    0.4459
   37.245    0.6956
   37.260    0.5886
   37.275    0.6242
   37.290    0.6421
   37.305    0.5886
   37.320    0.4994
   37.335    0.4815
   37.350    0.5350
   37.365    0.6242
   37.380    0.7134
   37.395    0.6777
   37.410    0.5172
   37.425    0.4815
   37.440    0.4459
   37.455    0.4637
   37.470    0.6599
   37.485    0.8026
   37.500    0.6242
   37.515    0.6421
   37.530    0.6777
   37.545    0.6064
   37.560    0.6242
   37.575    0.8561
   37.590    0.5529
   37.605    0.5172
   37.620    0.6777
   37.635    0.5350
   37.650    0.6064
   37.665    0.5172
   37.680    0.5350
   37.695    0.6064
   37.710    0.6421
   37.725    0.4280
   37.740    0.6242
   37.755    0.4815
   37.770    0.5707
   37.785    0.5350
   37.800    0.6421
   37.815    0.5707
   37.830    0.3924
   37.845    0.5707
   37.860    0.5350
   37.875    0.6599
   37.890    0.5350
   37.905    0.5350
   37.920    0.3567
   37.935    0.4102
   37.950    0.6421
   37.965    0.6242
   37.980    0.4459
   37.995    0.3924
   38.010    0.4815
   38.025    0.4994
   38.040    0.5172
   38.055    0.5350
   38.070    0.5350
   38.085    0.4815
   38.100    0.5707
   38.115    0.5172
   38.130    0.6956
   38.145    0.5707
   38.160    0.4994
   38.175    0.4459
   38.190    0.5707
   38.205    0.5350
   38.220    0.3924
   38.235    0.5886
   38.250    0.4994
   38.265    0.5529
   38.280    0.4102
   38.295    0.4994
   38.310    0.5886
   38.325    0.4815
   38.340    0.5172
   38.355    0.4637
   38.370    0.4994
   38.385    0.6242
   38.400    0.6064
   38.415    0.5707
   38.430    0.5707
   38.445    0.3567
   38.460    0.4815
   38.475    0.5707
   38.490    0.6242
   38.505    0.4994
   38.520    0.4280
   38.535    0.4994
   38.550    0.4459
   38.565    0.4994
   38.580    0.4637
   38.595    0.4280
   38.610    0.5529
   38.625    0.6064
   38.640    0.6242
   38.655    0.5707
   38.670    0.4994
   38.685    0.4102
   38.700    0.5172
   38.715    0.5172
   38.730    0.4637
   38.745    0.6064
   38.760    0.6421
   38.775    0.4102
   38.790    0.5350
   38.805    0.4637
   38.820    0.6599
   38.835    0.5707
   38.850    0.3567
   38.865    0.4459
   38.880    0.5172
   38.895    0.4280
   38.910    0.6599
   38.925    0.4815
   38.940    0.4637
   38.955    0.4459
   38.970    0.3389
   38.985    0.6242
   39.000    0.4994
   39.015    0.5529
   39.030    0.4994
   39.045    0.4102
   39.060    0.3032
   39.075    0.5172
   39.090    0.5886
   39.105    0.4102
   39.120    0.5350
   39.135    0.5350
   39.150    0.4994
   39.165    0.3210
   39.180    0.4280
   39.195    0.4459
   39.210    0.3924
   39.225    0.3210
   39.240    0.4994
   39.255    0.4459
   39.270    0.4994
   39.285    0.5350
   39.300    0.4637
   39.315    0.4102
   39.330    0.3924
   39.345    0.4280
   39.360    0.4459
   39.375    0.5707
   39.390    0.4102
   39.405    0.3924
   39.420    0.5707
   39.435    0.5350
   39.450    0.5350
   39.465    0.5172
   39.480    0.4994
   39.495    0.4815
   39.510    0.3389
   39.525    0.4637
   39.540    0.4994
   39.555    0.3924
   39.570    0.4280
   39.585    0.4815
   39.600    0.4280
   39.615    0.4102
   39.630    0.4994
   39.645    0.3924
   39.660    0.3567
   39.675    0.3745
   39.690    0.4637
   39.705    0.3924
   39.720    0.5172
   39.735    0.6599
   39.750    0.4994
   39.765    0.4459
   39.780    0.4815
   39.795    0.4637
   39.810    0.4280
   39.825    0.3924
   39.840    0.3745
   39.855    0.3032
   39.870    0.3924
   39.885    0.4637
   39.900    0.3924
   39.915    0.4459
   39.930    0.4815
   39.945    0.4102
   39.960    0.4459
   39.975    0.5172
   39.990    0.4815
   40.005    0.4280
   40.020    0.3389
   40.035    0.4459
   40.050    0.4637
   40.065    0.6064
   40.080    0.4815
   40.095    0.6421
   40.110    0.4280
   40.125    0.5707
   40.140    0.5350
   40.155    0.4459
   40.170    0.5172
   40.185    0.4994
   40.200    0.4994
   40.215    0.3924
   40.230    0.3745
   40.245    0.3924
   40.260    0.3567
   40.275    0.4637
   40.290    0.4280
   40.305    0.4102
   40.320    0.3924
   40.335    0.4280
   40.350    0.3745
   40.365    0.2854
   40.380    0.3924
   40.395    0.4280
   40.410    0.3567
   40.425    0.4459
   40.440    0.4637
   40.455    0.4280
   40.470    0.4459
   40.485    0.5350
   40.500    0.4102
   40.515    0.5350
   40.530    0.4994
   40.545    0.4459
   40.560    0.4994
   40.575    0.4637
   40.590    0.4459
   40.605    0.3924
   40.620    0.3389
   40.635    0.5172
   40.650    0.5707
   40.665    0.5886
   40.680    0.6064
   40.695    0.4815
   40.710    0.4102
   40.725    0.4102
   40.740    0.3924
   40.755    0.5529
   40.770    0.4637
   40.785    0.5350
   40.800    0.4815
   40.815    0.5350
   40.830    0.4280
   40.845    0.4637
   40.860    0.5886
   40.875    0.5172
   40.890    0.4637
   40.905    0.3567
   40.920    0.4637
   40.935    0.4459
   40.950    0.2675
   40.965    0.4815
   40.980    0.4102
   40.995    0.5172
   41.010    0.3389
   41.025    0.4637
   41.040    0.4637
   41.055    0.4815
   41.070    0.6064
   41.085    0.4994
   41.100    0.3745
   41.115    0.4637
   41.130    0.4815
   41.145    0.4459
   41.160    0.4102
   41.175    0.4459
   41.190    0.4102
   41.205    0.4815
   41.220    0.4637
   41.235    0.4102
   41.250    0.4994
   41.265    0.3745
   41.280    0.4102
   41.295    0.6599
   41.310    0.5886
   41.325    0.4994
   41.340    0.4102
   41.355    0.3389
   41.370    0.3745
   41.385    0.4280
   41.400    0.4815
   41.415    0.4459
   41.430    0.4102
   41.445    0.5707
   41.460    0.6242
   41.475    0.4637
   41.490    0.5172
   41.505    0.4815
   41.520    0.3032
   41.535    0.3745
   41.550    0.3389
   41.565    0.3567
   41.580    0.4459
   41.595    0.3924
   41.610    0.3924
   41.625    0.4102
   41.640    0.4280
   41.655    0.5172
   41.670    0.5172
   41.685    0.5529
   41.700    0.4994
   41.715    0.4815
   41.730    0.5529
   41.745    0.4459
   41.760    0.3745
   41.775    0.4637
   41.790    0.5886
   41.805    0.4637
   41.820    0.4637
   41.835    0.4459
   41.850    0.5172
   41.865    0.5350
   41.880    0.4637
   41.895    0.5707
   41.910    0.3924
   41.925    0.4815
   41.940    0.4994
   41.955    0.5172
   41.970    0.5886
   41.985    0.5350
   42.000    0.4280
   42.015    0.3389
   42.030    0.4637
   42.045    0.4280
   42.060    0.5529
   42.075    0.4459
   42.090    0.6064
   42.105    0.4459
   42.120    0.3745
   42.135    0.4102
   42.150    0.4102
   42.165    0.3924
   42.180    0.3745
   42.195    0.3032
   42.210    0.3032
   42.225    0.4280
   42.240    0.3389
   42.255    0.2497
   42.270    0.3745
   42.285    0.3924
   42.300    0.3032
   42.315    0.3745
   42.330    0.4102
   42.345    0.3567
   42.360    0.3745
   42.375    0.3567
   42.390    0.3210
   42.405    0.3745
   42.420    0.3567
   42.435    0.4637
   42.450    0.3924
   42.465    0.3745
   42.480    0.5350
   42.495    0.4637
   42.510    0.3389
   42.525    0.3924
   42.540    0.4459
   42.555    0.4280
   42.570    0.4637
   42.585    0.4815
   42.600    0.4815
   42.615    0.3745
   42.630    0.3924
   42.645    0.4459
   42.660    0.5172
   42.675    0.3567
   42.690    0.4459
   42.705    0.3924
   42.720    0.4815
   42.735    0.4280
   42.750    0.4994
   42.765    0.3389
   42.780    0.5172
   42.795    0.4815
   42.810    0.4459
   42.825    0.2854
   42.840    0.3924
   42.855    0.5529
   42.870    0.4459
   42.885    0.2854
   42.900    0.3567
   42.915    0.4280
   42.930    0.4280
   42.945    0.4280
   42.960    0.3210
   42.975    0.3745
   42.990    0.5172
   43.005    0.4637
   43.020    0.5529
   43.035    0.4994
   43.050    0.4280
   43.065    0.3567
   43.080    0.4102
   43.095    0.4102
   43.110    0.3924
   43.125    0.4994
   43.140    0.4102
   43.155    0.3924
   43.170    0.4994
   43.185    0.5350
   43.200    0.3924
   43.215    0.4459
   43.230    0.4994
   43.245    0.4994
   43.260    0.3924
   43.275    0.3210
   43.290    0.3924
   43.305    0.5886
   43.320    0.4280
   43.335    0.4280
   43.350    0.3745
   43.365    0.4994
   43.380    0.3745
   43.395    0.3745
   43.410    0.4459
   43.425    0.3924
   43.440    0.4637
   43.455    0.4459
   43.470    0.4994
   43.485    0.3032
   43.500    0.3924
   43.515    0.3745
   43.530    0.3924
   43.545    0.4102
   43.560    0.4637
   43.575    0.3567
   43.590    0.4459
   43.605    0.5707
   43.620    0.3745
   43.635    0.4280
   43.650    0.2675
   43.665    0.3389
   43.680    0.2675
   43.695    0.3567
   43.710    0.4994
   43.725    0.4637
   43.740    0.5529
   43.755    0.3032
   43.770    0.3567
   43.785    0.3389
   43.800    0.3567
   43.815    0.5529
   43.830    0.5350
   43.845    0.3210
   43.860    0.3924
   43.875    0.3924
   43.890    0.4280
   43.905    0.4102
   43.920    0.4102
   43.935    0.5172
   43.950    0.3745
   43.965    0.4815
   43.980    0.4280
   43.995    0.4994
   44.010    0.3745
   44.025    0.3389
   44.040    0.3924
   44.055    0.4815
   44.070    0.5707
   44.085    0.3924
   44.100    0.5529
   44.115    0.3389
   44.130    0.3210
   44.145    0.6242
   44.160    0.4637
   44.175    0.3210
   44.190    0.3567
   44.205    0.3567
   44.220    0.3924
   44.235    0.4280
   44.250    0.3567
   44.265    0.4637
   44.280    0.3924
   44.295    0.3924
   44.310    0.4637
   44.325    0.3924
   44.340    0.3210
   44.355    0.3924
   44.370    0.3210
   44.385    0.3210
   44.400    0.3924
   44.415    0.3924
   44.430    0.4280
   44.445    0.4102
   44.460    0.3924
   44.475    0.3745
   44.490    0.4815
   44.505    0.3745
   44.520    0.3210
   44.535    0.4815
   44.550    0.4637
   44.565    0.3210
   44.580    0.3745
   44.595    0.3032
   44.610    0.3924
   44.625    0.3210
   44.640    0.4102
   44.655    0.4102
   44.670    0.5529
   44.685    0.5172
   44.700    0.4459
   44.715    0.4280
   44.730    0.4459
   44.745    0.3389
   44.760    0.4280
   44.775    0.4637
   44.790    0.5172
   44.805    0.4637
   44.820    0.3389
   44.835    0.4280
   44.850    0.3745
   44.865    0.5350
   44.880    0.3210
   44.895    0.3567
   44.910    0.3210
   44.925    0.3210
   44.940    0.4102
   44.955    0.5350
   44.970    0.3210
   44.985    0.4459
   45.000    0.4815
   45.015    0.3924
   45.030    0.3745
   45.045    0.3389
   45.060    0.4280
   45.075    0.3745
   45.090    0.3567
   45.105    0.3924
   45.120    0.3210
   45.135    0.3210
   45.150    0.4637
   45.165    0.4459
   45.180    0.3745
   45.195    0.4102
   45.210    0.4280
   45.225    0.4102
   45.240    0.4994
   45.255    0.4102
   45.270    0.3567
   45.285    0.4102
   45.300    0.3567
   45.315    0.3745
   45.330    0.3567
   45.345    0.5350
   45.360    0.5707
   45.375    0.3924
   45.390    0.3210
   45.405    0.3924
   45.420    0.4637
   45.435    0.3924
   45.450    0.4280
   45.465    0.3924
   45.480    0.4280
   45.495    0.3745
   45.510    0.4102
   45.525    0.3032
   45.540    0.3032
   45.555    0.2854
   45.570    0.4637
   45.585    0.4815
   45.600    0.4459
   45.615    0.4102
   45.630    0.3389
   45.645    0.3389
   45.660    0.4994
   45.675    0.3389
   45.690    0.4102
   45.705    0.3745
   45.720    0.4102
   45.735    0.4815
   45.750    0.1962
   45.765    0.3032
   45.780    0.4280
   45.795    0.4815
   45.810    0.4280
   45.825    0.5350
   45.840    0.3745
   45.855    0.3745
   45.870    0.2675
   45.885    0.4102
   45.900    0.4280
   45.915    0.4459
   45.930    0.2854
   45.945    0.3032
   45.960    0.5529
   45.975    0.5172
   45.990    0.3032
   46.005    0.2675
   46.020    0.3210
   46.035    0.3924
   46.050    0.3567
   46.065    0.3567
   46.080    0.1962
   46.095    0.2497
   46.110    0.3210
   46.125    0.3745
   46.140    0.3924
   46.155    0.3032
   46.170    0.4815
   46.185    0.3389
   46.200    0.3389
   46.215    0.3389
   46.230    0.4280
   46.245    0.3389
   46.260    0.2854
   46.275    0.4637
   46.290    0.4637
   46.305    0.4280
   46.320    0.4994
   46.335    0.4459
   46.350    0.4994
   46.365    0.3924
   46.380    0.3567
   46.395    0.2497
   46.410    0.3389
   46.425    0.4102
   46.440    0.4815
   46.455    0.4459
   46.470    0.3745
   46.485    0.3745
   46.500    0.3567
   46.515    0.4102
   46.530    0.1962
   46.545    0.4280
   46.560    0.3032
   46.575    0.3389
   46.590    0.4280
   46.605    0.3567
   46.620    0.3032
   46.635    0.3567
   46.650    0.4459
   46.665    0.4459
   46.680    0.4637
   46.695    0.3924
   46.710    0.4459
   46.725    0.4637
   46.740    0.4994
   46.755    0.3210
   46.770    0.3567
   46.785    0.2854
   46.800    0.3032
   46.815    0.3924
   46.830    0.4102
   46.845    0.4102
   46.860    0.3567
   46.875    0.4280
   46.890    0.3210
   46.905    0.2854
   46.920    0.3567
   46.935    0.3032
   46.950    0.3745
   46.965    0.4815
   46.980    0.4637
   46.995    0.4459
   47.010    0.2854
   47.025    0.3210
   47.040    0.3567
   47.055    0.3032
   47.070    0.3210
   47.085    0.3389
   47.100    0.3924
   47.115    0.2140
   47.130    0.3924
   47.145    0.2675
   47.160    0.3745
   47.175    0.3567
   47.190    0.3924
   47.205    0.4102
   47.220    0.4280
   47.235    0.3924
   47.250    0.3210
   47.265    0.2675
   47.280    0.4459
   47.295    0.4815
   47.310    0.3567
   47.325    0.4994
   47.340    0.4102
   47.355    0.4102
   47.370    0.2497
   47.385    0.3745
   47.400    0.3389
   47.415    0.3389
   47.430    0.4280
   47.445    0.4102
   47.460    0.2319
   47.475    0.2854
   47.490    0.2319
   47.505    0.4102
   47.520    0.3745
   47.535    0.3210
   47.550    0.1962
   47.565    0.2854
   47.580    0.4102
   47.595    0.3389
   47.610    0.4102
   47.625    0.2497
   47.640    0.4637
   47.655    0.4102
   47.670    0.4459
   47.685    0.4637
   47.700    0.4280
   47.715    0.4994
   47.730    0.3567
   47.745    0.3567
   47.760    0.4280
   47.775    0.3567
   47.790    0.3567
   47.805    0.3924
   47.820    0.2854
   47.835    0.2675
   47.850    0.3924
   47.865    0.3032
   47.880    0.1962
   47.895    0.3389
   47.910    0.3567
   47.925    0.3745
   47.940    0.2675
   47.955    0.3924
   47.970    0.4459
   47.985    0.4280
   48.000    0.3745
   48.015    0.4815
   48.030    0.4102
   48.045    0.4637
   48.060    0.4459
   48.075    0.3924
   48.090    0.3032
   48.105    0.3745
   48.120    0.4102
   48.135    0.3924
   48.150    0.4459
   48.165    0.4102
   48.180    0.5350
   48.195    0.4102
   48.210    0.3210
   48.225    0.3210
   48.240    0.3567
   48.255    0.3567
   48.270    0.5172
   48.285    0.3032
   48.300    0.3389
   48.315    0.3032
   48.330    0.5172
   48.345    0.5172
   48.360    0.4102
   48.375    0.3389
   48.390    0.3567
   48.405    0.2675
   48.420    0.3567
   48.435    0.3210
   48.450    0.3567
   48.465    0.4459
   48.480    0.3745
   48.495    0.3389
   48.510    0.4102
   48.525    0.3389
   48.540    0.3032
   48.555    0.2319
   48.570    0.3032
   48.585    0.3567
   48.600    0.3389
   48.615    0.3924
   48.630    0.3567
   48.645    0.3210
   48.660    0.4102
   48.675    0.3745
   48.690    0.2319
   48.705    0.2854
   48.720    0.2854
   48.735    0.2854
   48.750    0.3389
   48.765    0.3924
   48.780    0.2675
   48.795    0.3745
   48.810    0.4102
   48.825    0.3032
   48.840    0.3032
   48.855    0.3389
   48.870    0.2854
   48.885    0.4459
   48.900    0.2319
   48.915    0.3210
   48.930    0.3389
   48.945    0.4994
   48.960    0.2497
   48.975    0.3032
   48.990    0.3745
   49.005    0.4280
   49.020    0.4102
   49.035    0.3032
   49.050    0.4815
   49.065    0.2497
   49.080    0.2854
   49.095    0.3567
   49.110    0.4637
   49.125    0.1783
   49.140    0.3210
   49.155    0.4102
   49.170    0.4459
   49.185    0.3924
   49.200    0.3745
   49.215    0.3032
   49.230    0.3745
   49.245    0.4102
   49.260    0.4459
   49.275    0.4280
   49.290    0.2854
   49.305    0.3032
   49.320    0.3389
   49.335    0.2140
   49.350    0.3567
   49.365    0.4102
   49.380    0.2675
   49.395    0.3210
   49.410    0.2319
   49.425    0.3389
   49.440    0.3745
   49.455    0.2140
   49.470    0.2497
   49.485    0.3389
   49.500    0.3389
   49.515    0.4280
   49.530    0.3924
   49.545    0.2854
   49.560    0.3924
   49.575    0.3924
   49.590    0.4102
   49.605    0.3389
   49.620    0.5172
   49.635    0.3924
   49.650    0.3032
   49.665    0.3032
   49.680    0.2140
   49.695    0.2497
   49.710    0.3032
   49.725    0.2140
   49.740    0.1962
   49.755    0.3389
   49.770    0.3389
   49.785    0.2675
   49.800    0.2854
   49.815    0.2497
   49.830    0.2854
   49.845    0.3032
   49.860    0.4459
   49.875    0.3210
   49.890    0.2854
   49.905    0.3389
   49.920    0.4815
   49.935    0.2497
   49.950    0.3032
   49.965    0.3745
   49.980    0.4280
   49.995    0.3924
   50.010    0.3745
   50.025    0.3032
   50.040    0.3745
   50.055    0.3210
   50.070    0.3924
   50.085    0.3389
   50.100    0.4459
   50.115    0.3924
   50.130    0.2854
   50.145    0.4280
   50.160    0.3210
   50.175    0.1783
   50.190    0.2497
   50.205    0.3210
   50.220    0.3567
   50.235    0.3567
   50.250    0.3032
   50.265    0.3389
   50.280    0.3924
   50.295    0.3032
   50.310    0.3924
   50.325    0.3567
   50.340    0.3924
   50.355    0.3210
   50.370    0.3210
   50.385    0.3567
   50.400    0.3032
   50.415    0.3924
   50.430    0.3389
   50.445    0.3745
   50.460    0.5350
   50.475    0.4637
   50.490    0.2854
   50.505    0.3389
   50.520    0.4815
   50.535    0.3210
   50.550    0.2675
   50.565    0.3745
   50.580    0.3389
   50.595    0.3745
   50.610    0.3032
   50.625    0.2497
   50.640    0.2675
   50.655    0.3567
   50.670    0.3924
   50.685    0.3032
   50.700    0.2675
   50.715    0.1962
   50.730    0.2854
   50.745    0.3567
   50.760    0.3745
   50.775    0.3745
   50.790    0.3567
   50.805    0.4102
   50.820    0.3745
   50.835    0.2675
   50.850    0.2854
   50.865    0.3032
   50.880    0.4102
   50.895    0.4994
   50.910    0.2675
   50.925    0.2140
   50.940    0.3389
   50.955    0.1962
   50.970    0.3210
   50.985    0.3567
   51.000    0.5172
   51.015    0.3210
   51.030    0.3210
   51.045    0.1962
   51.060    0.2675
   51.075    0.2675
   51.090    0.2675
   51.105    0.2497
   51.120    0.2319
   51.135    0.3924
   51.150    0.3389
   51.165    0.3745
   51.180    0.3032
   51.195    0.3210
   51.210    0.3032
   51.225    0.4280
   51.240    0.4102
   51.255    0.3924
   51.270    0.3567
   51.285    0.3567
   51.300    0.3567
   51.315    0.3924
   51.330    0.2140
   51.345    0.2854
   51.360    0.3210
   51.375    0.2497
   51.390    0.2319
   51.405    0.2854
   51.420    0.3210
   51.435    0.4459
   51.450    0.4637
   51.465    0.3389
   51.480    0.2854
   51.495    0.4280
   51.510    0.3210
   51.525    0.3745
   51.540    0.4102
   51.555    0.2497
   51.570    0.2675
   51.585    0.4102
   51.600    0.5886
   51.615    0.3745
   51.630    0.3745
   51.645    0.3745
   51.660    0.4280
   51.675    0.3567
   51.690    0.4102
   51.705    0.3567
   51.720    0.2140
   51.735    0.3032
   51.750    0.1783
   51.765    0.3210
   51.780    0.5529
   51.795    0.4815
   51.810    0.4994
   51.825    0.3924
   51.840    0.4459
   51.855    0.3924
   51.870    0.3389
   51.885    0.2319
   51.900    0.4280
   51.915    0.2854
   51.930    0.3210
   51.945    0.3032
   51.960    0.3745
   51.975    0.2675
   51.990    0.4102
   52.005    0.5172
   52.020    0.3210
   52.035    0.3032
   52.050    0.3567
   52.065    0.3924
   52.080    0.3924
   52.095    0.4280
   52.110    0.4994
   52.125    0.4102
   52.140    0.4815
   52.155    0.4280
   52.170    0.5350
   52.185    0.3389
   52.200    0.3210
   52.215    0.3032
   52.230    0.3210
   52.245    0.3924
   52.260    0.3567
   52.275    0.3210
   52.290    0.2854
   52.305    0.4280
   52.320    0.3745
   52.335    0.4459
   52.350    0.4102
   52.365    0.3924
   52.380    0.4102
   52.395    0.3745
   52.410    0.3389
   52.425    0.2854
   52.440    0.3032
   52.455    0.3745
   52.470    0.3210
   52.485    0.3032
   52.500    0.3210
   52.515    0.2675
   52.530    0.3032
   52.545    0.3210
   52.560    0.4102
   52.575    0.3567
   52.590    0.2497
   52.605    0.3032
   52.620    0.3924
   52.635    0.3210
   52.650    0.4102
   52.665    0.4459
   52.680    0.3567
   52.695    0.3032
   52.710    0.2497
   52.725    0.3210
   52.740    0.3567
   52.755    0.1962
   52.770    0.3032
   52.785    0.3210
   52.800    0.3389
   52.815    0.4280
   52.830    0.3567
   52.845    0.3745
   52.860    0.2854
   52.875    0.4102
   52.890    0.3389
   52.905    0.3032
   52.920    0.3924
   52.935    0.3745
   52.950    0.3032
   52.965    0.3745
   52.980    0.4102
   52.995    0.4459
   53.010    0.3924
   53.025    0.4280
   53.040    0.3389
   53.055    0.2319
   53.070    0.3745
   53.085    0.4102
   53.100    0.2675
   53.115    0.3567
   53.130    0.2497
   53.145    0.3924
   53.160    0.3210
   53.175    0.3745
   53.190    0.3745
   53.205    0.3210
   53.220    0.3924
   53.235    0.3210
   53.250    0.2319
   53.265    0.3745
   53.280    0.2497
   53.295    0.3210
   53.310    0.3032
   53.325    0.2675
   53.340    0.3389
   53.355    0.3745
   53.370    0.2854
   53.385    0.4815
   53.400    0.3924
   53.415    0.3924
   53.430    0.3389
   53.445    0.2675
   53.460    0.3032
   53.475    0.2319
   53.490    0.3924
   53.505    0.3567
   53.520    0.3032
   53.535    0.2675
   53.550    0.3567
   53.565    0.2497
   53.580    0.2319
   53.595    0.3032
   53.610    0.3210
   53.625    0.4815
   53.640    0.3032
   53.655    0.4102
   53.670    0.3924
   53.685    0.3032
   53.700    0.2854
   53.715    0.4637
   53.730    0.5529
   53.745    0.4280
   53.760    0.4459
   53.775    0.3389
   53.790    0.4459
   53.805    0.3389
   53.820    0.4637
   53.835    0.3567
   53.850    0.3924
   53.865    0.3924
   53.880    0.3389
   53.895    0.2675
   53.910    0.2854
   53.925    0.3389
   53.940    0.2854
   53.955    0.3389
   53.970    0.3924
   53.985    0.3210
   54.000    0.3924
   54.015    0.3745
   54.030    0.3389
   54.045    0.4637
   54.060    0.3924
   54.075    0.4459
   54.090    0.4280
   54.105    0.3567
   54.120    0.3032
   54.135    0.4102
   54.150    0.2675
   54.165    0.3032
   54.180    0.2675
   54.195    0.3567
   54.210    0.2675
   54.225    0.2497
   54.240    0.3210
   54.255    0.3210
   54.270    0.3210
   54.285    0.4459
   54.300    0.3745
   54.315    0.3745
   54.330    0.3389
   54.345    0.3745
   54.360    0.3389
   54.375    0.4102
   54.390    0.4280
   54.405    0.3389
   54.420    0.3210
   54.435    0.2319
   54.450    0.2497
   54.465    0.3032
   54.480    0.3567
   54.495    0.3924
   54.510    0.2675
   54.525    0.3032
   54.540    0.3210
   54.555    0.3032
   54.570    0.4102
   54.585    0.2675
   54.600    0.2497
   54.615    0.4637
   54.630    0.2319
   54.645    0.2675
   54.660    0.2497
   54.675    0.2675
   54.690    0.2675
   54.705    0.3032
   54.720    0.3924
   54.735    0.3210
   54.750    0.2319
   54.765    0.2854
   54.780    0.3210
   54.795    0.3210
   54.810    0.3745
   54.825    0.2319
   54.840    0.3389
   54.855    0.3567
   54.870    0.3389
   54.885    0.3389
   54.900    0.2854
   54.915    0.3210
   54.930    0.4102
   54.945    0.5172
   54.960    0.4102
   54.975    0.4280
   54.990    0.3389
   55.005    0.3032
   55.020    0.3745
   55.035    0.2854
   55.050    0.3567
   55.065    0.3567
   55.080    0.3745
   55.095    0.3389
   55.110    0.3745
   55.125    0.2854
   55.140    0.3567
   55.155    0.2854
   55.170    0.2854
   55.185    0.3389
   55.200    0.3567
   55.215    0.4102
   55.230    0.3210
   55.245    0.3210
   55.260    0.3745
   55.275    0.4459
   55.290    0.2854
   55.305    0.3032
   55.320    0.3745
   55.335    0.3567
   55.350    0.3210
   55.365    0.3389
   55.380    0.3032
   55.395    0.5172
   55.410    0.3567
   55.425    0.3210
   55.440    0.2675
   55.455    0.4280
   55.470    0.4102
   55.485    0.3389
   55.500    0.3745
   55.515    0.3745
   55.530    0.4102
   55.545    0.2854
   55.560    0.2854
   55.575    0.4280
   55.590    0.3210
   55.605    0.3210
   55.620    0.3210
   55.635    0.2319
   55.650    0.2319
   55.665    0.2854
   55.680    0.2497
   55.695    0.2675
   55.710    0.3745
   55.725    0.3924
   55.740    0.3924
   55.755    0.3745
   55.770    0.3567
   55.785    0.3567
   55.800    0.3567
   55.815    0.1962
   55.830    0.3745
   55.845    0.3210
   55.860    0.4102
   55.875    0.2675
   55.890    0.3745
   55.905    0.3210
   55.920    0.3924
   55.935    0.4280
   55.950    0.2675
   55.965    0.3210
   55.980    0.3745
   55.995    0.3032
   56.010    0.2319
   56.025    0.3745
   56.040    0.3567
   56.055    0.2675
   56.070    0.2319
   56.085    0.3389
   56.100    0.3032
   56.115    0.3032
   56.130    0.3032
   56.145    0.3389
   56.160    0.3924
   56.175    0.2854
   56.190    0.3032
   56.205    0.4102
   56.220    0.3210
   56.235    0.2319
   56.250    0.3210
   56.265    0.4815
   56.280    0.3567
   56.295    0.2854
   56.310    0.2675
   56.325    0.3389
   56.340    0.3210
   56.355    0.1605
   56.370    0.2319
   56.385    0.2497
   56.400    0.2140
   56.415    0.3924
   56.430    0.3745
   56.445    0.3745
   56.460    0.2497
   56.475    0.3745
   56.490    0.3032
   56.505    0.2854
   56.520    0.3032
   56.535    0.1962
   56.550    0.3389
   56.565    0.3567
   56.580    0.2497
   56.595    0.2140
   56.610    0.3210
   56.625    0.3210
   56.640    0.3210
   56.655    0.3389
   56.670    0.3745
   56.685    0.1783
   56.700    0.2854
   56.715    0.3389
   56.730    0.1962
   56.745    0.2497
   56.760    0.4280
   56.775    0.2854
   56.790    0.2854
   56.805    0.2854
   56.820    0.2497
   56.835    0.1962
   56.850    0.2675
   56.865    0.4280
   56.880    0.3567
   56.895    0.1962
   56.910    0.3567
   56.925    0.2675
   56.940    0.3032
   56.955    0.2854
   56.970    0.2497
   56.985    0.2497
   57.000    0.3567
   57.015    0.3210
   57.030    0.3210
   57.045    0.2497
   57.060    0.3745
   57.075    0.2854
   57.090    0.3924
   57.105    0.2854
   57.120    0.2854
   57.135    0.3032
   57.150    0.2497
   57.165    0.3210
   57.180    0.3389
   57.195    0.1783
   57.210    0.3745
   57.225    0.3032
   57.240    0.3032
   57.255    0.1962
   57.270    0.1248
   57.285    0.2675
   57.300    0.2140
   57.315    0.2319
   57.330    0.2854
   57.345    0.2140
   57.360    0.2497
   57.375    0.2497
   57.390    0.3389
   57.405    0.2319
   57.420    0.2497
   57.435    0.3389
   57.450    0.2854
   57.465    0.2675
   57.480    0.2319
   57.495    0.2140
   57.510    0.3745
   57.525    0.4102
   57.540    0.3032
   57.555    0.2319
   57.570    0.3389
   57.585    0.2319
   57.600    0.3210
   57.615    0.3032
   57.630    0.3032
   57.645    0.1605
   57.660    0.1962
   57.675    0.2675
   57.690    0.3567
   57.705    0.2675
   57.720    0.3567
   57.735    0.3032
   57.750    0.2675
   57.765    0.3745
   57.780    0.2675
   57.795    0.3389
   57.810    0.2497
   57.825    0.3210
   57.840    0.3389
   57.855    0.1605
   57.870    0.2854
   57.885    0.2497
   57.900    0.2675
   57.915    0.3567
   57.930    0.3745
   57.945    0.2854
   57.960    0.1962
   57.975    0.2140
   57.990    0.2140
   58.005    0.3210
   58.020    0.4280
   58.035    0.3032
   58.050    0.2675
   58.065    0.3924
   58.080    0.3210
   58.095    0.2319
   58.110    0.2854
   58.125    0.2675
   58.140    0.2319
   58.155    0.3924
   58.170    0.2497
   58.185    0.2854
   58.200    0.2854
   58.215    0.2854
   58.230    0.4280
   58.245    0.3032
   58.260    0.2675
   58.275    0.1962
   58.290    0.1962
   58.305    0.3032
   58.320    0.2854
   58.335    0.3210
   58.350    0.1783
   58.365    0.3210
   58.380    0.3567
   58.395    0.2140
   58.410    0.1783
   58.425    0.3032
   58.440    0.2497
   58.455    0.3567
   58.470    0.2854
   58.485    0.3389
   58.500    0.3745
   58.515    0.3032
   58.530    0.2675
   58.545    0.2854
   58.560    0.2675
   58.575    0.2497
   58.590    0.2319
   58.605    0.1783
   58.620    0.2140
   58.635    0.2854
   58.650    0.2854
   58.665    0.3210
   58.680    0.2497
   58.695    0.2854
   58.710    0.4102
   58.725    0.3032
   58.740    0.2319
   58.755    0.2675
   58.770    0.1962
   58.785    0.1783
   58.800    0.2497
   58.815    0.3389
   58.830    0.3032
   58.845    0.3567
   58.860    0.2854
   58.875    0.3745
   58.890    0.2497
   58.905    0.2497
   58.920    0.2854
   58.935    0.2854
   58.950    0.3745
   58.965    0.3567
   58.980    0.2854
   58.995    0.2675
   59.010    0.2140
   59.025    0.4280
   59.040    0.2497
   59.055    0.2497
   59.070    0.2854
   59.085    0.1962
   59.100    0.2675
   59.115    0.2854
   59.130    0.2675
   59.145    0.3210
   59.160    0.2140
   59.175    0.2497
   59.190    0.2675
   59.205    0.1962
   59.220    0.1427
   59.235    0.3032
   59.250    0.3210
   59.265    0.2140
   59.280    0.2319
   59.295    0.2319
   59.310    0.2497
   59.325    0.3924
   59.340    0.3389
   59.355    0.1962
   59.370    0.1962
   59.385    0.3032
   59.400    0.3032
   59.415    0.2319
   59.430    0.1962
   59.445    0.2854
   59.460    0.3032
   59.475    0.3032
   59.490    0.4102
   59.505    0.2675
   59.520    0.2319
   59.535    0.1783
   59.550    0.2140
   59.565    0.2675
   59.580    0.2854
   59.595    0.2497
   59.610    0.1962
   59.625    0.3389
   59.640    0.3032
   59.655    0.3567
   59.670    0.2140
   59.685    0.2497
   59.700    0.2497
   59.715    0.2675
   59.730    0.2854
   59.745    0.2497
   59.760    0.1962
   59.775    0.2497
   59.790    0.2497
   59.805    0.3032
   59.820    0.3389
   59.835    0.3210
   59.850    0.2497
   59.865    0.3210
   59.880    0.2497
   59.895    0.3389
   59.910    0.2497
   59.925    0.2140
   59.940    0.2497
   59.955    0.2319
   59.970    0.3032
   59.985    0.2854
