    1.500   11.3744
    1.515   11.6377
    1.530   11.1111
    1.545   10.9531
    1.560   11.1111
    1.575   10.9215
    1.590   10.8899
    1.605   10.8162
    1.620   10.4265
    1.635   10.4055
    1.650   10.1422
    1.665   10.0895
    1.680    9.9737
    1.695    9.5103
    1.710    9.8894
    1.725    9.5629
    1.740    9.7314
    1.755    9.3628
    1.770    9.0574
    1.785    9.3628
    1.800    9.2470
    1.815    8.8468
    1.830    8.8152
    1.845    9.2048
    1.860    9.0469
    1.875    8.5413
    1.890    9.0574
    1.905    9.2786
    1.920    9.1943
    1.935    8.8784
    1.950    8.4781
    1.965    8.4360
    1.980    8.1727
    1.995    8.3834
    2.010    8.5413
    2.025    8.0990
    2.040    7.9831
    2.055    8.1306
    2.070    8.0569
    2.085    7.7725
    2.100    7.4566
    2.115    7.4882
    2.130    7.8568
    2.145    7.4460
    2.160    7.2565
    2.175    7.2249
    2.190    7.2459
    2.205    7.5197
    2.220    7.4250
    2.235    7.6356
    2.250    7.2670
    2.265    7.2038
    2.280    7.5408
    2.295    7.3196
    2.310    7.1406
    2.325    7.5724
    2.340    6.8036
    2.355    6.9721
    2.370    7.3723
    2.385    6.8773
    2.400    6.7404
    2.415    6.4666
    2.430    6.7509
    2.445    6.7509
    2.460    6.7509
    2.475    7.0563
    2.490    6.6245
    2.505    6.5298
    2.520    6.8352
    2.535    6.7930
    2.550    6.7930
    2.565    6.7509
    2.580    6.7930
    2.595    6.4666
    2.610    6.8562
    2.625    6.6351
    2.640    6.4350
    2.655    6.5087
    2.670    6.3296
    2.685    6.5508
    2.700    6.6245
    2.715    6.5087
    2.730    6.4876
    2.745    5.9926
    2.760    6.6456
    2.775    6.4876
    2.790    6.1927
    2.805    6.5403
    2.820    6.5298
    2.835    6.5719
    2.850    6.7193
    2.865    6.4034
    2.880    6.1717
    2.895    6.6456
    2.910    6.2770
    2.925    6.3402
    2.940    6.3402
    2.955    6.0769
    2.970    6.2559
    2.985    6.2243
    3.000    6.4034
    3.015    6.0769
    3.030    6.3823
    3.045    6.3612
    3.060    6.0348
    3.075    6.0769
    3.090    5.8978
    3.105    6.0979
    3.120    6.2033
    3.135    5.9189
    3.150    5.9189
    3.165    6.1717
    3.180    5.9294
    3.195    5.9821
    3.210    5.6872
    3.225    5.8347
    3.240    6.0453
    3.255    5.7609
    3.270    5.8136
    3.285    5.9716
    3.300    6.0348
    3.315    6.0348
    3.330    6.0664
    3.345    6.0032
    3.360    6.3296
    3.375    6.3507
    3.390    6.1822
    3.405    5.9610
    3.420    6.3086
    3.435    6.2770
    3.450    6.4139
    3.465    6.0137
    3.480    6.1295
    3.495    6.2033
    3.510    6.0453
    3.525    6.0979
    3.540    5.9716
    3.555    5.8768
    3.570    6.1717
    3.585    5.9926
    3.600    6.0137
    3.615    5.9084
    3.630    6.4350
    3.645    6.1927
    3.660    5.7925
    3.675    5.6661
    3.690    5.9505
    3.705    6.3928
    3.720    6.1822
    3.735    6.3928
    3.750    6.5192
    3.765    6.3718
    3.780    6.4666
    3.795    6.3718
    3.810    6.3718
    3.825    6.5613
    3.840    6.6456
    3.855    7.0774
    3.870    6.6983
    3.885    6.9510
    3.900    6.8984
    3.915    6.7615
    3.930    6.3718
    3.945    6.2981
    3.960    6.5298
    3.975    6.1611
    3.990    5.9189
    4.005    6.0137
    4.020    6.0032
    4.035    6.0558
    4.050    6.0769
    4.065    6.0032
    4.080    6.0137
    4.095    5.8136
    4.110    5.9294
    4.125    6.2770
    4.140    5.8873
    4.155    6.0032
    4.170    6.0874
    4.185    5.8452
    4.200    5.8452
    4.215    5.7293
    4.230    5.8347
    4.245    6.0348
    4.260    6.0242
    4.275    6.2454
    4.290    5.9821
    4.305    5.9294
    4.320    6.2033
    4.335    6.2454
    4.350    5.9821
    4.365    5.9926
    4.380    5.7083
    4.395    6.0558
    4.410    6.0558
    4.425    5.7820
    4.440    5.5924
    4.455    6.1190
    4.470    6.0137
    4.485    6.0453
    4.500    6.1401
    4.515    5.9610
    4.530    5.9400
    4.545    5.8662
    4.560    6.0242
    4.575    6.0242
    4.590    5.9716
    4.605    6.0348
    4.620    6.1190
    4.635    6.1717
    4.650    5.9084
    4.665    5.6872
    4.680    5.8347
    4.695    5.6977
    4.710    5.8241
    4.725    6.1822
    4.740    6.4244
    4.755    6.1927
    4.770    6.0664
    4.785    6.1822
    4.800    5.9926
    4.815    6.3296
    4.830    6.2559
    4.845    6.2138
    4.860    6.3402
    4.875    6.5087
    4.890    6.0242
    4.905    5.9926
    4.920    6.3823
    4.935    6.3928
    4.950    6.7825
    4.965    6.2981
    4.980    6.3191
    4.995    6.6456
    5.010    6.5508
    5.025    6.6456
    5.040    6.7720
    5.055    6.5719
    5.070    6.6140
    5.085    6.8668
    5.100    6.7509
    5.115    6.7509
    5.130    6.7509
    5.145    7.1722
    5.160    7.0248
    5.175    7.1827
    5.190    7.1722
    5.205    7.2038
    5.220    7.1827
    5.235    7.4671
    5.250    7.3618
    5.265    7.6461
    5.280    7.4250
    5.295    7.3618
    5.310    7.4776
    5.325    7.3723
    5.340    7.5724
    5.355    7.6461
    5.370    7.9831
    5.385    7.8673
    5.400    7.7409
    5.415    8.0674
    5.430    8.0253
    5.445    7.8989
    5.460    7.7514
    5.475    8.1306
    5.490    8.5097
    5.505    7.8778
    5.520    8.1411
    5.535    7.7620
    5.550    8.2254
    5.565    8.2675
    5.580    8.4992
    5.595    7.8884
    5.610    7.9621
    5.625    7.8146
    5.640    7.5619
    5.655    7.5513
    5.670    7.4460
    5.685    7.3407
    5.700    7.4566
    5.715    7.3934
    5.730    7.7409
    5.745    7.4882
    5.760    7.8568
    5.775    7.1722
    5.790    7.2143
    5.805    7.2249
    5.820    7.2354
    5.835    6.8984
    5.850    6.6667
    5.865    6.8562
    5.880    7.2670
    5.895    7.1301
    5.910    6.8878
    5.925    6.5719
    5.940    6.3191
    5.955    6.4560
    5.970    6.3402
    5.985    6.0979
    6.000    5.8452
    6.015    6.1717
    6.030    6.5192
    6.045    6.5087
    6.060    6.3612
    6.075    6.0032
    6.090    5.7715
    6.105    6.0979
    6.120    6.2138
    6.135    6.0242
    6.150    6.0979
    6.165    6.0137
    6.180    6.0137
    6.195    5.9505
    6.210    6.1085
    6.225    5.7820
    6.240    6.2138
    6.255    6.0137
    6.270    5.4028
    6.285    5.3081
    6.300    5.9926
    6.315    5.8557
    6.330    5.9400
    6.345    5.9716
    6.360    5.8031
    6.375    5.5608
    6.390    5.7293
    6.405    5.6240
    6.420    5.5503
    6.435    5.3923
    6.450    5.2870
    6.465    5.5082
    6.480    5.4555
    6.495    5.7399
    6.510    5.7083
    6.525    5.5398
    6.540    5.9610
    6.555    5.5714
    6.570    5.4450
    6.585    5.6872
    6.600    5.7188
    6.615    5.7083
    6.630    5.3923
    6.645    5.0132
    6.660    5.4344
    6.675    5.3923
    6.690    5.6029
    6.705    5.7399
    6.720    5.6661
    6.735    5.5819
    6.750    5.6661
    6.765    5.5924
    6.780    5.4976
    6.795    5.3818
    6.810    5.8031
    6.825    5.3186
    6.840    5.4555
    6.855    5.1501
    6.870    4.9500
    6.885    5.1080
    6.900    5.0658
    6.915    4.9921
    6.930    5.1711
    6.945    5.4660
    6.960    4.9710
    6.975    4.8868
    6.990    4.9500
    7.005    5.0974
    7.020    4.9921
    7.035    4.8973
    7.050    5.1606
    7.065    5.1711
    7.080    5.0026
    7.095    4.8657
    7.110    5.1185
    7.125    5.3186
    7.140    4.9394
    7.155    4.8657
    7.170    4.9289
    7.185    4.7709
    7.200    5.1501
    7.215    4.8131
    7.230    4.7815
    7.245    4.7288
    7.260    4.5392
    7.275    4.4760
    7.290    4.6340
    7.305    4.9710
    7.320    4.5814
    7.335    4.5182
    7.350    4.2233
    7.365    4.4339
    7.380    4.7920
    7.395    4.6867
    7.410    4.6551
    7.425    4.9710
    7.440    4.6761
    7.455    4.6551
    7.470    4.6972
    7.485    4.2233
    7.500    4.3918
    7.515    4.8025
    7.530    4.9184
    7.545    4.9184
    7.560    4.3813
    7.575    4.4760
    7.590    4.6235
    7.605    4.7393
    7.620    5.0026
    7.635    4.5182
    7.650    4.8131
    7.665    4.7499
    7.680    4.8447
    7.695    4.5076
    7.710    3.9916
    7.725    4.3918
    7.740    4.5182
    7.755    4.7183
    7.770    4.7709
    7.785    4.7077
    7.800    4.7288
    7.815    4.4655
    7.830    4.0969
    7.845    4.2970
    7.860    4.6024
    7.875    4.7183
    7.890    4.6024
    7.905    4.2233
    7.920    4.4444
    7.935    4.1811
    7.950    4.1811
    7.965    4.5708
    7.980    4.3918
    7.995    4.5076
    8.010    4.1074
    8.025    4.2127
    8.040    4.2654
    8.055    4.1390
    8.070    4.2233
    8.085    4.3707
    8.100    4.4128
    8.115    4.1390
    8.130    4.1601
    8.145    4.1285
    8.160    4.2022
    8.175    4.1074
    8.190    4.6130
    8.205    4.3391
    8.220    4.2233
    8.235    3.9179
    8.250    3.9600
    8.265    4.2549
    8.280    4.2127
    8.295    4.0758
    8.310    3.8968
    8.325    4.2549
    8.340    4.1074
    8.355    4.3918
    8.370    4.3181
    8.385    4.2127
    8.400    4.2443
    8.415    4.0653
    8.430    3.9284
    8.445    3.9284
    8.460    4.0442
    8.475    4.2654
    8.490    4.0864
    8.505    4.2233
    8.520    4.0653
    8.535    4.2970
    8.550    3.9284
    8.565    4.2443
    8.580    3.9916
    8.595    4.2233
    8.610    4.1811
    8.625    4.0969
    8.640    4.2654
    8.655    3.8547
    8.670    4.2233
    8.685    4.3602
    8.700    3.9810
    8.715    4.0864
    8.730    4.2022
    8.745    4.3075
    8.760    4.3286
    8.775    4.4128
    8.790    3.8968
    8.805    3.9284
    8.820    3.8441
    8.835    3.7388
    8.850    4.1706
    8.865    3.9916
    8.880    4.1180
    8.895    3.9705
    8.910    4.1601
    8.925    4.0653
    8.940    3.7493
    8.955    3.9705
    8.970    3.9389
    8.985    4.0337
    9.000    3.6862
    9.015    3.9389
    9.030    3.9389
    9.045    3.9600
    9.060    3.7809
    9.075    3.8336
    9.090    3.9810
    9.105    4.0653
    9.120    3.7915
    9.135    3.7704
    9.150    4.0126
    9.165    3.5387
    9.180    3.6862
    9.195    3.7809
    9.210    4.0653
    9.225    3.9179
    9.240    3.9705
    9.255    4.1390
    9.270    4.3286
    9.285    3.7599
    9.300    3.8652
    9.315    3.9073
    9.330    4.1496
    9.345    3.9073
    9.360    3.8547
    9.375    3.9810
    9.390    3.7177
    9.405    4.0758
    9.420    4.0232
    9.435    4.0126
    9.450    3.8547
    9.465    3.9705
    9.480    4.2759
    9.495    4.4339
    9.510    4.2127
    9.525    4.2338
    9.540    4.1706
    9.555    4.5076
    9.570    4.1811
    9.585    4.0337
    9.600    4.0126
    9.615    4.2865
    9.630    4.1285
    9.645    4.1811
    9.660    4.2549
    9.675    4.0232
    9.690    4.2549
    9.705    3.9494
    9.720    4.2654
    9.735    4.0232
    9.750    3.7704
    9.765    4.1496
    9.780    3.9494
    9.795    3.9600
    9.810    3.7599
    9.825    3.8125
    9.840    3.8757
    9.855    3.8125
    9.870    3.8441
    9.885    3.5598
    9.900    3.9284
    9.915    4.1706
    9.930    4.0548
    9.945    3.7809
    9.960    3.7704
    9.975    3.9600
    9.990    3.6230
   10.005    3.8020
   10.020    3.6546
   10.035    3.8547
   10.050    3.8652
   10.065    3.9810
   10.080    4.1496
   10.095    4.2865
   10.110    3.8652
   10.125    3.9073
   10.140    3.9810
   10.155    4.0653
   10.170    4.1074
   10.185    4.0548
   10.200    3.9600
   10.215    3.9600
   10.230    4.2338
   10.245    3.8547
   10.260    3.9389
   10.275    4.1285
   10.290    3.9284
   10.305    4.1074
   10.320    4.2970
   10.335    4.2759
   10.350    4.1390
   10.365    4.3813
   10.380    4.2338
   10.395    4.2338
   10.410    4.1601
   10.425    3.9705
   10.440    4.0653
   10.455    4.4339
   10.470    4.5708
   10.485    4.2127
   10.500    4.1601
   10.515    4.1180
   10.530    3.9179
   10.545    4.2443
   10.560    4.1496
   10.575    4.0758
   10.590    4.2865
   10.605    3.9284
   10.620    4.0232
   10.635    4.1496
   10.650    4.3707
   10.665    4.3075
   10.680    4.0021
   10.695    4.1390
   10.710    4.0864
   10.725    4.0337
   10.740    3.8231
   10.755    4.0653
   10.770    4.1285
   10.785    3.9916
   10.800    4.1390
   10.815    4.2443
   10.830    4.2443
   10.845    4.1390
   10.860    4.0337
   10.875    4.0126
   10.890    4.2759
   10.905    4.1285
   10.920    4.1074
   10.935    4.4023
   10.950    4.2654
   10.965    4.1390
   10.980    4.2127
   10.995    4.1390
   11.010    4.1917
   11.025    4.2549
   11.040    4.3602
   11.055    4.3391
   11.070    4.3391
   11.085    4.6445
   11.100    4.0758
   11.115    4.4444
   11.130    4.3391
   11.145    4.3075
   11.160    4.1390
   11.175    4.3286
   11.190    4.2865
   11.205    4.1811
   11.220    3.8968
   11.235    3.9810
   11.250    3.9705
   11.265    4.1180
   11.280    4.2865
   11.295    3.9494
   11.310    4.4128
   11.325    4.4128
   11.340    4.3181
   11.355    4.1811
   11.370    4.0232
   11.385    4.1180
   11.400    3.9705
   11.415    3.8231
   11.430    3.8652
   11.445    4.1917
   11.460    4.1917
   11.475    4.0653
   11.490    3.8863
   11.505    3.9600
   11.520    4.2233
   11.535    4.4655
   11.550    4.1390
   11.565    3.9284
   11.580    4.2865
   11.595    4.0442
   11.610    3.8336
   11.625    4.3707
   11.640    4.0442
   11.655    3.8968
   11.670    4.0548
   11.685    4.1285
   11.700    4.2338
   11.715    4.0548
   11.730    3.9284
   11.745    4.1285
   11.760    4.1180
   11.775    4.3075
   11.790    4.1601
   11.805    4.0232
   11.820    4.2443
   11.835    3.9073
   11.850    3.9600
   11.865    3.9284
   11.880    3.9389
   11.895    4.0442
   11.910    4.0758
   11.925    4.0232
   11.940    4.1811
   11.955    4.1811
   11.970    4.0232
   11.985    3.9389
   12.000    3.9179
   12.015    3.9705
   12.030    3.6862
   12.045    3.7809
   12.060    3.8547
   12.075    3.8020
   12.090    3.7809
   12.105    3.5808
   12.120    3.5387
   12.135    3.4650
   12.150    3.8863
   12.165    4.0548
   12.180    4.0442
   12.195    3.7809
   12.210    3.5808
   12.225    3.7704
   12.240    3.9073
   12.255    3.8968
   12.270    3.6124
   12.285    3.7809
   12.300    4.0442
   12.315    3.6335
   12.330    3.8125
   12.345    3.7599
   12.360    4.0337
   12.375    3.6335
   12.390    3.2965
   12.405    3.6756
   12.420    4.0548
   12.435    3.6651
   12.450    3.6756
   12.465    3.6546
   12.480    3.9810
   12.495    3.8441
   12.510    3.5071
   12.525    3.6862
   12.540    3.9600
   12.555    3.7493
   12.570    3.7283
   12.585    3.6335
   12.600    3.5282
   12.615    3.7493
   12.630    3.7388
   12.645    3.8020
   12.660    3.6019
   12.675    3.6862
   12.690    3.8336
   12.705    3.5808
   12.720    3.7599
   12.735    3.8547
   12.750    3.8652
   12.765    3.5492
   12.780    3.3281
   12.795    3.8020
   12.810    3.9389
   12.825    3.7915
   12.840    3.6124
   12.855    3.7809
   12.870    3.7493
   12.885    4.0864
   12.900    4.0232
   12.915    3.7283
   12.930    3.6440
   12.945    3.7072
   12.960    3.5598
   12.975    3.9284
   12.990    3.7493
   13.005    3.7809
   13.020    4.1811
   13.035    4.1285
   13.050    3.6335
   13.065    3.9600
   13.080    3.7809
   13.095    4.0021
   13.110    3.9810
   13.125    3.7599
   13.140    3.8020
   13.155    3.7493
   13.170    4.0442
   13.185    3.8757
   13.200    3.6862
   13.215    3.7704
   13.230    3.9179
   13.245    3.5914
   13.260    3.4966
   13.275    3.6756
   13.290    3.5703
   13.305    3.5703
   13.320    3.9705
   13.335    3.8020
   13.350    3.8441
   13.365    3.6230
   13.380    4.0021
   13.395    3.8125
   13.410    4.0864
   13.425    3.7704
   13.440    3.6440
   13.455    3.6335
   13.470    3.6019
   13.485    3.6440
   13.500    3.4439
   13.515    3.6651
   13.530    3.7388
   13.545    3.6124
   13.560    3.7599
   13.575    3.7388
   13.590    3.7388
   13.605    3.8020
   13.620    4.0232
   13.635    3.8020
   13.650    3.6546
   13.665    3.6862
   13.680    3.5598
   13.695    3.7072
   13.710    3.8652
   13.725    3.8863
   13.740    3.5914
   13.755    3.7072
   13.770    4.1285
   13.785    4.0969
   13.800    3.7915
   13.815    3.5703
   13.830    3.5598
   13.845    3.6651
   13.860    3.7283
   13.875    3.6230
   13.890    3.9494
   13.905    3.9389
   13.920    3.8020
   13.935    4.0548
   13.950    3.8125
   13.965    3.7388
   13.980    3.7599
   13.995    3.6862
   14.010    4.0548
   14.025    3.7704
   14.040    3.9705
   14.055    4.2022
   14.070    3.9810
   14.085    3.5914
   14.100    4.1180
   14.115    3.9810
   14.130    3.8652
   14.145    3.9179
   14.160    4.1496
   14.175    3.9284
   14.190    3.8336
   14.205    4.1811
   14.220    4.1074
   14.235    4.2759
   14.250    4.0021
   14.265    3.6967
   14.280    4.0758
   14.295    4.0126
   14.310    3.8547
   14.325    3.9284
   14.340    3.8863
   14.355    3.9810
   14.370    4.1074
   14.385    4.0021
   14.400    4.0864
   14.415    4.1285
   14.430    4.1390
   14.445    3.9494
   14.460    3.7388
   14.475    4.0337
   14.490    4.0653
   14.505    4.1285
   14.520    4.0021
   14.535    4.0653
   14.550    4.0442
   14.565    3.9284
   14.580    3.6967
   14.595    4.1180
   14.610    4.0653
   14.625    3.7704
   14.640    3.8020
   14.655    3.7599
   14.670    3.9916
   14.685    4.1074
   14.700    4.0969
   14.715    3.9179
   14.730    3.7704
   14.745    4.0021
   14.760    3.8125
   14.775    3.8757
   14.790    3.9810
   14.805    3.8020
   14.820    3.9073
   14.835    3.9494
   14.850    3.8968
   14.865    4.1706
   14.880    3.9600
   14.895    3.8547
   14.910    3.6651
   14.925    3.6651
   14.940    3.7809
   14.955    3.6230
   14.970    3.7283
   14.985    4.0758
   15.000    3.8125
   15.015    4.0232
   15.030    4.0864
   15.045    4.0442
   15.060    3.9916
   15.075    4.0969
   15.090    3.6335
   15.105    3.7915
   15.120    3.8020
   15.135    3.8547
   15.150    4.1601
   15.165    3.7704
   15.180    3.6124
   15.195    4.0232
   15.210    3.6335
   15.225    3.9284
   15.240    3.9179
   15.255    3.7915
   15.270    3.8020
   15.285    3.8125
   15.300    3.5808
   15.315    3.5808
   15.330    3.6019
   15.345    3.6546
   15.360    3.7177
   15.375    3.5598
   15.390    3.7599
   15.405    3.9073
   15.420    3.7493
   15.435    3.8231
   15.450    3.6651
   15.465    3.4334
   15.480    3.3913
   15.495    3.4018
   15.510    3.4755
   15.525    3.4018
   15.540    3.5808
   15.555    3.6440
   15.570    3.6019
   15.585    3.8441
   15.600    3.7809
   15.615    3.6440
   15.630    3.8020
   15.645    3.8757
   15.660    3.7283
   15.675    3.6124
   15.690    4.0021
   15.705    3.6756
   15.720    3.7283
   15.735    3.6967
   15.750    3.6862
   15.765    3.6230
   15.780    3.5914
   15.795    3.4966
   15.810    3.5598
   15.825    4.0126
   15.840    3.9916
   15.855    3.8441
   15.870    3.5808
   15.885    3.5492
   15.900    3.6862
   15.915    3.7915
   15.930    3.6967
   15.945    3.5598
   15.960    3.7809
   15.975    3.8547
   15.990    3.8441
   16.005    3.8125
   16.020    3.9600
   16.035    3.6124
   16.050    3.8336
   16.065    3.9494
   16.080    3.7177
   16.095    3.6862
   16.110    3.9810
   16.125    3.6756
   16.140    3.4755
   16.155    3.4755
   16.170    3.8441
   16.185    3.7704
   16.200    3.6335
   16.215    3.3702
   16.230    3.7599
   16.245    3.7599
   16.260    3.8863
   16.275    3.6967
   16.290    3.6124
   16.305    3.8231
   16.320    4.0442
   16.335    3.8652
   16.350    4.0126
   16.365    3.5176
   16.380    3.7072
   16.395    3.7704
   16.410    3.6019
   16.425    3.5387
   16.440    3.9916
   16.455    3.6862
   16.470    3.6019
   16.485    3.6546
   16.500    3.7388
   16.515    3.7072
   16.530    3.7704
   16.545    3.8020
   16.560    3.6440
   16.575    3.7072
   16.590    4.0021
   16.605    3.9073
   16.620    3.7599
   16.635    3.6862
   16.650    3.3281
   16.665    3.7809
   16.680    3.9389
   16.695    3.7283
   16.710    3.5071
   16.725    3.7072
   16.740    3.6335
   16.755    3.6440
   16.770    3.6230
   16.785    3.4966
   16.800    3.6967
   16.815    3.6335
   16.830    3.6862
   16.845    3.6019
   16.860    3.6546
   16.875    3.6019
   16.890    3.7809
   16.905    3.4544
   16.920    3.4123
   16.935    3.5703
   16.950    3.6440
   16.965    3.5492
   16.980    3.7283
   16.995    3.6967
   17.010    3.6019
   17.025    3.8652
   17.040    3.8125
   17.055    3.7493
   17.070    3.8757
   17.085    3.9073
   17.100    3.8020
   17.115    3.6967
   17.130    3.6124
   17.145    3.6124
   17.160    3.8441
   17.175    3.6546
   17.190    3.8336
   17.205    3.8336
   17.220    3.9389
   17.235    3.8125
   17.250    3.4229
   17.265    3.4229
   17.280    3.6756
   17.295    3.6440
   17.310    3.6967
   17.325    3.5703
   17.340    3.6756
   17.355    3.8336
   17.370    3.7599
   17.385    3.6230
   17.400    3.6546
   17.415    3.6335
   17.430    3.6440
   17.445    3.5282
   17.460    3.4966
   17.475    3.9179
   17.490    3.6440
   17.505    3.5492
   17.520    3.5071
   17.535    3.5914
   17.550    3.4544
   17.565    3.4229
   17.580    3.1385
   17.595    3.2965
   17.610    3.4755
   17.625    3.3386
   17.640    3.4018
   17.655    3.4334
   17.670    3.6756
   17.685    3.3386
   17.700    3.6019
   17.715    3.8020
   17.730    3.8441
   17.745    3.6862
   17.760    3.2859
   17.775    3.5387
   17.790    3.6019
   17.805    3.3491
   17.820    3.7599
   17.835    3.8231
   17.850    3.6440
   17.865    3.6546
   17.880    3.5282
   17.895    3.5071
   17.910    3.3281
   17.925    3.6651
   17.940    3.4439
   17.955    3.5387
   17.970    3.6335
   17.985    3.5071
   18.000    3.6124
   18.015    3.5914
   18.030    3.6862
   18.045    3.8441
   18.060    3.6230
   18.075    3.4544
   18.090    3.6230
   18.105    3.6019
   18.120    3.7493
   18.135    3.9916
   18.150    3.5808
   18.165    3.5914
   18.180    3.8547
   18.195    3.6967
   18.210    3.7599
   18.225    3.7388
   18.240    3.4229
   18.255    3.4544
   18.270    3.6335
   18.285    3.4229
   18.300    3.7177
   18.315    3.8020
   18.330    3.5387
   18.345    3.4544
   18.360    3.3807
   18.375    3.4123
   18.390    3.3491
   18.405    3.2333
   18.420    3.5598
   18.435    3.5176
   18.450    3.1596
   18.465    3.2859
   18.480    3.6862
   18.495    3.1806
   18.510    3.3913
   18.525    3.4544
   18.540    3.4229
   18.555    3.6651
   18.570    3.5492
   18.585    3.4860
   18.600    3.4755
   18.615    3.3281
   18.630    3.4650
   18.645    3.5176
   18.660    3.2754
   18.675    3.5598
   18.690    3.5071
   18.705    3.6019
   18.720    3.6546
   18.735    3.3702
   18.750    3.2754
   18.765    3.4860
   18.780    3.6440
   18.795    3.6967
   18.810    3.1806
   18.825    3.5808
   18.840    3.3913
   18.855    3.3913
   18.870    3.4229
   18.885    3.6335
   18.900    3.7599
   18.915    3.5387
   18.930    3.4966
   18.945    3.6230
   18.960    3.8441
   18.975    3.7599
   18.990    3.6230
   19.005    3.6440
   19.020    3.6651
   19.035    3.5282
   19.050    3.5282
   19.065    3.4650
   19.080    3.5914
   19.095    3.5071
   19.110    3.4966
   19.125    3.5492
   19.140    3.6019
   19.155    3.7493
   19.170    3.3386
   19.185    3.4334
   19.200    3.6335
   19.215    3.6124
   19.230    3.6019
   19.245    3.6335
   19.260    3.4018
   19.275    3.4544
   19.290    3.4123
   19.305    3.3175
   19.320    3.5071
   19.335    3.3386
   19.350    3.5387
   19.365    3.5282
   19.380    3.4755
   19.395    3.6546
   19.410    3.2438
   19.425    3.3807
   19.440    3.5387
   19.455    3.3070
   19.470    3.2438
   19.485    3.6335
   19.500    3.4439
   19.515    3.4544
   19.530    3.4650
   19.545    3.3491
   19.560    3.4018
   19.575    3.6862
   19.590    3.9916
   19.605    3.4018
   19.620    3.4123
   19.635    3.2543
   19.650    3.3807
   19.665    3.1701
   19.680    3.6756
   19.695    3.5387
   19.710    3.4966
   19.725    3.2859
   19.740    3.3807
   19.755    3.4018
   19.770    3.4755
   19.785    3.5808
   19.800    3.4860
   19.815    3.7072
   19.830    3.5492
   19.845    3.5071
   19.860    3.3807
   19.875    3.3597
   19.890    3.4860
   19.905    3.4966
   19.920    3.4966
   19.935    3.2859
   19.950    3.4544
   19.965    3.3597
   19.980    3.4123
   19.995    3.1912
   20.010    3.2859
   20.025    3.4018
   20.040    3.2649
   20.055    3.2333
   20.070    3.3702
   20.085    3.3913
   20.100    3.2333
   20.115    3.0121
   20.130    3.2122
   20.145    3.2754
   20.160    3.4860
   20.175    3.5176
   20.190    3.1912
   20.205    3.0016
   20.220    3.1385
   20.235    3.2649
   20.250    3.3386
   20.265    3.4334
   20.280    3.4334
   20.295    3.2438
   20.310    3.2965
   20.325    3.1490
   20.340    3.1806
   20.355    3.3281
   20.370    3.5914
   20.385    3.2649
   20.400    3.2859
   20.415    3.5703
   20.430    3.4439
   20.445    3.3281
   20.460    3.2754
   20.475    3.2859
   20.490    3.5176
   20.505    3.2965
   20.520    3.7493
   20.535    3.2227
   20.550    3.3386
   20.565    3.1596
   20.580    3.2017
   20.595    2.9910
   20.610    3.1701
   20.625    3.3913
   20.640    3.4755
   20.655    3.4229
   20.670    3.2859
   20.685    3.3070
   20.700    3.1912
   20.715    3.2333
   20.730    3.4123
   20.745    3.5071
   20.760    3.4544
   20.775    3.2333
   20.790    3.1069
   20.805    3.2333
   20.820    3.2333
   20.835    3.0964
   20.850    3.4123
   20.865    3.4966
   20.880    3.4544
   20.895    3.1385
   20.910    3.3491
   20.925    3.2543
   20.940    3.4123
   20.955    3.4439
   20.970    3.1701
   20.985    3.2649
   21.000    3.1806
   21.015    3.3807
   21.030    3.4018
   21.045    3.3070
   21.060    3.4650
   21.075    3.3175
   21.090    3.3702
   21.105    3.3702
   21.120    3.3281
   21.135    3.3491
   21.150    3.2649
   21.165    3.2649
   21.180    3.0542
   21.195    3.4123
   21.210    3.7283
   21.225    3.3702
   21.240    3.3597
   21.255    3.4018
   21.270    3.3281
   21.285    3.3597
   21.300    3.6230
   21.315    3.5282
   21.330    3.4966
   21.345    3.3175
   21.360    3.4334
   21.375    3.5282
   21.390    3.4439
   21.405    3.2754
   21.420    3.0437
   21.435    3.2859
   21.450    3.2438
   21.465    3.1701
   21.480    3.2965
   21.495    3.2649
   21.510    3.2227
   21.525    3.1806
   21.540    3.0753
   21.555    3.2965
   21.570    3.4860
   21.585    3.0332
   21.600    3.1385
   21.615    3.2017
   21.630    3.1912
   21.645    3.4229
   21.660    3.5176
   21.675    3.3386
   21.690    3.0858
   21.705    2.9700
   21.720    3.0542
   21.735    3.2649
   21.750    3.4123
   21.765    3.1069
   21.780    3.0437
   21.795    3.1174
   21.810    3.0226
   21.825    3.3070
   21.840    3.3491
   21.855    3.2965
   21.870    3.1912
   21.885    3.2754
   21.900    3.0858
   21.915    3.1174
   21.930    3.2438
   21.945    3.3597
   21.960    2.9805
   21.975    3.3913
   21.990    3.2122
   22.005    3.0858
   22.020    3.0648
   22.035    3.2227
   22.050    3.0858
   22.065    3.1806
   22.080    3.3913
   22.095    3.2649
   22.110    3.2122
   22.125    2.8541
   22.140    3.1280
   22.155    3.0542
   22.170    2.9805
   22.185    3.1385
   22.200    3.1912
   22.215    3.0858
   22.230    3.0121
   22.245    3.0332
   22.260    3.0226
   22.275    3.1701
   22.290    3.0226
   22.305    3.1069
   22.320    3.0542
   22.335    3.0858
   22.350    3.2333
   22.365    3.1596
   22.380    3.0226
   22.395    3.0964
   22.410    3.0648
   22.425    3.1596
   22.440    3.1174
   22.455    3.0753
   22.470    3.2017
   22.485    3.3597
   22.500    3.3281
   22.515    3.0332
   22.530    3.2333
   22.545    3.2227
   22.560    3.1596
   22.575    3.2333
   22.590    3.0858
   22.605    3.3702
   22.620    3.4860
   22.635    3.4229
   22.650    3.1280
   22.665    3.1280
   22.680    3.2543
   22.695    3.1069
   22.710    3.1385
   22.725    3.1174
   22.740    3.1912
   22.755    3.1174
   22.770    2.7488
   22.785    3.0332
   22.800    3.0964
   22.815    2.9279
   22.830    2.8857
   22.845    3.0226
   22.860    3.2543
   22.875    3.0437
   22.890    3.1385
   22.905    3.2333
   22.920    3.0121
   22.935    3.1490
   22.950    2.8752
   22.965    2.9595
   22.980    3.2333
   22.995    3.0858
   23.010    2.9384
   23.025    3.0542
   23.040    2.9910
   23.055    3.2965
   23.070    3.3386
   23.085    2.8857
   23.100    3.2754
   23.115    3.1912
   23.130    2.8436
   23.145    3.0753
   23.160    3.1174
   23.175    3.0648
   23.190    3.1280
   23.205    3.1701
   23.220    3.2543
   23.235    3.1596
   23.250    3.0858
   23.265    3.2017
   23.280    3.0332
   23.295    2.6224
   23.310    3.1596
   23.325    3.1596
   23.340    3.2543
   23.355    3.0542
   23.370    2.8331
   23.385    2.9595
   23.400    3.0753
   23.415    2.8541
   23.430    3.0016
   23.445    3.0437
   23.460    3.1806
   23.475    3.1069
   23.490    3.3597
   23.505    2.9805
   23.520    2.8541
   23.535    3.0016
   23.550    2.9068
   23.565    3.0121
   23.580    3.0437
   23.595    3.2017
   23.610    3.0437
   23.625    2.7909
   23.640    2.6540
   23.655    2.8752
   23.670    2.9910
   23.685    3.1385
   23.700    2.9910
   23.715    2.9805
   23.730    2.8857
   23.745    2.8015
   23.760    3.1069
   23.775    3.1490
   23.790    2.8857
   23.805    3.0964
   23.820    2.9910
   23.835    3.2543
   23.850    2.8541
   23.865    2.8436
   23.880    2.8963
   23.895    3.0226
   23.910    2.7804
   23.925    2.9910
   23.940    2.9173
   23.955    2.9910
   23.970    2.9595
   23.985    3.2438
   24.000    2.7593
   24.015    3.0332
   24.030    3.1385
   24.045    2.8752
   24.060    2.6435
   24.075    2.7383
   24.090    2.8963
   24.105    2.9068
   24.120    2.9068
   24.135    2.6751
   24.150    2.9595
   24.165    2.7278
   24.180    2.7804
   24.195    2.6962
   24.210    3.0016
   24.225    2.9173
   24.240    2.9700
   24.255    2.7172
   24.270    3.0542
   24.285    2.9489
   24.300    2.7488
   24.315    3.0437
   24.330    2.9279
   24.345    2.8331
   24.360    2.7067
   24.375    2.9910
   24.390    2.8436
   24.405    2.9068
   24.420    2.7067
   24.435    2.7804
   24.450    2.8857
   24.465    2.6856
   24.480    2.8541
   24.495    2.8752
   24.510    3.0016
   24.525    3.0121
   24.540    2.9910
   24.555    3.0753
   24.570    2.7699
   24.585    2.7699
   24.600    2.9279
   24.615    2.9279
   24.630    3.0226
   24.645    2.9384
   24.660    2.7383
   24.675    2.7383
   24.690    2.8963
   24.705    2.7067
   24.720    2.6014
   24.735    2.6540
   24.750    2.7909
   24.765    2.9910
   24.780    2.7172
   24.795    2.6435
   24.810    2.7699
   24.825    2.6540
   24.840    2.7488
   24.855    2.7804
   24.870    2.6330
   24.885    2.6330
   24.900    2.7699
   24.915    2.7383
   24.930    2.7278
   24.945    2.8120
   24.960    3.0542
   24.975    2.8015
   24.990    2.8752
   25.005    2.9489
   25.020    2.6751
   25.035    2.6856
   25.050    2.9595
   25.065    2.8752
   25.080    2.8225
   25.095    2.8225
   25.110    2.8225
   25.125    2.5698
   25.140    2.7804
   25.155    2.9384
   25.170    2.6962
   25.185    2.7593
   25.200    2.8436
   25.215    2.9068
   25.230    3.0332
   25.245    2.7804
   25.260    2.8225
   25.275    2.8436
   25.290    2.8436
   25.305    2.6224
   25.320    2.7593
   25.335    2.8331
   25.350    2.7699
   25.365    2.7804
   25.380    2.5382
   25.395    2.6540
   25.410    2.7909
   25.425    2.8541
   25.440    2.5698
   25.455    2.9279
   25.470    2.7593
   25.485    2.6119
   25.500    2.6856
   25.515    2.8436
   25.530    2.7593
   25.545    2.8331
   25.560    2.6751
   25.575    2.6014
   25.590    2.6435
   25.605    2.6856
   25.620    2.6646
   25.635    2.9489
   25.650    3.0016
   25.665    2.9595
   25.680    2.7383
   25.695    2.9384
   25.710    2.9910
   25.725    2.6224
   25.740    2.6119
   25.755    2.7278
   25.770    2.8963
   25.785    2.5382
   25.800    2.8015
   25.815    2.4855
   25.830    2.6856
   25.845    2.8752
   25.860    3.0437
   25.875    3.0121
   25.890    2.6224
   25.905    2.8436
   25.920    2.8120
   25.935    2.9700
   25.950    3.0964
   25.965    2.7172
   25.980    2.4961
   25.995    2.6435
   26.010    2.6435
   26.025    2.5698
   26.040    2.9068
   26.055    2.8541
   26.070    2.5592
   26.085    2.8752
   26.100    2.6435
   26.115    2.5698
   26.130    2.7383
   26.145    2.9805
   26.160    2.7172
   26.175    2.6330
   26.190    2.8225
   26.205    2.8647
   26.220    2.6119
   26.235    2.6224
   26.250    2.7488
   26.265    2.8015
   26.280    2.6014
   26.295    2.5698
   26.310    2.5698
   26.325    2.4539
   26.340    2.6119
   26.355    2.6224
   26.370    2.7278
   26.385    2.4329
   26.400    2.7383
   26.415    2.6540
   26.430    2.7067
   26.445    2.6014
   26.460    2.7488
   26.475    2.8225
   26.490    2.7067
   26.505    2.4434
   26.520    2.9910
   26.535    2.9595
   26.550    2.8752
   26.565    2.8436
   26.580    2.6014
   26.595    2.6540
   26.610    2.7172
   26.625    2.6646
   26.640    2.3591
   26.655    2.5698
   26.670    2.8015
   26.685    2.7383
   26.700    2.7172
   26.715    2.7067
   26.730    2.4961
   26.745    2.5171
   26.760    2.4329
   26.775    2.5066
   26.790    2.5171
   26.805    2.4329
   26.820    2.4013
   26.835    2.4434
   26.850    2.5276
   26.865    2.4118
   26.880    2.4750
   26.895    2.5803
   26.910    2.3065
   26.925    2.5276
   26.940    2.6119
   26.955    2.3591
   26.970    2.5487
   26.985    2.6330
   27.000    2.8647
   27.015    2.4750
   27.030    2.3486
   27.045    2.6014
   27.060    2.8331
   27.075    2.6540
   27.090    2.7383
   27.105    2.8857
   27.120    2.7488
   27.135    2.6646
   27.150    2.8752
   27.165    2.4855
   27.180    2.5487
   27.195    2.7909
   27.210    2.7172
   27.225    2.5908
   27.240    2.5382
   27.255    2.5803
   27.270    2.5066
   27.285    2.6962
   27.300    2.5803
   27.315    2.4118
   27.330    2.5171
   27.345    2.8015
   27.360    2.6856
   27.375    2.5908
   27.390    2.3907
   27.405    2.4855
   27.420    2.6751
   27.435    2.6435
   27.450    2.5382
   27.465    2.4118
   27.480    2.4855
   27.495    2.7383
   27.510    2.4539
   27.525    2.4855
   27.540    2.4855
   27.555    2.3275
   27.570    2.3697
   27.585    2.6540
   27.600    2.5592
   27.615    2.4961
   27.630    2.4329
   27.645    2.5171
   27.660    2.7172
   27.675    2.3907
   27.690    2.4539
   27.705    2.4855
   27.720    2.5382
   27.735    2.4855
   27.750    2.3170
   27.765    2.3907
   27.780    2.3065
   27.795    2.6224
   27.810    2.7067
   27.825    2.3591
   27.840    2.3697
   27.855    2.3381
   27.870    2.3065
   27.885    2.4013
   27.900    2.4013
   27.915    2.3381
   27.930    2.5592
   27.945    2.7699
   27.960    2.6856
   27.975    2.5382
   27.990    2.7488
   28.005    2.3275
   28.020    2.6540
   28.035    2.5066
   28.050    2.4750
   28.065    2.3170
   28.080    2.7593
   28.095    2.4750
   28.110    2.3697
   28.125    2.2749
   28.140    2.2959
   28.155    2.4013
   28.170    2.3170
   28.185    2.5382
   28.200    2.5171
   28.215    2.5171
   28.230    2.2959
   28.245    2.7909
   28.260    2.6014
   28.275    2.5171
   28.290    2.4961
   28.305    2.4118
   28.320    2.2538
   28.335    2.2854
   28.350    2.3802
   28.365    2.5171
   28.380    2.2222
   28.395    2.3591
   28.410    2.3275
   28.425    2.4539
   28.440    2.5276
   28.455    2.2959
   28.470    2.1906
   28.485    2.3591
   28.500    2.2643
   28.515    2.5382
   28.530    2.6751
   28.545    2.5171
   28.560    2.4329
   28.575    2.3697
   28.590    2.2854
   28.605    2.3591
   28.620    2.5276
   28.635    2.3065
   28.650    2.3802
   28.665    2.3275
   28.680    2.4013
   28.695    2.6962
   28.710    2.3907
   28.725    2.3591
   28.740    2.5698
   28.755    2.3802
   28.770    2.3486
   28.785    2.4118
   28.800    2.1485
   28.815    2.2328
   28.830    2.5592
   28.845    2.6330
   28.860    2.4961
   28.875    2.6540
   28.890    2.6751
   28.905    2.3170
   28.920    2.5276
   28.935    2.4750
   28.950    2.3802
   28.965    2.3907
   28.980    2.2643
   28.995    2.5171
   29.010    2.8120
   29.025    2.6014
   29.040    2.4645
   29.055    2.4434
   29.070    2.4223
   29.085    2.4539
   29.100    2.4223
   29.115    2.3591
   29.130    2.3802
   29.145    2.2538
   29.160    2.3591
   29.175    2.7172
   29.190    2.5698
   29.205    2.6224
   29.220    2.6646
   29.235    2.5066
   29.250    2.3591
   29.265    2.4329
   29.280    2.4855
   29.295    2.5803
   29.310    2.3275
   29.325    2.3381
   29.340    2.4223
   29.355    2.1169
   29.370    2.2117
   29.385    2.3170
   29.400    2.2959
   29.415    2.1696
   29.430    2.1590
   29.445    2.0642
   29.460    2.3486
   29.475    2.1906
   29.490    2.0537
   29.505    2.1590
   29.520    2.1169
   29.535    2.0748
   29.550    2.2538
   29.565    2.2433
   29.580    2.3381
   29.595    2.4013
   29.610    2.2643
   29.625    2.1906
   29.640    2.0853
   29.655    2.2959
   29.670    2.1906
   29.685    2.0642
   29.700    2.4223
   29.715    2.0642
   29.730    2.0011
   29.745    2.1696
   29.760    2.1590
   29.775    2.2854
   29.790    1.9168
   29.805    2.2012
   29.820    2.2959
   29.835    2.2117
   29.850    2.1064
   29.865    2.0011
   29.880    2.2222
   29.895    2.3486
   29.910    2.2222
   29.925    2.2012
   29.940    2.0748
   29.955    1.9695
   29.970    1.9695
   29.985    1.9379
   30.000    2.0853
   30.015    2.0221
   30.030    2.1169
   30.045    2.1380
   30.060    1.9905
   30.075    2.2959
   30.090    2.4013
   30.105    2.3591
   30.120    2.1590
   30.135    2.0853
   30.150    2.3486
   30.165    2.0537
   30.180    2.4855
   30.195    2.2117
   30.210    2.1380
   30.225    2.0432
   30.240    2.1274
   30.255    2.2012
   30.270    2.1696
   30.285    2.2433
   30.300    2.0537
   30.315    2.1906
   30.330    2.2643
   30.345    2.0326
   30.360    2.0853
   30.375    2.2328
   30.390    2.4539
   30.405    2.3381
   30.420    2.1590
   30.435    1.9905
   30.450    2.0748
   30.465    2.0221
   30.480    2.0011
   30.495    2.3275
   30.510    2.1274
   30.525    2.0958
   30.540    2.0748
   30.555    1.8852
   30.570    2.0116
   30.585    2.1169
   30.600    2.1906
   30.615    2.0537
   30.630    2.1801
   30.645    2.4961
   30.660    2.0326
   30.675    1.9695
   30.690    2.2222
   30.705    2.2959
   30.720    1.8325
   30.735    1.9168
   30.750    2.1064
   30.765    2.2854
   30.780    2.2433
   30.795    2.3275
   30.810    2.0116
   30.825    2.1274
   30.840    2.0116
   30.855    2.0958
   30.870    1.9695
   30.885    1.8325
   30.900    2.1696
   30.915    2.1064
   30.930    2.0853
   30.945    2.1169
   30.960    1.9484
   30.975    2.2538
   30.990    2.2538
   31.005    2.0537
   31.020    2.1064
   31.035    2.1274
   31.050    2.0432
   31.065    2.0116
   31.080    1.9273
   31.095    2.0642
   31.110    2.0326
   31.125    1.9905
   31.140    2.0853
   31.155    2.0642
   31.170    2.1696
   31.185    1.9695
   31.200    1.9695
   31.215    2.0221
   31.230    1.8852
   31.245    1.8536
   31.260    1.9168
   31.275    1.9905
   31.290    1.8009
   31.305    1.8747
   31.320    1.9484
   31.335    1.8536
   31.350    1.9273
   31.365    1.7588
   31.380    1.9800
   31.395    2.0011
   31.410    2.2117
   31.425    1.9589
   31.440    2.1274
   31.455    1.9589
   31.470    1.9484
   31.485    2.0642
   31.500    2.0537
   31.515    2.0326
   31.530    1.9484
   31.545    1.8536
   31.560    2.0116
   31.575    1.8957
   31.590    2.0642
   31.605    1.9905
   31.620    2.1801
   31.635    1.9273
   31.650    2.0221
   31.665    1.7799
   31.680    1.9695
   31.695    1.9589
   31.710    1.8852
   31.725    1.8747
   31.740    1.8957
   31.755    1.7694
   31.770    1.9379
   31.785    2.0537
   31.800    1.9379
   31.815    1.9589
   31.830    1.9800
   31.845    2.0326
   31.860    2.0011
   31.875    1.8747
   31.890    1.8536
   31.905    2.0011
   31.920    2.1801
   31.935    2.0432
   31.950    1.8325
   31.965    2.0011
   31.980    1.8009
   31.995    1.9484
   32.010    2.1485
   32.025    1.9695
   32.040    2.1485
   32.055    2.0748
   32.070    1.9589
   32.085    2.0642
   32.100    1.9168
   32.115    1.9168
   32.130    2.1801
   32.145    2.0116
   32.160    2.0221
   32.175    1.9168
   32.190    1.8957
   32.205    1.8747
   32.220    2.0958
   32.235    1.8220
   32.250    1.9273
   32.265    1.8220
   32.280    1.7378
   32.295    2.1380
   32.310    1.9695
   32.325    1.7799
   32.340    1.8536
   32.355    2.0432
   32.370    1.7904
   32.385    1.9168
   32.400    1.6430
   32.415    1.7272
   32.430    1.9168
   32.445    1.9589
   32.460    1.7904
   32.475    1.7167
   32.490    1.8536
   32.505    1.8115
   32.520    1.7799
   32.535    1.8852
   32.550    1.9168
   32.565    1.7062
   32.580    1.7799
   32.595    1.5482
   32.610    1.7062
   32.625    2.0116
   32.640    1.8325
   32.655    1.8957
   32.670    1.7378
   32.685    1.7588
   32.700    1.7588
   32.715    1.8536
   32.730    1.9379
   32.745    1.6640
   32.760    1.7799
   32.775    1.6746
   32.790    1.8957
   32.805    2.0326
   32.820    1.8747
   32.835    1.9589
   32.850    1.9800
   32.865    1.9168
   32.880    1.7694
   32.895    1.7694
   32.910    1.8536
   32.925    1.8115
   32.940    1.8009
   32.955    1.9379
   32.970    1.7483
   32.985    1.9589
   33.000    1.8536
   33.015    1.8957
   33.030    1.8325
   33.045    1.6430
   33.060    1.7694
   33.075    1.8009
   33.090    1.5377
   33.105    1.7588
   33.120    1.6640
   33.135    1.7904
   33.150    1.8957
   33.165    1.8747
   33.180    1.7588
   33.195    1.8536
   33.210    2.0011
   33.225    1.7904
   33.240    1.5903
   33.255    1.6640
   33.270    1.8957
   33.285    1.9273
   33.300    1.7694
   33.315    1.8747
   33.330    1.6114
   33.345    1.7483
   33.360    1.9063
   33.375    1.7378
   33.390    1.6430
   33.405    1.5587
   33.420    1.6008
   33.435    1.7588
   33.450    1.8641
   33.465    1.8747
   33.480    1.8536
   33.495    1.6640
   33.510    1.7272
   33.525    1.6324
   33.540    1.7272
   33.555    2.0432
   33.570    1.9905
   33.585    1.7904
   33.600    1.6324
   33.615    1.5271
   33.630    1.5587
   33.645    1.7483
   33.660    1.6956
   33.675    1.7272
   33.690    1.8431
   33.705    1.7799
   33.720    2.0221
   33.735    2.0748
   33.750    1.7167
   33.765    1.7483
   33.780    1.9063
   33.795    1.9168
   33.810    1.8536
   33.825    1.8009
   33.840    1.8852
   33.855    1.9168
   33.870    1.7904
   33.885    1.9168
   33.900    1.7588
   33.915    1.8115
   33.930    1.8431
   33.945    1.7483
   33.960    1.7483
   33.975    1.8852
   33.990    1.9484
   34.005    1.8220
   34.020    1.7799
   34.035    1.5692
   34.050    1.4534
   34.065    1.6851
   34.080    1.5798
   34.095    1.8115
   34.110    1.8325
   34.125    1.9800
   34.140    1.7062
   34.155    1.8009
   34.170    1.8852
   34.185    1.9168
   34.200    1.8536
   34.215    1.8641
   34.230    1.8115
   34.245    1.7694
   34.260    1.7378
   34.275    1.8115
   34.290    1.7378
   34.305    1.8009
   34.320    1.7694
   34.335    1.5061
   34.350    1.7483
   34.365    1.8536
   34.380    1.8747
   34.395    1.5903
   34.410    1.7904
   34.425    1.7062
   34.440    1.5903
   34.455    1.7799
   34.470    1.8747
   34.485    1.6008
   34.500    1.6535
   34.515    1.7167
   34.530    1.8641
   34.545    1.9589
   34.560    1.8009
   34.575    1.8220
   34.590    1.6008
   34.605    1.8747
   34.620    1.8852
   34.635    1.6746
   34.650    1.6219
   34.665    1.7904
   34.680    1.8115
   34.695    1.8957
   34.710    1.8325
   34.725    1.8220
   34.740    1.8431
   34.755    1.9063
   34.770    1.7904
   34.785    1.6956
   34.800    1.6430
   34.815    1.5798
   34.830    1.7799
   34.845    1.7799
   34.860    1.6746
   34.875    1.6008
   34.890    1.6851
   34.905    1.7483
   34.920    1.7799
   34.935    1.6851
   34.950    1.9063
   34.965    1.5271
   34.980    1.7272
   34.995    1.6956
   35.010    1.6219
   35.025    1.6324
   35.040    1.7272
   35.055    1.7694
   35.070    1.8009
   35.085    1.7378
   35.100    1.8220
   35.115    1.5482
   35.130    1.6430
   35.145    1.9168
   35.160    1.8220
   35.175    1.8747
   35.190    1.8641
   35.205    1.7694
   35.220    1.8115
   35.235    1.8325
   35.250    1.6956
   35.265    1.8431
   35.280    1.9063
   35.295    1.8747
   35.310    1.7062
   35.325    1.6219
   35.340    1.6114
   35.355    1.7062
   35.370    1.7378
   35.385    1.6956
   35.400    1.6219
   35.415    1.6008
   35.430    1.6956
   35.445    1.5903
   35.460    1.7904
   35.475    1.6114
   35.490    1.6851
   35.505    1.6114
   35.520    1.5903
   35.535    1.7378
   35.550    1.9063
   35.565    1.8115
   35.580    1.7272
   35.595    1.6956
   35.610    1.7167
   35.625    1.8220
   35.640    1.7588
   35.655    1.6324
   35.670    1.7588
   35.685    1.7694
   35.700    1.8009
   35.715    1.8431
   35.730    1.7904
   35.745    1.6956
   35.760    1.6114
   35.775    1.6219
   35.790    1.6956
   35.805    1.8536
   35.820    1.5692
   35.835    1.5692
   35.850    1.7272
   35.865    1.7799
   35.880    1.7588
   35.895    1.7694
   35.910    1.5377
   35.925    1.7272
   35.940    1.6746
   35.955    1.6008
   35.970    1.5798
   35.985    1.5271
   36.000    1.7062
   36.015    1.7904
   36.030    1.7799
   36.045    2.0537
   36.060    1.9695
   36.075    1.7694
   36.090    1.6851
   36.105    1.7272
   36.120    1.6640
   36.135    1.6219
   36.150    1.8641
   36.165    1.7799
   36.180    1.6535
   36.195    1.8220
   36.210    1.6640
   36.225    1.6324
   36.240    1.6430
   36.255    1.6746
   36.270    1.8431
   36.285    1.6851
   36.300    1.7799
   36.315    1.6430
   36.330    1.8009
   36.345    1.8431
   36.360    1.5903
   36.375    1.6746
   36.390    1.7062
   36.405    1.6851
   36.420    1.8747
   36.435    1.7694
   36.450    1.5061
   36.465    1.7799
   36.480    1.6008
   36.495    1.7378
   36.510    1.8115
   36.525    1.7167
   36.540    1.7694
   36.555    1.7483
   36.570    1.7272
   36.585    1.6324
   36.600    1.5482
   36.615    1.7483
   36.630    1.7167
   36.645    1.9063
   36.660    1.7272
   36.675    1.6640
   36.690    1.7062
   36.705    1.6851
   36.720    1.8431
   36.735    1.6430
   36.750    1.6008
   36.765    1.7799
   36.780    1.7062
   36.795    1.7062
   36.810    1.6956
   36.825    1.7378
   36.840    1.9063
   36.855    1.6956
   36.870    1.5587
   36.885    1.6114
   36.900    1.7694
   36.915    1.8641
   36.930    1.6640
   36.945    1.5692
   36.960    1.6008
   36.975    1.6219
   36.990    1.6956
   37.005    1.6746
   37.020    1.5271
   37.035    1.6640
   37.050    1.6535
   37.065    1.6008
   37.080    1.5587
   37.095    1.7272
   37.110    1.6114
   37.125    1.5061
   37.140    1.7272
   37.155    1.8115
   37.170    1.7483
   37.185    1.8957
   37.200    1.7588
   37.215    1.6956
   37.230    1.5061
   37.245    1.4745
   37.260    1.5061
   37.275    1.6114
   37.290    1.6114
   37.305    1.4850
   37.320    1.7167
   37.335    1.6219
   37.350    1.6956
   37.365    1.6114
   37.380    1.5903
   37.395    1.6851
   37.410    1.7904
   37.425    1.8115
   37.440    1.8325
   37.455    2.0326
   37.470    1.7588
   37.485    1.7799
   37.500    1.6219
   37.515    1.7272
   37.530    1.6114
   37.545    1.5271
   37.560    1.5482
   37.575    1.5587
   37.590    1.6746
   37.605    1.5692
   37.620    1.6535
   37.635    1.7062
   37.650    1.6114
   37.665    1.5377
   37.680    1.4955
   37.695    1.4955
   37.710    1.5692
   37.725    1.6114
   37.740    1.8957
   37.755    1.4534
   37.770    1.5166
   37.785    1.5587
   37.800    1.7694
   37.815    1.8009
   37.830    1.5903
   37.845    1.7062
   37.860    1.4429
   37.875    1.6535
   37.890    1.5377
   37.905    1.4745
   37.920    1.5271
   37.935    1.5482
   37.950    1.5482
   37.965    1.5482
   37.980    1.5377
   37.995    1.5377
   38.010    1.6746
   38.025    1.6430
   38.040    1.5166
   38.055    1.8536
   38.070    1.5692
   38.085    1.6219
   38.100    1.6956
   38.115    1.6114
   38.130    1.6008
   38.145    1.4639
   38.160    1.6324
   38.175    1.7062
   38.190    1.6114
   38.205    1.4007
   38.220    1.5903
   38.235    1.6008
   38.250    1.8115
   38.265    1.9063
   38.280    1.6535
   38.295    1.8220
   38.310    1.5482
   38.325    1.6219
   38.340    1.6746
   38.355    1.6219
   38.370    1.5798
   38.385    1.5692
   38.400    1.6956
   38.415    1.5377
   38.430    1.6535
   38.445    1.8325
   38.460    1.5377
   38.475    1.5903
   38.490    1.6535
   38.505    1.4429
   38.520    1.6851
   38.535    1.5271
   38.550    1.5482
   38.565    1.6008
   38.580    1.7799
   38.595    1.7167
   38.610    1.7272
   38.625    1.6008
   38.640    1.7062
   38.655    1.6535
   38.670    1.7378
   38.685    1.6746
   38.700    1.8009
   38.715    1.8536
   38.730    1.6008
   38.745    1.7062
   38.760    1.7588
   38.775    1.5903
   38.790    1.6114
   38.805    1.6008
   38.820    1.5692
   38.835    1.6008
   38.850    1.4850
   38.865    1.7062
   38.880    1.6008
   38.895    1.5061
   38.910    1.5271
   38.925    1.3902
   38.940    1.4534
   38.955    1.5587
   38.970    1.5587
   38.985    1.6219
   39.000    1.4850
   39.015    1.6956
   39.030    1.8957
   39.045    1.7694
   39.060    1.7167
   39.075    1.5692
   39.090    1.5061
   39.105    1.4218
   39.120    1.6114
   39.135    1.6008
   39.150    1.5482
   39.165    1.7904
   39.180    1.7062
   39.195    1.6535
   39.210    1.6851
   39.225    1.6640
   39.240    1.6430
   39.255    1.6640
   39.270    1.6219
   39.285    1.6114
   39.300    1.5377
   39.315    1.5587
   39.330    1.7062
   39.345    1.4745
   39.360    1.4639
   39.375    1.4007
   39.390    1.3165
   39.405    1.4429
   39.420    1.6114
   39.435    1.6851
   39.450    1.6114
   39.465    1.5271
   39.480    1.5482
   39.495    1.4955
   39.510    1.5166
   39.525    1.6640
   39.540    1.4955
   39.555    1.6219
   39.570    1.6956
   39.585    1.5798
   39.600    1.3902
   39.615    1.5798
   39.630    1.7167
   39.645    1.7483
   39.660    1.6430
   39.675    1.5903
   39.690    1.6535
   39.705    1.8009
   39.720    1.5903
   39.735    1.6114
   39.750    1.6324
   39.765    1.4850
   39.780    1.6535
   39.795    1.4113
   39.810    1.3797
   39.825    1.4323
   39.840    1.6008
   39.855    1.5903
   39.870    1.5587
   39.885    1.7588
   39.900    1.3586
   39.915    1.3481
   39.930    1.5271
   39.945    1.6535
   39.960    1.6324
   39.975    1.5903
   39.990    1.3586
