    1.500   33.2280
    1.515   33.9547
    1.530   32.5118
    1.545   31.6904
    1.560   31.4376
    1.575   31.2270
    1.590   30.2264
    1.605   29.7420
    1.620   29.2154
    1.635   28.8678
    1.650   28.2991
    1.665   27.7093
    1.680   28.1727
    1.695   27.0774
    1.710   26.4666
    1.725   25.8873
    1.740   25.9084
    1.755   25.1817
    1.770   25.1290
    1.785   25.4871
    1.800   25.2027
    1.815   24.4655
    1.830   23.6756
    1.845   23.5598
    1.860   23.4229
    1.875   23.3070
    1.890   22.0748
    1.905   21.6956
    1.920   22.5382
    1.935   22.5698
    1.950   21.4850
    1.965   21.5692
    1.980   21.0532
    1.995   21.6219
    2.010   21.1901
    2.025   20.4423
    2.040   19.8947
    2.055   20.3160
    2.070   19.9052
    2.085   20.2528
    2.100   19.5577
    2.115   19.0100
    2.130   19.1153
    2.145   18.8310
    2.160   18.9679
    2.175   18.5466
    2.190   18.4097
    2.205   17.6093
    2.220   17.7778
    2.235   18.5571
    2.250   17.3776
    2.265   17.7041
    2.280   17.6409
    2.295   17.7778
    2.310   17.8515
    2.325   16.4929
    2.340   16.7457
    2.355   16.6825
    2.370   16.6509
    2.385   16.1875
    2.400   16.1137
    2.415   16.3454
    2.430   16.1559
    2.445   15.6714
    2.460   15.8820
    2.475   15.9768
    2.490   16.3139
    2.505   16.1664
    2.520   15.6925
    2.535   14.7235
    2.550   15.5872
    2.565   15.7135
    2.580   15.6503
    2.595   15.1869
    2.610   14.4602
    2.625   14.5656
    2.640   14.9026
    2.655   14.4286
    2.670   14.2075
    2.685   14.4497
    2.700   15.0922
    2.715   14.5761
    2.730   13.7651
    2.745   13.7441
    2.760   13.9758
    2.775   13.9968
    2.790   13.7019
    2.805   13.8915
    2.820   13.7862
    2.835   13.7967
    2.850   13.7230
    2.865   13.5440
    2.880   13.3439
    2.895   13.4492
    2.910   13.4071
    2.925   13.4808
    2.940   14.0179
    2.955   13.2701
    2.970   12.5434
    2.985   12.7330
    3.000   12.3328
    3.015   13.2491
    3.030   13.5861
    3.045   13.1964
    3.060   12.6909
    3.075   12.7857
    3.090   12.7646
    3.105   12.5540
    3.120   12.7436
    3.135   12.1011
    3.150   12.4381
    3.165   12.7962
    3.180   13.0911
    3.195   12.7120
    3.210   12.1116
    3.225   12.0379
    3.240   11.7852
    3.255   11.9642
    3.270   12.1432
    3.285   12.3328
    3.300   12.1116
    3.315   11.6588
    3.330   11.6904
    3.345   11.7009
    3.360   11.3428
    3.375   11.9326
    3.390   11.6798
    3.405   12.1011
    3.420   11.6061
    3.435   12.0695
    3.450   11.5745
    3.465   11.7746
    3.480   11.9326
    3.495   11.8378
    3.510   11.5850
    3.525   11.5956
    3.540   11.6166
    3.555   11.5745
    3.570   11.6272
    3.585   11.2902
    3.600   11.1638
    3.615   11.2375
    3.630   10.9742
    3.645   11.2480
    3.660   11.3428
    3.675   11.3112
    3.690   11.5745
    3.705   11.2375
    3.720   11.2375
    3.735   11.1743
    3.750   11.1954
    3.765   10.8478
    3.780   11.3428
    3.795   10.7952
    3.810   10.7320
    3.825   10.1948
    3.840   10.8583
    3.855   11.1216
    3.870   10.9847
    3.885   10.9742
    3.900   10.9953
    3.915   10.3002
    3.930   10.5951
    3.945   10.9637
    3.960   10.7425
    3.975   10.7214
    3.990   11.2796
    4.005   11.2480
    4.020   10.3002
    4.035   10.8057
    4.050   10.6688
    4.065   10.0579
    4.080   10.0790
    4.095   10.5951
    4.110   10.6266
    4.125   10.4160
    4.140   10.6372
    4.155   10.2580
    4.170   10.2159
    4.185   10.4055
    4.200   10.9005
    4.215   10.6793
    4.230   10.6688
    4.245   10.6793
    4.260   10.5108
    4.275    9.9421
    4.290   10.3528
    4.305   10.4055
    4.320    9.8368
    4.335   10.1738
    4.350   10.2896
    4.365   10.3002
    4.380   10.1632
    4.395   10.3212
    4.410    9.9947
    4.425    9.8052
    4.440   10.5740
    4.455   10.2686
    4.470   10.1632
    4.485   10.3002
    4.500    9.7946
    4.515   10.1843
    4.530   10.4476
    4.545   10.0685
    4.560   10.1843
    4.575    9.4155
    4.590    9.8262
    4.605    9.8262
    4.620   10.0474
    4.635    9.8894
    4.650   10.2580
    4.665   10.0790
    4.680   10.5003
    4.695   10.2159
    4.710    9.6156
    4.725    9.9315
    4.740   10.0053
    4.755   10.1948
    4.770    9.7314
    4.785    9.5313
    4.800    9.3312
    4.815    9.8789
    4.830    9.9105
    4.845   10.1422
    4.860   10.0685
    4.875   10.0685
    4.890    9.8157
    4.905    9.9737
    4.920   10.0369
    4.935    9.5419
    4.950    9.9421
    4.965    9.8473
    4.980    9.8578
    4.995    9.7420
    5.010    9.8262
    5.025   10.0369
    5.040    9.9737
    5.055    9.6682
    5.070    9.9737
    5.085   10.1632
    5.100    9.6367
    5.115    9.5735
    5.130    9.5313
    5.145    9.4050
    5.160    9.4260
    5.175    9.1627
    5.190    9.7630
    5.205    9.8684
    5.220    9.9210
    5.235    9.8894
    5.250    9.7630
    5.265    9.8262
    5.280   10.3002
    5.295    9.9947
    5.310   10.2686
    5.325   10.5529
    5.340    9.9947
    5.355   10.1316
    5.370    9.7946
    5.385    9.8052
    5.400    9.5313
    5.415    9.6788
    5.430   10.0895
    5.445    9.8894
    5.460   10.0263
    5.475   10.6161
    5.490   10.1738
    5.505   10.5108
    5.520   10.4897
    5.535   10.6477
    5.550   10.2370
    5.565   10.5740
    5.580   10.5740
    5.595   10.8268
    5.610   10.6793
    5.625   11.0269
    5.640   11.2586
    5.655   10.1422
    5.670   10.3528
    5.685   10.5529
    5.700   10.5845
    5.715   10.1211
    5.730   10.3107
    5.745   10.2580
    5.760   10.2896
    5.775   10.1843
    5.790    9.8262
    5.805   10.4055
    5.820   10.8794
    5.835   10.4581
    5.850   10.2159
    5.865   10.5740
    5.880   10.0790
    5.895   10.7425
    5.910   10.3212
    5.925   11.0795
    5.940   11.3112
    5.955   11.0374
    5.970   11.4481
    5.985   11.7641
    6.000   11.4060
    6.015   12.0906
    6.030   13.0068
    6.045   12.1959
    6.060   12.4487
    6.075   12.5645
    6.090   13.9442
    6.105   13.7967
    6.120   14.5761
    6.135   14.8605
    6.150   14.5550
    6.165   15.0816
    6.180   14.5024
    6.195   13.5545
    6.210   13.2491
    6.225   11.3849
    6.240   10.0790
    6.255   10.0263
    6.270    9.6682
    6.285    9.5840
    6.300    9.3523
    6.315    9.0258
    6.330    8.8889
    6.345    8.9521
    6.360    9.4787
    6.375    9.2048
    6.390    9.5419
    6.405    9.3418
    6.420    9.4576
    6.435    9.5103
    6.450    9.5945
    6.465    9.5313
    6.480    9.6261
    6.495    9.0574
    6.510    9.2259
    6.525    9.3312
    6.540    9.2575
    6.555    8.7414
    6.570    8.7625
    6.585    9.3839
    6.600    9.3944
    6.615    9.6577
    6.630    9.0469
    6.645    8.9521
    6.660    9.0785
    6.675    9.1943
    6.690    9.6577
    6.705    9.7420
    6.720    8.9837
    6.735    9.0153
    6.750    8.8573
    6.765    9.2259
    6.780    9.1522
    6.795    9.1101
    6.810    9.0469
    6.825    9.2364
    6.840    9.3418
    6.855    9.0574
    6.870    8.6993
    6.885    9.1206
    6.900    8.9837
    6.915    9.0047
    6.930    9.5208
    6.945    9.5629
    6.960    9.0153
    6.975    9.0890
    6.990    9.4260
    7.005    9.4155
    7.020    9.0995
    7.035    8.7730
    7.050    9.2259
    7.065    9.1732
    7.080    9.5419
    7.095    9.4787
    7.110    9.0995
    7.125    9.4155
    7.140    9.4997
    7.155    9.4681
    7.170    9.7736
    7.185    9.2470
    7.200    9.0153
    7.215    9.0679
    7.230    9.7420
    7.245    9.9631
    7.260    9.5524
    7.275    9.6472
    7.290    9.7420
    7.305    9.4365
    7.320    9.0047
    7.335    9.4155
    7.350    8.9310
    7.365    9.3207
    7.380    9.3207
    7.395    9.3839
    7.410   10.0790
    7.425    9.5103
    7.440    9.2364
    7.455    9.1206
    7.470    9.0047
    7.485    9.3312
    7.500    9.9842
    7.515    9.1417
    7.530    8.9521
    7.545    9.3523
    7.560    8.7520
    7.575    8.8573
    7.590    8.9310
    7.605    9.1522
    7.620    9.3944
    7.635    9.2891
    7.650    9.6472
    7.665    9.6998
    7.680    9.3523
    7.695    9.2154
    7.710    9.4997
    7.725    9.3944
    7.740    9.1311
    7.755    9.1206
    7.770    9.0047
    7.785    9.1522
    7.800    9.3944
    7.815    9.3102
    7.830    9.3734
    7.845    9.1732
    7.860    9.6051
    7.875    9.3944
    7.890    9.3523
    7.905    9.3734
    7.920    9.0995
    7.935    8.9205
    7.950    9.2575
    7.965    8.7309
    7.980    9.0153
    7.995    9.5419
    8.010    9.7209
    8.025    9.8473
    8.040    9.3839
    8.055    9.3523
    8.070    8.8152
    8.085    8.9731
    8.100    9.6367
    8.115    9.4681
    8.130    9.1627
    8.145    9.1943
    8.160    9.2575
    8.175    9.5103
    8.190    9.0153
    8.205    9.1943
    8.220    9.7736
    8.235    9.4155
    8.250    9.5524
    8.265    9.8894
    8.280    9.2786
    8.295    8.9942
    8.310    9.2154
    8.325    9.2259
    8.340    9.6998
    8.355    9.4471
    8.370    9.7630
    8.385    9.5419
    8.400    9.4787
    8.415    9.7946
    8.430    9.3839
    8.445    9.2786
    8.460    9.3418
    8.475    9.4787
    8.490    9.9947
    8.505    9.7525
    8.520    9.7209
    8.535    9.3312
    8.550    9.0047
    8.565    9.5524
    8.580    9.6577
    8.595    9.7104
    8.610    9.5945
    8.625    9.3734
    8.640    8.7309
    8.655    9.4050
    8.670    9.1732
    8.685    9.1417
    8.700    9.1101
    8.715    9.0574
    8.730    9.5208
    8.745    9.4365
    8.760    9.0785
    8.775    8.9626
    8.790    9.3523
    8.805    9.5840
    8.820    9.3839
    8.835    9.1838
    8.850    9.4155
    8.865    9.3102
    8.880    9.7630
    8.895    9.5524
    8.910    9.7420
    8.925    9.3102
    8.940    9.5524
    8.955    9.6893
    8.970    9.2786
    8.985    9.7314
    9.000    9.1627
    9.015    9.0153
    9.030    9.2680
    9.045    9.9105
    9.060    9.7314
    9.075    9.5208
    9.090    9.4892
    9.105    9.2470
    9.120    9.8684
    9.135    9.4892
    9.150    9.4050
    9.165    9.2996
    9.180    9.6577
    9.195   10.1316
    9.210   10.3423
    9.225   10.1211
    9.240   10.1211
    9.255   10.3844
    9.270   10.9953
    9.285   10.8899
    9.300   10.8162
    9.315   10.6793
    9.330   11.2796
    9.345   10.9005
    9.360   11.0163
    9.375   11.7852
    9.390   12.5540
    9.405   13.3333
    9.420   13.0279
    9.435   12.8594
    9.450   13.8178
    9.465   15.1237
    9.480   15.7557
    9.495   15.4397
    9.510   15.0606
    9.525   14.4181
    9.540   13.5018
    9.555   12.6277
    9.570   11.8062
    9.585   10.5845
    9.600   10.8689
    9.615   10.4265
    9.630   10.1316
    9.645   10.8689
    9.660   11.3639
    9.675   10.6898
    9.690   10.5213
    9.705   10.1632
    9.720   10.6161
    9.735   10.3528
    9.750    9.9737
    9.765    9.4260
    9.780    9.7841
    9.795    9.7314
    9.810    9.8052
    9.825    9.6788
    9.840    9.6261
    9.855    9.7420
    9.870    9.2364
    9.885    9.6051
    9.900    9.1627
    9.915    9.6261
    9.930    9.1101
    9.945    9.0153
    9.960    9.6472
    9.975    9.3628
    9.990    9.3312
   10.005    9.5524
   10.020    9.5629
   10.035    9.3944
   10.050    9.7209
   10.065    9.2891
   10.080    9.5103
   10.095    9.5945
   10.110    9.6261
   10.125    9.4576
   10.140    9.8578
   10.155    9.7841
   10.170    9.1101
   10.185    9.5735
   10.200    9.5208
   10.215    9.5945
   10.230    9.4471
   10.245    9.7209
   10.260    9.6472
   10.275    9.5945
   10.290    9.8368
   10.305   10.1948
   10.320   10.2370
   10.335   10.4055
   10.350   10.1738
   10.365    9.8052
   10.380   10.2896
   10.395    9.9210
   10.410    9.9210
   10.425   10.1316
   10.440   10.3318
   10.455   10.1211
   10.470   10.2159
   10.485   10.3528
   10.500   10.4581
   10.515   10.0369
   10.530   10.6793
   10.545   10.8373
   10.560   10.7846
   10.575   10.6477
   10.590   10.5108
   10.605   10.4055
   10.620   10.2370
   10.635   10.7320
   10.650   10.9531
   10.665   11.1848
   10.680   11.2480
   10.695   11.2902
   10.710   11.5745
   10.725   12.6804
   10.740   12.7541
   10.755   13.3649
   10.770   14.2917
   10.785   14.4286
   10.800   15.0500
   10.815   15.6082
   10.830   15.0079
   10.845   13.9547
   10.860   13.5756
   10.875   12.8805
   10.890   11.6061
   10.905   11.1216
   10.920   11.5745
   10.935   11.4376
   10.950   11.5219
   10.965   11.2586
   10.980   11.1638
   10.995   11.4797
   11.010   11.5429
   11.025   11.4587
   11.040   11.2164
   11.055   10.6688
   11.070   10.8268
   11.085   10.0790
   11.100   10.5740
   11.115   10.7320
   11.130   10.4687
   11.145   10.6161
   11.160   10.6056
   11.175    9.9210
   11.190    9.8473
   11.205    9.7736
   11.220    9.5313
   11.235   10.0263
   11.250    9.3312
   11.265    9.5313
   11.280    9.9947
   11.295   10.3002
   11.310   10.1738
   11.325   10.0474
   11.340    9.4681
   11.355    9.3312
   11.370    9.5629
   11.385    8.8257
   11.400    9.0469
   11.415    9.2470
   11.430    9.3418
   11.445    8.9626
   11.460    9.2891
   11.475    9.2786
   11.490    9.2364
   11.505    9.1522
   11.520    9.2996
   11.535    9.5629
   11.550    9.6472
   11.565    9.4997
   11.580    9.7314
   11.595    9.7525
   11.610    9.6367
   11.625    9.5313
   11.640   10.0579
   11.655    9.8473
   11.670   10.0158
   11.685   10.0895
   11.700    9.8999
   11.715    9.9421
   11.730   10.3423
   11.745   10.8689
   11.760   11.2796
   11.775   11.5324
   11.790   11.5324
   11.805   11.5008
   11.820   11.6377
   11.835   11.1532
   11.850   11.2902
   11.865   11.1111
   11.880   10.4792
   11.895    9.8157
   11.910    9.9737
   11.925    9.0469
   11.940    9.2259
   11.955    9.4155
   11.970    9.6261
   11.985    9.3944
   12.000    9.5629
   12.015    9.4892
   12.030    9.3628
   12.045    9.3312
   12.060    9.2470
   12.075    9.1311
   12.090    9.4787
   12.105    9.6893
   12.120    9.8684
   12.135    9.8473
   12.150    9.3207
   12.165    9.4155
   12.180    9.6788
   12.195    9.4576
   12.210    9.3628
   12.225    9.5103
   12.240    9.2996
   12.255    9.6682
   12.270    9.5735
   12.285    9.4471
   12.300    9.5840
   12.315    9.4155
   12.330    9.1311
   12.345    9.4365
   12.360    9.2680
   12.375    9.0679
   12.390    9.1838
   12.405    9.4365
   12.420    9.3628
   12.435    9.1417
   12.450    9.0258
   12.465    9.0785
   12.480    8.6993
   12.495    8.8152
   12.510    8.9415
   12.525    8.7625
   12.540    8.4466
   12.555    8.8046
   12.570    8.5729
   12.585    8.4676
   12.600    8.6467
   12.615    8.6467
   12.630    8.9415
   12.645    8.8784
   12.660    8.5203
   12.675    8.7520
   12.690    9.0469
   12.705    8.8046
   12.720    8.5203
   12.735    8.1938
   12.750    8.7309
   12.765    8.4360
   12.780    8.7204
   12.795    8.4992
   12.810    8.6993
   12.825    9.2154
   12.840    9.1206
   12.855    8.9100
   12.870    9.0785
   12.885    8.9205
   12.900    9.0258
   12.915    9.0890
   12.930    8.9942
   12.945    9.0679
   12.960    9.3839
   12.975    9.1838
   12.990    9.7946
   13.005    9.5208
   13.020    9.7525
   13.035    9.8473
   13.050    9.8262
   13.065   10.0158
   13.080    9.9105
   13.095   10.5319
   13.110   10.3423
   13.125    9.9210
   13.140    9.8473
   13.155   10.0263
   13.170    9.7209
   13.185    9.4997
   13.200    8.9415
   13.215    9.2786
   13.230    8.9310
   13.245    8.7520
   13.260    8.6572
   13.275    9.0995
   13.290    8.7098
   13.305    8.6888
   13.320    9.0574
   13.335    9.1522
   13.350    9.0995
   13.365    8.5624
   13.380    8.7520
   13.395    8.5729
   13.410    8.9942
   13.425    8.6256
   13.440    8.3202
   13.455    8.5413
   13.470    8.5729
   13.485    8.4255
   13.500    8.6783
   13.515    8.3518
   13.530    8.6783
   13.545    8.6045
   13.560    8.9415
   13.575    8.5940
   13.590    8.3202
   13.605    8.3728
   13.620    8.2780
   13.635    8.2675
   13.650    8.3834
   13.665    8.4887
   13.680    8.1727
   13.695    8.5308
   13.710    8.4781
   13.725    8.1517
   13.740    8.7098
   13.755    8.5413
   13.770    8.4887
   13.785    8.3939
   13.800    8.5940
   13.815    8.8257
   13.830    8.7414
   13.845    8.7520
   13.860    8.6151
   13.875    8.4360
   13.890    8.6151
   13.905    8.5519
   13.920    8.6783
   13.935    8.9626
   13.950    8.6572
   13.965    8.8046
   13.980    8.8994
   13.995    8.7414
   14.010    8.8257
   14.025    8.6677
   14.040    8.5308
   14.055    8.7836
   14.070    8.4676
   14.085    8.6888
   14.100    8.5940
   14.115    8.8994
   14.130    8.6572
   14.145    8.6256
   14.160    8.2043
   14.175    8.3623
   14.190    8.4676
   14.205    8.4571
   14.220    8.8046
   14.235    8.7520
   14.250    8.4676
   14.265    8.4044
   14.280    8.5729
   14.295    8.7941
   14.310    8.7098
   14.325    8.9100
   14.340    8.7520
   14.355    8.6361
   14.370    8.6993
   14.385    8.7836
   14.400    8.2991
   14.415    8.5308
   14.430    8.7204
   14.445    8.6783
   14.460    8.6993
   14.475    9.0047
   14.490    8.5097
   14.505    8.6888
   14.520    8.8994
   14.535    8.7941
   14.550    9.0258
   14.565    9.2680
   14.580    9.0785
   14.595    8.4360
   14.610    8.8784
   14.625    8.9942
   14.640    8.7309
   14.655    8.7625
   14.670    8.8362
   14.685    8.4992
   14.700    9.2364
   14.715    8.9942
   14.730    9.0469
   14.745    8.8784
   14.760    9.0258
   14.775    9.4997
   14.790    8.9521
   14.805    9.3628
   14.820    9.3207
   14.835    8.5940
   14.850    9.1732
   14.865    9.3523
   14.880    9.2680
   14.895    9.1838
   14.910    8.6467
   14.925    8.4466
   14.940    8.9837
   14.955    8.8784
   14.970    8.9415
   14.985    9.0785
   15.000    9.2575
   15.015    8.9626
   15.030    8.5729
   15.045    9.0679
   15.060    9.2259
   15.075    8.9626
   15.090    8.4676
   15.105    8.7204
   15.120    8.4466
   15.135    8.7309
   15.150    9.0785
   15.165    8.7098
   15.180    8.7941
   15.195    9.3102
   15.210    8.6993
   15.225    9.1417
   15.240    8.4992
   15.255    8.6677
   15.270    8.7414
   15.285    8.2359
   15.300    8.6993
   15.315    8.6361
   15.330    8.8362
   15.345    8.7625
   15.360    9.0785
   15.375    8.7520
   15.390    8.8784
   15.405    8.6256
   15.420    8.7309
   15.435    9.0469
   15.450    9.0258
   15.465    8.9100
   15.480    8.5097
   15.495    8.7730
   15.510    9.1627
   15.525    8.9626
   15.540    9.1732
   15.555    8.7625
   15.570    9.0995
   15.585    8.6256
   15.600    8.7625
   15.615    8.6151
   15.630    8.1727
   15.645    8.4150
   15.660    9.0574
   15.675    9.1732
   15.690    8.6467
   15.705    8.6783
   15.720    8.6677
   15.735    8.9626
   15.750    9.4365
   15.765    9.2048
   15.780    9.0890
   15.795    9.0363
   15.810    8.6045
   15.825    8.2359
   15.840    8.3412
   15.855    8.3412
   15.870    8.9415
   15.885    8.6888
   15.900    8.7204
   15.915    9.2470
   15.930    8.7309
   15.945    9.0363
   15.960    9.2259
   15.975    8.6045
   15.990    9.0047
   16.005    8.7730
   16.020    8.4150
   16.035    8.8678
   16.050    8.6677
   16.065    8.6256
   16.080    8.3518
   16.095    8.7836
   16.110    8.7625
   16.125    8.6888
   16.140    9.0363
   16.155    9.3523
   16.170    9.1522
   16.185    8.9626
   16.200    9.5103
   16.215    9.4892
   16.230    9.5419
   16.245    9.5524
   16.260    9.8894
   16.275    9.9947
   16.290    9.6893
   16.305    9.4997
   16.320    9.5208
   16.335    9.6367
   16.350    9.7314
   16.365    9.2680
   16.380    9.0047
   16.395    9.0469
   16.410    8.8678
   16.425    8.8257
   16.440    9.3944
   16.455    9.0574
   16.470    8.7098
   16.485    8.3307
   16.500    8.7730
   16.515    8.4150
   16.530    8.2780
   16.545    8.5729
   16.560    9.0258
   16.575    8.7414
   16.590    8.4360
   16.605    8.6572
   16.620    8.5835
   16.635    8.3518
   16.650    8.6256
   16.665    8.4044
   16.680    8.6572
   16.695    8.9626
   16.710    8.4992
   16.725    8.8573
   16.740    8.7520
   16.755    8.3939
   16.770    8.6993
   16.785    8.4150
   16.800    8.6572
   16.815    8.7520
   16.830    9.3839
   16.845    8.8573
   16.860    8.6572
   16.875    8.6888
   16.890    9.2996
   16.905    9.5735
   16.920    8.7730
   16.935    8.5729
   16.950    9.1101
   16.965    9.3312
   16.980    8.7309
   16.995    9.1627
   17.010    8.9837
   17.025    8.8889
   17.040    8.8784
   17.055    8.5729
   17.070    9.1627
   17.085    8.9100
   17.100    9.2680
   17.115    9.2786
   17.130    9.3734
   17.145    8.8362
   17.160    9.1311
   17.175    9.3839
   17.190    9.0153
   17.205    8.7309
   17.220    9.3523
   17.235    9.2786
   17.250    9.3523
   17.265    9.3628
   17.280    9.1101
   17.295    8.5519
   17.310    8.5729
   17.325    8.7414
   17.340    8.9205
   17.355    9.3207
   17.370    8.9837
   17.385    8.6888
   17.400    8.9100
   17.415    8.7309
   17.430    8.6045
   17.445    8.0779
   17.460    8.3412
   17.475    8.7941
   17.490    8.6256
   17.505    8.8257
   17.520    8.6361
   17.535    8.9731
   17.550    8.8046
   17.565    8.5624
   17.580    8.9100
   17.595    9.4681
   17.610    8.8046
   17.625    9.1206
   17.640    8.8889
   17.655    9.1627
   17.670    9.1417
   17.685    9.1943
   17.700    8.7520
   17.715    9.1627
   17.730    8.8573
   17.745    9.3944
   17.760    9.2575
   17.775    9.2996
   17.790    9.6998
   17.805    9.4050
   17.820    9.8789
   17.835    9.6788
   17.850    9.6788
   17.865    9.6261
   17.880    9.5103
   17.895    9.8684
   17.910    9.4576
   17.925    9.2996
   17.940    9.7841
   17.955    9.8999
   17.970   10.1843
   17.985   10.6056
   18.000    9.8578
   18.015   10.0579
   18.030    9.8684
   18.045    9.9315
   18.060    9.7420
   18.075    9.6682
   18.090   10.1211
   18.105    9.5208
   18.120    9.1522
   18.135    9.4997
   18.150    9.4050
   18.165    9.2575
   18.180    9.1943
   18.195    9.4365
   18.210    8.9310
   18.225    9.3523
   18.240    8.8468
   18.255    9.1206
   18.270    9.1417
   18.285    8.8784
   18.300    9.0995
   18.315    9.2364
   18.330    8.9310
   18.345    9.0890
   18.360    8.9100
   18.375    8.9205
   18.390    8.7309
   18.405    8.6361
   18.420    8.9626
   18.435    9.1206
   18.450    9.3102
   18.465    8.6677
   18.480    8.8152
   18.495    8.8257
   18.510    8.5624
   18.525    8.7730
   18.540    8.8784
   18.555    8.8257
   18.570    9.2259
   18.585    9.2259
   18.600    9.0047
   18.615    8.6256
   18.630    9.0995
   18.645    9.3839
   18.660    9.4681
   18.675    9.3207
   18.690    9.2259
   18.705    9.3628
   18.720    8.9521
   18.735    9.2470
   18.750    9.5313
   18.765    9.0363
   18.780    9.1943
   18.795    9.0469
   18.810    9.0995
   18.825    9.4997
   18.840    9.4997
   18.855    9.3944
   18.870    9.2996
   18.885    9.3523
   18.900    9.5735
   18.915    8.7098
   18.930    8.7625
   18.945    9.3734
   18.960    9.2154
   18.975    9.1838
   18.990    8.9731
   19.005    9.1101
   19.020    8.8468
   19.035    8.7625
   19.050    8.8784
   19.065    9.0047
   19.080    8.6467
   19.095    9.0258
   19.110    9.0258
   19.125    8.8994
   19.140    8.3518
   19.155    8.7625
   19.170    8.7309
   19.185    8.7520
   19.200    8.7520
   19.215    8.6572
   19.230    8.3939
   19.245    8.7520
   19.260    8.8994
   19.275    8.7414
   19.290    8.8994
   19.305    8.7098
   19.320    9.4260
   19.335    8.6045
   19.350    8.8468
   19.365    8.7730
   19.380    8.9521
   19.395    9.1311
   19.410    8.7625
   19.425    8.7309
   19.440    9.3628
   19.455    8.9100
   19.470    8.8257
   19.485    8.8678
   19.500    8.5308
   19.515    9.0679
   19.530    8.9521
   19.545    8.7625
   19.560    9.2259
   19.575    8.8678
   19.590    8.8257
   19.605    8.5835
   19.620    8.4992
   19.635    9.1206
   19.650    8.6993
   19.665    8.2675
   19.680    8.6993
   19.695    8.7309
   19.710    8.5624
   19.725    8.6151
   19.740    8.9205
   19.755    8.9626
   19.770    9.0995
   19.785    8.8152
   19.800    9.0469
   19.815    8.5624
   19.830    8.7836
   19.845    8.6572
   19.860    8.8362
   19.875    9.1522
   19.890    8.4360
   19.905    8.2359
   19.920    8.1622
   19.935    8.4255
   19.950    8.8678
   19.965    8.7520
   19.980    8.7941
   19.995    8.8362
   20.010    9.1311
   20.025    8.8152
   20.040    8.8994
   20.055    8.6467
   20.070    8.4781
   20.085    8.5203
   20.100    8.6783
   20.115    8.9521
   20.130    8.7836
   20.145    8.4255
   20.160    8.4571
   20.175    8.9205
   20.190    8.6256
   20.205    9.3628
   20.220    8.8678
   20.235    8.4887
   20.250    8.6256
   20.265    8.8152
   20.280    9.0363
   20.295    8.8573
   20.310    8.8257
   20.325    8.7625
   20.340    8.6783
   20.355    9.2470
   20.370    9.2470
   20.385    9.0890
   20.400    9.0995
   20.415    8.7414
   20.430    8.8573
   20.445    8.7730
   20.460    8.3412
   20.475    9.3102
   20.490    9.2470
   20.505    9.2048
   20.520    9.3628
   20.535    8.9100
   20.550    9.0363
   20.565    9.3944
   20.580    9.1417
   20.595    9.1522
   20.610    9.3102
   20.625    9.2364
   20.640    9.2996
   20.655    9.2470
   20.670    8.9837
   20.685    8.8257
   20.700    9.2786
   20.715    9.2259
   20.730    8.8678
   20.745    9.2680
   20.760    8.9521
   20.775    9.1101
   20.790    8.7836
   20.805    8.7520
   20.820    9.1101
   20.835    9.0679
   20.850    8.6572
   20.865    8.6151
   20.880    8.4676
   20.895    8.6151
   20.910    8.6993
   20.925    8.7836
   20.940    8.6256
   20.955    9.0047
   20.970    9.1101
   20.985    8.9205
   21.000    8.4992
   21.015    9.0153
   21.030    8.7520
   21.045    8.3728
   21.060    8.4044
   21.075    8.5624
   21.090    9.0679
   21.105    9.0153
   21.120    8.6151
   21.135    8.6783
   21.150    8.9731
   21.165    8.2991
   21.180    8.6361
   21.195    9.0679
   21.210    8.4571
   21.225    8.5940
   21.240    8.8468
   21.255    9.1627
   21.270    9.6577
   21.285    8.8994
   21.300    8.8046
   21.315    9.0890
   21.330    8.5729
   21.345    8.6256
   21.360    9.0258
   21.375    9.0574
   21.390    8.9942
   21.405    8.9521
   21.420    8.8152
   21.435    9.1943
   21.450    9.1732
   21.465    9.0363
   21.480    9.3839
   21.495    9.2996
   21.510    8.7414
   21.525    8.7941
   21.540    9.1101
   21.555    8.5940
   21.570    8.8889
   21.585    9.0258
   21.600    8.9521
   21.615    9.2470
   21.630    9.0995
   21.645    9.3418
   21.660    8.9310
   21.675    9.2786
   21.690    9.4365
   21.705    8.9205
   21.720    8.7730
   21.735    9.1311
   21.750    9.3734
   21.765    8.9310
   21.780    8.5729
   21.795    8.7836
   21.810    8.6783
   21.825    9.0363
   21.840    9.3839
   21.855    9.1838
   21.870    9.3628
   21.885    8.7836
   21.900    8.8362
   21.915    8.9837
   21.930    8.7098
   21.945    9.0153
   21.960    9.0890
   21.975    8.5940
   21.990    8.6045
   22.005    8.8152
   22.020    8.6572
   22.035    8.6783
   22.050    9.3207
   22.065    9.3102
   22.080    9.0469
   22.095    9.2470
   22.110    9.0469
   22.125    9.0574
   22.140    8.8046
   22.155    9.3102
   22.170    9.0995
   22.185    9.5524
   22.200    9.3102
   22.215    9.0363
   22.230    9.0785
   22.245    9.1838
   22.260    8.7414
   22.275    8.8152
   22.290    9.2154
   22.305    9.0785
   22.320    9.3523
   22.335    9.2786
   22.350    9.6051
   22.365    9.0363
   22.380    9.0047
   22.395    9.1311
   22.410    8.8046
   22.425    8.7941
   22.440    9.2364
   22.455    9.3734
   22.470    8.7836
   22.485    9.0363
   22.500    9.1627
   22.515    9.0047
   22.530    9.2154
   22.545    8.8152
   22.560    9.4050
   22.575    9.4787
   22.590    9.0890
   22.605    8.9837
   22.620    9.5840
   22.635    9.3102
   22.650    9.3207
   22.665    9.1627
   22.680    9.3207
   22.695    8.9100
   22.710    9.2154
   22.725    9.2259
   22.740    9.2048
   22.755    9.3207
   22.770    9.2891
   22.785    9.5419
   22.800    8.8362
   22.815    9.0469
   22.830    9.0153
   22.845    9.0469
   22.860    9.2364
   22.875    8.9310
   22.890    8.9837
   22.905    9.2891
   22.920    9.6682
   22.935    9.2154
   22.950    8.9626
   22.965    9.3207
   22.980    9.4050
   22.995    9.2996
   23.010    8.9731
   23.025    9.0679
   23.040    9.1206
   23.055    8.7941
   23.070    9.0363
   23.085    9.4997
   23.100    8.9731
   23.115    8.9942
   23.130    9.2154
   23.145    9.2786
   23.160    9.4365
   23.175    9.1732
   23.190    9.3523
   23.205    9.2470
   23.220    9.1838
   23.235    8.8889
   23.250    8.6888
   23.265    9.2575
   23.280    9.5208
   23.295    9.1943
   23.310    9.0153
   23.325    8.8678
   23.340    8.8889
   23.355    8.9626
   23.370    8.9521
   23.385    8.9310
   23.400    8.3623
   23.415    8.7836
   23.430    9.2996
   23.445    9.0363
   23.460    8.5519
   23.475    9.0047
   23.490    9.2048
   23.505    9.3312
   23.520    9.1943
   23.535    8.9837
   23.550    8.7730
   23.565    9.3839
   23.580    9.2048
   23.595    9.0153
   23.610    9.3734
   23.625    9.3839
   23.640    9.1732
   23.655    9.0469
   23.670    9.1732
   23.685    9.3207
   23.700    9.4576
   23.715    9.3628
   23.730    9.5313
   23.745    9.5524
   23.760    9.4471
   23.775    9.3944
   23.790    9.0890
   23.805    9.1101
   23.820    9.2470
   23.835    9.3207
   23.850    9.1732
   23.865    8.9100
   23.880    9.0785
   23.895    9.0153
   23.910    9.0785
   23.925    8.8678
   23.940    8.9626
   23.955    9.3418
   23.970    8.7309
   23.985    8.3096
   24.000    8.8784
   24.015    8.8257
   24.030    8.7520
   24.045    8.7941
   24.060    8.3939
   24.075    8.6467
   24.090    9.3102
   24.105    8.5835
   24.120    8.5097
   24.135    8.6045
   24.150    8.8362
   24.165    8.6677
   24.180    9.1732
   24.195    9.5313
   24.210    8.6151
   24.225    8.6888
   24.240    8.5308
   24.255    8.7309
   24.270    8.7730
   24.285    8.5729
   24.300    8.5624
   24.315    9.1943
   24.330    8.8152
   24.345    8.7520
   24.360    8.5729
   24.375    8.8889
   24.390    8.6993
   24.405    8.9205
   24.420    8.8784
   24.435    8.5729
   24.450    8.7520
   24.465    8.8889
   24.480    8.9205
   24.495    8.8994
   24.510    8.8468
   24.525    9.0153
   24.540    8.9942
   24.555    8.5835
   24.570    9.0258
   24.585    8.3939
   24.600    8.5519
   24.615    8.2675
   24.630    8.5097
   24.645    8.3307
   24.660    8.5203
   24.675    9.0363
   24.690    9.0469
   24.705    9.0785
   24.720    9.2891
   24.735    9.2470
   24.750    8.8994
   24.765    8.8678
   24.780    9.1101
   24.795    9.3207
   24.810    9.2996
   24.825    9.2470
   24.840    8.7730
   24.855    8.5940
   24.870    8.8257
   24.885    9.5735
   24.900    8.9310
   24.915    8.5519
   24.930    8.6361
   24.945    8.6467
   24.960    9.1838
   24.975    8.7520
   24.990    9.4365
   25.005    9.0890
   25.020    8.8362
   25.035    8.6783
   25.050    8.7098
   25.065    8.6677
   25.080    8.6783
   25.095    8.7098
   25.110    9.3207
   25.125    9.0785
   25.140    8.7625
   25.155    8.7414
   25.170    9.0574
   25.185    8.7309
   25.200    8.9415
   25.215    8.8889
   25.230    8.5097
   25.245    8.4044
   25.260    8.4150
   25.275    8.6783
   25.290    8.7625
   25.305    8.6783
   25.320    8.2780
   25.335    8.7625
   25.350    8.4255
   25.365    8.7941
   25.380    8.3728
   25.395    8.6572
   25.410    8.5097
   25.425    8.5940
   25.440    8.6572
   25.455    8.2991
   25.470    8.4781
   25.485    8.8046
   25.500    8.8046
   25.515    8.4676
   25.530    8.6045
   25.545    8.3412
   25.560    8.6677
   25.575    8.6993
   25.590    8.6045
   25.605    8.3623
   25.620    8.4571
   25.635    8.5729
   25.650    8.8573
   25.665    8.8678
   25.680    8.6888
   25.695    8.7520
   25.710    8.6993
   25.725    8.7414
   25.740    8.8046
   25.755    8.9310
   25.770    8.5097
   25.785    8.6677
   25.800    8.8994
   25.815    8.3518
   25.830    8.4150
   25.845    9.0047
   25.860    8.7520
   25.875    8.7414
   25.890    8.8784
   25.905    8.9415
   25.920    8.8468
   25.935    9.0574
   25.950    8.5835
   25.965    8.6783
   25.980    8.3096
   25.995    8.5729
   26.010    8.3834
   26.025    8.5940
   26.040    8.8468
   26.055    9.2259
   26.070    8.7414
   26.085    8.6783
   26.100    8.3728
   26.115    8.5729
   26.130    8.4992
   26.145    8.8257
   26.160    8.7836
   26.175    8.6361
   26.190    8.7836
   26.205    8.6361
   26.220    8.2886
   26.235    8.9310
   26.250    8.6783
   26.265    8.8784
   26.280    8.3939
   26.295    8.7836
   26.310    9.0785
   26.325    8.8362
   26.340    9.1943
   26.355    8.6361
   26.370    8.7730
   26.385    8.2675
   26.400    8.6256
   26.415    8.5624
   26.430    8.7625
   26.445    8.7309
   26.460    8.5413
   26.475    8.3096
   26.490    8.5308
   26.505    8.4044
   26.520    8.6045
   26.535    8.6993
   26.550    8.9837
   26.565    8.6045
   26.580    8.2149
   26.595    8.7836
   26.610    8.7625
   26.625    9.0785
   26.640    8.4676
   26.655    8.3939
   26.670    8.5729
   26.685    8.2675
   26.700    8.5729
   26.715    8.5203
   26.730    8.5413
   26.745    8.4466
   26.760    8.5729
   26.775    8.3518
   26.790    8.5729
   26.805    8.3834
   26.820    8.4466
   26.835    8.3307
   26.850    8.6151
   26.865    8.7730
   26.880    8.6888
   26.895    8.5729
   26.910    8.6783
   26.925    8.6467
   26.940    8.6572
   26.955    8.3307
   26.970    8.0569
   26.985    8.2464
   27.000    8.2886
   27.015    8.3623
   27.030    8.5519
   27.045    8.5203
   27.060    8.3518
   27.075    8.4676
   27.090    8.3623
   27.105    8.3518
   27.120    8.1306
   27.135    8.7836
   27.150    8.5413
   27.165    8.5519
   27.180    8.5097
   27.195    8.2780
   27.210    8.2780
   27.225    8.2780
   27.240    8.1517
   27.255    8.5940
   27.270    8.9942
   27.285    8.6045
   27.300    8.0779
   27.315    8.1411
   27.330    8.2675
   27.345    8.7625
   27.360    8.5835
   27.375    8.0463
   27.390    8.3939
   27.405    8.2464
   27.420    8.4360
   27.435    8.3202
   27.450    8.4781
   27.465    8.5203
   27.480    8.1727
   27.495    8.9837
   27.510    8.4781
   27.525    8.9837
   27.540    8.2570
   27.555    8.2886
   27.570    8.4781
   27.585    8.4044
   27.600    7.9516
   27.615    8.1306
   27.630    8.4255
   27.645    8.1622
   27.660    8.2149
   27.675    8.4466
   27.690    8.4887
   27.705    8.2991
   27.720    8.4992
   27.735    8.2570
   27.750    8.0779
   27.765    8.0885
   27.780    8.2149
   27.795    8.3834
   27.810    8.2359
   27.825    8.3307
   27.840    8.1201
   27.855    8.3307
   27.870    8.2359
   27.885    8.6151
   27.900    8.3307
   27.915    8.6151
   27.930    8.3096
   27.945    8.0358
   27.960    8.4571
   27.975    8.2464
   27.990    8.4992
   28.005    8.5203
   28.020    8.5729
   28.035    8.9626
   28.050    8.4255
   28.065    7.9305
   28.080    7.9937
   28.095    8.6572
   28.110    8.0990
   28.125    8.3518
   28.140    8.1727
   28.155    7.9305
   28.170    7.7620
   28.185    7.9200
   28.200    8.1622
   28.215    7.8778
   28.230    7.8568
   28.245    7.7304
   28.260    7.9410
   28.275    7.8568
   28.290    8.0674
   28.305    8.2149
   28.320    8.0779
   28.335    7.8568
   28.350    8.1938
   28.365    8.1201
   28.380    7.9937
   28.395    7.6567
   28.410    8.0358
   28.425    8.1517
   28.440    8.2254
   28.455    8.3623
   28.470    8.0779
   28.485    8.2675
   28.500    8.2780
   28.515    8.0674
   28.530    8.0147
   28.545    7.7514
   28.560    8.1938
   28.575    8.9100
   28.590    7.8989
   28.605    7.8568
   28.620    7.9094
   28.635    7.9410
   28.650    8.2780
   28.665    8.4571
   28.680    8.0253
   28.695    7.8252
   28.710    7.5092
   28.725    7.6145
   28.740    7.8989
   28.755    7.9516
   28.770    8.0569
   28.785    8.2149
   28.800    8.0253
   28.815    7.6040
   28.830    7.8989
   28.845    7.8778
   28.860    7.8673
   28.875    7.8462
   28.890    7.7199
   28.905    7.3828
   28.920    7.4144
   28.935    7.4776
   28.950    7.9831
   28.965    7.8778
   28.980    8.2043
   28.995    7.8673
   29.010    8.0990
   29.025    8.0147
   29.040    8.3728
   29.055    8.0674
   29.070    8.2675
   29.085    7.6567
   29.100    7.7199
   29.115    7.9200
   29.130    7.6567
   29.145    7.8884
   29.160    7.6145
   29.175    8.0147
   29.190    8.0779
   29.205    8.0253
   29.220    7.6040
   29.235    7.7304
   29.250    7.7409
   29.265    7.7304
   29.280    7.9305
   29.295    8.1201
   29.310    7.7936
   29.325    7.8146
   29.340    7.7620
   29.355    7.8989
   29.370    7.8884
   29.385    7.9410
   29.400    7.8462
   29.415    7.8778
   29.430    7.5092
   29.445    7.9726
   29.460    7.9621
   29.475    7.3934
   29.490    7.7304
   29.505    8.0463
   29.520    7.7830
   29.535    8.1095
   29.550    7.8673
   29.565    7.8462
   29.580    7.6145
   29.595    7.9094
   29.610    7.7830
   29.625    7.8146
   29.640    7.9094
   29.655    7.6988
   29.670    7.8884
   29.685    7.9410
   29.700    7.3934
   29.715    7.4355
   29.730    7.7936
   29.745    7.5197
   29.760    7.7620
   29.775    7.8462
   29.790    7.6461
   29.805    7.5303
   29.820    7.4355
   29.835    7.5197
   29.850    7.3196
   29.865    7.7409
   29.880    7.6567
   29.895    7.7514
   29.910    7.8041
   29.925    7.3934
   29.940    7.6461
   29.955    7.6251
   29.970    8.0042
   29.985    7.7514
   30.000    8.2043
   30.015    7.7936
   30.030    7.6356
   30.045    7.7936
   30.060    7.9094
   30.075    7.7409
   30.090    8.4150
   30.105    7.7093
   30.120    7.7830
   30.135    8.2254
   30.150    8.1095
   30.165    8.0147
   30.180    7.8568
   30.195    7.9937
   30.210    8.0885
   30.225    7.7936
   30.240    8.0358
   30.255    8.1517
   30.270    8.1833
   30.285    8.0990
   30.300    7.8462
   30.315    7.8884
   30.330    7.5619
   30.345    7.9410
   30.360    7.3934
   30.375    7.9200
   30.390    7.4460
   30.405    7.7093
   30.420    8.1411
   30.435    7.8462
   30.450    7.7936
   30.465    7.9200
   30.480    8.1306
   30.495    7.7725
   30.510    7.9831
   30.525    7.4671
   30.540    7.5197
   30.555    7.2565
   30.570    7.4987
   30.585    7.8778
   30.600    7.7409
   30.615    7.6040
   30.630    7.8462
   30.645    7.7830
   30.660    7.5197
   30.675    7.4144
   30.690    8.0463
   30.705    7.6883
   30.720    7.4987
   30.735    7.2986
   30.750    7.5829
   30.765    7.2249
   30.780    7.4144
   30.795    7.7304
   30.810    7.3091
   30.825    7.2249
   30.840    7.6145
   30.855    7.4987
   30.870    7.8989
   30.885    8.0042
   30.900    7.7409
   30.915    7.5829
   30.930    7.1617
   30.945    7.5408
   30.960    7.2670
   30.975    7.2565
   30.990    7.2143
   31.005    7.5408
   31.020    7.6145
   31.035    7.6251
   31.050    8.0253
   31.065    7.4144
   31.080    7.4882
   31.095    7.5619
   31.110    7.3934
   31.125    7.3407
   31.140    7.7093
   31.155    7.5619
   31.170    7.4039
   31.185    7.1722
   31.200    7.1301
   31.215    7.8041
   31.230    7.5513
   31.245    7.6040
   31.260    7.6356
   31.275    7.5197
   31.290    7.5829
   31.305    7.5829
   31.320    7.8568
   31.335    7.9516
   31.350    7.6461
   31.365    7.5619
   31.380    7.2986
   31.395    7.0879
   31.410    7.4882
   31.425    7.5513
   31.440    7.5092
   31.455    7.4671
   31.470    7.4776
   31.485    7.5619
   31.500    7.2459
   31.515    7.8778
   31.530    7.6461
   31.545    7.6145
   31.560    7.5724
   31.575    7.4987
   31.590    7.4566
   31.605    7.7409
   31.620    7.8041
   31.635    6.9510
   31.650    7.0248
   31.665    7.5829
   31.680    7.6461
   31.695    7.3618
   31.710    7.4987
   31.725    7.1406
   31.740    7.0879
   31.755    7.4460
   31.770    7.6567
   31.785    7.1617
   31.800    7.3407
   31.815    7.3302
   31.830    7.0774
   31.845    7.1617
   31.860    7.4144
   31.875    7.3302
   31.890    7.8884
   31.905    7.7093
   31.920    7.4144
   31.935    7.6777
   31.950    7.1301
   31.965    7.4144
   31.980    7.3723
   31.995    7.2038
   32.010    7.3512
   32.025    7.7304
   32.040    7.7936
   32.055    7.4144
   32.070    7.2670
   32.085    7.8041
   32.100    7.1617
   32.115    6.6983
   32.130    6.7825
   32.145    7.2354
   32.160    7.0353
   32.175    7.4039
   32.190    7.2354
   32.205    7.1827
   32.220    7.4355
   32.235    7.2670
   32.250    7.3407
   32.265    7.3196
   32.280    7.4039
   32.295    7.3618
   32.310    7.0142
   32.325    7.1301
   32.340    7.0037
   32.355    7.1301
   32.370    7.7725
   32.385    7.5513
   32.400    7.6040
   32.415    7.4566
   32.430    7.2249
   32.445    7.1827
   32.460    7.1827
   32.475    6.9089
   32.490    7.0563
   32.505    7.4355
   32.520    7.3407
   32.535    6.9721
   32.550    7.3934
   32.565    7.4671
   32.580    7.1301
   32.595    7.1933
   32.610    7.4355
   32.625    7.0985
   32.640    7.2880
   32.655    7.0985
   32.670    7.4250
   32.685    7.1827
   32.700    6.5929
   32.715    7.0037
   32.730    7.0353
   32.745    7.5619
   32.760    7.2249
   32.775    7.2249
   32.790    6.9405
   32.805    6.7720
   32.820    7.3091
   32.835    7.2143
   32.850    7.4987
   32.865    7.4987
   32.880    7.2670
   32.895    7.3302
   32.910    7.4671
   32.925    6.9510
   32.940    7.1195
   32.955    6.8036
   32.970    7.1406
   32.985    7.5303
   33.000    7.0248
   33.015    7.0774
   33.030    7.3934
   33.045    7.2565
   33.060    6.9616
   33.075    6.9721
   33.090    7.6145
   33.105    7.1722
   33.120    6.7930
   33.135    7.0563
   33.150    7.6356
   33.165    7.2143
   33.180    7.3512
   33.195    7.2459
   33.210    6.8352
   33.225    6.9300
   33.240    7.0985
   33.255    7.2670
   33.270    7.2880
   33.285    7.3828
   33.300    7.0248
   33.315    7.0985
   33.330    6.8246
   33.345    7.0353
   33.360    7.2880
   33.375    7.4882
   33.390    7.4987
   33.405    7.2775
   33.420    7.2565
   33.435    7.4460
   33.450    7.2670
   33.465    7.2143
   33.480    6.9616
   33.495    7.1511
   33.510    7.2986
   33.525    7.3618
   33.540    6.9510
   33.555    7.2565
   33.570    7.2143
   33.585    7.2354
   33.600    7.2143
   33.615    7.3196
   33.630    7.2459
   33.645    7.3407
   33.660    7.4460
   33.675    7.0879
   33.690    7.2249
   33.705    6.9826
   33.720    7.3302
   33.735    7.6040
   33.750    7.3091
   33.765    7.1617
   33.780    7.2775
   33.795    7.1406
   33.810    7.3512
   33.825    7.3091
   33.840    6.9932
   33.855    7.0669
   33.870    6.8457
   33.885    7.1933
   33.900    7.2354
   33.915    7.4039
   33.930    7.9200
   33.945    7.2775
   33.960    7.1827
   33.975    7.0669
   33.990    7.1301
   34.005    7.2565
   34.020    7.0985
   34.035    6.9405
   34.050    7.2249
   34.065    7.5408
   34.080    7.1722
   34.095    7.2143
   34.110    7.2354
   34.125    7.0774
   34.140    7.2038
   34.155    7.2143
   34.170    7.2038
   34.185    6.8352
   34.200    6.7825
   34.215    7.2038
   34.230    7.4250
   34.245    6.8773
   34.260    7.1722
   34.275    7.0248
   34.290    7.0879
   34.305    7.0669
   34.320    7.1195
   34.335    7.0985
   34.350    7.3407
   34.365    7.2986
   34.380    7.5408
   34.395    6.8668
   34.410    7.0985
   34.425    7.2354
   34.440    7.2565
   34.455    7.0563
   34.470    7.2670
   34.485    7.0879
   34.500    6.9826
   34.515    6.8878
   34.530    7.4671
   34.545    7.1722
   34.560    6.7299
   34.575    6.7825
   34.590    6.9616
   34.605    7.4776
   34.620    6.8773
   34.635    6.9510
   34.650    7.2775
   34.665    7.1827
   34.680    6.7193
   34.695    6.7509
   34.710    6.8878
   34.725    7.3512
   34.740    7.2986
   34.755    7.1933
   34.770    7.2459
   34.785    7.4987
   34.800    6.6983
   34.815    6.9510
   34.830    6.6877
   34.845    7.1722
   34.860    7.0669
   34.875    7.1090
   34.890    7.0563
   34.905    7.1406
   34.920    6.9826
   34.935    7.2038
   34.950    7.2986
   34.965    6.8878
   34.980    6.8141
   34.995    7.1933
   35.010    7.3723
   35.025    7.4250
   35.040    6.8562
   35.055    7.1511
   35.070    7.1722
   35.085    6.9932
   35.100    6.8668
   35.115    6.8773
   35.130    6.9300
   35.145    6.8773
   35.160    6.9721
   35.175    6.6667
   35.190    6.9932
   35.205    7.1195
   35.220    7.0458
   35.235    6.8246
   35.250    6.7299
   35.265    6.6561
   35.280    6.9194
   35.295    7.0458
   35.310    6.9089
   35.325    6.6772
   35.340    7.1511
   35.355    7.4882
   35.370    7.3512
   35.385    6.9616
   35.400    7.0985
   35.415    6.9194
   35.430    6.6035
   35.445    7.0037
   35.460    7.0248
   35.475    7.1195
   35.490    7.0458
   35.505    7.4039
   35.520    6.8878
   35.535    6.6877
   35.550    6.4455
   35.565    6.5403
   35.580    6.7930
   35.595    6.6561
   35.610    6.9826
   35.625    6.5403
   35.640    6.6877
   35.655    7.1090
   35.670    6.7299
   35.685    6.6456
   35.700    7.2670
   35.715    6.6456
   35.730    6.7088
   35.745    7.1301
   35.760    6.8878
   35.775    6.7509
   35.790    6.9089
   35.805    6.9826
   35.820    7.0248
   35.835    6.9089
   35.850    6.6983
   35.865    7.0879
   35.880    6.8352
   35.895    6.8036
   35.910    6.9721
   35.925    6.9194
   35.940    7.1406
   35.955    6.8246
   35.970    6.7615
   35.985    6.9510
   36.000    7.0458
   36.015    7.2670
   36.030    7.3407
   36.045    6.8668
   36.060    6.8352
   36.075    7.3091
   36.090    6.6561
   36.105    7.1827
   36.120    7.2670
   36.135    7.0563
   36.150    6.8562
   36.165    6.6351
   36.180    6.6667
   36.195    7.2670
   36.210    6.8352
   36.225    6.9405
   36.240    6.7509
   36.255    6.8668
   36.270    6.6351
   36.285    7.0774
   36.300    7.2986
   36.315    6.7088
   36.330    6.8773
   36.345    6.8668
   36.360    6.9405
   36.375    7.1406
   36.390    7.2986
   36.405    6.9826
   36.420    6.5192
   36.435    6.6667
   36.450    6.8562
   36.465    6.8984
   36.480    6.5929
   36.495    6.7930
   36.510    6.8668
   36.525    6.7720
   36.540    6.6561
   36.555    6.7404
   36.570    6.6140
   36.585    6.5508
   36.600    6.8984
   36.615    6.7825
   36.630    6.6667
   36.645    6.5613
   36.660    6.5298
   36.675    6.7825
   36.690    6.5613
   36.705    6.8562
   36.720    7.0669
   36.735    6.8668
   36.750    6.8036
   36.765    6.9089
   36.780    6.8878
   36.795    6.5929
   36.810    6.8141
   36.825    6.7720
   36.840    6.8773
   36.855    6.4771
   36.870    6.9089
   36.885    7.0353
   36.900    6.8773
   36.915    6.6772
   36.930    6.3086
   36.945    6.7088
   36.960    6.6456
   36.975    7.0985
   36.990    6.6667
   37.005    6.4560
   37.020    7.0458
   37.035    6.5403
   37.050    6.4139
   37.065    6.9194
   37.080    6.9089
   37.095    6.8036
   37.110    6.9089
   37.125    7.1722
   37.140    6.7930
   37.155    6.6140
   37.170    6.9616
   37.185    6.7720
   37.200    6.7930
   37.215    6.3507
   37.230    6.4034
   37.245    6.7088
   37.260    6.4982
   37.275    6.6772
   37.290    6.9089
   37.305    6.8036
   37.320    6.7720
   37.335    6.4666
   37.350    6.5719
   37.365    6.5719
   37.380    6.5824
   37.395    6.6772
   37.410    6.6456
   37.425    6.8036
   37.440    6.8246
   37.455    6.5824
   37.470    6.9826
   37.485    6.4666
   37.500    6.8141
   37.515    7.0142
   37.530    6.9510
   37.545    7.1933
   37.560    6.9194
   37.575    6.4982
   37.590    7.1195
   37.605    6.8878
   37.620    6.8668
   37.635    6.9089
   37.650    6.9405
   37.665    6.7193
   37.680    6.6877
   37.695    6.6245
   37.710    6.6456
   37.725    6.5613
   37.740    6.7615
   37.755    6.8878
   37.770    6.9721
   37.785    6.6983
   37.800    6.9932
   37.815    6.6772
   37.830    6.4876
   37.845    6.7615
   37.860    6.4560
   37.875    6.4350
   37.890    6.5508
   37.905    6.6456
   37.920    6.9405
   37.935    6.5929
   37.950    6.7299
   37.965    6.9932
   37.980    6.8457
   37.995    6.8773
   38.010    6.5929
   38.025    7.0037
   38.040    6.5929
   38.055    6.4560
   38.070    6.6983
   38.085    6.8773
   38.100    7.0563
   38.115    7.0037
   38.130    6.7193
   38.145    6.6772
   38.160    6.4771
   38.175    6.6351
   38.190    6.2138
   38.205    6.2770
   38.220    6.4876
   38.235    6.4034
   38.250    6.4771
   38.265    6.6035
   38.280    6.8246
   38.295    6.7404
   38.310    6.6561
   38.325    6.9932
   38.340    6.7509
   38.355    6.6035
   38.370    7.0248
   38.385    6.6245
   38.400    6.5192
   38.415    6.2349
   38.430    6.4034
   38.445    6.8036
   38.460    6.7088
   38.475    6.5929
   38.490    6.8246
   38.505    7.3407
   38.520    6.8878
   38.535    6.8246
   38.550    6.8036
   38.565    6.8773
   38.580    6.6351
   38.595    6.1927
   38.610    6.1401
   38.625    6.3402
   38.640    6.7825
   38.655    6.6877
   38.670    6.6245
   38.685    6.7404
   38.700    6.8352
   38.715    6.8036
   38.730    6.6140
   38.745    6.9089
   38.760    6.3402
   38.775    6.6667
   38.790    6.5508
   38.805    6.7825
   38.820    6.8141
   38.835    6.8984
   38.850    6.4876
   38.865    6.5613
   38.880    6.6561
   38.895    6.8984
   38.910    6.9932
   38.925    6.7720
   38.940    6.1927
   38.955    6.2981
   38.970    6.3718
   38.985    6.4455
   39.000    6.6351
   39.015    6.7088
   39.030    7.0774
   39.045    6.6561
   39.060    6.5929
   39.075    6.9616
   39.090    7.1090
   39.105    6.4244
   39.120    6.3718
   39.135    6.0137
   39.150    6.5824
   39.165    7.0458
   39.180    6.9932
   39.195    6.8141
   39.210    6.5087
   39.225    6.3402
   39.240    6.5824
   39.255    6.5192
   39.270    6.2349
   39.285    6.3402
   39.300    6.7615
   39.315    6.6456
   39.330    6.5403
   39.345    6.7299
   39.360    7.0142
   39.375    6.6245
   39.390    6.7930
   39.405    6.2981
   39.420    6.4350
   39.435    6.7404
   39.450    6.7193
   39.465    6.1717
   39.480    6.6351
   39.495    6.5824
   39.510    6.3718
   39.525    6.5929
   39.540    6.6456
   39.555    6.2770
   39.570    7.0458
   39.585    7.0037
   39.600    6.7299
   39.615    6.5613
   39.630    6.5298
   39.645    6.6877
   39.660    6.8878
   39.675    6.6351
   39.690    6.6035
   39.705    6.7930
   39.720    6.7509
   39.735    6.7720
   39.750    6.6772
   39.765    6.6772
   39.780    6.6351
   39.795    6.7193
   39.810    6.3718
   39.825    6.3296
   39.840    7.0563
   39.855    6.1822
   39.870    6.6772
   39.885    6.6035
   39.900    6.4455
   39.915    6.9510
   39.930    6.6877
   39.945    6.5508
   39.960    6.4666
   39.975    6.3402
   39.990    5.9926
