    1.500   64.1917
    1.515   65.1747
    1.530   63.1912
    1.545   62.0678
    1.560   58.6625
    1.575   57.7146
    1.590   57.1353
    1.605   55.6433
    1.620   55.3625
    1.635   53.1157
    1.650   54.1162
    1.665   52.7997
    1.680   51.0269
    1.695   50.2194
    1.710   49.3067
    1.725   48.6923
    1.740   45.1992
    1.755   46.6210
    1.770   45.8838
    1.785   45.6030
    1.800   45.0939
    1.815   41.9695
    1.830   41.3902
    1.845   42.3381
    1.860   41.1445
    1.875   40.4072
    1.890   39.5120
    1.905   38.8450
    1.920   39.0205
    1.935   37.4408
    1.950   36.1067
    1.965   36.3174
    1.980   36.6684
    1.995   34.7200
    2.010   34.2461
    2.025   34.8605
    2.040   35.3344
    2.055   34.5094
    2.070   32.4908
    2.085   32.0695
    2.100   31.7887
    2.115   31.2270
    2.130   32.3504
    2.145   32.1222
    2.160   30.4897
    2.175   29.6296
    2.190   29.0328
    2.205   29.0153
    2.220   29.1030
    2.235   28.3658
    2.250   28.1025
    2.265   27.7866
    2.280   27.9621
    2.295   27.6812
    2.310   26.5578
    2.325   25.7328
    2.340   25.3467
    2.355   25.1711
    2.370   26.6280
    2.385   25.5222
    2.400   24.8201
    2.415   25.2062
    2.430   24.6446
    2.445   24.2759
    2.460   24.1355
    2.475   24.3813
    2.490   23.6265
    2.505   23.8020
    2.520   23.7669
    2.535   23.6265
    2.550   23.1876
    2.565   22.5557
    2.580   21.6956
    2.595   22.7137
    2.610   22.8892
    2.625   21.5728
    2.640   22.7664
    2.655   22.4153
    2.670   21.3797
    2.685   21.9765
    2.700   21.8185
    2.715   21.4323
    2.730   21.0988
    2.745   20.9935
    2.760   20.6951
    2.775   21.0111
    2.790   21.0111
    2.805   20.2563
    2.820   20.6600
    2.835   21.0813
    2.850   21.3972
    2.865   21.5025
    2.880   21.8887
    2.895   21.9589
    2.910   21.8185
    2.925   20.2387
    2.940   20.2914
    2.955   20.6249
    2.970   21.1339
    2.985   21.0286
    3.000   21.8009
    3.015   21.5377
    3.030   21.8361
    3.045   22.2573
    3.060   22.0642
    3.075   22.9595
    3.090   22.5031
    3.105   21.5903
    3.120   22.0818
    3.135   22.9068
    3.150   22.6962
    3.165   23.8371
    3.180   23.5738
    3.195   23.5387
    3.210   24.5041
    3.225   24.1706
    3.240   24.8552
    3.255   24.8201
    3.270   26.0664
    3.285   25.5398
    3.300   25.7855
    3.315   26.9791
    3.330   28.2605
    3.345   28.7520
    3.360   29.0153
    3.375   28.3658
    3.390   29.8929
    3.405   32.1046
    3.420   32.3153
    3.435   31.9291
    3.450   31.6833
    3.465   33.2982
    3.480   34.1759
    3.495   36.1418
    3.510   37.0370
    3.525   37.2828
    3.540   38.6168
    3.555   40.5652
    3.570   42.3030
    3.585   44.5673
    3.600   46.2524
    3.615   46.9896
    3.630   49.9561
    3.645   50.5705
    3.660   53.4316
    3.675   56.7667
    3.690   58.3465
    3.705   63.9284
    3.720   69.2645
    3.735   73.0735
    3.750   77.6374
    3.765   83.8160
    3.780   92.2591
    3.795  105.8101
    3.810  119.3611
    3.825  135.6679
    3.840  151.1848
    3.855  150.2721
    3.870  137.3881
    3.885  117.1669
    3.900   90.0649
    3.915   63.4018
    3.930   42.9524
    3.945   30.5951
    3.960   24.9605
    3.975   22.3100
    3.990   20.5020
    4.005   19.5015
    4.020   17.8515
    4.035   16.4297
    4.050   17.1318
    4.065   17.0792
    4.080   16.7106
    4.095   15.3765
    4.110   15.2185
    4.125   15.4116
    4.140   15.1308
    4.155   15.4292
    4.170   15.5520
    4.185   14.2882
    4.200   14.6568
    4.215   14.4111
    4.230   14.4813
    4.245   14.2707
    4.260   14.2356
    4.275   14.2707
    4.290   13.5334
    4.305   13.3755
    4.320   13.6914
    4.335   12.8840
    4.350   13.1297
    4.365   14.0074
    4.380   12.8840
    4.395   12.6207
    4.410   13.0420
    4.425   13.5159
    4.440   13.3228
    4.455   13.0595
    4.470   12.9717
    4.485   13.4106
    4.500   12.7260
    4.515   13.0595
    4.530   12.7962
    4.545   13.1122
    4.560   13.7616
    4.575   13.6739
    4.590   13.5334
    4.605   13.4457
    4.620   13.7616
    4.635   12.8840
    4.650   12.6382
    4.665   13.2175
    4.680   12.7787
    4.695   12.3749
    4.710   12.7787
    4.725   12.9893
    4.740   12.7787
    4.755   13.2526
    4.770   13.1824
    4.785   13.3228
    4.800   14.1654
    4.815   13.1824
    4.830   12.6207
    4.845   13.3052
    4.860   14.3584
    4.875   13.6563
    4.890   13.2526
    4.905   13.1999
    4.920   13.9021
    4.935   13.4281
    4.950   13.6914
    4.965   13.9723
    4.980   14.3233
    4.995   14.8324
    5.010   14.6568
    5.025   14.7446
    5.040   15.8856
    5.055   15.3765
    5.070   15.6574
    5.085   16.1489
    5.100   16.1840
    5.115   16.5526
    5.130   16.7106
    5.145   17.5531
    5.160   17.6058
    5.175   18.3781
    5.190   18.8169
    5.205   18.6589
    5.220   18.8871
    5.235   20.1861
    5.250   20.9233
    5.265   21.7307
    5.280   21.7132
    5.295   23.0999
    5.310   24.4339
    5.325   25.8206
    5.340   27.3653
    5.355   30.3669
    5.370   30.9988
    5.385   32.7190
    5.400   35.8785
    5.415   38.9679
    5.430   43.8652
    5.445   48.5343
    5.460   55.8891
    5.475   55.8189
    5.490   52.8699
    5.505   46.1295
    5.520   37.7567
    5.535   28.8748
    5.550   22.6259
    5.565   18.3956
    5.580   15.7978
    5.595   13.7967
    5.610   13.8318
    5.625   13.4808
    5.640   13.2350
    5.655   13.1297
    5.670   12.1819
    5.685   11.4973
    5.700   11.0233
    5.715   10.8654
    5.730   11.9010
    5.745   11.3744
    5.760   10.7074
    5.775   10.4792
    5.790   11.6904
    5.805   12.8840
    5.820   12.1994
    5.835   11.5324
    5.850   11.2340
    5.865   11.0233
    5.880   11.5324
    5.895   10.9707
    5.910   10.6021
    5.925   11.3042
    5.940   11.5675
    5.955   11.5148
    5.970   11.7957
    5.985   11.1111
    6.000   11.4271
    6.015   10.8829
    6.030   10.8654
    6.045   11.7781
    6.060   11.1813
    6.075   10.8829
    6.090   10.8829
    6.105   11.0760
    6.120   11.1462
    6.135   10.8829
    6.150   11.3920
    6.165   11.3920
    6.180   11.4271
    6.195   11.2164
    6.210   11.7781
    6.225   11.1111
    6.240   11.3920
    6.255   11.1989
    6.270   11.4271
    6.285   11.2866
    6.300   11.9888
    6.315   11.6202
    6.330   12.0590
    6.345   12.0765
    6.360   12.5680
    6.375   11.6553
    6.390   12.6382
    6.405   12.3749
    6.420   12.2872
    6.435   12.4803
    6.450   12.7611
    6.465   13.5861
    6.480   13.7090
    6.495   13.7967
    6.510   14.0074
    6.525   14.5866
    6.540   14.9026
    6.555   14.7973
    6.570   15.4467
    6.585   17.0441
    6.600   17.3776
    6.615   17.1318
    6.630   18.2552
    6.645   19.9228
    6.660   20.4845
    6.675   23.4334
    6.690   26.1015
    6.705   27.5584
    6.720   28.0323
    6.735   27.3477
    6.750   24.9430
    6.765   21.5377
    6.780   18.6414
    6.795   15.2361
    6.810   14.5340
    6.825   13.0244
    6.840   12.3047
    6.855   11.5850
    6.870   12.2345
    6.885   11.7606
    6.900   11.0409
    6.915   11.1638
    6.930   11.4095
    6.945   11.3920
    6.960   11.0233
    6.975   11.0409
    6.990   11.3393
    7.005   11.5675
    7.020   11.4797
    7.035   11.0233
    7.050   10.4968
    7.065   10.9005
    7.080   10.9882
    7.095   10.8478
    7.110   11.0760
    7.125   10.2861
    7.140   10.2510
    7.155   11.0058
    7.170   10.7600
    7.185   10.2159
    7.200   10.7776
    7.215   10.5494
    7.230   11.4446
    7.245   10.6372
    7.260   10.9531
    7.275   11.3042
    7.290   11.4095
    7.305   11.1462
    7.320   11.1989
    7.335   11.0409
    7.350   11.2340
    7.365   11.0760
    7.380   10.7249
    7.395   11.2866
    7.410   11.3042
    7.425   11.1989
    7.440   11.3920
    7.455   11.4622
    7.470   11.2340
    7.485   11.2866
    7.500   11.6377
    7.515   11.7781
    7.530   11.8308
    7.545   11.7430
    7.560   11.3042
    7.575   11.3569
    7.590   11.6377
    7.605   12.0765
    7.620   12.7787
    7.635   12.5680
    7.650   13.0244
    7.665   13.4808
    7.680   14.0074
    7.695   14.8850
    7.710   14.3760
    7.725   15.6223
    7.740   16.2366
    7.755   17.0090
    7.770   17.5355
    7.785   17.6760
    7.800   16.1313
    7.815   15.0430
    7.830   14.2707
    7.845   12.8664
    7.860   12.1116
    7.875   11.0760
    7.890   11.3393
    7.905   10.8654
    7.920   11.7781
    7.935   11.3042
    7.950   10.9356
    7.965   11.5148
    7.980   10.8303
    7.995   11.0058
    8.010   11.0233
    8.025   10.6196
    8.040   10.7952
    8.055   11.3744
    8.070   11.4622
    8.085   10.8127
    8.100   11.5850
    8.115   11.6202
    8.130   11.1989
    8.145   10.6021
    8.160   10.3739
    8.175   10.1632
    8.190   10.0930
    8.205   10.9180
    8.220   10.4265
    8.235   10.8654
    8.250   10.8127
    8.265   10.9356
    8.280   11.1462
    8.295   11.0760
    8.310   10.2686
    8.325   10.6021
    8.340   11.4095
    8.355   10.6196
    8.370   10.4792
    8.385   10.9180
    8.400   11.0760
    8.415   11.1638
    8.430   11.4622
    8.445   11.1111
    8.460   10.3914
    8.475   10.5494
    8.490   10.7776
    8.505   11.2691
    8.520   11.0409
    8.535   10.8303
    8.550   11.0585
    8.565   10.9356
    8.580   11.0058
    8.595   10.7425
    8.610   10.8303
    8.625   11.4973
    8.640   11.4095
    8.655   10.8303
    8.670   11.7606
    8.685   11.5148
    8.700   11.3744
    8.715   11.8308
    8.730   11.5675
    8.745   11.3393
    8.760   11.5675
    8.775   11.0585
    8.790   11.2691
    8.805   11.3744
    8.820   10.8127
    8.835   10.9707
    8.850   11.4622
    8.865   10.6898
    8.880   10.3388
    8.895   10.6898
    8.910   10.9005
    8.925   11.0409
    8.940   11.1813
    8.955   11.3569
    8.970   10.6547
    8.985   10.5845
    9.000   11.4622
    9.015   11.1111
    9.030   10.7425
    9.045   10.6547
    9.060   11.3217
    9.075   11.4973
    9.090   11.3042
    9.105   11.6026
    9.120   11.3042
    9.135   10.8829
    9.150   11.1287
    9.165   11.2515
    9.180   11.1989
    9.195   11.6904
    9.210   11.1813
    9.225   10.9882
    9.240   11.9712
    9.255   12.0941
    9.270   12.3223
    9.285   12.5505
    9.300   12.7787
    9.315   12.3749
    9.330   12.1467
    9.345   13.3228
    9.360   13.8845
    9.375   13.7265
    9.390   14.6042
    9.405   15.0079
    9.420   15.8680
    9.435   16.0260
    9.450   16.5526
    9.465   17.5180
    9.480   19.2031
    9.495   21.6254
    9.510   23.8371
    9.525   24.8025
    9.540   24.3461
    9.555   23.8722
    9.570   21.4323
    9.585   20.5898
    9.600   17.6584
    9.615   15.8504
    9.630   14.3935
    9.645   12.4276
    9.660   12.4978
    9.675   11.9186
    9.690   11.0058
    9.705   11.5850
    9.720   11.3393
    9.735   11.2866
    9.750   11.0409
    9.765   11.5324
    9.780   10.6547
    9.795   11.1287
    9.810   11.1462
    9.825   10.7952
    9.840   11.9361
    9.855   10.9531
    9.870   11.3569
    9.885   11.7430
    9.900   10.9707
    9.915   11.3217
    9.930   10.9005
    9.945   11.3393
    9.960   10.9356
    9.975   10.7074
    9.990   10.7600
   10.005   11.3920
   10.020   11.5675
   10.035   10.3563
   10.050   11.0233
   10.065   10.8829
   10.080   11.5675
   10.095   12.1116
   10.110   11.3569
   10.125   11.7957
   10.140   12.7260
   10.155   12.2345
   10.170   11.9186
   10.185   11.7606
   10.200   12.9542
   10.215   13.6037
   10.230   13.5159
   10.245   13.4281
   10.260   13.9547
   10.275   14.7446
   10.290   15.3765
   10.305   16.0084
   10.320   15.9558
   10.335   15.7451
   10.350   14.2005
   10.365   14.1478
   10.380   12.8840
   10.395   12.3223
   10.410   11.1989
   10.425   10.6723
   10.440   10.9356
   10.455   10.8829
   10.470   11.3744
   10.485   10.6196
   10.500   10.8478
   10.515   10.3739
   10.530   10.5670
   10.545   11.7079
   10.560   10.7952
   10.575   10.6547
   10.590    9.9877
   10.605    9.7946
   10.620   10.6723
   10.635   10.6372
   10.650   10.7952
   10.665   10.6898
   10.680   10.8478
   10.695   10.9882
   10.710   11.3042
   10.725   11.6202
   10.740   10.5670
   10.755   10.8829
   10.770   10.5143
   10.785   11.7957
   10.800   11.6728
   10.815   10.9882
   10.830   10.9707
   10.845   10.7952
   10.860   11.6553
   10.875   11.9361
   10.890   11.8308
   10.905   11.7781
   10.920   12.0590
   10.935   12.4100
   10.950   12.2170
   10.965   13.6388
   10.980   13.9372
   10.995   13.8845
   11.010   15.3239
   11.025   14.8148
   11.040   14.8675
   11.055   14.3058
   11.070   14.0951
   11.085   12.6382
   11.100   12.4100
   11.115   11.0936
   11.130   10.6723
   11.145   10.4090
   11.160   10.3739
   11.175   10.6723
   11.190   10.4441
   11.205   10.7074
   11.220   10.4968
   11.235   10.5143
   11.250   10.9531
   11.265   11.1638
   11.280   10.7776
   11.295   10.5845
   11.310   10.7249
   11.325   10.6547
   11.340   10.5143
   11.355   10.5670
   11.370   10.0755
   11.385   10.6898
   11.400   11.2866
   11.415   11.0058
   11.430   10.6372
   11.445   10.2510
   11.460   10.3739
   11.475   11.3920
   11.490   10.9531
   11.505   10.5143
   11.520   10.3563
   11.535   11.0585
   11.550   12.1292
   11.565   12.2345
   11.580   11.7606
   11.595   11.8132
   11.610   12.6382
   11.625   13.0771
   11.640   13.8143
   11.655   14.4638
   11.670   15.3941
   11.685   15.7627
   11.700   16.2893
   11.715   15.6223
   11.730   14.9026
   11.745   15.0255
   11.760   13.5685
   11.775   12.6207
   11.790   12.3925
   11.805   11.2866
   11.820   10.7249
   11.835    9.8297
   11.850   10.4441
   11.865   10.0755
   11.880   10.1983
   11.895   10.1632
   11.910    9.6542
   11.925    9.3909
   11.940    9.6367
   11.955    9.8473
   11.970    9.7420
   11.985    9.8473
   12.000    9.8648
   12.015    9.1101
   12.030    9.3734
   12.045   10.0755
   12.060   10.0579
   12.075    9.5313
   12.090    9.4085
   12.105    9.9702
   12.120   10.4090
   12.135   10.0579
   12.150    9.7595
   12.165    9.4787
   12.180    9.7244
   12.195    9.4260
   12.210   10.0053
   12.225   10.1457
   12.240    9.9702
   12.255   10.0404
   12.270   10.0579
   12.285    9.8999
   12.300   10.9707
   12.315   10.6723
   12.330   10.4968
   12.345   10.4441
   12.360   10.0579
   12.375    9.7771
   12.390   10.1632
   12.405   10.2510
   12.420    9.3734
   12.435    9.8999
   12.450    9.7244
   12.465    9.5313
   12.480    9.6893
   12.495    9.4436
   12.510   10.0053
   12.525   10.3739
   12.540    9.7595
   12.555    9.2856
   12.570    9.8473
   12.585   10.3212
   12.600   10.0404
   12.615   10.1106
   12.630    9.3207
   12.645    8.9170
   12.660    9.4962
   12.675    9.7595
   12.690    9.7420
   12.705   10.0053
   12.720    9.7420
   12.735    9.5489
   12.750    9.9351
   12.765    9.6367
   12.780   10.2861
   12.795   10.3914
   12.810    9.8999
   12.825    9.8122
   12.840   10.0930
   12.855   11.1462
   12.870   11.3920
   12.885   11.6026
   12.900   11.5675
   12.915   11.8132
   12.930   12.5680
   12.945   13.0595
   12.960   13.0420
   12.975   12.1116
   12.990   11.6377
   13.005   11.6553
   13.020   11.9888
   13.035   10.9005
   13.050   10.1808
   13.065    9.3558
   13.080    9.8297
   13.095    9.7595
   13.110    9.9526
   13.125    9.3382
   13.140    9.0925
   13.155    9.2505
   13.170    9.6893
   13.185    9.4787
   13.200    8.8468
   13.215    9.6015
   13.230    9.2329
   13.245    9.8999
   13.260    9.6718
   13.275    9.6367
   13.290    9.2856
   13.305    9.3207
   13.320    9.3207
   13.335    9.5664
   13.350   10.2686
   13.365    9.9175
   13.380    9.1276
   13.395    9.3031
   13.410   10.1281
   13.425   10.1281
   13.440   10.5319
   13.455   10.0228
   13.470    9.7946
   13.485    9.8648
   13.500   10.0053
   13.515   10.7600
   13.530   10.9180
   13.545   11.0760
   13.560   10.3037
   13.575   10.1808
   13.590   10.5319
   13.605    9.8999
   13.620    9.2856
   13.635    9.8297
   13.650    9.7946
   13.665    9.4085
   13.680    8.3904
   13.695    9.7595
   13.710    9.6367
   13.725    9.0223
   13.740    9.3909
   13.755    9.7595
   13.770   10.1106
   13.785    9.3558
   13.800    9.0925
   13.815    8.7765
   13.830    9.1276
   13.845    9.4787
   13.860    9.3909
   13.875    9.3734
   13.890    9.5489
   13.905    9.7771
   13.920    9.9526
   13.935   10.1808
   13.950    9.5664
   13.965   10.1106
   13.980   10.0930
   13.995   10.8127
   14.010   11.1111
   14.025   11.0585
   14.040   11.6026
   14.055   11.3744
   14.070   12.0765
   14.085   11.4095
   14.100   11.5148
   14.115   11.6904
   14.130   11.3744
   14.145   10.6021
   14.160   10.8303
   14.175    9.7946
   14.190   10.4792
   14.205    9.4085
   14.220    9.8297
   14.235    9.9175
   14.250    9.6893
   14.265    9.6015
   14.280   10.1983
   14.295    9.9526
   14.310    9.3382
   14.325    9.9877
   14.340    9.1978
   14.355    9.2329
   14.370    9.6718
   14.385    9.6015
   14.400    9.7771
   14.415    9.8473
   14.430    9.6015
   14.445    9.5664
   14.460    9.2856
   14.475    9.1452
   14.490    9.4260
   14.505    9.3558
   14.520    9.3207
   14.535   10.0930
   14.550    9.8824
   14.565    9.4436
   14.580    9.0223
   14.595    8.7941
   14.610    9.4787
   14.625    9.1452
   14.640    9.1276
   14.655    9.0398
   14.670    9.1978
   14.685    9.4436
   14.700    9.3207
   14.715    9.3382
   14.730    9.3031
   14.745    9.5664
   14.760    9.6191
   14.775    9.4962
   14.790    9.7595
   14.805    9.5664
   14.820    9.3031
   14.835    9.6718
   14.850    9.7771
   14.865    9.5664
   14.880    8.8994
   14.895    9.0047
   14.910    9.5840
   14.925    9.0925
   14.940    9.5840
   14.955   10.0404
   14.970    9.3909
   14.985    9.6718
   15.000    9.2505
   15.015    9.2505
   15.030   10.1983
   15.045    9.1627
   15.060    9.3734
   15.075   10.1106
   15.090    9.7946
   15.105   10.4441
   15.120    9.9702
   15.135    9.7420
   15.150   10.0930
   15.165    9.2680
   15.180    9.4962
   15.195    9.7771
   15.210    9.1276
   15.225   10.1281
   15.240    9.4260
   15.255    9.6015
   15.270    9.6191
   15.285    9.2154
   15.300    9.4787
   15.315   10.1281
   15.330    9.0574
   15.345    9.2680
   15.360    9.3207
   15.375    9.4085
   15.390    9.5489
   15.405    8.7590
   15.420    9.5840
   15.435    9.5664
   15.450    9.5313
   15.465    9.2154
   15.480    9.5664
   15.495    9.5489
   15.510    9.2154
   15.525    9.0925
   15.540    8.5308
   15.555    9.5489
   15.570    9.6367
   15.585    9.4787
   15.600    9.2505
   15.615    9.3734
   15.630    9.3207
   15.645    9.1803
   15.660    9.6542
   15.675    9.3558
   15.690    9.4611
   15.705    9.5489
   15.720    9.3207
   15.735    9.1627
   15.750    9.3734
   15.765    9.6367
   15.780    9.2680
   15.795    9.0047
   15.810    9.4085
   15.825    9.1978
   15.840    9.2680
   15.855    9.4436
   15.870    9.9526
   15.885   10.4265
   15.900    9.8648
   15.915    9.7244
   15.930   10.0579
   15.945    9.4436
   15.960    9.2505
   15.975    9.4085
   15.990    9.4611
   16.005    9.7946
   16.020    9.6015
   16.035    9.7420
   16.050    9.7771
   16.065    9.3382
   16.080    9.4260
   16.095   10.3563
   16.110   10.3563
   16.125   10.1106
   16.140    9.8648
   16.155   10.0755
   16.170    9.7420
   16.185    9.8648
   16.200    9.5138
   16.215    9.7595
   16.230    9.6893
   16.245   10.1983
   16.260    9.8473
   16.275    9.8122
   16.290   10.1106
   16.305   10.1808
   16.320    9.9877
   16.335    9.0398
   16.350    9.3734
   16.365    9.4611
   16.380   10.0228
   16.395    9.8473
   16.410    9.1452
   16.425    8.7590
   16.440    8.8994
   16.455    9.7595
   16.470   10.1106
   16.485    9.6191
   16.500    9.7069
   16.515    9.5664
   16.530    9.9175
   16.545    9.9877
   16.560   10.4090
   16.575   10.2686
   16.590   10.0228
   16.605   10.2861
   16.620   10.0228
   16.635   10.0930
   16.650   10.3739
   16.665   10.1808
   16.680    9.8122
   16.695   10.0579
   16.710    9.8824
   16.725   10.1281
   16.740   10.3212
   16.755   10.4616
   16.770    9.4436
   16.785    9.6367
   16.800    9.4962
   16.815    9.7420
   16.830    9.8122
   16.845    9.7420
   16.860    9.6191
   16.875    9.4611
   16.890    9.3558
   16.905    9.8297
   16.920    9.6542
   16.935   10.0755
   16.950   10.0755
   16.965   10.0755
   16.980   10.6898
   16.995   10.7074
   17.010   11.5148
   17.025   11.6728
   17.040   12.0590
   17.055   11.8483
   17.070   12.0063
   17.085   11.8659
   17.100   11.2866
   17.115   10.6372
   17.130   11.3042
   17.145   10.5845
   17.160   10.9882
   17.175   10.6898
   17.190   10.9356
   17.205    9.8824
   17.220    9.7244
   17.235   10.2335
   17.250   10.6372
   17.265    9.9877
   17.280    9.6191
   17.295   10.0579
   17.310    9.7595
   17.325   10.0930
   17.340   10.3914
   17.355   10.0053
   17.370   10.6547
   17.385   10.4968
   17.400   10.1281
   17.415   10.7249
   17.430    9.9175
   17.445    9.5489
   17.460    9.4085
   17.475   10.3739
   17.490   10.6723
   17.505   10.9531
   17.520   10.7776
   17.535   10.1983
   17.550   10.2861
   17.565   10.1281
   17.580   10.0930
   17.595    9.6893
   17.610    9.7244
   17.625   10.1983
   17.640    9.7946
   17.655    9.8122
   17.670    9.7595
   17.685    9.6542
   17.700    9.7244
   17.715    9.6015
   17.730    9.5840
   17.745    9.7069
   17.760    9.6718
   17.775    9.5664
   17.790    9.2329
   17.805    9.6015
   17.820    9.9351
   17.835   10.1281
   17.850    9.9877
   17.865   10.0228
   17.880   10.4090
   17.895   10.1281
   17.910   10.1106
   17.925   10.3212
   17.940   10.6898
   17.955   10.0755
   17.970    9.9702
   17.985    9.5489
   18.000   10.1457
   18.015   10.1983
   18.030   10.1808
   18.045   10.4792
   18.060    9.7946
   18.075   10.2510
   18.090   10.6723
   18.105    9.9877
   18.120   10.3212
   18.135   10.5143
   18.150   10.0755
   18.165    9.2329
   18.180    9.6718
   18.195   10.0404
   18.210    9.9877
   18.225    9.6191
   18.240    9.6015
   18.255    9.8648
   18.270    9.5840
   18.285    9.6718
   18.300   10.2686
   18.315    9.9526
   18.330   10.0053
   18.345   10.3914
   18.360   10.3914
   18.375   10.4265
   18.390   10.1106
   18.405   10.2686
   18.420   10.3037
   18.435    9.7946
   18.450   10.3037
   18.465   10.1281
   18.480    9.8297
   18.495   10.1457
   18.510    9.9526
   18.525   10.0579
   18.540    9.4962
   18.555    9.7595
   18.570    9.8648
   18.585    9.7595
   18.600   10.1281
   18.615   10.3739
   18.630    9.8297
   18.645    9.1627
   18.660    9.6015
   18.675    9.9877
   18.690    9.9702
   18.705   10.2686
   18.720   10.1983
   18.735    9.6893
   18.750    9.8473
   18.765   10.2861
   18.780    9.8297
   18.795   10.1106
   18.810   10.1457
   18.825   10.2686
   18.840   10.4968
   18.855   10.1632
   18.870    9.5313
   18.885    8.9872
   18.900    9.6893
   18.915   10.6021
   18.930    9.6718
   18.945    9.9175
   18.960   10.2335
   18.975    9.6893
   18.990    9.8122
   19.005   10.3037
   19.020   10.0053
   19.035   10.4441
   19.050    9.8122
   19.065   10.1632
   19.080    9.9351
   19.095    9.6718
   19.110    9.7420
   19.125    9.7946
   19.140   10.4616
   19.155   10.1106
   19.170   10.1632
   19.185   10.2510
   19.200   10.5319
   19.215    9.9702
   19.230   10.0053
   19.245    9.0925
   19.260    9.4611
   19.275    9.9175
   19.290   10.2159
   19.305   10.0579
   19.320   10.1808
   19.335    9.9702
   19.350    9.7244
   19.365   10.0755
   19.380    9.7420
   19.395    9.7420
   19.410    9.6015
   19.425    9.8824
   19.440   10.7952
   19.455   10.5143
   19.470   10.9180
   19.485    9.8473
   19.500    9.9175
   19.515   10.4616
   19.530   10.2159
   19.545   10.0228
   19.560   10.5670
   19.575   10.6547
   19.590   10.6898
   19.605   10.5845
   19.620    9.8824
   19.635   10.3212
   19.650   10.1808
   19.665   10.3563
   19.680   10.2861
   19.695   10.1632
   19.710   10.2159
   19.725    9.6015
   19.740    9.8122
   19.755   10.0053
   19.770    9.9702
   19.785    9.8122
   19.800   10.4090
   19.815    9.9526
   19.830   10.0404
   19.845    9.6191
   19.860   10.3914
   19.875    9.6893
   19.890    9.3031
   19.905    9.9175
   19.920    9.7069
   19.935    9.8999
   19.950    9.7244
   19.965   10.0228
   19.980    9.9702
   19.995   10.0930
   20.010   10.6021
   20.025   10.3914
   20.040   10.1281
   20.055   10.3212
   20.070    9.8824
   20.085    9.7946
   20.100    9.8122
   20.115    9.4962
   20.130    9.8824
   20.145   10.3739
   20.160   10.3563
   20.175   10.6547
   20.190    9.9526
   20.205    9.6542
   20.220   10.5494
   20.235   10.7952
   20.250   10.6723
   20.265   10.4968
   20.280    9.9351
   20.295   10.7952
   20.310   11.3569
   20.325   11.7430
   20.340   11.3744
   20.355   11.3217
   20.370   10.9356
   20.385   11.5148
   20.400   10.9707
   20.415   10.8829
   20.430   11.1813
   20.445   11.0585
   20.460   11.3217
   20.475   11.3569
   20.490   10.7952
   20.505    9.8122
   20.520   10.3739
   20.535   10.4968
   20.550   10.6021
   20.565   10.7425
   20.580   10.6547
   20.595   10.1457
   20.610   10.4090
   20.625   10.6196
   20.640   10.8127
   20.655   11.0760
   20.670   10.6372
   20.685   10.0579
   20.700   11.0233
   20.715   10.7600
   20.730   10.5494
   20.745   10.5143
   20.760   10.8127
   20.775   10.9005
   20.790   11.0233
   20.805   10.9882
   20.820   11.3920
   20.835   11.2691
   20.850   10.7074
   20.865   11.0936
   20.880   11.6904
   20.895   11.6377
   20.910   12.0765
   20.925   12.2170
   20.940   12.7611
   20.955   12.8313
   20.970   13.4632
   20.985   13.7265
   21.000   14.6568
   21.015   15.3765
   21.030   15.6749
   21.045   15.9382
   21.060   16.4297
   21.075   16.9738
   21.090   17.1494
   21.105   18.5536
   21.120   20.0632
   21.135   19.7999
   21.150   20.0105
   21.165   20.4845
   21.180   21.5552
   21.195   21.7834
   21.210   22.1345
   21.225   22.8892
   21.240   23.9249
   21.255   23.7318
   21.270   25.1711
   21.285   25.2238
   21.300   26.1015
   21.315   26.1190
   21.330   25.5573
   21.345   26.8738
   21.360   27.2249
   21.375   28.4887
   21.390   27.9796
   21.405   26.9089
   21.420   27.2600
   21.435   26.5578
   21.450   26.7685
   21.465   26.2945
   21.480   23.0823
   21.495   21.8361
   21.510   20.0281
   21.525   18.7116
   21.540   18.5010
   21.555   16.9212
   21.570   15.1483
   21.585   14.7973
   21.600   14.4813
   21.615   12.9893
   21.630   12.2696
   21.645   11.7781
   21.660   11.4797
   21.675   11.0233
   21.690   11.4622
   21.705   11.8308
   21.720   10.7600
   21.735   10.5670
   21.750   10.9005
   21.765   10.7952
   21.780   10.9356
   21.795   11.6202
   21.810   11.4797
   21.825   10.8829
   21.840   10.8303
   21.855   10.9005
   21.870   11.4446
   21.885   11.5850
   21.900   10.7776
   21.915   11.0233
   21.930   10.4265
   21.945   10.0404
   21.960    9.4962
   21.975   10.4265
   21.990   10.6021
   22.005   10.8127
   22.020   10.6898
   22.035   10.1457
   22.050   10.2861
   22.065   10.3212
   22.080   10.1983
   22.095   10.2686
   22.110    9.7244
   22.125   10.7074
   22.140   10.3563
   22.155   10.4792
   22.170   10.3212
   22.185   10.2686
   22.200    9.9351
   22.215   10.2335
   22.230   10.3914
   22.245   10.9531
   22.260   10.1457
   22.275   10.2159
   22.290   10.0755
   22.305   10.1983
   22.320   10.1632
   22.335   10.1808
   22.350   10.5670
   22.365   10.5143
   22.380   10.1983
   22.395   10.5494
   22.410   10.3388
   22.425   10.2335
   22.440   10.4441
   22.455   10.0228
   22.470   10.3914
   22.485   10.7425
   22.500   11.1638
   22.515   10.8127
   22.530   11.0233
   22.545   11.7430
   22.560   11.4973
   22.575   11.7606
   22.590   11.2340
   22.605   11.4797
   22.620   10.9531
   22.635   11.3217
   22.650   10.9531
   22.665   10.9707
   22.680   10.9882
   22.695   10.7249
   22.710   10.8127
   22.725   10.7776
   22.740   10.1808
   22.755   10.0404
   22.770   10.3212
   22.785   10.1632
   22.800   10.5845
   22.815   10.4792
   22.830   10.4090
   22.845   10.1632
   22.860   10.6898
   22.875   11.6553
   22.890   11.1989
   22.905   10.9882
   22.920   10.7600
   22.935   11.4271
   22.950   11.4797
   22.965   10.7952
   22.980   10.2335
   22.995   10.2159
   23.010   10.7952
   23.025   10.5319
   23.040   10.3037
   23.055   10.1632
   23.070   10.0404
   23.085   10.3037
   23.100   10.0930
   23.115    9.8473
   23.130    9.7946
   23.145   10.2335
   23.160   10.5494
   23.175   10.5845
   23.190   10.5494
   23.205   10.0404
   23.220    9.9175
   23.235   10.0579
   23.250   10.6898
   23.265   10.2686
   23.280   10.1808
   23.295   10.4792
   23.310   10.3914
   23.325   10.7600
   23.340   10.4090
   23.355   10.6547
   23.370   11.3920
   23.385   11.2164
   23.400   10.7776
   23.415   10.8478
   23.430   11.1989
   23.445   11.7957
   23.460   11.9361
   23.475   11.9361
   23.490   11.2691
   23.505   11.9888
   23.520   11.8483
   23.535   11.7430
   23.550   13.4106
   23.565   13.4632
   23.580   13.8143
   23.595   13.3579
   23.610   12.8313
   23.625   13.1648
   23.640   13.4106
   23.655   13.7792
   23.670   13.7967
   23.685   14.1302
   23.700   14.0074
   23.715   14.1654
   23.730   14.3935
   23.745   14.9552
   23.760   14.7622
   23.775   14.6919
   23.790   16.3244
   23.805   14.8499
   23.820   15.2887
   23.835   15.1308
   23.850   14.4286
   23.865   14.3760
   23.880   14.0776
   23.895   13.5334
   23.910   12.7962
   23.925   12.4276
   23.940   11.9361
   23.955   10.9005
   23.970   11.3042
   23.985   10.9005
   24.000    9.7771
   24.015    9.6367
   24.030    9.7946
   24.045    9.4260
   24.060    9.6015
   24.075    9.9877
   24.090    9.9351
   24.105    9.1978
   24.120    9.1978
   24.135    8.9872
   24.150    9.1627
   24.165    9.1803
   24.180    9.3909
   24.195    9.1276
   24.210    9.5489
   24.225    9.4085
   24.240    9.4436
   24.255    8.9345
   24.270    9.5489
   24.285    9.1627
   24.300    9.3207
   24.315    9.8297
   24.330    9.3382
   24.345    9.1627
   24.360    9.5138
   24.375    9.2505
   24.390    9.4436
   24.405    9.1627
   24.420    9.6893
   24.435    9.8297
   24.450    9.4085
   24.465    8.9345
   24.480    9.3207
   24.495    9.5664
   24.510    9.2856
   24.525    9.1978
   24.540    8.9872
   24.555    9.6015
   24.570    8.8292
   24.585    9.1978
   24.600    9.5489
   24.615    9.3909
   24.630    9.1452
   24.645    8.9170
   24.660    8.9345
   24.675    9.7420
   24.690    9.6191
   24.705    9.3909
   24.720    9.6542
   24.735    9.5489
   24.750    9.3031
   24.765    8.9170
   24.780    9.4787
   24.795    9.0047
   24.810    8.6010
   24.825    8.8819
   24.840    8.7765
   24.855    9.1276
   24.870    9.1276
   24.885    8.7239
   24.900    9.1452
   24.915    8.3377
   24.930    9.0925
   24.945    9.2154
   24.960    9.3558
   24.975    8.7765
   24.990    8.7941
   25.005    8.5133
   25.020    8.8819
   25.035    9.3382
   25.050    9.1452
   25.065    9.3734
   25.080    8.7941
   25.095    8.2324
   25.110    8.8643
   25.125    8.3904
   25.140    9.1803
   25.155    9.4787
   25.170    9.1627
   25.185    9.6367
   25.200    9.1627
   25.215    8.9345
   25.230    9.2680
   25.245    9.3207
   25.260    9.3382
   25.275    9.4787
   25.290    9.2154
   25.305    8.9170
   25.320    8.9521
   25.335    8.7414
   25.350    8.8643
   25.365    9.3207
   25.380    9.4085
   25.395    9.2680
   25.410    8.5484
   25.425    9.5138
   25.440    9.6191
   25.455    9.3558
   25.470    8.6712
   25.485    9.2154
   25.500    9.4962
   25.515    8.7063
   25.530    9.2856
   25.545    9.7244
   25.560    9.3909
   25.575    8.9872
   25.590    9.3031
   25.605    9.2154
   25.620    8.9696
   25.635    9.0223
   25.650    9.6718
   25.665    9.6893
   25.680    8.8117
   25.695    9.3909
   25.710    9.0398
   25.725    8.9170
   25.740    9.2329
   25.755    8.6010
   25.770    8.9872
   25.785    9.1978
   25.800    9.4962
   25.815    9.4436
   25.830    9.7595
   25.845    9.7771
   25.860    9.5840
   25.875    9.4787
   25.890    9.4787
   25.905    9.4787
   25.920    9.2329
   25.935    9.1101
   25.950    8.5659
   25.965    9.3734
   25.980    9.5313
   25.995    8.7590
   26.010    8.6010
   26.025    9.0223
   26.040    9.0398
   26.055    8.9170
   26.070    9.6191
   26.085    9.6718
   26.100    9.3031
   26.115    9.5840
   26.130    8.8468
   26.145    9.1627
   26.160    8.5133
   26.175    9.1978
   26.190    9.2680
   26.205    9.0398
   26.220    8.9696
   26.235    8.6712
   26.250    9.0047
   26.265    9.0223
   26.280    8.8117
   26.295    8.9345
   26.310    8.8292
   26.325    9.0047
   26.340    9.0750
   26.355    9.1627
   26.370    8.6186
   26.385    8.6361
   26.400    8.6712
   26.415    8.6712
   26.430    8.7765
   26.445    8.2324
   26.460    9.3382
   26.475    9.3031
   26.490    9.0047
   26.505    8.8292
   26.520    9.2505
   26.535    8.6888
   26.550    8.8117
   26.565    8.9170
   26.580    8.6010
   26.595    8.7063
   26.610    8.8468
   26.625    8.3728
   26.640    8.7765
   26.655    9.3558
   26.670    9.0047
   26.685    8.7414
   26.700    8.3026
   26.715    8.9170
   26.730    8.8292
   26.745    8.3904
   26.760    8.3904
   26.775    8.0920
   26.790    8.5835
   26.805    8.5659
   26.820    9.0223
   26.835    8.1797
   26.850    8.5133
   26.865    8.3377
   26.880    8.1797
   26.895    8.5133
   26.910    8.5484
   26.925    7.8462
   26.940    8.9696
   26.955    8.2500
   26.970    9.1978
   26.985    9.2680
   27.000    9.6893
   27.015    9.3031
   27.030    8.8819
   27.045    8.5308
   27.060    8.1622
   27.075    8.5484
   27.090    9.3382
   27.105    8.9521
   27.120    8.7590
   27.135    8.8117
   27.150    8.1271
   27.165    8.8643
   27.180    8.2324
   27.195    8.4957
   27.210    8.4430
   27.225    8.6186
   27.240    8.4430
   27.255    8.6712
   27.270    8.9696
   27.285    9.4085
   27.300    8.5484
   27.315    8.2149
   27.330    8.6010
   27.345    9.1452
   27.360    8.4957
   27.375    8.6361
   27.390    8.3377
   27.405    8.2149
   27.420    8.6712
   27.435    8.6537
   27.450    8.3377
   27.465    8.4255
   27.480    8.4079
   27.495    9.0925
   27.510    8.8468
   27.525    8.6186
   27.540    8.0393
   27.555    8.7941
   27.570    8.5835
   27.585    8.8292
   27.600    8.7239
   27.615    9.0574
   27.630    8.9170
   27.645    8.5308
   27.660    8.9345
   27.675    8.3202
   27.690    8.3553
   27.705    8.5659
   27.720    8.5484
   27.735    8.6888
   27.750    8.2149
   27.765    9.0047
   27.780    8.2324
   27.795    8.4430
   27.810    8.6712
   27.825    8.4781
   27.840    8.3377
   27.855    8.0744
   27.870    8.3728
   27.885    8.2149
   27.900    8.3904
   27.915    8.1973
   27.930    8.1271
   27.945    8.7063
   27.960    8.1095
   27.975    8.2324
   27.990    8.4079
   28.005    8.0744
   28.020    8.0218
   28.035    8.3728
   28.050    8.7414
   28.065    8.8819
   28.080    8.6712
   28.095    8.8819
   28.110    9.0223
   28.125    9.2329
   28.140    8.7239
   28.155    8.8117
   28.170    8.2149
   28.185    8.3728
   28.200    8.3377
   28.215    8.2851
   28.230    8.4079
   28.245    8.7941
   28.260    9.2154
   28.275    8.7414
   28.290    8.5308
   28.305    8.5484
   28.320    8.3553
   28.335    7.9340
   28.350    8.6537
   28.365    8.8994
   28.380    8.5835
   28.395    8.8117
   28.410    8.7941
   28.425    8.5484
   28.440    8.3377
   28.455    8.3904
   28.470    8.3728
   28.485    8.3904
   28.500    8.7590
   28.515    8.4606
   28.530    8.7765
   28.545    8.5484
   28.560    8.1797
   28.575    8.4781
   28.590    8.0218
   28.605    7.8287
   28.620    8.1973
   28.635    8.1095
   28.650    7.9164
   28.665    8.2500
   28.680    8.0920
   28.695    7.9691
   28.710    8.1095
   28.725    8.3377
   28.740    8.2675
   28.755    8.2500
   28.770    8.3553
   28.785    7.9516
   28.800    8.2324
   28.815    8.7414
   28.830    8.1271
   28.845    8.4430
   28.860    8.2851
   28.875    8.1973
   28.890    8.2149
   28.905    7.8111
   28.920    8.2324
   28.935    8.3904
   28.950    8.0218
   28.965    7.8813
   28.980    8.1797
   28.995    8.0920
   29.010    7.9867
   29.025    7.5478
   29.040    8.0393
   29.055    7.8111
   29.070    7.6883
   29.085    7.9516
   29.100    8.1797
   29.115    8.3202
   29.130    8.8292
   29.145    7.7760
   29.160    8.4606
   29.175    8.0393
   29.190    8.2500
   29.205    8.2500
   29.220    8.3202
   29.235    8.0042
   29.250    8.2324
   29.265    7.6707
   29.280    8.1095
   29.295    8.1973
   29.310    8.5659
   29.325    8.0393
   29.340    7.6356
   29.355    8.3553
   29.370    8.1973
   29.385    8.3026
   29.400    8.5659
   29.415    8.2851
   29.430    8.0569
   29.445    7.8638
   29.460    8.5133
   29.475    9.0398
   29.490    8.3904
   29.505    8.1446
   29.520    8.7414
   29.535    8.8994
   29.550    8.7239
   29.565    7.9867
   29.580    8.4957
   29.595    8.3202
   29.610    8.1622
   29.625    8.4255
   29.640    8.6186
   29.655    8.3026
   29.670    8.1622
   29.685    8.3728
   29.700    8.8292
   29.715    8.2851
   29.730    9.1276
   29.745    8.2149
   29.760    7.8813
   29.775    8.5835
   29.790    8.5835
   29.805    8.6361
   29.820    8.7941
   29.835    8.4957
   29.850    8.6712
   29.865    8.5484
   29.880    8.4079
   29.895    8.6186
   29.910    8.0042
   29.925    7.8638
   29.940    8.6010
   29.955    8.6010
   29.970    8.5835
   29.985    8.2149
   30.000    8.1271
   30.015    8.3377
   30.030    8.2324
   30.045    8.2851
   30.060    8.1797
   30.075    7.9691
   30.090    7.6180
   30.105    7.9340
   30.120    8.5835
   30.135    8.9872
   30.150    8.5484
   30.165    8.0920
   30.180    7.8989
   30.195    7.9516
   30.210    8.0218
   30.225    7.7936
   30.240    7.8287
   30.255    8.0744
   30.270    8.0042
   30.285    7.9516
   30.300    8.0744
   30.315    7.6532
   30.330    8.3026
   30.345    8.0569
   30.360    8.2149
   30.375    7.9164
   30.390    8.0042
   30.405    7.8287
   30.420    7.5654
   30.435    8.0744
   30.450    9.0750
   30.465    8.1797
   30.480    8.0569
   30.495    7.7585
   30.510    7.8638
   30.525    7.7234
   30.540    7.9516
   30.555    7.7936
   30.570    7.2845
   30.585    7.8989
   30.600    8.2324
   30.615    7.8813
   30.630    7.6707
   30.645    7.4776
   30.660    7.7760
   30.675    7.7936
   30.690    7.7234
   30.705    7.8111
   30.720    7.6707
   30.735    7.4074
   30.750    7.2494
   30.765    7.5303
   30.780    7.7760
   30.795    7.9516
   30.810    7.7409
   30.825    7.7936
   30.840    8.0042
   30.855    8.2851
   30.870    8.3728
   30.885    7.9340
   30.900    8.0920
   30.915    8.0920
   30.930    7.6005
   30.945    7.7058
   30.960    7.7409
   30.975    7.9867
   30.990    7.6180
   31.005    8.0569
   31.020    7.6707
   31.035    7.5478
   31.050    8.0744
   31.065    7.8989
   31.080    8.0218
   31.095    7.7234
   31.110    7.6707
   31.125    7.7058
   31.140    7.2845
   31.155    7.8111
   31.170    7.7760
   31.185    8.1622
   31.200    8.6361
   31.215    7.8287
   31.230    7.7058
   31.245    7.9691
   31.260    7.9516
   31.275    7.5654
   31.290    7.7760
   31.305    8.0920
   31.320    8.1446
   31.335    8.0042
   31.350    8.1797
   31.365    8.2149
   31.380    8.6361
   31.395    8.1622
   31.410    7.8989
   31.425    7.5829
   31.440    7.5127
   31.455    7.4776
   31.470    8.0218
   31.485    8.0569
   31.500    7.8989
   31.515    7.8989
   31.530    7.8638
   31.545    8.1095
   31.560    8.2149
   31.575    7.3547
   31.590    7.7936
   31.605    7.8638
   31.620    8.0744
   31.635    7.7234
   31.650    8.0042
   31.665    7.7409
   31.680    7.9867
   31.695    8.2851
   31.710    7.3547
   31.725    7.1968
   31.740    7.7936
   31.755    7.4952
   31.770    7.6707
   31.785    7.7760
   31.800    7.7936
   31.815    7.6005
   31.830    7.6005
   31.845    7.5829
   31.860    8.1797
   31.875    7.8989
   31.890    7.5303
   31.905    7.8462
   31.920    8.0920
   31.935    8.2851
   31.950    8.0744
   31.965    8.7590
   31.980    7.7936
   31.995    7.8111
   32.010    8.0218
   32.025    8.0393
   32.040    7.7585
   32.055    7.4074
   32.070    7.8989
   32.085    8.1095
   32.100    7.7936
   32.115    7.7760
   32.130    7.7058
   32.145    7.8813
   32.160    7.3021
   32.175    7.1792
   32.190    7.6180
   32.205    8.2324
   32.220    7.7936
   32.235    7.5829
   32.250    7.5127
   32.265    7.2845
   32.280    7.6180
   32.295    7.8287
   32.310    7.8462
   32.325    7.4601
   32.340    7.5829
   32.355    7.6180
   32.370    7.7760
   32.385    7.4425
   32.400    7.8111
   32.415    7.7058
   32.430    8.1622
   32.445    7.8111
   32.460    8.0920
   32.475    7.8638
   32.490    6.9861
   32.505    7.0563
   32.520    7.3021
   32.535    7.4425
   32.550    7.1792
   32.565    6.8633
   32.580    7.0915
   32.595    7.1266
   32.610    7.4074
   32.625    7.4250
   32.640    7.9867
   32.655    7.5654
   32.670    6.6877
   32.685    7.0563
   32.700    6.7579
   32.715    6.9510
   32.730    7.0563
   32.745    6.7053
   32.760    7.5127
   32.775    7.6356
   32.790    6.8282
   32.805    7.5654
   32.820    7.5829
   32.835    7.3899
   32.850    7.7409
   32.865    6.9861
   32.880    7.1617
   32.895    7.5829
   32.910    7.6883
   32.925    7.7058
   32.940    7.3899
   32.955    7.8813
   32.970    7.2494
   32.985    6.9686
   33.000    7.5303
   33.015    7.4776
   33.030    7.7936
   33.045    7.0915
   33.060    7.3723
   33.075    7.3196
   33.090    7.3372
   33.105    7.2143
   33.120    7.4952
   33.135    7.3021
   33.150    8.0042
   33.165    7.7234
   33.180    7.1617
   33.195    7.1266
   33.210    7.1968
   33.225    7.4425
   33.240    7.3899
   33.255    7.6005
   33.270    7.2494
   33.285    6.8282
   33.300    7.3021
   33.315    7.5303
   33.330    7.3899
   33.345    7.5303
   33.360    7.6005
   33.375    7.3372
   33.390    7.2143
   33.405    7.7760
   33.420    7.3196
   33.435    7.2143
   33.450    7.6180
   33.465    7.6005
   33.480    7.4776
   33.495    7.5654
   33.510    7.4952
   33.525    7.8287
   33.540    7.7585
   33.555    7.3547
   33.570    7.1090
   33.585    7.4776
   33.600    7.0212
   33.615    6.7404
   33.630    7.3899
   33.645    7.5478
   33.660    7.4425
   33.675    7.3723
   33.690    7.4250
   33.705    6.9335
   33.720    7.0915
   33.735    7.3021
   33.750    7.5654
   33.765    7.6883
   33.780    7.5303
   33.795    7.2319
   33.810    7.1441
   33.825    7.5654
   33.840    7.8287
   33.855    7.6532
   33.870    7.7760
   33.885    7.2494
   33.900    7.8638
   33.915    7.4601
   33.930    6.9861
   33.945    6.9159
   33.960    7.5829
   33.975    7.8287
   33.990    6.8633
   34.005    7.1968
   34.020    6.7404
   34.035    7.5478
   34.050    7.4776
   34.065    7.4250
   34.080    7.2143
   34.095    7.2494
   34.110    7.2845
   34.125    7.0739
   34.140    7.0388
   34.155    6.6877
   34.170    7.0388
   34.185    7.1441
   34.200    7.1266
   34.215    7.0563
   34.230    7.0739
   34.245    6.6877
   34.260    6.5824
   34.275    7.3899
   34.290    7.7585
   34.305    7.3021
   34.320    7.3547
   34.335    7.4601
   34.350    7.4425
   34.365    7.0915
   34.380    7.3547
   34.395    7.5478
   34.410    7.3372
   34.425    7.3547
   34.440    7.1792
   34.455    7.1968
   34.470    7.4601
   34.485    7.4425
   34.500    7.1968
   34.515    6.8808
   34.530    7.1441
   34.545    7.2670
   34.560    7.5303
   34.575    7.4601
   34.590    7.3021
   34.605    7.2670
   34.620    7.5478
   34.635    6.7579
   34.650    7.2143
   34.665    7.1968
   34.680    7.7058
   34.695    7.3547
   34.710    7.2494
   34.725    7.0212
   34.740    7.8287
   34.755    7.3372
   34.770    7.4601
   34.785    7.0212
   34.800    7.4425
   34.815    6.9686
   34.830    7.4250
   34.845    7.7760
   34.860    7.3723
   34.875    7.4601
   34.890    7.0388
   34.905    7.2670
   34.920    7.2670
   34.935    7.8813
   34.950    7.4952
   34.965    7.0388
   34.980    6.7579
   34.995    7.0915
   35.010    7.3021
   35.025    7.2143
   35.040    7.0037
   35.055    6.8984
   35.070    7.6532
   35.085    7.6883
   35.100    7.1792
   35.115    7.2670
   35.130    7.1792
   35.145    7.3372
   35.160    7.3899
   35.175    7.5478
   35.190    7.3021
   35.205    7.0388
   35.220    7.1792
   35.235    6.8633
   35.250    7.6883
   35.265    7.4601
   35.280    6.8282
   35.295    7.0563
   35.310    7.1617
   35.325    7.2494
   35.340    7.5654
   35.355    6.7579
   35.370    6.8633
   35.385    7.5654
   35.400    7.2319
   35.415    7.0739
   35.430    7.3547
   35.445    6.9510
   35.460    7.9164
   35.475    7.6180
   35.490    7.3021
   35.505    7.3021
   35.520    7.0915
   35.535    7.1968
   35.550    7.3899
   35.565    6.9861
   35.580    7.5303
   35.595    7.9867
   35.610    7.6005
   35.625    7.3547
   35.640    7.1792
   35.655    7.0915
   35.670    6.8282
   35.685    7.5654
   35.700    7.7409
   35.715    7.8287
   35.730    7.4952
   35.745    7.5127
   35.760    7.4776
   35.775    7.5127
   35.790    7.6005
   35.805    7.7409
   35.820    7.3723
   35.835    7.8111
   35.850    7.7760
   35.865    8.2149
   35.880    7.8462
   35.895    7.9340
   35.910    7.7234
   35.925    8.0218
   35.940    7.9516
   35.955    7.3723
   35.970    7.9164
   35.985    7.8287
   36.000    8.0042
   36.015    8.0569
   36.030    7.7760
   36.045    7.7234
   36.060    7.9867
   36.075    7.8638
   36.090    7.9516
   36.105    7.7585
   36.120    7.7409
   36.135    7.2845
   36.150    8.4957
   36.165    8.3377
   36.180    8.1446
   36.195    7.6532
   36.210    7.2143
   36.225    7.3372
   36.240    7.5654
   36.255    7.6005
   36.270    7.7058
   36.285    7.4776
   36.300    7.5478
   36.315    7.1441
   36.330    7.4074
   36.345    7.4776
   36.360    7.2319
   36.375    7.3547
   36.390    6.8808
   36.405    6.7053
   36.420    7.0212
   36.435    7.0212
   36.450    7.0739
   36.465    7.3196
   36.480    6.6702
   36.495    7.3196
   36.510    7.3899
   36.525    7.1792
   36.540    7.4074
   36.555    6.7930
   36.570    6.4946
   36.585    7.1090
   36.600    7.2143
   36.615    7.0212
   36.630    6.5473
   36.645    6.5649
   36.660    6.9510
   36.675    7.1617
   36.690    7.1617
   36.705    6.9335
   36.720    6.8984
   36.735    7.0915
   36.750    6.2840
   36.765    6.3016
   36.780    7.3021
   36.795    7.0212
   36.810    7.0388
   36.825    7.3196
   36.840    6.9510
   36.855    6.8808
   36.870    6.4069
   36.885    7.0563
   36.900    6.6877
   36.915    6.5649
   36.930    7.3196
   36.945    7.2845
   36.960    7.0212
   36.975    7.0037
   36.990    6.6351
   37.005    6.7579
   37.020    7.2143
   37.035    7.1266
   37.050    6.9335
   37.065    7.0212
   37.080    7.0037
   37.095    7.0915
   37.110    7.4952
   37.125    7.1617
   37.140    6.9335
   37.155    6.9510
   37.170    7.1090
   37.185    7.1441
   37.200    7.5303
   37.215    7.1266
   37.230    6.8457
   37.245    7.1090
   37.260    6.8106
   37.275    6.6877
   37.290    6.7228
   37.305    7.1617
   37.320    7.3547
   37.335    6.9686
   37.350    6.8106
   37.365    6.7930
   37.380    7.2319
   37.395    7.2494
   37.410    6.6175
   37.425    6.4595
   37.440    6.8808
   37.455    6.7228
   37.470    6.9510
   37.485    7.2319
   37.500    7.2143
   37.515    7.1617
   37.530    7.3723
   37.545    6.9335
   37.560    6.6526
   37.575    6.7755
   37.590    6.9510
   37.605    6.6526
   37.620    6.7755
   37.635    6.9335
   37.650    6.9861
   37.665    7.1617
   37.680    7.3021
   37.695    7.4250
   37.710    7.1968
   37.725    7.3021
   37.740    7.3723
   37.755    7.1090
   37.770    6.7930
   37.785    6.9335
   37.800    7.2670
   37.815    7.2670
   37.830    7.4601
   37.845    7.3372
   37.860    6.7228
   37.875    6.6526
   37.890    7.0212
   37.905    6.9335
   37.920    7.2845
   37.935    7.3196
   37.950    7.3723
   37.965    7.5127
   37.980    7.0739
   37.995    7.0563
   38.010    7.0212
   38.025    6.8457
   38.040    7.0388
   38.055    7.3723
   38.070    7.4952
   38.085    7.0037
   38.100    6.9686
   38.115    7.3372
   38.130    7.6707
   38.145    7.8287
   38.160    6.9510
   38.175    6.7930
   38.190    7.1266
   38.205    7.0563
   38.220    7.3196
   38.235    6.8633
   38.250    7.1441
   38.265    7.3723
   38.280    6.6175
   38.295    7.1968
   38.310    7.0563
   38.325    7.1266
   38.340    7.0388
   38.355    7.0739
   38.370    6.3893
   38.385    6.7755
   38.400    7.1441
   38.415    6.9159
   38.430    6.8106
   38.445    7.0739
   38.460    6.9510
   38.475    6.9861
   38.490    6.8282
   38.505    6.9159
   38.520    6.3191
   38.535    6.6351
   38.550    6.6351
   38.565    6.7579
   38.580    6.6351
   38.595    6.4595
   38.610    6.8984
   38.625    6.9510
   38.640    6.7755
   38.655    6.4946
   38.670    6.8633
   38.685    6.8282
   38.700    6.4595
   38.715    6.5649
   38.730    6.7228
   38.745    6.8808
   38.760    6.9686
   38.775    6.2665
   38.790    6.8457
   38.805    6.7930
   38.820    6.8808
   38.835    7.1617
   38.850    7.2143
   38.865    6.8457
   38.880    7.2670
   38.895    7.0037
   38.910    7.1792
   38.925    7.1617
   38.940    7.1968
   38.955    7.0388
   38.970    6.9335
   38.985    6.7404
   39.000    6.8633
   39.015    7.0739
   39.030    6.8106
   39.045    6.5824
   39.060    7.0739
   39.075    6.9510
   39.090    6.6175
   39.105    6.9686
   39.120    6.9159
   39.135    6.7579
   39.150    7.0915
   39.165    6.1436
   39.180    6.6702
   39.195    7.3372
   39.210    6.6351
   39.225    7.1792
   39.240    6.8633
   39.255    7.0388
   39.270    6.9159
   39.285    7.4952
   39.300    7.3196
   39.315    6.8106
   39.330    6.6000
   39.345    6.7579
   39.360    6.6702
   39.375    6.7053
   39.390    7.3196
   39.405    6.8457
   39.420    7.0915
   39.435    7.1441
   39.450    7.0037
   39.465    6.7228
   39.480    6.9159
   39.495    6.7404
   39.510    6.5824
   39.525    6.5649
   39.540    6.9159
   39.555    6.9335
   39.570    7.1090
   39.585    6.4595
   39.600    6.8808
   39.615    6.8633
   39.630    6.7579
   39.645    6.7228
   39.660    7.1266
   39.675    6.7930
   39.690    6.9159
   39.705    7.3372
   39.720    6.6526
   39.735    7.1090
   39.750    7.1617
   39.765    6.6175
   39.780    6.7579
   39.795    7.2845
   39.810    7.2319
   39.825    7.3372
   39.840    7.3723
   39.855    6.9510
   39.870    7.0915
   39.885    7.1090
   39.900    7.1968
   39.915    7.0037
   39.930    6.8106
   39.945    6.9686
   39.960    6.7404
   39.975    7.1441
   39.990    6.8808
