    1.500   14.2391
    1.515   14.1654
    1.530   14.3128
    1.545   13.7546
    1.560   14.3023
    1.575   14.3023
    1.590   14.1443
    1.605   14.1759
    1.620   13.4913
    1.635   13.7019
    1.650   13.5229
    1.665   13.0911
    1.680   12.8067
    1.695   13.2701
    1.710   13.0700
    1.725   12.7330
    1.740   12.6172
    1.755   12.7962
    1.770   12.3855
    1.785   12.0379
    1.800   12.8805
    1.815   12.6804
    1.830   11.6166
    1.845   11.2586
    1.860   11.9642
    1.875   12.0906
    1.890   12.2170
    1.905   11.2059
    1.920   11.0374
    1.935   11.4271
    1.950   11.5219
    1.965   11.7957
    1.980   11.6272
    1.995   11.4165
    2.010   11.3639
    2.025   10.9426
    2.040   10.8689
    2.055   11.5324
    2.070   11.3955
    2.085   10.6161
    2.100   10.8899
    2.115   10.8583
    2.130   10.9637
    2.145   10.5845
    2.160   10.7741
    2.175   10.5951
    2.190   10.4897
    2.205   10.3107
    2.220   10.4581
    2.235   10.4476
    2.250   10.5003
    2.265   10.8373
    2.280   10.2896
    2.295   10.1738
    2.310   10.5213
    2.325   10.8899
    2.340   10.1106
    2.355   10.4371
    2.370   10.6477
    2.385   10.1527
    2.400   10.0579
    2.415   10.3423
    2.430   10.4476
    2.445   11.0479
    2.460   10.1948
    2.475   10.2370
    2.490   10.2580
    2.505   10.3318
    2.520    9.9947
    2.535    9.8894
    2.550   10.1843
    2.565   10.1106
    2.580   10.3844
    2.595   10.4055
    2.610   10.4265
    2.625   10.1211
    2.640   10.5003
    2.655   10.4371
    2.670   10.3633
    2.685   10.7004
    2.700   10.6793
    2.715   10.6161
    2.730   10.4476
    2.745   10.6688
    2.760   10.7952
    2.775   10.6161
    2.790   10.3844
    2.805   10.3423
    2.820   10.6056
    2.835   10.5635
    2.850   10.3212
    2.865   10.9005
    2.880   11.2480
    2.895   10.8899
    2.910   11.0163
    2.925   10.8268
    2.940   10.9426
    2.955   10.5951
    2.970   10.5424
    2.985   11.0585
    3.000   11.5850
    3.015   11.6272
    3.030   11.6061
    3.045   11.3955
    3.060   11.7957
    3.075   11.6693
    3.090   11.6166
    3.105   12.6698
    3.120   12.5856
    3.135   12.2696
    3.150   12.2696
    3.165   12.4276
    3.180   12.2907
    3.195   12.9542
    3.210   13.0700
    3.225   12.5750
    3.240   13.0911
    3.255   13.2807
    3.270   13.4702
    3.285   13.7335
    3.300   13.4702
    3.315   13.5966
    3.330   14.5340
    3.345   14.7341
    3.360   14.5234
    3.375   14.6182
    3.390   15.3028
    3.405   15.0500
    3.420   15.5134
    3.435   15.6819
    3.450   16.0611
    3.465   15.6503
    3.480   16.2191
    3.495   17.0721
    3.510   17.6935
    3.525   17.4408
    3.540   18.0411
    3.555   18.7678
    3.570   18.8099
    3.585   19.5050
    3.600   19.8842
    3.615   20.2422
    3.630   21.2849
    3.645   21.2006
    3.660   22.7067
    3.675   23.5282
    3.690   24.2970
    3.705   24.5182
    3.720   25.5187
    3.735   27.0037
    3.750   27.7830
    3.765   30.0474
    3.780   31.1638
    3.795   33.1332
    3.810   34.2496
    3.825   36.8404
    3.840   39.7578
    3.855   41.3481
    3.870   42.3591
    3.885   42.7383
    3.900   39.4313
    3.915   35.2607
    3.930   29.1206
    3.945   23.5282
    3.960   19.2944
    3.975   16.8510
    3.990   14.7867
    4.005   13.6072
    4.020   13.2596
    4.035   12.3117
    4.050   12.0274
    4.065   11.4271
    4.080   10.9531
    4.095   10.7741
    4.110   10.3002
    4.125   10.5319
    4.140   10.1422
    4.155    9.9631
    4.170    9.6472
    4.185    9.6893
    4.200    9.0679
    4.215    8.6572
    4.230    9.6472
    4.245    9.2364
    4.260    9.0679
    4.275    9.0995
    4.290    8.9100
    4.305    8.7625
    4.320    8.7941
    4.335    8.8468
    4.350    8.6256
    4.365    8.5624
    4.380    8.8046
    4.395    8.6151
    4.410    8.7625
    4.425    8.4887
    4.440    8.7098
    4.455    8.4887
    4.470    9.0995
    4.485    8.5308
    4.500    8.8257
    4.515    8.4150
    4.530    8.6361
    4.545    8.2991
    4.560    7.9831
    4.575    8.7309
    4.590    8.5519
    4.605    8.6783
    4.620    8.2675
    4.635    8.3096
    4.650    8.4887
    4.665    8.3623
    4.680    8.3728
    4.695    8.8889
    4.710    8.8152
    4.725    8.4992
    4.740    8.2254
    4.755    8.9521
    4.770    8.6888
    4.785    9.0153
    4.800    8.6993
    4.815    8.6151
    4.830    8.3834
    4.845    8.8257
    4.860    9.1522
    4.875    9.3523
    4.890    8.9942
    4.905    8.6572
    4.920    8.5729
    4.935    8.8994
    4.950    8.8678
    4.965    8.8468
    4.980    8.5729
    4.995    9.0785
    5.010    9.3523
    5.025    9.3523
    5.040    8.4676
    5.055    9.0258
    5.070    9.0469
    5.085    8.8994
    5.100    8.8678
    5.115    8.9205
    5.130    9.2575
    5.145    9.0995
    5.160    9.3523
    5.175    9.1627
    5.190    9.3207
    5.205    9.5629
    5.220    9.3839
    5.235    9.5103
    5.250   10.0790
    5.265    9.9210
    5.280    9.7630
    5.295    9.7736
    5.310    9.7420
    5.325    9.8157
    5.340    9.9631
    5.355   10.1948
    5.370   10.3423
    5.385   10.8478
    5.400   10.8268
    5.415   11.6061
    5.430   11.6693
    5.445   11.7852
    5.460   12.1748
    5.475   13.1543
    5.490   12.8594
    5.505   12.3855
    5.520   12.1538
    5.535   11.1216
    5.550   10.6582
    5.565   10.0053
    5.580    9.7420
    5.595    9.2786
    5.610    8.7414
    5.625    9.1943
    5.640    8.6572
    5.655    8.4676
    5.670    8.2464
    5.685    8.8468
    5.700    8.6572
    5.715    8.0147
    5.730    8.2149
    5.745    8.6783
    5.760    8.0253
    5.775    8.3518
    5.790    8.0674
    5.805    8.2359
    5.820    8.2780
    5.835    8.2043
    5.850    7.8146
    5.865    8.0569
    5.880    8.0779
    5.895    8.2464
    5.910    8.0253
    5.925    8.1411
    5.940    7.9094
    5.955    7.5197
    5.970    7.7409
    5.985    7.7725
    6.000    8.0885
    6.015    7.9200
    6.030    7.6356
    6.045    8.2886
    6.060    8.1411
    6.075    8.6256
    6.090    7.9410
    6.105    7.9410
    6.120    7.9726
    6.135    8.0147
    6.150    8.1727
    6.165    7.8673
    6.180    8.0990
    6.195    8.0674
    6.210    7.9937
    6.225    7.8462
    6.240    7.9621
    6.255    7.9516
    6.270    8.1517
    6.285    7.8357
    6.300    8.1622
    6.315    7.9410
    6.330    8.1622
    6.345    8.0042
    6.360    7.8462
    6.375    8.1306
    6.390    8.2570
    6.405    8.2359
    6.420    8.4992
    6.435    8.2570
    6.450    8.0990
    6.465    8.1938
    6.480    8.1833
    6.495    8.3307
    6.510    8.1411
    6.525    8.2886
    6.540    7.9937
    6.555    8.3518
    6.570    8.1938
    6.585    8.3202
    6.600    8.2886
    6.615    8.4571
    6.630    8.4150
    6.645    8.4255
    6.660    8.2359
    6.675    8.2149
    6.690    8.3202
    6.705    8.4255
    6.720    8.1833
    6.735    8.6467
    6.750    7.9726
    6.765    8.0147
    6.780    8.1411
    6.795    8.4781
    6.810    8.3307
    6.825    8.0042
    6.840    8.2886
    6.855    8.1201
    6.870    7.9200
    6.885    7.6672
    6.900    7.9200
    6.915    8.1095
    6.930    7.5619
    6.945    7.7620
    6.960    7.9726
    6.975    7.9516
    6.990    8.2149
    7.005    8.1833
    7.020    8.1727
    7.035    8.1517
    7.050    7.7725
    7.065    8.0253
    7.080    8.1517
    7.095    8.2254
    7.110    8.4887
    7.125    7.9305
    7.140    7.8462
    7.155    8.2043
    7.170    8.2886
    7.185    8.0253
    7.200    7.9726
    7.215    7.8778
    7.230    7.7936
    7.245    8.2043
    7.260    8.2886
    7.275    8.1833
    7.290    8.0569
    7.305    8.1833
    7.320    7.8146
    7.335    8.3412
    7.350    8.4150
    7.365    8.0147
    7.380    8.1727
    7.395    8.0147
    7.410    7.6988
    7.425    8.3307
    7.440    8.7625
    7.455    8.1411
    7.470    8.2991
    7.485    8.6151
    7.500    8.3202
    7.515    8.0779
    7.530    8.5097
    7.545    8.7309
    7.560    9.0469
    7.575    8.2359
    7.590    8.6677
    7.605    8.7309
    7.620    8.8362
    7.635    8.8573
    7.650    8.6467
    7.665    8.7204
    7.680    8.8468
    7.695    8.5729
    7.710    8.8994
    7.725    9.1417
    7.740    8.9521
    7.755    9.0047
    7.770    9.7104
    7.785    9.4050
    7.800    9.2786
    7.815    9.3312
    7.830    9.6788
    7.845    9.4050
    7.860    9.0258
    7.875    8.6361
    7.890    8.6151
    7.905    8.7836
    7.920    8.7520
    7.935    8.2149
    7.950    8.0463
    7.965    8.5519
    7.980    8.5097
    7.995    8.5308
    8.010    9.3418
    8.025    8.4571
    8.040    8.3834
    8.055    8.4150
    8.070    8.3939
    8.085    8.4676
    8.100    8.1727
    8.115    7.8673
    8.130    8.2991
    8.145    8.0674
    8.160    8.3518
    8.175    8.4887
    8.190    8.7836
    8.205    8.2675
    8.220    7.8673
    8.235    8.3518
    8.250    8.6151
    8.265    8.2570
    8.280    8.4781
    8.295    8.2886
    8.310    8.3307
    8.325    8.2570
    8.340    8.4360
    8.355    8.2780
    8.370    7.9831
    8.385    8.0885
    8.400    8.6361
    8.415    8.6151
    8.430    8.5519
    8.445    8.4044
    8.460    8.8889
    8.475    8.5308
    8.490    8.2570
    8.505    8.4255
    8.520    8.6256
    8.535    9.3207
    8.550    8.9731
    8.565    8.6783
    8.580    8.1201
    8.595    8.3096
    8.610    8.5097
    8.625    8.2991
    8.640    8.7520
    8.655    8.9205
    8.670    8.3728
    8.685    8.9731
    8.700    8.9626
    8.715    8.7204
    8.730    8.6151
    8.745    8.2780
    8.760    8.3307
    8.775    8.4150
    8.790    8.3623
    8.805    8.4781
    8.820    8.3307
    8.835    8.6993
    8.850    8.4887
    8.865    8.5729
    8.880    8.5729
    8.895    8.4044
    8.910    8.5097
    8.925    8.2886
    8.940    8.5729
    8.955    8.8257
    8.970    9.0785
    8.985    8.5097
    9.000    8.6888
    9.015    8.6783
    9.030    8.0885
    9.045    8.5308
    9.060    8.5097
    9.075    8.6467
    9.090    8.8257
    9.105    8.7836
    9.120    8.9626
    9.135    8.5308
    9.150    9.0995
    9.165    8.7309
    9.180    8.7941
    9.195    8.7309
    9.210    9.4576
    9.225    8.8784
    9.240    8.8678
    9.255    8.1727
    9.270    9.0890
    9.285    8.8573
    9.300    8.7414
    9.315    8.9942
    9.330    9.4576
    9.345    9.6051
    9.360    9.1101
    9.375    9.7209
    9.390    9.3734
    9.405    9.4365
    9.420    9.3102
    9.435    9.7525
    9.450    9.8368
    9.465   10.2264
    9.480   10.4160
    9.495   10.3528
    9.510   10.7636
    9.525   11.0163
    9.540   10.2896
    9.555   11.0479
    9.570   10.9110
    9.585   10.8268
    9.600   10.5319
    9.615   10.2686
    9.630    9.6367
    9.645    9.2996
    9.660    9.2364
    9.675    9.3418
    9.690    9.4365
    9.705    9.1838
    9.720    8.6993
    9.735    9.2154
    9.750    9.4576
    9.765    9.1101
    9.780    8.9205
    9.795    8.9626
    9.810    8.9626
    9.825    8.8046
    9.840    8.8784
    9.855    8.8889
    9.870    9.2364
    9.885    8.4571
    9.900    8.8468
    9.915    8.7309
    9.930    8.5624
    9.945    8.5729
    9.960    8.5097
    9.975    8.6256
    9.990    9.0153
   10.005    8.9731
   10.020    9.1627
   10.035    8.8152
   10.050    8.9100
   10.065    8.6151
   10.080    8.8784
   10.095    9.1838
   10.110    9.1838
   10.125    9.0469
   10.140    9.0363
   10.155    9.0469
   10.170    9.2259
   10.185    9.3523
   10.200    8.9521
   10.215    8.7941
   10.230    9.1311
   10.245    9.2680
   10.260    8.8257
   10.275    9.0153
   10.290    9.2048
   10.305    9.4997
   10.320    9.3944
   10.335    9.3839
   10.350    9.3418
   10.365    9.2680
   10.380    9.1838
   10.395    9.1943
   10.410    9.0363
   10.425    8.8889
   10.440    8.8573
   10.455    9.0363
   10.470    8.8889
   10.485    8.9310
   10.500    8.8784
   10.515    8.8046
   10.530    8.2464
   10.545    8.9310
   10.560    8.9626
   10.575    8.6045
   10.590    8.5203
   10.605    8.3623
   10.620    8.5835
   10.635    8.7098
   10.650    8.9100
   10.665    8.6045
   10.680    8.7836
   10.695    8.9100
   10.710    8.8362
   10.725    8.6677
   10.740    8.4360
   10.755    8.7204
   10.770    8.6993
   10.785    9.0153
   10.800    8.6888
   10.815    8.8994
   10.830    8.7309
   10.845    8.8362
   10.860    8.9205
   10.875    8.2886
   10.890    8.4466
   10.905    9.0469
   10.920    8.6256
   10.935    8.7625
   10.950    9.2575
   10.965    8.7730
   10.980    8.7098
   10.995    9.3628
   11.010    9.0047
   11.025    9.1838
   11.040    8.7309
   11.055    8.8573
   11.070    9.3102
   11.085    8.8257
   11.100    8.9626
   11.115    9.0047
   11.130    8.6361
   11.145    8.9521
   11.160    8.8468
   11.175    8.0990
   11.190    8.1411
   11.205    8.3307
   11.220    8.2780
   11.235    8.1727
   11.250    8.2570
   11.265    8.5413
   11.280    8.6677
   11.295    8.3834
   11.310    8.7414
   11.325    8.3834
   11.340    7.7725
   11.355    8.1938
   11.370    8.4360
   11.385    8.1622
   11.400    8.3834
   11.415    8.3202
   11.430    8.6361
   11.445    8.5835
   11.460    8.3096
   11.475    8.1622
   11.490    8.5413
   11.505    8.6361
   11.520    8.0674
   11.535    8.1833
   11.550    8.0569
   11.565    7.7304
   11.580    8.0358
   11.595    8.3728
   11.610    8.0990
   11.625    8.1411
   11.640    8.3202
   11.655    8.5835
   11.670    8.3834
   11.685    8.5835
   11.700    8.7730
   11.715    8.8046
   11.730    8.9521
   11.745    8.9521
   11.760    8.3518
   11.775    8.1411
   11.790    8.0042
   11.805    8.2675
   11.820    8.1095
   11.835    8.3412
   11.850    8.0674
   11.865    8.2464
   11.880    8.2570
   11.895    7.8989
   11.910    7.8146
   11.925    7.7514
   11.940    7.7409
   11.955    7.3407
   11.970    7.9726
   11.985    8.0147
   12.000    7.8568
   12.015    8.3412
   12.030    7.8462
   12.045    7.9726
   12.060    8.3728
   12.075    8.1411
   12.090    8.0463
   12.105    7.6988
   12.120    7.8041
   12.135    7.9410
   12.150    7.5724
   12.165    8.0253
   12.180    7.7093
   12.195    7.5935
   12.210    8.0990
   12.225    7.6988
   12.240    8.1411
   12.255    8.2043
   12.270    8.2570
   12.285    8.1833
   12.300    7.6567
   12.315    7.8568
   12.330    8.1517
   12.345    8.0569
   12.360    8.0147
   12.375    7.8568
   12.390    7.6040
   12.405    7.8462
   12.420    8.2675
   12.435    7.9200
   12.450    7.7409
   12.465    8.1095
   12.480    8.1622
   12.495    7.8568
   12.510    7.7620
   12.525    7.9094
   12.540    7.4671
   12.555    7.6251
   12.570    7.8673
   12.585    7.5197
   12.600    7.6672
   12.615    7.7725
   12.630    8.1622
   12.645    7.6567
   12.660    7.7620
   12.675    8.1411
   12.690    7.6883
   12.705    7.6145
   12.720    7.7936
   12.735    7.7199
   12.750    7.7093
   12.765    7.7093
   12.780    7.8673
   12.795    7.6672
   12.810    7.7304
   12.825    7.8146
   12.840    7.6356
   12.855    7.8357
   12.870    7.7514
   12.885    7.8778
   12.900    7.9094
   12.915    8.0990
   12.930    7.9410
   12.945    8.2570
   12.960    8.4887
   12.975    8.2991
   12.990    8.2675
   13.005    8.0674
   13.020    7.8778
   13.035    8.0674
   13.050    7.7093
   13.065    7.5513
   13.080    7.7199
   13.095    7.5197
   13.110    8.1095
   13.125    8.1095
   13.140    7.4987
   13.155    7.2249
   13.170    7.2249
   13.185    7.6777
   13.200    7.3196
   13.215    7.2459
   13.230    7.7936
   13.245    7.0669
   13.260    7.4250
   13.275    7.4250
   13.290    7.3828
   13.305    7.4776
   13.320    7.4250
   13.335    7.8357
   13.350    7.3618
   13.365    7.5303
   13.380    7.6356
   13.395    8.1833
   13.410    8.0990
   13.425    7.8673
   13.440    7.4987
   13.455    7.6567
   13.470    7.5935
   13.485    7.6777
   13.500    7.5408
   13.515    8.0779
   13.530    7.7093
   13.545    7.4355
   13.560    7.4987
   13.575    7.6461
   13.590    7.6461
   13.605    7.5935
   13.620    7.7409
   13.635    7.2459
   13.650    7.5197
   13.665    7.4460
   13.680    7.6040
   13.695    7.5092
   13.710    7.4566
   13.725    7.1933
   13.740    7.3091
   13.755    7.0353
   13.770    7.3934
   13.785    7.5303
   13.800    7.4671
   13.815    7.9305
   13.830    8.0885
   13.845    7.7620
   13.860    7.1195
   13.875    7.5619
   13.890    7.2143
   13.905    7.3407
   13.920    7.0563
   13.935    7.0248
   13.950    7.3196
   13.965    7.5303
   13.980    7.8146
   13.995    7.8989
   14.010    7.6777
   14.025    7.6672
   14.040    7.5303
   14.055    7.6777
   14.070    7.5935
   14.085    7.4460
   14.100    7.9516
   14.115    7.9200
   14.130    7.5408
   14.145    7.4987
   14.160    7.8778
   14.175    7.2986
   14.190    7.5303
   14.205    7.3934
   14.220    7.3512
   14.235    7.5303
   14.250    7.7514
   14.265    7.2565
   14.280    6.9616
   14.295    7.1511
   14.310    7.5829
   14.325    7.7304
   14.340    7.2354
   14.355    7.5935
   14.370    7.5724
   14.385    7.4250
   14.400    7.5619
   14.415    7.5724
   14.430    7.0458
   14.445    7.2670
   14.460    7.8568
   14.475    7.4250
   14.490    7.6251
   14.505    7.7409
   14.520    7.5829
   14.535    7.3828
   14.550    7.1406
   14.565    7.5513
   14.580    7.4987
   14.595    7.4250
   14.610    7.5197
   14.625    7.3196
   14.640    7.1511
   14.655    7.0142
   14.670    7.1827
   14.685    7.4671
   14.700    7.1827
   14.715    7.4460
   14.730    7.1195
   14.745    7.2565
   14.760    7.2143
   14.775    7.3407
   14.790    7.7725
   14.805    7.5513
   14.820    7.1301
   14.835    7.6145
   14.850    7.7409
   14.865    7.7936
   14.880    7.6040
   14.895    7.4566
   14.910    7.5092
   14.925    7.5829
   14.940    7.6145
   14.955    7.7514
   14.970    7.3302
   14.985    7.2565
   15.000    7.5197
   15.015    7.8041
   15.030    7.5408
   15.045    7.6672
   15.060    7.6145
   15.075    7.8462
   15.090    7.7514
   15.105    7.3302
   15.120    6.9826
   15.135    7.4039
   15.150    7.8252
   15.165    7.7304
   15.180    7.6145
   15.195    7.0774
   15.210    7.3828
   15.225    7.6461
   15.240    7.8462
   15.255    7.4144
   15.270    7.6251
   15.285    7.6672
   15.300    7.9200
   15.315    7.4566
   15.330    7.4460
   15.345    7.6672
   15.360    7.8252
   15.375    7.4460
   15.390    7.1301
   15.405    7.3407
   15.420    7.5724
   15.435    7.4039
   15.450    6.9510
   15.465    7.5092
   15.480    7.5829
   15.495    7.9094
   15.510    7.8041
   15.525    7.3618
   15.540    7.9305
   15.555    7.7725
   15.570    7.8146
   15.585    7.2565
   15.600    7.3091
   15.615    7.7093
   15.630    7.6988
   15.645    7.5303
   15.660    7.4776
   15.675    7.5513
   15.690    7.5303
   15.705    7.8568
   15.720    7.9094
   15.735    7.8778
   15.750    7.5408
   15.765    7.6356
   15.780    7.6883
   15.795    7.4144
   15.810    7.2775
   15.825    7.7304
   15.840    7.7199
   15.855    7.4566
   15.870    7.7620
   15.885    7.7620
   15.900    7.6988
   15.915    8.1938
   15.930    7.8778
   15.945    7.6040
   15.960    8.2991
   15.975    8.3202
   15.990    7.9937
   16.005    7.8884
   16.020    8.0358
   16.035    7.8884
   16.050    8.0885
   16.065    8.2254
   16.080    8.3412
   16.095    7.9831
   16.110    7.7620
   16.125    7.9410
   16.140    8.2675
   16.155    8.3834
   16.170    8.6783
   16.185    7.9094
   16.200    7.9410
   16.215    8.0885
   16.230    7.8884
   16.245    7.8252
   16.260    8.5940
   16.275    8.3096
   16.290    7.8884
   16.305    7.7514
   16.320    7.5935
   16.335    8.1622
   16.350    8.2991
   16.365    8.1517
   16.380    8.1095
   16.395    7.8252
   16.410    7.8989
   16.425    7.7725
   16.440    7.9621
   16.455    7.8989
   16.470    7.7725
   16.485    7.7620
   16.500    8.2991
   16.515    7.5935
   16.530    7.7830
   16.545    7.8884
   16.560    7.5197
   16.575    7.7620
   16.590    7.7620
   16.605    7.5829
   16.620    8.2991
   16.635    7.4987
   16.650    7.6567
   16.665    7.8673
   16.680    7.6777
   16.695    7.5513
   16.710    7.6461
   16.725    7.9200
   16.740    7.7304
   16.755    8.0253
   16.770    7.9305
   16.785    8.0885
   16.800    8.1938
   16.815    7.9516
   16.830    7.4776
   16.845    7.6461
   16.860    7.8989
   16.875    7.3512
   16.890    7.4039
   16.905    7.6988
   16.920    7.8357
   16.935    7.4882
   16.950    7.4039
   16.965    7.8462
   16.980    7.5513
   16.995    7.8884
   17.010    7.8146
   17.025    7.2986
   17.040    7.9621
   17.055    8.0885
   17.070    8.2043
   17.085    8.1727
   17.100    7.8568
   17.115    7.8357
   17.130    7.5197
   17.145    7.4355
   17.160    7.5513
   17.175    7.5092
   17.190    7.6672
   17.205    7.6356
   17.220    7.4776
   17.235    7.8357
   17.250    7.7830
   17.265    7.8989
   17.280    7.9305
   17.295    7.5513
   17.310    7.3934
   17.325    7.3407
   17.340    7.2670
   17.355    7.7093
   17.370    7.5303
   17.385    7.3828
   17.400    7.9410
   17.415    7.9937
   17.430    7.5408
   17.445    7.4776
   17.460    7.4882
   17.475    7.2986
   17.490    7.6777
   17.505    7.3723
   17.520    7.7936
   17.535    7.7620
   17.550    7.6461
   17.565    7.2880
   17.580    7.9621
   17.595    7.5513
   17.610    7.5408
   17.625    7.3618
   17.640    7.4566
   17.655    7.9305
   17.670    7.4250
   17.685    7.4144
   17.700    7.3407
   17.715    7.6040
   17.730    7.6883
   17.745    7.6988
   17.760    7.8146
   17.775    7.3723
   17.790    7.4671
   17.805    7.1827
   17.820    7.4987
   17.835    7.6777
   17.850    7.6567
   17.865    7.7620
   17.880    7.2986
   17.895    7.6883
   17.910    8.0358
   17.925    7.8989
   17.940    7.3512
   17.955    7.4987
   17.970    7.7199
   17.985    7.9937
   18.000    8.0358
   18.015    7.6040
   18.030    7.7830
   18.045    7.8252
   18.060    7.6672
   18.075    7.4776
   18.090    7.4882
   18.105    7.5724
   18.120    7.6777
   18.135    7.8252
   18.150    7.8568
   18.165    7.7304
   18.180    7.6040
   18.195    7.6040
   18.210    7.7830
   18.225    7.4882
   18.240    7.3196
   18.255    7.2880
   18.270    7.3618
   18.285    7.4882
   18.300    7.4355
   18.315    7.6251
   18.330    7.7725
   18.345    7.6777
   18.360    7.7199
   18.375    7.7304
   18.390    7.7620
   18.405    7.8462
   18.420    7.9410
   18.435    7.9831
   18.450    7.4671
   18.465    7.8252
   18.480    7.8989
   18.495    7.8989
   18.510    7.8462
   18.525    7.5408
   18.540    7.4250
   18.555    7.4987
   18.570    7.6040
   18.585    7.9410
   18.600    7.7199
   18.615    7.5829
   18.630    7.7409
   18.645    7.7514
   18.660    7.7514
   18.675    7.5935
   18.690    7.3618
   18.705    7.6461
   18.720    7.6040
   18.735    7.8146
   18.750    7.5092
   18.765    7.6567
   18.780    7.7409
   18.795    7.6145
   18.810    7.8568
   18.825    7.7304
   18.840    7.9305
   18.855    7.6567
   18.870    7.5513
   18.885    7.6461
   18.900    7.4250
   18.915    7.2986
   18.930    7.6777
   18.945    7.6883
   18.960    7.3302
   18.975    7.4144
   18.990    7.6672
   19.005    7.6672
   19.020    8.0674
   19.035    7.4566
   19.050    7.7199
   19.065    8.0779
   19.080    7.6567
   19.095    7.5303
   19.110    7.4144
   19.125    7.6883
   19.140    7.4566
   19.155    7.6777
   19.170    7.6567
   19.185    7.6461
   19.200    7.6567
   19.215    7.9621
   19.230    7.4144
   19.245    7.7304
   19.260    7.6356
   19.275    7.6251
   19.290    7.4987
   19.305    7.6251
   19.320    7.4987
   19.335    8.1727
   19.350    7.7620
   19.365    7.4987
   19.380    7.7514
   19.395    7.8568
   19.410    7.9305
   19.425    7.5829
   19.440    7.6461
   19.455    7.8989
   19.470    7.7304
   19.485    7.5724
   19.500    7.6145
   19.515    8.1306
   19.530    7.6777
   19.545    7.6777
   19.560    7.6672
   19.575    7.7830
   19.590    7.8252
   19.605    7.8462
   19.620    7.6251
   19.635    8.0463
   19.650    7.5092
   19.665    7.7093
   19.680    8.3412
   19.695    8.3202
   19.710    7.7409
   19.725    7.9094
   19.740    7.9937
   19.755    7.7514
   19.770    7.8357
   19.785    7.9831
   19.800    7.7199
   19.815    7.6145
   19.830    7.7620
   19.845    7.7199
   19.860    7.4250
   19.875    7.3934
   19.890    7.6883
   19.905    7.9200
   19.920    7.7725
   19.935    7.8462
   19.950    7.7725
   19.965    8.0779
   19.980    7.6145
   19.995    7.5513
   20.010    7.6883
   20.025    7.6461
   20.040    7.8778
   20.055    7.5303
   20.070    7.8462
   20.085    8.0990
   20.100    7.7093
   20.115    7.7093
   20.130    7.8252
   20.145    8.0463
   20.160    7.9516
   20.175    7.6672
   20.190    7.8462
   20.205    7.9621
   20.220    7.5935
   20.235    7.8462
   20.250    8.1201
   20.265    8.0674
   20.280    8.0569
   20.295    7.8462
   20.310    8.0990
   20.325    8.1201
   20.340    7.8673
   20.355    8.4992
   20.370    8.3307
   20.385    7.7514
   20.400    8.1411
   20.415    7.9516
   20.430    7.8041
   20.445    7.9937
   20.460    8.0990
   20.475    8.2359
   20.490    8.1517
   20.505    8.0042
   20.520    8.1306
   20.535    7.5408
   20.550    7.4250
   20.565    7.9305
   20.580    7.5513
   20.595    7.7093
   20.610    7.8041
   20.625    7.8673
   20.640    7.7830
   20.655    8.4360
   20.670    7.7936
   20.685    7.8673
   20.700    7.7936
   20.715    7.4776
   20.730    7.4776
   20.745    7.8989
   20.760    7.8146
   20.775    7.5513
   20.790    7.7199
   20.805    7.9305
   20.820    7.7830
   20.835    7.7620
   20.850    8.1622
   20.865    8.0569
   20.880    7.9410
   20.895    7.8462
   20.910    7.6777
   20.925    7.6145
   20.940    7.3934
   20.955    8.0885
   20.970    7.8568
   20.985    7.7514
   21.000    7.8462
   21.015    7.9831
   21.030    7.9200
   21.045    8.0253
   21.060    7.9937
   21.075    7.7409
   21.090    7.4144
   21.105    7.9831
   21.120    7.8146
   21.135    7.7936
   21.150    8.3202
   21.165    8.1201
   21.180    7.7304
   21.195    7.8462
   21.210    8.0674
   21.225    7.3512
   21.240    8.3307
   21.255    8.1306
   21.270    7.9305
   21.285    7.8146
   21.300    7.8673
   21.315    7.6461
   21.330    7.8462
   21.345    7.7725
   21.360    8.1095
   21.375    7.8252
   21.390    7.7725
   21.405    7.7620
   21.420    8.2675
   21.435    8.0885
   21.450    7.3618
   21.465    7.6040
   21.480    7.6988
   21.495    7.5303
   21.510    7.5408
   21.525    7.4460
   21.540    7.4039
   21.555    8.0569
   21.570    7.9621
   21.585    8.0990
   21.600    7.8673
   21.615    7.9726
   21.630    7.9094
   21.645    7.4987
   21.660    7.9200
   21.675    7.9305
   21.690    7.5829
   21.705    7.8252
   21.720    8.1201
   21.735    7.8884
   21.750    7.8041
   21.765    7.8884
   21.780    8.1411
   21.795    7.6461
   21.810    7.9094
   21.825    7.8673
   21.840    7.9305
   21.855    7.6145
   21.870    7.6883
   21.885    7.9726
   21.900    8.7414
   21.915    8.4571
   21.930    8.1411
   21.945    8.0042
   21.960    7.8884
   21.975    8.2780
   21.990    7.9726
   22.005    8.2254
   22.020    8.0463
   22.035    7.9516
   22.050    8.3939
   22.065    8.2570
   22.080    8.1517
   22.095    7.9937
   22.110    7.9516
   22.125    8.3096
   22.140    7.9516
   22.155    8.2254
   22.170    7.7936
   22.185    7.5619
   22.200    7.8252
   22.215    8.0990
   22.230    8.0569
   22.245    7.8252
   22.260    7.9094
   22.275    8.0253
   22.290    8.0569
   22.305    8.0569
   22.320    8.0358
   22.335    8.0253
   22.350    7.8673
   22.365    8.2043
   22.380    8.2464
   22.395    8.2675
   22.410    8.0990
   22.425    8.0253
   22.440    8.2780
   22.455    7.8673
   22.470    8.4360
   22.485    8.2149
   22.500    8.4255
   22.515    8.0253
   22.530    8.2149
   22.545    8.1833
   22.560    7.9516
   22.575    8.4255
   22.590    8.3623
   22.605    8.6993
   22.620    8.3834
   22.635    8.1727
   22.650    8.2043
   22.665    8.5097
   22.680    8.3623
   22.695    8.5308
   22.710    8.3834
   22.725    8.1622
   22.740    8.0253
   22.755    7.9516
   22.770    8.0042
   22.785    7.9305
   22.800    7.9200
   22.815    8.3202
   22.830    8.4044
   22.845    8.1833
   22.860    8.1622
   22.875    8.1727
   22.890    8.0569
   22.905    8.1727
   22.920    7.9831
   22.935    7.8884
   22.950    8.2149
   22.965    8.1201
   22.980    8.5519
   22.995    8.1833
   23.010    8.5624
   23.025    8.2675
   23.040    8.4571
   23.055    8.0990
   23.070    7.9621
   23.085    7.8462
   23.100    8.0358
   23.115    8.0779
   23.130    8.2254
   23.145    8.2991
   23.160    7.7936
   23.175    8.1517
   23.190    8.2464
   23.205    8.1938
   23.220    8.0358
   23.235    8.0674
   23.250    8.2149
   23.265    7.9726
   23.280    7.9094
   23.295    7.8146
   23.310    7.9831
   23.325    7.9305
   23.340    8.2886
   23.355    7.9200
   23.370    8.0253
   23.385    8.0042
   23.400    7.9726
   23.415    8.0885
   23.430    7.6461
   23.445    7.8673
   23.460    8.0885
   23.475    8.1833
   23.490    8.1095
   23.505    8.4676
   23.520    7.8884
   23.535    7.9621
   23.550    7.8778
   23.565    7.6040
   23.580    8.0885
   23.595    7.8568
   23.610    7.7620
   23.625    8.0253
   23.640    8.2675
   23.655    7.9621
   23.670    7.8357
   23.685    7.8673
   23.700    7.6883
   23.715    7.5197
   23.730    7.8778
   23.745    7.9726
   23.760    7.6883
   23.775    7.7830
   23.790    7.8778
   23.805    7.7620
   23.820    7.8778
   23.835    8.2464
   23.850    7.8568
   23.865    7.8673
   23.880    8.2149
   23.895    8.1095
   23.910    8.1727
   23.925    8.0463
   23.940    7.7830
   23.955    8.0674
   23.970    8.0885
   23.985    7.8989
   24.000    7.6040
   24.015    7.8884
   24.030    7.2565
   24.045    7.8778
   24.060    8.1938
   24.075    8.0569
   24.090    8.1411
   24.105    8.0253
   24.120    7.8989
   24.135    7.9937
   24.150    7.7830
   24.165    7.7093
   24.180    7.5303
   24.195    7.5829
   24.210    7.6672
   24.225    7.9937
   24.240    7.7093
   24.255    7.8673
   24.270    7.9305
   24.285    7.9621
   24.300    7.8568
   24.315    7.7409
   24.330    7.5197
   24.345    7.5303
   24.360    7.5829
   24.375    7.5619
   24.390    7.7093
   24.405    7.5513
   24.420    8.0042
   24.435    7.7093
   24.450    7.8146
   24.465    7.5303
   24.480    8.0147
   24.495    7.8673
   24.510    7.8357
   24.525    7.8041
   24.540    7.6251
   24.555    8.0463
   24.570    7.6883
   24.585    7.3618
   24.600    7.4776
   24.615    7.7936
   24.630    8.1411
   24.645    7.6777
   24.660    7.7409
   24.675    7.8041
   24.690    7.9410
   24.705    7.2775
   24.720    7.6251
   24.735    7.7830
   24.750    7.5303
   24.765    7.7620
   24.780    8.1306
   24.795    7.6672
   24.810    7.7409
   24.825    7.2670
   24.840    7.4039
   24.855    7.7304
   24.870    7.7199
   24.885    7.3828
   24.900    7.1827
   24.915    7.7093
   24.930    7.4987
   24.945    7.9726
   24.960    7.8357
   24.975    7.5724
   24.990    7.8568
   25.005    7.8357
   25.020    7.7830
   25.035    7.7199
   25.050    8.0253
   25.065    7.5513
   25.080    7.3512
   25.095    7.4776
   25.110    7.3196
   25.125    7.9937
   25.140    7.9094
   25.155    7.5197
   25.170    7.9410
   25.185    7.7936
   25.200    7.6988
   25.215    7.8673
   25.230    7.7936
   25.245    8.0358
   25.260    7.7199
   25.275    7.7409
   25.290    7.4355
   25.305    7.6040
   25.320    7.9410
   25.335    7.6251
   25.350    7.9726
   25.365    8.1201
   25.380    7.9937
   25.395    7.4250
   25.410    7.6356
   25.425    7.8252
   25.440    7.6672
   25.455    7.7620
   25.470    7.6777
   25.485    7.6145
   25.500    8.2675
   25.515    8.1517
   25.530    8.0569
   25.545    7.4460
   25.560    7.8884
   25.575    7.9094
   25.590    7.9621
   25.605    7.6777
   25.620    7.5829
   25.635    8.2254
   25.650    8.1622
   25.665    8.2149
   25.680    7.6356
   25.695    7.6251
   25.710    7.3723
   25.725    7.6251
   25.740    7.9305
   25.755    7.6672
   25.770    7.3934
   25.785    7.5408
   25.800    7.4776
   25.815    8.2149
   25.830    7.6777
   25.845    7.6145
   25.860    7.6251
   25.875    7.7620
   25.890    7.6251
   25.905    7.6672
   25.920    7.6988
   25.935    7.6567
   25.950    7.8252
   25.965    7.7304
   25.980    7.7093
   25.995    7.3934
   26.010    7.3302
   26.025    7.2143
   26.040    7.7093
   26.055    7.6145
   26.070    7.2880
   26.085    7.4039
   26.100    7.7093
   26.115    7.5829
   26.130    7.1406
   26.145    7.5935
   26.160    7.6672
   26.175    7.3407
   26.190    7.2143
   26.205    7.4250
   26.220    7.5092
   26.235    7.5935
   26.250    7.7936
   26.265    7.4987
   26.280    7.4460
   26.295    7.3512
   26.310    7.3723
   26.325    7.6461
   26.340    7.5092
   26.355    7.7093
   26.370    7.4460
   26.385    7.4987
   26.400    7.7409
   26.415    7.6883
   26.430    7.9410
   26.445    7.8673
   26.460    7.1722
   26.475    7.4566
   26.490    7.2565
   26.505    7.4250
   26.520    7.1933
   26.535    7.1195
   26.550    7.0037
   26.565    7.1933
   26.580    7.3828
   26.595    7.5408
   26.610    7.9305
   26.625    7.5303
   26.640    7.4882
   26.655    7.7620
   26.670    7.5197
   26.685    7.5197
   26.700    7.3828
   26.715    7.5197
   26.730    7.6672
   26.745    7.3618
   26.760    7.3302
   26.775    7.3934
   26.790    7.3618
   26.805    7.4882
   26.820    7.0458
   26.835    7.8778
   26.850    7.7304
   26.865    7.2038
   26.880    7.2670
   26.895    7.2775
   26.910    7.3512
   26.925    7.3934
   26.940    7.1090
   26.955    7.4987
   26.970    7.6040
   26.985    7.5197
   27.000    7.4882
   27.015    7.7936
   27.030    7.5619
   27.045    7.3512
   27.060    7.2880
   27.075    7.6356
   27.090    7.1827
   27.105    7.2565
   27.120    7.6040
   27.135    6.9932
   27.150    7.2143
   27.165    7.6461
   27.180    7.5829
   27.195    7.4460
   27.210    7.4144
   27.225    7.3618
   27.240    7.8462
   27.255    7.5303
   27.270    7.3091
   27.285    7.0353
   27.300    7.3723
   27.315    7.2670
   27.330    7.4039
   27.345    7.5513
   27.360    7.3512
   27.375    7.4882
   27.390    7.4882
   27.405    7.2459
   27.420    7.1406
   27.435    7.4250
   27.450    7.9937
   27.465    7.3618
   27.480    7.3723
   27.495    7.1511
   27.510    7.4460
   27.525    7.1406
   27.540    7.4144
   27.555    7.7409
   27.570    7.2986
   27.585    7.2038
   27.600    7.4566
   27.615    7.2775
   27.630    7.4987
   27.645    7.3407
   27.660    7.3723
   27.675    6.9194
   27.690    7.2775
   27.705    7.4460
   27.720    7.3302
   27.735    7.2354
   27.750    7.2986
   27.765    7.4355
   27.780    6.9616
   27.795    7.3196
   27.810    7.5197
   27.825    7.3723
   27.840    7.3723
   27.855    7.2143
   27.870    7.6567
   27.885    7.4566
   27.900    7.5829
   27.915    7.8462
   27.930    7.3723
   27.945    7.6672
   27.960    7.6777
   27.975    7.3934
   27.990    7.5092
   28.005    7.1722
   28.020    7.3407
   28.035    7.5829
   28.050    7.4355
   28.065    7.1722
   28.080    7.5619
   28.095    7.4882
   28.110    7.2986
   28.125    7.4882
   28.140    6.9721
   28.155    6.8562
   28.170    7.5303
   28.185    7.4671
   28.200    7.1511
   28.215    7.1827
   28.230    7.5829
   28.245    7.4566
   28.260    7.4250
   28.275    7.5619
   28.290    7.3723
   28.305    7.5619
   28.320    7.6251
   28.335    7.4566
   28.350    7.4566
   28.365    7.0037
   28.380    7.5197
   28.395    7.2038
   28.410    7.2038
   28.425    7.7304
   28.440    7.4776
   28.455    7.5303
   28.470    7.4144
   28.485    7.1933
   28.500    6.9089
   28.515    7.1617
   28.530    7.3618
   28.545    7.1406
   28.560    7.2354
   28.575    7.3828
   28.590    7.3407
   28.605    7.0669
   28.620    7.2670
   28.635    6.8878
   28.650    6.8141
   28.665    7.0248
   28.680    6.9721
   28.695    6.8457
   28.710    7.0774
   28.725    7.2038
   28.740    7.0774
   28.755    7.1827
   28.770    6.8352
   28.785    7.1617
   28.800    6.8036
   28.815    7.1301
   28.830    6.9405
   28.845    6.7404
   28.860    7.2565
   28.875    7.4460
   28.890    7.5935
   28.905    7.0563
   28.920    6.9616
   28.935    7.0669
   28.950    7.0669
   28.965    7.4144
   28.980    7.0669
   28.995    7.1827
   29.010    7.7304
   29.025    7.1301
   29.040    7.0248
   29.055    7.6040
   29.070    7.1827
   29.085    6.9721
   29.100    7.0879
   29.115    7.4250
   29.130    7.3196
   29.145    6.9721
   29.160    6.9194
   29.175    6.8984
   29.190    7.1511
   29.205    7.1722
   29.220    7.0353
   29.235    7.3934
   29.250    7.4882
   29.265    7.2249
   29.280    6.8878
   29.295    7.0669
   29.310    7.2038
   29.325    7.0248
   29.340    6.7088
   29.355    7.3196
   29.370    6.7088
   29.385    7.2775
   29.400    7.0563
   29.415    7.3091
   29.430    6.9932
   29.445    6.9089
   29.460    6.7720
   29.475    6.8352
   29.490    7.1933
   29.505    7.0037
   29.520    6.6983
   29.535    7.2354
   29.550    7.2670
   29.565    7.2565
   29.580    6.8984
   29.595    6.7930
   29.610    7.3302
   29.625    7.1827
   29.640    6.8668
   29.655    6.7193
   29.670    6.6245
   29.685    6.9826
   29.700    6.7930
   29.715    7.0985
   29.730    7.2565
   29.745    7.1933
   29.760    7.0669
   29.775    7.1722
   29.790    6.9932
   29.805    6.7825
   29.820    6.6561
   29.835    6.7404
   29.850    7.0142
   29.865    6.9405
   29.880    7.1511
   29.895    7.2565
   29.910    7.1301
   29.925    7.2565
   29.940    6.8562
   29.955    7.2354
   29.970    6.9932
   29.985    6.6351
   30.000    6.8562
   30.015    7.0142
   30.030    6.6667
   30.045    6.5403
   30.060    6.6772
   30.075    7.0142
   30.090    7.4039
   30.105    6.9300
   30.120    6.7825
   30.135    6.8141
   30.150    6.8668
   30.165    6.7299
   30.180    6.5192
   30.195    7.0669
   30.210    7.1406
   30.225    6.8562
   30.240    7.0248
   30.255    6.9932
   30.270    6.9194
   30.285    6.9405
   30.300    7.4039
   30.315    7.1195
   30.330    7.1090
   30.345    7.1827
   30.360    6.9826
   30.375    6.6456
   30.390    7.2670
   30.405    7.3934
   30.420    7.2670
   30.435    6.8878
   30.450    7.3618
   30.465    7.1722
   30.480    6.7299
   30.495    6.8773
   30.510    6.9089
   30.525    7.0458
   30.540    6.7509
   30.555    6.7088
   30.570    6.8773
   30.585    6.7930
   30.600    7.0037
   30.615    7.0353
   30.630    6.8773
   30.645    6.9300
   30.660    6.9826
   30.675    7.3091
   30.690    6.5192
   30.705    6.7299
   30.720    6.8141
   30.735    6.8562
   30.750    6.9932
   30.765    7.3196
   30.780    6.9510
   30.795    7.0879
   30.810    7.0774
   30.825    7.0142
   30.840    6.9826
   30.855    6.7930
   30.870    7.2459
   30.885    6.7720
   30.900    6.8773
   30.915    6.7720
   30.930    6.9721
   30.945    7.1090
   30.960    6.4666
   30.975    6.8984
   30.990    6.8246
   31.005    6.8668
   31.020    6.6456
   31.035    6.5719
   31.050    6.6456
   31.065    6.7615
   31.080    6.7088
   31.095    6.9405
   31.110    6.9616
   31.125    6.3718
   31.140    6.5929
   31.155    6.7088
   31.170    7.0879
   31.185    6.7404
   31.200    6.8352
   31.215    6.9510
   31.230    7.0669
   31.245    6.5824
   31.260    6.6772
   31.275    6.9510
   31.290    6.8352
   31.305    7.1511
   31.320    7.0248
   31.335    7.2459
   31.350    6.8668
   31.365    7.0248
   31.380    7.3091
   31.395    6.7930
   31.410    6.8036
   31.425    6.9510
   31.440    6.8562
   31.455    7.2354
   31.470    7.2775
   31.485    7.2249
   31.500    6.9405
   31.515    6.8246
   31.530    6.6983
   31.545    7.1933
   31.560    6.9510
   31.575    7.2249
   31.590    7.2249
   31.605    7.1511
   31.620    7.3302
   31.635    7.6672
   31.650    7.3091
   31.665    7.2249
   31.680    7.0774
   31.695    6.8352
   31.710    7.0353
   31.725    7.3723
   31.740    6.9826
   31.755    6.8352
   31.770    6.6667
   31.785    7.2354
   31.800    7.0774
   31.815    7.2880
   31.830    7.2143
   31.845    7.2670
   31.860    7.3196
   31.875    7.3302
   31.890    7.0563
   31.905    7.0563
   31.920    7.0037
   31.935    6.9932
   31.950    6.9932
   31.965    6.7404
   31.980    6.6140
   31.995    7.0774
   32.010    7.3828
   32.025    7.1617
   32.040    7.0563
   32.055    7.4355
   32.070    7.3302
   32.085    6.9826
   32.100    7.0774
   32.115    7.1511
   32.130    7.4566
   32.145    7.3512
   32.160    7.0879
   32.175    6.9300
   32.190    7.1195
   32.205    6.9405
   32.220    6.9194
   32.235    6.9510
   32.250    7.0458
   32.265    7.0985
   32.280    7.1301
   32.295    6.6351
   32.310    6.9721
   32.325    6.9616
   32.340    6.5403
   32.355    7.0879
   32.370    6.7404
   32.385    6.6667
   32.400    6.5613
   32.415    6.7088
   32.430    6.8246
   32.445    6.6245
   32.460    6.9300
   32.475    6.9089
   32.490    6.7299
   32.505    6.8246
   32.520    6.5192
   32.535    6.9405
   32.550    6.9932
   32.565    6.4034
   32.580    7.0037
   32.595    6.7825
   32.610    7.0458
   32.625    6.7404
   32.640    6.8246
   32.655    6.7930
   32.670    6.3823
   32.685    6.3928
   32.700    6.6772
   32.715    6.6245
   32.730    6.5298
   32.745    6.5087
   32.760    6.4982
   32.775    6.4666
   32.790    6.6245
   32.805    6.2138
   32.820    6.2875
   32.835    6.6561
   32.850    6.8562
   32.865    6.5087
   32.880    6.6351
   32.895    6.8141
   32.910    6.2454
   32.925    6.4350
   32.940    6.2875
   32.955    6.7088
   32.970    6.2243
   32.985    6.2770
   33.000    6.5298
   33.015    6.3612
   33.030    6.9300
   33.045    7.1301
   33.060    6.6983
   33.075    6.0769
   33.090    6.5508
   33.105    6.6561
   33.120    6.6456
   33.135    6.3086
   33.150    6.5403
   33.165    6.2770
   33.180    6.5192
   33.195    6.4244
   33.210    6.7299
   33.225    6.4876
   33.240    6.3718
   33.255    6.3402
   33.270    6.5929
   33.285    6.7088
   33.300    6.5824
   33.315    6.1717
   33.330    6.3402
   33.345    6.4982
   33.360    6.3928
   33.375    6.7825
   33.390    6.6877
   33.405    6.0979
   33.420    6.5508
   33.435    6.4350
   33.450    6.7088
   33.465    6.4876
   33.480    6.2981
   33.495    6.5403
   33.510    6.5508
   33.525    6.4666
   33.540    6.9405
   33.555    6.8246
   33.570    6.3928
   33.585    6.3402
   33.600    6.4139
   33.615    6.7720
   33.630    6.2665
   33.645    6.4666
   33.660    6.6456
   33.675    6.7720
   33.690    6.8246
   33.705    6.8246
   33.720    6.4244
   33.735    6.2033
   33.750    6.4350
   33.765    6.1401
   33.780    6.2559
   33.795    6.4876
   33.810    6.3718
   33.825    6.6877
   33.840    6.6035
   33.855    6.3823
   33.870    6.4982
   33.885    6.4560
   33.900    6.6245
   33.915    6.4560
   33.930    6.7825
   33.945    6.8246
   33.960    6.2349
   33.975    6.8141
   33.990    6.8141
   34.005    6.7509
   34.020    6.5298
   34.035    6.4982
   34.050    6.4560
   34.065    6.5613
   34.080    6.7193
   34.095    6.1927
   34.110    6.6667
   34.125    6.6561
   34.140    6.6983
   34.155    6.2875
   34.170    6.0769
   34.185    6.3402
   34.200    6.2770
   34.215    6.3507
   34.230    6.0558
   34.245    6.5824
   34.260    6.4139
   34.275    6.4034
   34.290    6.7193
   34.305    6.0664
   34.320    6.1717
   34.335    6.2875
   34.350    6.2665
   34.365    6.6561
   34.380    6.5087
   34.395    6.4350
   34.410    6.1717
   34.425    6.4666
   34.440    6.0979
   34.455    6.2559
   34.470    6.5087
   34.485    6.1717
   34.500    6.1085
   34.515    6.0453
   34.530    6.3612
   34.545    6.4350
   34.560    6.1822
   34.575    5.8136
   34.590    6.2559
   34.605    6.1401
   34.620    6.0032
   34.635    5.8347
   34.650    6.2349
   34.665    5.9716
   34.680    6.1611
   34.695    6.1085
   34.710    6.3718
   34.725    6.1717
   34.740    6.4876
   34.755    6.6035
   34.770    6.3191
   34.785    6.2559
   34.800    6.5719
   34.815    6.3507
   34.830    6.4771
   34.845    6.4560
   34.860    5.9084
   34.875    6.1401
   34.890    6.0979
   34.905    6.1295
   34.920    6.3718
   34.935    6.3928
   34.950    6.3718
   34.965    6.3718
   34.980    6.4139
   34.995    6.1190
   35.010    6.3823
   35.025    6.2875
   35.040    6.3086
   35.055    6.4244
   35.070    6.2033
   35.085    6.0032
   35.100    6.1401
   35.115    6.1927
   35.130    6.6035
   35.145    6.6351
   35.160    6.6456
   35.175    6.4139
   35.190    6.5298
   35.205    6.2243
   35.220    6.0874
   35.235    6.2454
   35.250    6.1717
   35.265    6.2770
   35.280    6.2665
   35.295    6.3191
   35.310    6.4560
   35.325    6.1506
   35.340    6.1717
   35.355    6.2454
   35.370    6.0453
   35.385    6.2559
   35.400    6.3402
   35.415    6.2349
   35.430    6.5403
   35.445    6.7825
   35.460    6.5508
   35.475    5.8136
   35.490    6.0032
   35.505    5.9610
   35.520    6.2665
   35.535    6.1717
   35.550    6.1927
   35.565    6.2559
   35.580    6.1927
   35.595    6.5719
   35.610    5.9926
   35.625    6.0453
   35.640    6.2349
   35.655    6.0979
   35.670    6.3823
   35.685    5.9926
   35.700    6.3507
   35.715    6.1295
   35.730    6.0032
   35.745    6.4666
   35.760    6.3086
   35.775    6.4771
   35.790    6.4455
   35.805    6.1927
   35.820    6.6351
   35.835    6.1506
   35.850    6.2770
   35.865    6.1717
   35.880    5.8662
   35.895    6.0979
   35.910    6.1611
   35.925    5.9189
   35.940    6.7404
   35.955    6.4982
   35.970    6.1085
   35.985    6.0558
   36.000    6.0769
   36.015    6.3507
   36.030    6.4350
   36.045    6.6245
   36.060    6.2875
   36.075    5.8241
   36.090    6.1506
   36.105    5.8452
   36.120    5.9400
   36.135    6.0137
   36.150    6.1822
   36.165    6.4139
   36.180    6.3507
   36.195    6.0348
   36.210    6.3823
   36.225    6.1717
   36.240    6.4455
   36.255    6.0769
   36.270    6.0769
   36.285    6.6245
   36.300    6.4350
   36.315    6.0979
   36.330    6.4876
   36.345    6.1611
   36.360    6.3191
   36.375    6.2033
   36.390    6.8457
   36.405    6.5719
   36.420    6.0769
   36.435    6.2033
   36.450    6.4139
   36.465    6.2033
   36.480    6.3402
   36.495    6.3612
   36.510    6.4244
   36.525    6.0558
   36.540    5.9821
   36.555    6.1295
   36.570    6.0242
   36.585    6.1401
   36.600    5.9821
   36.615    6.3296
   36.630    6.2981
   36.645    6.2454
   36.660    5.9926
   36.675    6.2349
   36.690    6.2138
   36.705    6.1717
   36.720    5.8241
   36.735    6.0348
   36.750    6.3823
   36.765    6.4244
   36.780    6.4666
   36.795    5.9926
   36.810    6.0979
   36.825    5.9926
   36.840    5.8978
   36.855    5.9084
   36.870    6.1506
   36.885    6.5824
   36.900    6.4455
   36.915    6.1085
   36.930    5.7504
   36.945    6.2349
   36.960    5.8768
   36.975    5.9400
   36.990    6.2875
   37.005    5.9821
   37.020    6.0137
   37.035    6.1295
   37.050    6.0348
   37.065    6.3191
   37.080    6.1717
   37.095    6.1295
   37.110    6.1295
   37.125    6.5192
   37.140    6.4560
   37.155    6.5298
   37.170    6.0453
   37.185    6.3823
   37.200    6.2875
   37.215    5.8873
   37.230    6.1506
   37.245    6.1401
   37.260    5.7715
   37.275    6.1190
   37.290    6.2243
   37.305    6.4876
   37.320    5.9189
   37.335    5.6977
   37.350    5.7820
   37.365    6.3402
   37.380    6.2454
   37.395    6.0558
   37.410    5.9610
   37.425    6.0769
   37.440    6.2875
   37.455    6.1506
   37.470    6.1611
   37.485    6.2033
   37.500    6.2243
   37.515    6.3191
   37.530    6.0664
   37.545    5.9716
   37.560    6.1822
   37.575    6.0979
   37.590    6.0558
   37.605    5.8557
   37.620    5.8557
   37.635    6.3507
   37.650    6.2349
   37.665    6.1506
   37.680    6.1085
   37.695    6.2559
   37.710    6.3507
   37.725    6.4455
   37.740    6.2875
   37.755    6.2665
   37.770    5.8452
   37.785    5.6135
   37.800    6.5508
   37.815    6.3928
   37.830    6.2875
   37.845    6.0979
   37.860    6.2559
   37.875    6.0137
   37.890    6.2981
   37.905    6.3928
   37.920    6.2349
   37.935    6.4139
   37.950    6.4139
   37.965    6.1717
   37.980    6.1401
   37.995    6.2981
   38.010    6.0137
   38.025    6.0137
   38.040    5.8136
   38.055    6.4350
   38.070    6.2138
   38.085    6.3718
   38.100    6.5087
   38.115    6.2138
   38.130    6.3402
   38.145    6.2875
   38.160    6.0769
   38.175    6.1611
   38.190    6.0979
   38.205    6.1822
   38.220    5.8452
   38.235    6.0242
   38.250    6.0979
   38.265    6.0769
   38.280    5.9400
   38.295    6.1717
   38.310    6.2138
   38.325    6.3507
   38.340    6.2454
   38.355    6.2665
   38.370    6.2454
   38.385    6.1717
   38.400    6.1611
   38.415    6.3507
   38.430    6.1717
   38.445    5.8978
   38.460    5.8662
   38.475    5.8662
   38.490    6.1927
   38.505    6.5192
   38.520    6.3296
   38.535    6.1506
   38.550    6.1717
   38.565    6.1611
   38.580    6.1506
   38.595    6.3718
   38.610    6.3612
   38.625    6.3086
   38.640    6.3507
   38.655    6.7193
   38.670    6.5298
   38.685    6.3612
   38.700    6.2665
   38.715    6.2875
   38.730    6.6983
   38.745    6.2454
   38.760    6.0242
   38.775    6.0664
   38.790    6.3191
   38.805    6.3718
   38.820    6.0453
   38.835    6.7720
   38.850    6.4034
   38.865    6.2559
   38.880    6.5929
   38.895    6.4244
   38.910    6.3191
   38.925    6.2454
   38.940    6.4034
   38.955    6.4350
   38.970    5.9821
   38.985    6.5508
   39.000    6.2981
   39.015    6.4876
   39.030    6.4455
   39.045    6.6667
   39.060    6.3507
   39.075    6.4139
   39.090    6.6561
   39.105    6.3718
   39.120    6.4139
   39.135    6.4560
   39.150    6.6772
   39.165    6.4455
   39.180    6.5192
   39.195    6.4350
   39.210    6.3928
   39.225    6.3718
   39.240    6.2349
   39.255    6.0558
   39.270    6.2665
   39.285    6.3507
   39.300    6.2033
   39.315    6.5824
   39.330    6.9194
   39.345    6.2770
   39.360    6.5192
   39.375    6.5613
   39.390    6.3718
   39.405    6.3718
   39.420    6.2138
   39.435    6.3718
   39.450    6.4244
   39.465    6.2665
   39.480    6.4982
   39.495    6.0453
   39.510    6.3612
   39.525    6.8246
   39.540    6.3612
   39.555    6.2559
   39.570    6.2454
   39.585    6.2138
   39.600    6.4771
   39.615    5.9926
   39.630    5.9716
   39.645    5.8662
   39.660    6.2138
   39.675    5.9716
   39.690    6.0453
   39.705    6.0032
   39.720    6.1822
   39.735    6.0032
   39.750    6.1085
   39.765    6.1822
   39.780    6.1401
   39.795    6.2770
   39.810    6.3928
   39.825    6.1927
   39.840    6.0979
   39.855    6.4350
   39.870    6.2981
   39.885    6.6140
   39.900    6.1611
   39.915    5.9926
   39.930    6.1401
   39.945    6.1085
   39.960    6.0979
   39.975    6.3718
   39.990    6.1717
