    1.500   18.2377
    1.515   18.2552
    1.530   18.2201
    1.545   17.5707
    1.560   17.3074
    1.575   17.1494
    1.590   16.9387
    1.605   16.9914
    1.620   15.7451
    1.635   15.6398
    1.650   14.4462
    1.665   14.7797
    1.680   15.0957
    1.695   14.2882
    1.710   14.1829
    1.725   14.2531
    1.740   13.4106
    1.755   12.9015
    1.770   13.8494
    1.785   12.8840
    1.800   12.7787
    1.815   12.8664
    1.830   12.5329
    1.845   11.9186
    1.860   11.4446
    1.875   11.1638
    1.890   11.8308
    1.905   11.5675
    1.920   11.4095
    1.935   10.7249
    1.950   10.6372
    1.965   10.3037
    1.980   10.5143
    1.995   10.3037
    2.010   10.1632
    2.025    9.9351
    2.040    9.5313
    2.055    9.5313
    2.070    9.6893
    2.085    9.3207
    2.100    9.6542
    2.115    9.4962
    2.130    9.1627
    2.145    9.2856
    2.160    9.2856
    2.175    8.6010
    2.190    8.8994
    2.205    8.7941
    2.220    8.7063
    2.235    7.9867
    2.250    8.3904
    2.265    7.5654
    2.280    7.9340
    2.295    8.0744
    2.310    8.3026
    2.325    8.0393
    2.340    7.6707
    2.355    7.3196
    2.370    7.2494
    2.385    7.1441
    2.400    7.1090
    2.415    7.2143
    2.430    7.5127
    2.445    6.7579
    2.460    6.7053
    2.475    6.9335
    2.490    7.6532
    2.505    6.8633
    2.520    6.9510
    2.535    6.8808
    2.550    7.2494
    2.565    6.4595
    2.580    6.3367
    2.595    6.7053
    2.610    6.3016
    2.625    6.3542
    2.640    6.4420
    2.655    5.9681
    2.670    6.1085
    2.685    5.7399
    2.700    6.1787
    2.715    5.9329
    2.730    5.8452
    2.745    5.9856
    2.760    5.7048
    2.775    5.4766
    2.790    5.9329
    2.805    6.4244
    2.820    5.8276
    2.835    5.5468
    2.850    5.5468
    2.865    5.5468
    2.880    5.3712
    2.895    5.2133
    2.910    5.0377
    2.925    4.9851
    2.940    5.2484
    2.955    5.7223
    2.970    5.1957
    2.985    5.7048
    3.000    5.5292
    3.015    5.1957
    3.030    4.9851
    3.045    5.1255
    3.060    5.2308
    3.075    5.5292
    3.090    5.3361
    3.105    5.3186
    3.120    4.8798
    3.135    4.8973
    3.150    4.5287
    3.165    4.7393
    3.180    4.6691
    3.195    4.7218
    3.210    4.7920
    3.225    4.6516
    3.240    5.0202
    3.255    5.0553
    3.270    4.2830
    3.285    4.1425
    3.300    4.7920
    3.315    4.7042
    3.330    4.4058
    3.345    4.2830
    3.360    4.7218
    3.375    4.6340
    3.390    4.7920
    3.405    4.5989
    3.420    4.6340
    3.435    4.3707
    3.450    4.5463
    3.465    4.8798
    3.480    4.5638
    3.495    4.1776
    3.510    4.0372
    3.525    4.6165
    3.540    4.4936
    3.555    4.5287
    3.570    4.2654
    3.585    4.5287
    3.600    4.5638
    3.615    4.1776
    3.630    4.3005
    3.645    4.4234
    3.660    4.6340
    3.675    4.2830
    3.690    4.4760
    3.705    4.1425
    3.720    4.2478
    3.735    4.3707
    3.750    4.3356
    3.765    4.5989
    3.780    4.4585
    3.795    4.3005
    3.810    3.8968
    3.825    4.0548
    3.840    4.2654
    3.855    3.9494
    3.870    3.8968
    3.885    4.5111
    3.900    4.1425
    3.915    4.0372
    3.930    4.0548
    3.945    3.8792
    3.960    4.2303
    3.975    4.2830
    3.990    4.5463
    4.005    4.1250
    4.020    4.2478
    4.035    4.0723
    4.050    4.0723
    4.065    4.2654
    4.080    4.1250
    4.095    4.0197
    4.110    4.0372
    4.125    4.0899
    4.140    4.2303
    4.155    4.2478
    4.170    3.9319
    4.185    4.1425
    4.200    4.1074
    4.215    3.8968
    4.230    4.0899
    4.245    4.5111
    4.260    3.9319
    4.275    4.0372
    4.290    3.7564
    4.305    3.9143
    4.320    4.1425
    4.335    3.8090
    4.350    4.0372
    4.365    4.1074
    4.380    3.8441
    4.395    4.0899
    4.410    3.5633
    4.425    3.7037
    4.440    4.0021
    4.455    3.8266
    4.470    3.6862
    4.485    3.9494
    4.500    3.9319
    4.515    3.8266
    4.530    3.6159
    4.545    3.5808
    4.560    4.0197
    4.575    4.1425
    4.590    4.2127
    4.605    3.7739
    4.620    3.5457
    4.635    3.8266
    4.650    3.7213
    4.665    3.5633
    4.680    3.5106
    4.695    3.9143
    4.710    3.9494
    4.725    4.1601
    4.740    3.8090
    4.755    3.7388
    4.770    3.6686
    4.785    3.9494
    4.800    3.3877
    4.815    3.4580
    4.830    3.5984
    4.845    3.4229
    4.860    4.0021
    4.875    3.3526
    4.890    3.3000
    4.905    3.4580
    4.920    3.5633
    4.935    3.8090
    4.950    3.5633
    4.965    3.6510
    4.980    3.5633
    4.995    3.8266
    5.010    3.6159
    5.025    4.1250
    5.040    3.8441
    5.055    3.8090
    5.070    3.4580
    5.085    3.5984
    5.100    3.2824
    5.115    3.2649
    5.130    3.7739
    5.145    3.9494
    5.160    3.6862
    5.175    3.5808
    5.190    3.8968
    5.205    3.4755
    5.220    3.6510
    5.235    3.3526
    5.250    3.4580
    5.265    3.3877
    5.280    3.6862
    5.295    3.8968
    5.310    3.6159
    5.325    4.1425
    5.340    3.6159
    5.355    3.3877
    5.370    3.5633
    5.385    3.4053
    5.400    3.7915
    5.415    3.7915
    5.430    3.8792
    5.445    3.7564
    5.460    3.6510
    5.475    3.2298
    5.490    3.1420
    5.505    3.3175
    5.520    3.4229
    5.535    3.3877
    5.550    3.4931
    5.565    3.4755
    5.580    3.5633
    5.595    4.0197
    5.610    3.6862
    5.625    3.5106
    5.640    3.6510
    5.655    3.8617
    5.670    3.4580
    5.685    3.5106
    5.700    3.2122
    5.715    3.4053
    5.730    3.5457
    5.745    3.7564
    5.760    3.5457
    5.775    3.3877
    5.790    3.3000
    5.805    3.3526
    5.820    3.7564
    5.835    3.5106
    5.850    3.3526
    5.865    3.3175
    5.880    3.6510
    5.895    3.5633
    5.910    3.6159
    5.925    3.5808
    5.940    3.4229
    5.955    3.3877
    5.970    3.6510
    5.985    3.6510
    6.000    3.3526
    6.015    3.4229
    6.030    3.4053
    6.045    3.4931
    6.060    3.3175
    6.075    3.6335
    6.090    3.5106
    6.105    3.4580
    6.120    3.3702
    6.135    3.3877
    6.150    3.2473
    6.165    3.5633
    6.180    3.5282
    6.195    3.4404
    6.210    3.7388
    6.225    3.4580
    6.240    3.0893
    6.255    3.4053
    6.270    3.5457
    6.285    3.6159
    6.300    3.4755
    6.315    3.6159
    6.330    3.7213
    6.345    3.6335
    6.360    3.3877
    6.375    3.4404
    6.390    3.6686
    6.405    3.4755
    6.420    3.1245
    6.435    3.4931
    6.450    3.5984
    6.465    3.4755
    6.480    3.5106
    6.495    3.4931
    6.510    3.6335
    6.525    3.5106
    6.540    3.5457
    6.555    3.7037
    6.570    3.3351
    6.585    3.8968
    6.600    3.9494
    6.615    3.8266
    6.630    3.4931
    6.645    3.6510
    6.660    3.4404
    6.675    3.3702
    6.690    3.3175
    6.705    3.1947
    6.720    3.4229
    6.735    3.0893
    6.750    3.2824
    6.765    3.4931
    6.780    3.5808
    6.795    3.6686
    6.810    3.2824
    6.825    3.3877
    6.840    3.0542
    6.855    3.4404
    6.870    3.8441
    6.885    3.5106
    6.900    3.1420
    6.915    3.3000
    6.930    3.3526
    6.945    3.4229
    6.960    3.3000
    6.975    3.6335
    6.990    3.4580
    7.005    3.5106
    7.020    3.6335
    7.035    3.3351
    7.050    3.7388
    7.065    3.4580
    7.080    3.3877
    7.095    3.6159
    7.110    3.4755
    7.125    3.5808
    7.140    3.6510
    7.155    3.4404
    7.170    3.5457
    7.185    3.2473
    7.200    3.5633
    7.215    3.7915
    7.230    3.2122
    7.245    3.3000
    7.260    3.4404
    7.275    3.2298
    7.290    3.5106
    7.305    3.5808
    7.320    3.3877
    7.335    3.4755
    7.350    3.3351
    7.365    3.2824
    7.380    3.3175
    7.395    3.5282
    7.410    3.4229
    7.425    3.6862
    7.440    3.5282
    7.455    3.6862
    7.470    3.6510
    7.485    3.3526
    7.500    3.7213
    7.515    3.5984
    7.530    3.5106
    7.545    2.9840
    7.560    3.5106
    7.575    3.4755
    7.590    3.2824
    7.605    3.4755
    7.620    3.5633
    7.635    3.3175
    7.650    3.6686
    7.665    3.4580
    7.680    3.6335
    7.695    3.4755
    7.710    3.3702
    7.725    3.2649
    7.740    3.9143
    7.755    3.6510
    7.770    3.4053
    7.785    3.2824
    7.800    3.3526
    7.815    3.6686
    7.830    3.3877
    7.845    3.4755
    7.860    3.6159
    7.875    3.3175
    7.890    3.3351
    7.905    3.3351
    7.920    3.6686
    7.935    3.6159
    7.950    3.4229
    7.965    3.6510
    7.980    3.5984
    7.995    3.7037
    8.010    3.2122
    8.025    3.2824
    8.040    3.1069
    8.055    3.1245
    8.070    3.3702
    8.085    3.3877
    8.100    3.6686
    8.115    3.7564
    8.130    3.4404
    8.145    3.4755
    8.160    3.5282
    8.175    3.8617
    8.190    3.8441
    8.205    3.7388
    8.220    3.7213
    8.235    3.5282
    8.250    3.5808
    8.265    3.6335
    8.280    3.5984
    8.295    3.5633
    8.310    3.6686
    8.325    3.5633
    8.340    3.3702
    8.355    3.6862
    8.370    4.0548
    8.385    3.7739
    8.400    3.5282
    8.415    3.4931
    8.430    3.7213
    8.445    3.4404
    8.460    3.2122
    8.475    3.4755
    8.490    3.4931
    8.505    3.4580
    8.520    3.6159
    8.535    3.7739
    8.550    3.9319
    8.565    3.8792
    8.580    3.3526
    8.595    3.5106
    8.610    3.5106
    8.625    3.7213
    8.640    3.7213
    8.655    3.3351
    8.670    3.5282
    8.685    3.3000
    8.700    3.5808
    8.715    3.6159
    8.730    3.9143
    8.745    3.6862
    8.760    3.6510
    8.775    4.0548
    8.790    3.8792
    8.805    3.7388
    8.820    3.7388
    8.835    3.4229
    8.850    3.6159
    8.865    3.6686
    8.880    3.8090
    8.895    3.8266
    8.910    3.4404
    8.925    3.3000
    8.940    3.4755
    8.955    3.5984
    8.970    3.6510
    8.985    4.0372
    9.000    3.7739
    9.015    3.6510
    9.030    3.7564
    9.045    3.4755
    9.060    3.6335
    9.075    3.7213
    9.090    4.1425
    9.105    3.7213
    9.120    3.8090
    9.135    3.5984
    9.150    3.7213
    9.165    3.9143
    9.180    3.9319
    9.195    3.9670
    9.210    3.8090
    9.225    3.9319
    9.240    3.8968
    9.255    3.7739
    9.270    3.7037
    9.285    3.8792
    9.300    3.4755
    9.315    3.3351
    9.330    3.7739
    9.345    3.4404
    9.360    3.7213
    9.375    3.8441
    9.390    3.8266
    9.405    3.5984
    9.420    3.7915
    9.435    3.7213
    9.450    3.4755
    9.465    3.5984
    9.480    3.5457
    9.495    3.4580
    9.510    3.4755
    9.525    3.4580
    9.540    3.8266
    9.555    3.7739
    9.570    3.7564
    9.585    3.9846
    9.600    3.4580
    9.615    3.2122
    9.630    3.6686
    9.645    3.7037
    9.660    3.6862
    9.675    3.6686
    9.690    4.2830
    9.705    3.4755
    9.720    3.5106
    9.735    3.7388
    9.750    3.9319
    9.765    4.0021
    9.780    4.1250
    9.795    4.1952
    9.810    3.8968
    9.825    3.9494
    9.840    3.9319
    9.855    3.6510
    9.870    3.4053
    9.885    3.7915
    9.900    3.8090
    9.915    3.3702
    9.930    3.5106
    9.945    3.7564
    9.960    3.7388
    9.975    3.6335
    9.990    3.7564
   10.005    4.0021
   10.020    3.8792
   10.035    3.6862
   10.050    3.8792
   10.065    3.7213
   10.080    3.3877
   10.095    3.5984
   10.110    3.8441
   10.125    3.7037
   10.140    3.6862
   10.155    3.9143
   10.170    3.7037
   10.185    3.2122
   10.200    3.6862
   10.215    3.4053
   10.230    3.5808
   10.245    3.9846
   10.260    3.9143
   10.275    4.0899
   10.290    3.3877
   10.305    3.3702
   10.320    3.4053
   10.335    3.4931
   10.350    3.8266
   10.365    3.8266
   10.380    4.1425
   10.395    3.8968
   10.410    4.1074
   10.425    3.9143
   10.440    3.7564
   10.455    3.8968
   10.470    4.0372
   10.485    3.5457
   10.500    3.5457
   10.515    3.5457
   10.530    3.6862
   10.545    3.7037
   10.560    3.4580
   10.575    3.6159
   10.590    3.7564
   10.605    3.8441
   10.620    3.6159
   10.635    3.6862
   10.650    3.8090
   10.665    3.7037
   10.680    3.7739
   10.695    3.4229
   10.710    3.7564
   10.725    3.2824
   10.740    3.3175
   10.755    3.5984
   10.770    3.8968
   10.785    3.7739
   10.800    4.0372
   10.815    3.7213
   10.830    3.5984
   10.845    3.5282
   10.860    3.7213
   10.875    3.8266
   10.890    3.7915
   10.905    3.6686
   10.920    4.3707
   10.935    3.8090
   10.950    3.5984
   10.965    3.3877
   10.980    3.3702
   10.995    3.7388
   11.010    3.9143
   11.025    3.9846
   11.040    3.9319
   11.055    3.3175
   11.070    3.6159
   11.085    3.6335
   11.100    4.0021
   11.115    3.8090
   11.130    3.5808
   11.145    4.0021
   11.160    3.8968
   11.175    3.8266
   11.190    3.5633
   11.205    3.9143
   11.220    3.5808
   11.235    3.6510
   11.250    3.3877
   11.265    3.2824
   11.280    3.4755
   11.295    3.8617
   11.310    3.8090
   11.325    3.5282
   11.340    3.9143
   11.355    3.7037
   11.370    3.5106
   11.385    3.7213
   11.400    3.5984
   11.415    3.9846
   11.430    3.8968
   11.445    3.7739
   11.460    3.6686
   11.475    3.4404
   11.490    3.6510
   11.505    4.0021
   11.520    3.6862
   11.535    4.3181
   11.550    3.9143
   11.565    3.3175
   11.580    3.5282
   11.595    3.4931
   11.610    3.4580
   11.625    3.8266
   11.640    3.5808
   11.655    3.5984
   11.670    3.8617
   11.685    3.7739
   11.700    3.8090
   11.715    3.4229
   11.730    3.6335
   11.745    3.3702
   11.760    3.5282
   11.775    3.7388
   11.790    3.1947
   11.805    3.7388
   11.820    3.6862
   11.835    3.8617
   11.850    3.5457
   11.865    3.6510
   11.880    3.5633
   11.895    4.0899
   11.910    3.7739
   11.925    3.4755
   11.940    3.5633
   11.955    3.3702
   11.970    3.2824
   11.985    3.3877
   12.000    3.1596
   12.015    3.5633
   12.030    3.9319
   12.045    3.3877
   12.060    3.4404
   12.075    3.8968
   12.090    3.7388
   12.105    3.7388
   12.120    3.6510
   12.135    3.7037
   12.150    3.3877
   12.165    3.4053
   12.180    3.5984
   12.195    3.4755
   12.210    3.7739
   12.225    3.8090
   12.240    3.5457
   12.255    3.3526
   12.270    3.5457
   12.285    3.3702
   12.300    3.4755
   12.315    3.5984
   12.330    3.6862
   12.345    3.3526
   12.360    3.5457
   12.375    3.8266
   12.390    3.4053
   12.405    3.3702
   12.420    3.4229
   12.435    3.5633
   12.450    3.6159
   12.465    3.7213
   12.480    3.2649
   12.495    3.4053
   12.510    3.5633
   12.525    3.8617
   12.540    3.7915
   12.555    3.8266
   12.570    3.4053
   12.585    3.1947
   12.600    3.5106
   12.615    3.7388
   12.630    3.7388
   12.645    3.7739
   12.660    3.8090
   12.675    3.3526
   12.690    3.0367
   12.705    3.3877
   12.720    3.3351
   12.735    3.4229
   12.750    3.2824
   12.765    3.5808
   12.780    3.4053
   12.795    3.3877
   12.810    3.5106
   12.825    3.8266
   12.840    3.3702
   12.855    3.3877
   12.870    3.4053
   12.885    3.4229
   12.900    3.7915
   12.915    3.4580
   12.930    3.7213
   12.945    3.5282
   12.960    3.3175
   12.975    3.7564
   12.990    3.8441
   13.005    3.8441
   13.020    3.6686
   13.035    3.6862
   13.050    3.3702
   13.065    3.3175
   13.080    3.3877
   13.095    3.6862
   13.110    3.4404
   13.125    3.5282
   13.140    3.6159
   13.155    3.5984
   13.170    3.6159
   13.185    3.4580
   13.200    3.4755
   13.215    3.7915
   13.230    3.7037
   13.245    3.5808
   13.260    3.2473
   13.275    3.4580
   13.290    3.5808
   13.305    3.2649
   13.320    3.1069
   13.335    3.4053
   13.350    3.4053
   13.365    3.7564
   13.380    3.4755
   13.395    3.6510
   13.410    3.7915
   13.425    4.3005
   13.440    4.0197
   13.455    3.8266
   13.470    3.7564
   13.485    3.4404
   13.500    3.6335
   13.515    3.7388
   13.530    3.7915
   13.545    3.7915
   13.560    3.2473
   13.575    3.6862
   13.590    3.5282
   13.605    3.9319
   13.620    3.6862
   13.635    3.7037
   13.650    4.0899
   13.665    3.3877
   13.680    3.4931
   13.695    3.7388
   13.710    3.4755
   13.725    3.7564
   13.740    3.7915
   13.755    3.4229
   13.770    3.3000
   13.785    3.5984
   13.800    3.5984
   13.815    3.6862
   13.830    3.7915
   13.845    4.2830
   13.860    3.7037
   13.875    3.7915
   13.890    3.9319
   13.905    3.3175
   13.920    3.8968
   13.935    3.4755
   13.950    3.8617
   13.965    3.8968
   13.980    3.4404
   13.995    4.0021
   14.010    4.3532
   14.025    4.0021
   14.040    3.5282
   14.055    3.3702
   14.070    3.6686
   14.085    3.7037
   14.100    3.7213
   14.115    3.5457
   14.130    3.7037
   14.145    3.6335
   14.160    3.7739
   14.175    3.9143
   14.190    3.7213
   14.205    3.9670
   14.220    3.6686
   14.235    3.7739
   14.250    3.5106
   14.265    3.5282
   14.280    3.5633
   14.295    3.8968
   14.310    3.4755
   14.325    3.3351
   14.340    3.1771
   14.355    3.4931
   14.370    3.2649
   14.385    3.5633
   14.400    3.5633
   14.415    3.4229
   14.430    3.6686
   14.445    3.5808
   14.460    4.0021
   14.475    3.8090
   14.490    3.8266
   14.505    3.5808
   14.520    3.7213
   14.535    3.4580
   14.550    3.5106
   14.565    3.8792
   14.580    3.8441
   14.595    3.7564
   14.610    3.7037
   14.625    3.7915
   14.640    3.9494
   14.655    3.5633
   14.670    3.9319
   14.685    3.7739
   14.700    3.0718
   14.715    3.5457
   14.730    3.3175
   14.745    3.6159
   14.760    4.1776
   14.775    3.8441
   14.790    3.7564
   14.805    3.2298
   14.820    3.4053
   14.835    3.0542
   14.850    3.5106
   14.865    3.3000
   14.880    3.3702
   14.895    3.5457
   14.910    3.9846
   14.925    3.8266
   14.940    3.5808
   14.955    3.4755
   14.970    3.5984
   14.985    3.5457
   15.000    3.1596
   15.015    3.8441
   15.030    3.5808
   15.045    3.5633
   15.060    3.4931
   15.075    3.6686
   15.090    3.6335
   15.105    3.6510
   15.120    3.8792
   15.135    3.4755
   15.150    3.5282
   15.165    3.7915
   15.180    3.6159
   15.195    3.3877
   15.210    3.2649
   15.225    3.1947
   15.240    3.3877
   15.255    3.6335
   15.270    3.8441
   15.285    4.0197
   15.300    3.9319
   15.315    3.8266
   15.330    3.4053
   15.345    3.4053
   15.360    3.2122
   15.375    3.0542
   15.390    3.3175
   15.405    3.2824
   15.420    3.5984
   15.435    3.3351
   15.450    3.3000
   15.465    3.4931
   15.480    3.1947
   15.495    3.4755
   15.510    3.5282
   15.525    3.2298
   15.540    3.6510
   15.555    3.4053
   15.570    3.2649
   15.585    3.8617
   15.600    3.1771
   15.615    3.3526
   15.630    3.4404
   15.645    3.4755
   15.660    3.2824
   15.675    3.2122
   15.690    3.2473
   15.705    3.4229
   15.720    3.4229
   15.735    3.4580
   15.750    3.1947
   15.765    3.6510
   15.780    3.5808
   15.795    3.4229
   15.810    3.4755
   15.825    3.5282
   15.840    3.6510
   15.855    3.7037
   15.870    3.7037
   15.885    3.6159
   15.900    3.4404
   15.915    3.5282
   15.930    3.3526
   15.945    3.6686
   15.960    3.3526
   15.975    3.5808
   15.990    3.7564
   16.005    3.4053
   16.020    3.7739
   16.035    3.5282
   16.050    3.5808
   16.065    3.6686
   16.080    3.4404
   16.095    3.5457
   16.110    3.4580
   16.125    3.4755
   16.140    3.3526
   16.155    3.3175
   16.170    3.3000
   16.185    3.3351
   16.200    3.6335
   16.215    3.7037
   16.230    3.5282
   16.245    3.7915
   16.260    3.6862
   16.275    3.6686
   16.290    3.7213
   16.305    3.4931
   16.320    3.5282
   16.335    3.4404
   16.350    3.6159
   16.365    3.7388
   16.380    3.4229
   16.395    3.4053
   16.410    3.6510
   16.425    3.4229
   16.440    3.5808
   16.455    3.6159
   16.470    3.1069
   16.485    3.4053
   16.500    3.7915
   16.515    3.4931
   16.530    3.5984
   16.545    3.4755
   16.560    3.4755
   16.575    3.4580
   16.590    3.4404
   16.605    4.1776
   16.620    3.6510
   16.635    3.3351
   16.650    3.4931
   16.665    3.7915
   16.680    3.6159
   16.695    3.2649
   16.710    3.4931
   16.725    3.7564
   16.740    3.8090
   16.755    3.7564
   16.770    3.7037
   16.785    3.3000
   16.800    3.7739
   16.815    3.8617
   16.830    3.5457
   16.845    3.6686
   16.860    3.4931
   16.875    3.5457
   16.890    3.5106
   16.905    3.1596
   16.920    3.7915
   16.935    3.5808
   16.950    3.6335
   16.965    3.5457
   16.980    3.6686
   16.995    3.5106
   17.010    3.1245
   17.025    3.1596
   17.040    3.2473
   17.055    3.6862
   17.070    3.8266
   17.085    3.9319
   17.100    4.1601
   17.115    3.8266
   17.130    3.6159
   17.145    3.4931
   17.160    3.6862
   17.175    3.6510
   17.190    3.4755
   17.205    3.6335
   17.220    3.2649
   17.235    3.6686
   17.250    3.4580
   17.265    3.2298
   17.280    3.2473
   17.295    3.3702
   17.310    3.5282
   17.325    3.5808
   17.340    3.5808
   17.355    3.3526
   17.370    3.3000
   17.385    3.3702
   17.400    3.4931
   17.415    3.6862
   17.430    3.4229
   17.445    3.4755
   17.460    3.6862
   17.475    3.7037
   17.490    3.6159
   17.505    3.4755
   17.520    3.4229
   17.535    3.4580
   17.550    3.3526
   17.565    3.6862
   17.580    3.7213
   17.595    3.8441
   17.610    3.5457
   17.625    3.5808
   17.640    3.2473
   17.655    3.6510
   17.670    3.3000
   17.685    3.2298
   17.700    3.3877
   17.715    3.3351
   17.730    3.5282
   17.745    3.5984
   17.760    3.5984
   17.775    3.3877
   17.790    3.4755
   17.805    3.8090
   17.820    3.9319
   17.835    3.5984
   17.850    3.5808
   17.865    3.6510
   17.880    3.7213
   17.895    3.7213
   17.910    3.4580
   17.925    3.7037
   17.940    3.9846
   17.955    3.6686
   17.970    3.7739
   17.985    3.8792
   18.000    3.8441
   18.015    3.7564
   18.030    3.8617
   18.045    3.8968
   18.060    3.7037
   18.075    3.6862
   18.090    3.3526
   18.105    3.4931
   18.120    3.3000
   18.135    3.2649
   18.150    3.1069
   18.165    3.6510
   18.180    3.7915
   18.195    3.3877
   18.210    3.5808
   18.225    3.5282
   18.240    3.4755
   18.255    3.5106
   18.270    3.4404
   18.285    3.5106
   18.300    3.6335
   18.315    3.6862
   18.330    4.0548
   18.345    3.5808
   18.360    3.4580
   18.375    3.6335
   18.390    3.8792
   18.405    3.4404
   18.420    3.7739
   18.435    3.8441
   18.450    3.6686
   18.465    3.6510
   18.480    3.3877
   18.495    3.6335
   18.510    3.5633
   18.525    3.1947
   18.540    3.6862
   18.555    4.0197
   18.570    3.8090
   18.585    3.7739
   18.600    3.4755
   18.615    3.4931
   18.630    3.8266
   18.645    3.5457
   18.660    3.4404
   18.675    3.0016
   18.690    3.3526
   18.705    3.6686
   18.720    3.6686
   18.735    3.4931
   18.750    3.4053
   18.765    3.5457
   18.780    3.5633
   18.795    3.5808
   18.810    3.4404
   18.825    3.3175
   18.840    3.4755
   18.855    3.5106
   18.870    3.5282
   18.885    3.2298
   18.900    3.5457
   18.915    3.1771
   18.930    3.1069
   18.945    3.4229
   18.960    3.6862
   18.975    3.5106
   18.990    3.3877
   19.005    3.2473
   19.020    3.4580
   19.035    3.1596
   19.050    3.3526
   19.065    3.4053
   19.080    3.3702
   19.095    3.6686
   19.110    3.5808
   19.125    3.6159
   19.140    3.3702
   19.155    3.3526
   19.170    3.1596
   19.185    3.6686
   19.200    3.6335
   19.215    3.5282
   19.230    3.5106
   19.245    3.7213
   19.260    3.5808
   19.275    3.7739
   19.290    3.3877
   19.305    3.7564
   19.320    3.4404
   19.335    3.5808
   19.350    3.4229
   19.365    3.4931
   19.380    3.3702
   19.395    3.7037
   19.410    3.6686
   19.425    3.2473
   19.440    3.3175
   19.455    3.5808
   19.470    3.3526
   19.485    3.4229
   19.500    3.3000
   19.515    3.6335
   19.530    3.5633
   19.545    3.3000
   19.560    3.2473
   19.575    3.3000
   19.590    3.4931
   19.605    3.3526
   19.620    3.6510
   19.635    2.8436
   19.650    3.0016
   19.665    3.4053
   19.680    3.3351
   19.695    3.6510
   19.710    3.6862
   19.725    3.0718
   19.740    3.3526
   19.755    3.4229
   19.770    3.6686
   19.785    3.4580
   19.800    3.4404
   19.815    3.5984
   19.830    3.5282
   19.845    3.4229
   19.860    3.5106
   19.875    3.6510
   19.890    3.6159
   19.905    3.7037
   19.920    3.5984
   19.935    3.6335
   19.950    3.7213
   19.965    3.6335
   19.980    3.4053
   19.995    3.3877
   20.010    3.6862
   20.025    3.3877
   20.040    3.3351
   20.055    3.4053
   20.070    3.3877
   20.085    3.8266
   20.100    3.5633
   20.115    3.6862
   20.130    3.4053
   20.145    3.2122
   20.160    3.1596
   20.175    3.8617
   20.190    3.7915
   20.205    3.4755
   20.220    3.3877
   20.235    3.5106
   20.250    3.0893
   20.265    3.5282
   20.280    3.7037
   20.295    3.4580
   20.310    3.2122
   20.325    3.7388
   20.340    3.6686
   20.355    3.5106
   20.370    3.6335
   20.385    3.6335
   20.400    3.2649
   20.415    3.6159
   20.430    3.6335
   20.445    3.4053
   20.460    3.5106
   20.475    3.7739
   20.490    3.7037
   20.505    3.7213
   20.520    3.4404
   20.535    3.3526
   20.550    3.5984
   20.565    3.6686
   20.580    3.5282
   20.595    3.5984
   20.610    3.4229
   20.625    3.2473
   20.640    3.6335
   20.655    3.8617
   20.670    3.7564
   20.685    3.3526
   20.700    3.4580
   20.715    3.9846
   20.730    3.8441
   20.745    3.8441
   20.760    3.5106
   20.775    3.3877
   20.790    3.5984
   20.805    3.5633
   20.820    3.7037
   20.835    3.6159
   20.850    3.4229
   20.865    3.6686
   20.880    3.7739
   20.895    3.6335
   20.910    3.4580
   20.925    3.7739
   20.940    3.6510
   20.955    3.8441
   20.970    3.8968
   20.985    3.6686
   21.000    3.3000
   21.015    3.4755
   21.030    3.8617
   21.045    3.9846
   21.060    3.6510
   21.075    3.4404
   21.090    4.1074
   21.105    3.6159
   21.120    3.5282
   21.135    3.6335
   21.150    3.5808
   21.165    3.6686
   21.180    3.5282
   21.195    3.7388
   21.210    3.7915
   21.225    3.7037
   21.240    3.5106
   21.255    3.6510
   21.270    3.5808
   21.285    3.6686
   21.300    3.5808
   21.315    3.9494
   21.330    4.0548
   21.345    3.8968
   21.360    3.7388
   21.375    3.7037
   21.390    3.6159
   21.405    3.8617
   21.420    3.6686
   21.435    3.8090
   21.450    3.6510
   21.465    3.7564
   21.480    3.6335
   21.495    4.1776
   21.510    3.8792
   21.525    4.1952
   21.540    3.7739
   21.555    3.6335
   21.570    3.5984
   21.585    3.5633
   21.600    3.6862
   21.615    3.9319
   21.630    3.8617
   21.645    3.7915
   21.660    3.9494
   21.675    4.0021
   21.690    3.4229
   21.705    3.4229
   21.720    3.5282
   21.735    3.9494
   21.750    3.5106
   21.765    3.6510
   21.780    3.3877
   21.795    3.7037
   21.810    3.5633
   21.825    3.4404
   21.840    3.2122
   21.855    3.7037
   21.870    3.6510
   21.885    3.9494
   21.900    3.4931
   21.915    3.9319
   21.930    3.8792
   21.945    3.7388
   21.960    3.8441
   21.975    3.4931
   21.990    4.0021
   22.005    3.7915
   22.020    3.4404
   22.035    3.6862
   22.050    3.7037
   22.065    3.5633
   22.080    3.5808
   22.095    3.0893
   22.110    3.2649
   22.125    3.5106
   22.140    3.6862
   22.155    3.3351
   22.170    3.6335
   22.185    3.6159
   22.200    3.6159
   22.215    3.3000
   22.230    3.5808
   22.245    3.5808
   22.260    3.2298
   22.275    3.4580
   22.290    3.4229
   22.305    3.7739
   22.320    3.2473
   22.335    3.3526
   22.350    3.6510
   22.365    3.5457
   22.380    3.8266
   22.395    3.5106
   22.410    3.7037
   22.425    3.4931
   22.440    3.5633
   22.455    3.3526
   22.470    3.5808
   22.485    3.6510
   22.500    3.1420
   22.515    3.1245
   22.530    3.4755
   22.545    3.3000
   22.560    3.2473
   22.575    3.6335
   22.590    3.4931
   22.605    2.9840
   22.620    2.9665
   22.635    3.6159
   22.650    3.7388
   22.665    3.2473
   22.680    3.0893
   22.695    3.3000
   22.710    3.1245
   22.725    3.0016
   22.740    3.1420
   22.755    3.0718
   22.770    3.2122
   22.785    3.4755
   22.800    3.5106
   22.815    3.2473
   22.830    3.7564
   22.845    3.8441
   22.860    3.7915
   22.875    3.5808
   22.890    3.3000
   22.905    3.4580
   22.920    3.3526
   22.935    3.5633
   22.950    3.4580
   22.965    3.7739
   22.980    3.4755
   22.995    3.5808
   23.010    3.5282
   23.025    3.4580
   23.040    3.5633
   23.055    3.5808
   23.070    3.6159
   23.085    3.4229
   23.100    3.3175
   23.115    3.8266
   23.130    3.5457
   23.145    3.5282
   23.160    3.4580
   23.175    3.5808
   23.190    3.2122
   23.205    3.4053
   23.220    3.3526
   23.235    3.2649
   23.250    3.3877
   23.265    3.3877
   23.280    3.1947
   23.295    3.3175
   23.310    3.3351
   23.325    3.0367
   23.340    3.5282
   23.355    3.5633
   23.370    3.1947
   23.385    3.1947
   23.400    3.4755
   23.415    3.3000
   23.430    3.4404
   23.445    3.5106
   23.460    3.2298
   23.475    3.3175
   23.490    3.2122
   23.505    3.1069
   23.520    2.8963
   23.535    2.9138
   23.550    3.4755
   23.565    3.6159
   23.580    3.4580
   23.595    3.3877
   23.610    3.0718
   23.625    3.6335
   23.640    3.2649
   23.655    3.2122
   23.670    3.6335
   23.685    3.4053
   23.700    2.9840
   23.715    3.1771
   23.730    3.2122
   23.745    3.1771
   23.760    3.5808
   23.775    3.1771
   23.790    3.0016
   23.805    3.4931
   23.820    3.6335
   23.835    3.4053
   23.850    3.4229
   23.865    3.3000
   23.880    3.6510
   23.895    3.3351
   23.910    3.3175
   23.925    3.3526
   23.940    3.4580
   23.955    3.4404
   23.970    3.1596
   23.985    3.1596
   24.000    3.2473
   24.015    3.7739
   24.030    3.5457
   24.045    3.6510
   24.060    3.4755
   24.075    3.2649
   24.090    3.1771
   24.105    3.4053
   24.120    3.3702
   24.135    3.5457
   24.150    2.9665
   24.165    3.3702
   24.180    3.5106
   24.195    3.3526
   24.210    3.1245
   24.225    3.2298
   24.240    3.3175
   24.255    3.1069
   24.270    3.3351
   24.285    3.5633
   24.300    3.3351
   24.315    3.5282
   24.330    3.6862
   24.345    3.2122
   24.360    2.9840
   24.375    3.4580
   24.390    3.3877
   24.405    3.4755
   24.420    3.1771
   24.435    3.5984
   24.450    3.3877
   24.465    3.3351
   24.480    3.0542
   24.495    3.5282
   24.510    3.7388
   24.525    3.3000
   24.540    3.1947
   24.555    3.2473
   24.570    3.3351
   24.585    3.5282
   24.600    3.0893
   24.615    3.3351
   24.630    3.2824
   24.645    3.2298
   24.660    3.1245
   24.675    3.4053
   24.690    3.3526
   24.705    3.1771
   24.720    3.0016
   24.735    3.2473
   24.750    3.5984
   24.765    3.3000
   24.780    3.0191
   24.795    3.2473
   24.810    3.2824
   24.825    3.0542
   24.840    3.0893
   24.855    3.0893
   24.870    3.1596
   24.885    3.2649
   24.900    3.4580
   24.915    3.2473
   24.930    3.2649
   24.945    3.3351
   24.960    3.1420
   24.975    3.2298
   24.990    3.0718
   25.005    2.9138
   25.020    2.8260
   25.035    3.1420
   25.050    2.9665
   25.065    3.1245
   25.080    3.0542
   25.095    3.2298
   25.110    2.8963
   25.125    2.9138
   25.140    2.9138
   25.155    3.0191
   25.170    3.1069
   25.185    3.2122
   25.200    3.3000
   25.215    3.0893
   25.230    3.3877
   25.245    3.3877
   25.260    2.9489
   25.275    3.1069
   25.290    3.5633
   25.305    3.4053
   25.320    3.3351
   25.335    3.2298
   25.350    3.4580
   25.365    3.3877
   25.380    3.0367
   25.395    3.2473
   25.410    3.1947
   25.425    3.1596
   25.440    3.3702
   25.455    3.5984
   25.470    3.2824
   25.485    2.9489
   25.500    3.1771
   25.515    2.8612
   25.530    3.0191
   25.545    3.1596
   25.560    2.8963
   25.575    3.2824
   25.590    3.3526
   25.605    3.0367
   25.620    3.1245
   25.635    3.0367
   25.650    3.1947
   25.665    3.0016
   25.680    3.1245
   25.695    2.9314
   25.710    3.1245
   25.725    3.2473
   25.740    3.0893
   25.755    3.1596
   25.770    2.8787
   25.785    3.1420
   25.800    3.4755
   25.815    3.2298
   25.830    2.7207
   25.845    3.2649
   25.860    3.3526
   25.875    3.3351
   25.890    3.1245
   25.905    3.2473
   25.920    3.0893
   25.935    3.4580
   25.950    3.3351
   25.965    3.1947
   25.980    3.1947
   25.995    3.1771
   26.010    3.2298
   26.025    2.9840
   26.040    3.2122
   26.055    3.5633
   26.070    3.3877
   26.085    2.9138
   26.100    3.4755
   26.115    3.1245
   26.130    3.1420
   26.145    2.9840
   26.160    3.1420
   26.175    3.0718
   26.190    3.1069
   26.205    3.0893
   26.220    3.1245
   26.235    3.4053
   26.250    3.6159
   26.265    2.9489
   26.280    2.6330
   26.295    2.9314
   26.310    3.1771
   26.325    3.2824
   26.340    2.9665
   26.355    3.0191
   26.370    2.9665
   26.385    3.1245
   26.400    2.8085
   26.415    3.0367
   26.430    2.9840
   26.445    3.1069
   26.460    2.9314
   26.475    3.2824
   26.490    3.1947
   26.505    3.2122
   26.520    3.1947
   26.535    3.2122
   26.550    2.9314
   26.565    2.7207
   26.580    3.0718
   26.595    3.4580
   26.610    3.4053
   26.625    3.0542
   26.640    3.2824
   26.655    2.9314
   26.670    2.9665
   26.685    3.1947
   26.700    3.0367
   26.715    3.3526
   26.730    3.4580
   26.745    3.3526
   26.760    3.2649
   26.775    2.8436
   26.790    3.0191
   26.805    3.0016
   26.820    2.9138
   26.835    2.8963
   26.850    2.9314
   26.865    3.3877
   26.880    3.1771
   26.895    3.2298
   26.910    2.6154
   26.925    2.9665
   26.940    3.2298
   26.955    2.8085
   26.970    2.8260
   26.985    2.9314
   27.000    3.0191
   27.015    3.5633
   27.030    3.0893
   27.045    3.4755
   27.060    3.0191
   27.075    2.9314
   27.090    3.3351
   27.105    3.2649
   27.120    2.9665
   27.135    2.8963
   27.150    3.0191
   27.165    3.1771
   27.180    3.0718
   27.195    2.8963
   27.210    3.1771
   27.225    2.7032
   27.240    2.9489
   27.255    2.5101
   27.270    2.8963
   27.285    2.8612
   27.300    2.9840
   27.315    3.0016
   27.330    2.9840
   27.345    3.0191
   27.360    3.0367
   27.375    2.9138
   27.390    2.9665
   27.405    2.8787
   27.420    2.7558
   27.435    2.6154
   27.450    2.9314
   27.465    2.9314
   27.480    2.9314
   27.495    2.8260
   27.510    2.9840
   27.525    2.8612
   27.540    2.7032
   27.555    2.9138
   27.570    3.1596
   27.585    3.0718
   27.600    3.0016
   27.615    2.9665
   27.630    3.0718
   27.645    3.3526
   27.660    3.0367
   27.675    2.5628
   27.690    2.8085
   27.705    3.0191
   27.720    2.8787
   27.735    3.0718
   27.750    2.8085
   27.765    3.1420
   27.780    3.1420
   27.795    2.8436
   27.810    3.1596
   27.825    3.0542
   27.840    3.1069
   27.855    2.6681
   27.870    3.1069
   27.885    3.0893
   27.900    3.0191
   27.915    2.9840
   27.930    3.1596
   27.945    2.5628
   27.960    2.8963
   27.975    3.0718
   27.990    2.8436
   28.005    2.5979
   28.020    2.9489
   28.035    3.4053
   28.050    2.9489
   28.065    3.0367
   28.080    2.8787
   28.095    3.0542
   28.110    3.0718
   28.125    3.0367
   28.140    2.6681
   28.155    2.6681
   28.170    2.7558
   28.185    2.5979
   28.200    2.5979
   28.215    2.7207
   28.230    2.9840
   28.245    3.1069
   28.260    2.9138
   28.275    2.9840
   28.290    2.9314
   28.305    3.3000
   28.320    3.2649
   28.335    3.0718
   28.350    3.2824
   28.365    3.0893
   28.380    2.8612
   28.395    2.7558
   28.410    2.7032
   28.425    2.8260
   28.440    2.8260
   28.455    2.6505
   28.470    2.7383
   28.485    3.0542
   28.500    3.0542
   28.515    2.9665
   28.530    2.5276
   28.545    3.0893
   28.560    2.9489
   28.575    2.9665
   28.590    2.9314
   28.605    2.8436
   28.620    2.7383
   28.635    2.7909
   28.650    2.8963
   28.665    2.4048
   28.680    2.8612
   28.695    2.9840
   28.710    2.8787
   28.725    3.0191
   28.740    3.1596
   28.755    3.1771
   28.770    3.2122
   28.785    3.0016
   28.800    2.7383
   28.815    2.5803
   28.830    2.8436
   28.845    2.7909
   28.860    3.0718
   28.875    3.0893
   28.890    3.0893
   28.905    2.8085
   28.920    3.1069
   28.935    3.1245
   28.950    2.9138
   28.965    2.8085
   28.980    2.9489
   28.995    2.8085
   29.010    3.0191
   29.025    3.0016
   29.040    2.7207
   29.055    2.7558
   29.070    2.6154
   29.085    2.8963
   29.100    2.6505
   29.115    3.0367
   29.130    3.0016
   29.145    2.7734
   29.160    2.7207
   29.175    2.6681
   29.190    3.0893
   29.205    3.1771
   29.220    2.5979
   29.235    2.8963
   29.250    3.0542
   29.265    3.2649
   29.280    2.6154
   29.295    2.9665
   29.310    2.7207
   29.325    2.5101
   29.340    2.5979
   29.355    3.0893
   29.370    2.8787
   29.385    2.7032
   29.400    2.5628
   29.415    2.7558
   29.430    2.7734
   29.445    2.5628
   29.460    2.6505
   29.475    3.1245
   29.490    3.0893
   29.505    2.6856
   29.520    2.6330
   29.535    3.0191
   29.550    2.7558
   29.565    2.9840
   29.580    3.2649
   29.595    3.0016
   29.610    2.9314
   29.625    2.7909
   29.640    2.9138
   29.655    2.5452
   29.670    2.7909
   29.685    3.0718
   29.700    2.7383
   29.715    3.0367
   29.730    2.8612
   29.745    2.5803
   29.760    2.9840
   29.775    3.0542
   29.790    2.7558
   29.805    2.8436
   29.820    2.9138
   29.835    2.9138
   29.850    3.0893
   29.865    3.0718
   29.880    2.9665
   29.895    2.9489
   29.910    2.7207
   29.925    2.6505
   29.940    3.0542
   29.955    2.8963
   29.970    2.7558
   29.985    2.7032
   30.000    2.5628
   30.015    2.6505
   30.030    2.7032
   30.045    2.5803
   30.060    2.4048
   30.075    2.9138
   30.090    3.2298
   30.105    3.0191
   30.120    2.8963
   30.135    2.6681
   30.150    2.5452
   30.165    2.4223
   30.180    2.7032
   30.195    2.7558
   30.210    2.7207
   30.225    2.7032
   30.240    2.7032
   30.255    2.8085
   30.270    2.7909
   30.285    2.8436
   30.300    2.7558
   30.315    3.0191
   30.330    2.7207
   30.345    2.7734
   30.360    2.8260
   30.375    2.6330
   30.390    2.5452
   30.405    2.7383
   30.420    2.8963
   30.435    2.6856
   30.450    2.7383
   30.465    2.7207
   30.480    2.8085
   30.495    2.8963
   30.510    2.8085
   30.525    2.6154
   30.540    2.9840
   30.555    3.2122
   30.570    2.4925
   30.585    2.9665
   30.600    2.5452
   30.615    2.6681
   30.630    2.7909
   30.645    2.7032
   30.660    2.4574
   30.675    2.5979
   30.690    2.8260
   30.705    2.9489
   30.720    2.7383
   30.735    2.9138
   30.750    2.9665
   30.765    2.6681
   30.780    2.4750
   30.795    2.6681
   30.810    2.6856
   30.825    2.6856
   30.840    2.7909
   30.855    2.5628
   30.870    2.5276
   30.885    2.7734
   30.900    2.8612
   30.915    2.9489
   30.930    2.6505
   30.945    2.8436
   30.960    2.5628
   30.975    2.8963
   30.990    2.9665
   31.005    2.9665
   31.020    2.4574
   31.035    2.8085
   31.050    2.9138
   31.065    2.7734
   31.080    2.4750
   31.095    2.7383
   31.110    2.3872
   31.125    2.5979
   31.140    2.7383
   31.155    2.6681
   31.170    2.4750
   31.185    2.6681
   31.200    2.5276
   31.215    2.5101
   31.230    2.7032
   31.245    2.7207
   31.260    3.0016
   31.275    2.8963
   31.290    2.6505
   31.305    2.7558
   31.320    2.8260
   31.335    2.4574
   31.350    2.6154
   31.365    2.6154
   31.380    2.5628
   31.395    2.4223
   31.410    2.6681
   31.425    2.6681
   31.440    2.4574
   31.455    2.8612
   31.470    3.0016
   31.485    2.4048
   31.500    2.9138
   31.515    2.8787
   31.530    2.8787
   31.545    2.7383
   31.560    2.8963
   31.575    2.8787
   31.590    2.5628
   31.605    2.2643
   31.620    2.3170
   31.635    2.4574
   31.650    2.3346
   31.665    2.4574
   31.680    2.7032
   31.695    2.5628
   31.710    2.7558
   31.725    2.8260
   31.740    2.4925
   31.755    2.5628
   31.770    2.6681
   31.785    2.5101
   31.800    2.3697
   31.815    2.6856
   31.830    2.6856
   31.845    2.7734
   31.860    2.5101
   31.875    2.2819
   31.890    2.3521
   31.905    2.2819
   31.920    2.7032
   31.935    2.6681
   31.950    2.6681
   31.965    2.5452
   31.980    2.3521
   31.995    2.6505
   32.010    2.6505
   32.025    2.3346
   32.040    2.4574
   32.055    2.7207
   32.070    2.5276
   32.085    2.6330
   32.100    2.6330
   32.115    2.8085
   32.130    2.8260
   32.145    2.4574
   32.160    2.4750
   32.175    2.4574
   32.190    2.5101
   32.205    2.5452
   32.220    2.4925
   32.235    2.4750
   32.250    2.5979
   32.265    2.8085
   32.280    2.7383
   32.295    2.6154
   32.310    2.6856
   32.325    2.4223
   32.340    2.4223
   32.355    2.4750
   32.370    2.6330
   32.385    2.5803
   32.400    2.5452
   32.415    2.6154
   32.430    2.5101
   32.445    2.3521
   32.460    2.4399
   32.475    2.5276
   32.490    2.5276
   32.505    2.3521
   32.520    2.7383
   32.535    2.7734
   32.550    2.0888
   32.565    2.5452
   32.580    2.7207
   32.595    2.2995
   32.610    2.2643
   32.625    2.7207
   32.640    2.3170
   32.655    2.3872
   32.670    2.5628
   32.685    2.3697
   32.700    2.4223
   32.715    2.5101
   32.730    2.6330
   32.745    2.6505
   32.760    2.5276
   32.775    2.5452
   32.790    2.4574
   32.805    2.5276
   32.820    2.7734
   32.835    2.5276
   32.850    2.5979
   32.865    2.5101
   32.880    2.2819
   32.895    2.3521
   32.910    2.4223
   32.925    2.3697
   32.940    2.5803
   32.955    2.4223
   32.970    2.2995
   32.985    2.4048
   33.000    2.4750
   33.015    2.2117
   33.030    2.4223
   33.045    2.3170
   33.060    2.5628
   33.075    2.3521
   33.090    2.4925
   33.105    2.2643
   33.120    2.4399
   33.135    2.4750
   33.150    2.3697
   33.165    2.6154
   33.180    2.5276
   33.195    2.2995
   33.210    2.5101
   33.225    2.6154
   33.240    2.2468
   33.255    2.4574
   33.270    2.6330
   33.285    2.3170
   33.300    2.6154
   33.315    2.3170
   33.330    2.2995
   33.345    2.1766
   33.360    2.4925
   33.375    2.4925
   33.390    2.3521
   33.405    2.5628
   33.420    2.2643
   33.435    2.4399
   33.450    2.2643
   33.465    2.3521
   33.480    2.4048
   33.495    2.5803
   33.510    2.7383
   33.525    2.2468
   33.540    2.3872
   33.555    2.2819
   33.570    2.5276
   33.585    2.2643
   33.600    2.2643
   33.615    2.1590
   33.630    2.2292
   33.645    2.5803
   33.660    2.6856
   33.675    2.0713
   33.690    2.7383
   33.705    2.2643
   33.720    1.9835
   33.735    2.1766
   33.750    2.2995
   33.765    2.0888
   33.780    2.2468
   33.795    2.4750
   33.810    2.6681
   33.825    2.3872
   33.840    2.3521
   33.855    2.6856
   33.870    2.2819
   33.885    2.3697
   33.900    2.3170
   33.915    2.4223
   33.930    2.4399
   33.945    2.2468
   33.960    2.4048
   33.975    2.2643
   33.990    2.2643
   34.005    2.2819
   34.020    2.2292
   34.035    2.0186
   34.050    2.3872
   34.065    2.2819
   34.080    2.1766
   34.095    2.3521
   34.110    2.2643
   34.125    2.2995
   34.140    2.2643
   34.155    2.4574
   34.170    2.2995
   34.185    2.3346
   34.200    2.5979
   34.215    2.2117
   34.230    2.0713
   34.245    2.4750
   34.260    2.4574
   34.275    2.3521
   34.290    2.4223
   34.305    2.2995
   34.320    2.2117
   34.335    2.2643
   34.350    2.1064
   34.365    2.4048
   34.380    2.4048
   34.395    2.4750
   34.410    2.5101
   34.425    2.4399
   34.440    2.4048
   34.455    2.4750
   34.470    2.1415
   34.485    2.0362
   34.500    2.1766
   34.515    2.2292
   34.530    2.2995
   34.545    2.4223
   34.560    2.2995
   34.575    2.5101
   34.590    2.2643
   34.605    2.4048
   34.620    2.1415
   34.635    1.8255
   34.650    2.2643
   34.665    2.0713
   34.680    1.8782
   34.695    2.2995
   34.710    2.3872
   34.725    2.2643
   34.740    2.2117
   34.755    2.6330
   34.770    2.5628
   34.785    2.5101
   34.800    2.5452
   34.815    2.5803
   34.830    2.4574
   34.845    2.2468
   34.860    2.1064
   34.875    2.2995
   34.890    2.3346
   34.905    2.3521
   34.920    2.2468
   34.935    2.2468
   34.950    2.1415
   34.965    2.3170
   34.980    2.2643
   34.995    2.2292
   35.010    2.1941
   35.025    2.0011
   35.040    2.0537
   35.055    2.1415
   35.070    2.1766
   35.085    2.3521
   35.100    2.1766
   35.115    2.2995
   35.130    2.2117
   35.145    2.1415
   35.160    2.0888
   35.175    2.1766
   35.190    2.2995
   35.205    2.4750
   35.220    2.3346
   35.235    2.0537
   35.250    2.4048
   35.265    2.2819
   35.280    2.3872
   35.295    2.1239
   35.310    2.1766
   35.325    2.0713
   35.340    2.3170
   35.355    2.0888
   35.370    2.1064
   35.385    2.1415
   35.400    2.1766
   35.415    2.0713
   35.430    2.2292
   35.445    2.3697
   35.460    2.1239
   35.475    2.1766
   35.490    1.8255
   35.505    1.9659
   35.520    2.4048
   35.535    2.2995
   35.550    2.2819
   35.565    2.0888
   35.580    2.2117
   35.595    2.3346
   35.610    2.0713
   35.625    2.4925
   35.640    2.4048
   35.655    2.4925
   35.670    2.1239
   35.685    2.1064
   35.700    2.1590
   35.715    2.3521
   35.730    1.9308
   35.745    2.1590
   35.760    1.7904
   35.775    1.9659
   35.790    2.1590
   35.805    2.0888
   35.820    2.0888
   35.835    2.2643
   35.850    2.2995
   35.865    2.1766
   35.880    2.2995
   35.895    2.2995
   35.910    2.2995
   35.925    1.9133
   35.940    2.1415
   35.955    2.1239
   35.970    2.0888
   35.985    2.1239
   36.000    1.9133
   36.015    2.2995
   36.030    2.2292
   36.045    2.0888
   36.060    2.2468
   36.075    2.2995
   36.090    2.5101
   36.105    2.0362
   36.120    2.1415
   36.135    2.0186
   36.150    1.9308
   36.165    2.3170
   36.180    2.3170
   36.195    2.2643
   36.210    2.2468
   36.225    2.2292
   36.240    2.0011
   36.255    2.1941
   36.270    2.5276
   36.285    2.3170
   36.300    2.1766
   36.315    1.9308
   36.330    2.0362
   36.345    2.1766
   36.360    2.2117
   36.375    1.9484
   36.390    2.1415
   36.405    2.1590
   36.420    2.2995
   36.435    2.0888
   36.450    2.0362
   36.465    2.1766
   36.480    1.9835
   36.495    2.3170
   36.510    2.2117
   36.525    2.0186
   36.540    2.1590
   36.555    2.1766
   36.570    2.1415
   36.585    2.0713
   36.600    1.8957
   36.615    1.9308
   36.630    2.2292
   36.645    2.2292
   36.660    1.8957
   36.675    2.2117
   36.690    2.2819
   36.705    1.8431
   36.720    1.9659
   36.735    2.4574
   36.750    2.1941
   36.765    2.0186
   36.780    1.9835
   36.795    1.7378
   36.810    2.2643
   36.825    1.9835
   36.840    1.9133
   36.855    1.9659
   36.870    1.9484
   36.885    2.0713
   36.900    2.4399
   36.915    2.3521
   36.930    1.8957
   36.945    2.1590
   36.960    2.3521
   36.975    2.4925
   36.990    1.9835
   37.005    1.9835
   37.020    2.1064
   37.035    1.9659
   37.050    1.8080
   37.065    2.1941
   37.080    2.1766
   37.095    1.9659
   37.110    2.1941
   37.125    1.9133
   37.140    2.0186
   37.155    2.1941
   37.170    2.1239
   37.185    2.1766
   37.200    2.0713
   37.215    2.1064
   37.230    1.8782
   37.245    2.1766
   37.260    2.1064
   37.275    2.0537
   37.290    2.1064
   37.305    1.9835
   37.320    2.0186
   37.335    2.1239
   37.350    1.7904
   37.365    1.9484
   37.380    2.2292
   37.395    2.2468
   37.410    2.0537
   37.425    2.2643
   37.440    2.0186
   37.455    2.1590
   37.470    2.2117
   37.485    1.9484
   37.500    2.0362
   37.515    2.1239
   37.530    2.1941
   37.545    1.9484
   37.560    2.0186
   37.575    2.1239
   37.590    2.1415
   37.605    2.1941
   37.620    2.1064
   37.635    2.1239
   37.650    2.0713
   37.665    1.9484
   37.680    1.9308
   37.695    1.9308
   37.710    2.0186
   37.725    2.0186
   37.740    1.7904
   37.755    1.9484
   37.770    1.9308
   37.785    2.2468
   37.800    1.9835
   37.815    1.9835
   37.830    1.9835
   37.845    1.8606
   37.860    1.9659
   37.875    2.0186
   37.890    2.0186
   37.905    1.7904
   37.920    1.8782
   37.935    2.4048
   37.950    2.1415
   37.965    1.9659
   37.980    1.9659
   37.995    1.8431
   38.010    2.0186
   38.025    1.9484
   38.040    1.8255
   38.055    1.8080
   38.070    1.9659
   38.085    1.8957
   38.100    2.1064
   38.115    2.2643
   38.130    1.9484
   38.145    2.0011
   38.160    1.8431
   38.175    2.0713
   38.190    1.6500
   38.205    2.2117
   38.220    2.0186
   38.235    2.2643
   38.250    1.9484
   38.265    1.7729
   38.280    1.8782
   38.295    1.7904
   38.310    1.9133
   38.325    1.9484
   38.340    1.8957
   38.355    2.1064
   38.370    2.0713
   38.385    2.0011
   38.400    1.8957
   38.415    2.0888
   38.430    2.0537
   38.445    1.9484
   38.460    2.0713
   38.475    2.1766
   38.490    2.2117
   38.505    1.8080
   38.520    2.0362
   38.535    1.8606
   38.550    1.7729
   38.565    2.0186
   38.580    1.8606
   38.595    1.8957
   38.610    2.1064
   38.625    2.3872
   38.640    2.1415
   38.655    2.0186
   38.670    1.8606
   38.685    1.9308
   38.700    1.8957
   38.715    2.3697
   38.730    2.0186
   38.745    1.8255
   38.760    1.8606
   38.775    2.1766
   38.790    1.8606
   38.805    1.7378
   38.820    2.0011
   38.835    2.0713
   38.850    2.0713
   38.865    2.0713
   38.880    1.8782
   38.895    1.9659
   38.910    2.0362
   38.925    1.9308
   38.940    2.3170
   38.955    1.8782
   38.970    1.8957
   38.985    1.7904
   39.000    1.9133
   39.015    2.0537
   39.030    2.0011
   39.045    2.0362
   39.060    2.0537
   39.075    2.1239
   39.090    1.8080
   39.105    1.8957
   39.120    1.6675
   39.135    2.2292
   39.150    1.9484
   39.165    1.9308
   39.180    1.6324
   39.195    1.9835
   39.210    2.2819
   39.225    1.9659
   39.240    2.0362
   39.255    2.3521
   39.270    1.9308
   39.285    2.1766
   39.300    2.1239
   39.315    2.0362
   39.330    1.7553
   39.345    1.9308
   39.360    2.1766
   39.375    1.8255
   39.390    1.5622
   39.405    1.9659
   39.420    2.0713
   39.435    1.8606
   39.450    1.9484
   39.465    2.0888
   39.480    2.1766
   39.495    1.7729
   39.510    1.9484
   39.525    2.0186
   39.540    1.9484
   39.555    1.9659
   39.570    1.9835
   39.585    2.1590
   39.600    2.0713
   39.615    1.7027
   39.630    1.8255
   39.645    1.9484
   39.660    1.7378
   39.675    1.8606
   39.690    1.7553
   39.705    1.7904
   39.720    2.2292
   39.735    1.9133
   39.750    1.7904
   39.765    2.0362
   39.780    1.9484
   39.795    1.8957
   39.810    1.9484
   39.825    2.1590
   39.840    1.9659
   39.855    1.7378
   39.870    1.9133
   39.885    1.8606
   39.900    2.0888
   39.915    2.0713
   39.930    1.7729
   39.945    1.9484
   39.960    1.9484
   39.975    1.9308
   39.990    1.8255
