    1.500   15.0922
    1.515   15.0816
    1.530   15.1132
    1.545   15.3449
    1.560   15.1869
    1.575   14.2707
    1.590   14.8499
    1.605   13.9863
    1.620   13.5966
    1.635   12.9437
    1.650   12.8489
    1.665   13.2701
    1.680   12.9121
    1.695   13.0595
    1.710   12.1748
    1.725   11.5640
    1.740   12.0484
    1.755   12.0590
    1.770   11.7430
    1.785   11.6904
    1.800   11.3639
    1.815   10.9215
    1.830   10.9110
    1.845   10.6372
    1.860   11.0585
    1.875   10.9215
    1.890    9.9210
    1.905   10.3212
    1.920   10.4160
    1.935   10.0790
    1.950    9.6472
    1.965   10.0474
    1.980   10.1106
    1.995    9.9421
    2.010    9.4260
    2.025    9.4787
    2.040    9.3839
    2.055    8.9942
    2.070    8.9521
    2.085    8.8152
    2.100    8.9731
    2.115    9.0574
    2.130    8.8994
    2.145    8.8257
    2.160    8.5413
    2.175    9.1943
    2.190    9.1101
    2.205    8.9205
    2.220    8.5729
    2.235    8.7730
    2.250    8.5097
    2.265    8.3939
    2.280    8.2991
    2.295    8.0779
    2.310    7.9200
    2.325    8.0990
    2.340    8.5729
    2.355    8.2254
    2.370    7.7409
    2.385    8.0147
    2.400    7.8252
    2.415    8.1517
    2.430    8.0253
    2.445    8.1622
    2.460    7.8357
    2.475    7.7093
    2.490    7.8252
    2.505    7.6040
    2.520    8.0674
    2.535    8.3307
    2.550    8.0990
    2.565    7.9094
    2.580    7.5724
    2.595    7.5092
    2.610    7.7409
    2.625    7.7304
    2.640    7.8778
    2.655    7.3512
    2.670    7.3196
    2.685    7.5935
    2.700    7.0879
    2.715    7.1090
    2.730    7.4039
    2.745    7.1406
    2.760    7.4355
    2.775    7.5724
    2.790    7.4882
    2.805    6.9510
    2.820    7.1827
    2.835    7.3196
    2.850    7.3302
    2.865    6.6561
    2.880    7.1090
    2.895    7.4460
    2.910    7.0985
    2.925    7.1511
    2.940    6.8562
    2.955    6.8773
    2.970    6.6983
    2.985    6.9300
    3.000    7.2143
    3.015    7.2775
    3.030    6.9616
    3.045    6.8984
    3.060    6.6667
    3.075    6.7720
    3.090    6.9405
    3.105    6.9616
    3.120    6.9089
    3.135    6.8246
    3.150    6.8457
    3.165    6.9194
    3.180    6.8457
    3.195    6.9721
    3.210    6.5824
    3.225    6.7404
    3.240    6.5403
    3.255    6.6140
    3.270    6.9616
    3.285    6.6140
    3.300    6.2349
    3.315    6.9616
    3.330    6.7193
    3.345    6.6983
    3.360    6.8036
    3.375    6.6667
    3.390    6.5298
    3.405    6.6035
    3.420    6.7088
    3.435    6.8141
    3.450    6.7088
    3.465    6.5613
    3.480    6.6983
    3.495    6.6035
    3.510    6.5929
    3.525    6.5508
    3.540    6.4876
    3.555    6.6667
    3.570    6.8141
    3.585    6.2770
    3.600    6.4560
    3.615    6.7930
    3.630    6.4560
    3.645    6.4455
    3.660    6.5403
    3.675    6.7509
    3.690    6.6456
    3.705    6.4244
    3.720    6.3296
    3.735    5.9610
    3.750    6.2559
    3.765    6.4982
    3.780    6.3402
    3.795    6.5087
    3.810    6.6561
    3.825    6.3612
    3.840    6.3823
    3.855    6.3928
    3.870    6.4034
    3.885    6.7088
    3.900    6.8773
    3.915    6.6351
    3.930    6.2559
    3.945    6.2033
    3.960    6.5613
    3.975    6.3823
    3.990    6.6140
    4.005    6.4350
    4.020    6.4876
    4.035    6.1717
    4.050    6.2981
    4.065    6.5613
    4.080    6.6772
    4.095    6.3086
    4.110    6.5403
    4.125    6.5929
    4.140    6.2033
    4.155    6.4560
    4.170    6.3718
    4.185    6.2981
    4.200    6.2559
    4.215    6.2665
    4.230    6.4455
    4.245    6.6877
    4.260    6.3086
    4.275    6.4771
    4.290    6.9300
    4.305    6.5929
    4.320    6.3928
    4.335    6.2349
    4.350    6.4876
    4.365    6.2033
    4.380    6.3296
    4.395    6.4244
    4.410    6.3612
    4.425    6.6245
    4.440    6.7720
    4.455    6.5087
    4.470    6.6667
    4.485    6.6351
    4.500    6.5087
    4.515    6.5403
    4.530    6.6351
    4.545    6.2770
    4.560    6.6456
    4.575    6.6140
    4.590    6.5613
    4.605    6.6245
    4.620    6.2033
    4.635    6.2875
    4.650    6.1927
    4.665    6.5087
    4.680    6.6351
    4.695    5.9084
    4.710    6.1506
    4.725    6.1822
    4.740    6.3928
    4.755    6.7509
    4.770    6.5719
    4.785    6.4034
    4.800    6.1611
    4.815    6.6245
    4.830    6.6351
    4.845    6.2875
    4.860    6.5087
    4.875    6.3823
    4.890    6.5087
    4.905    6.5403
    4.920    6.2770
    4.935    6.0453
    4.950    6.0769
    4.965    6.3191
    4.980    6.5298
    4.995    6.2665
    5.010    6.6983
    5.025    6.8984
    5.040    6.4034
    5.055    6.1717
    5.070    6.1295
    5.085    6.2349
    5.100    6.5192
    5.115    6.2138
    5.130    6.0032
    5.145    6.7299
    5.160    6.5298
    5.175    6.5613
    5.190    6.3823
    5.205    6.1295
    5.220    6.0979
    5.235    6.6035
    5.250    6.4034
    5.265    6.4666
    5.280    6.6877
    5.295    6.3086
    5.310    6.5613
    5.325    6.6561
    5.340    6.2349
    5.355    6.1295
    5.370    6.8773
    5.385    6.6140
    5.400    6.3928
    5.415    6.5929
    5.430    6.4771
    5.445    6.3612
    5.460    6.6772
    5.475    6.3086
    5.490    6.5824
    5.505    6.3402
    5.520    6.4560
    5.535    6.5298
    5.550    6.5824
    5.565    6.2875
    5.580    6.2454
    5.595    6.2981
    5.610    6.2770
    5.625    6.4034
    5.640    6.5824
    5.655    6.8246
    5.670    6.4244
    5.685    6.9826
    5.700    6.6772
    5.715    6.4139
    5.730    6.1506
    5.745    6.2770
    5.760    6.2665
    5.775    6.3928
    5.790    6.0664
    5.805    6.1611
    5.820    6.4455
    5.835    6.5824
    5.850    6.4771
    5.865    6.2875
    5.880    6.4139
    5.895    6.4350
    5.910    6.1822
    5.925    6.2770
    5.940    6.1506
    5.955    6.4982
    5.970    6.6140
    5.985    6.6035
    6.000    6.4034
    6.015    6.3296
    6.030    6.3086
    6.045    6.7720
    6.060    6.5824
    6.075    6.6245
    6.090    6.5298
    6.105    6.2875
    6.120    6.4244
    6.135    6.6351
    6.150    6.4666
    6.165    6.1506
    6.180    6.4139
    6.195    6.0664
    6.210    6.3191
    6.225    6.2138
    6.240    6.4982
    6.255    6.4139
    6.270    6.5719
    6.285    6.3612
    6.300    6.3086
    6.315    6.6035
    6.330    6.6561
    6.345    6.4244
    6.360    6.6140
    6.375    6.4244
    6.390    6.1506
    6.405    6.7299
    6.420    6.2770
    6.435    6.0558
    6.450    6.7615
    6.465    6.0664
    6.480    6.0137
    6.495    6.3296
    6.510    6.4139
    6.525    6.4876
    6.540    6.8036
    6.555    6.2454
    6.570    6.0874
    6.585    6.2875
    6.600    6.5824
    6.615    6.2665
    6.630    5.9505
    6.645    6.0664
    6.660    6.8141
    6.675    6.6667
    6.690    6.4982
    6.705    6.5613
    6.720    6.7088
    6.735    6.5719
    6.750    6.7088
    6.765    6.2243
    6.780    6.3928
    6.795    6.3612
    6.810    6.3612
    6.825    6.7404
    6.840    6.4876
    6.855    6.3928
    6.870    6.4350
    6.885    6.7299
    6.900    6.6983
    6.915    6.7720
    6.930    6.4560
    6.945    6.0242
    6.960    6.2665
    6.975    6.3928
    6.990    6.4876
    7.005    6.6456
    7.020    6.5508
    7.035    6.2033
    7.050    6.5403
    7.065    6.7193
    7.080    6.5403
    7.095    6.4034
    7.110    6.6456
    7.125    6.6140
    7.140    6.2559
    7.155    6.2033
    7.170    6.5298
    7.185    6.6351
    7.200    6.9089
    7.215    6.5508
    7.230    6.4139
    7.245    6.5298
    7.260    6.8036
    7.275    6.7720
    7.290    6.8562
    7.305    6.6561
    7.320    6.6035
    7.335    6.5613
    7.350    6.1190
    7.365    6.3191
    7.380    6.5929
    7.395    6.7930
    7.410    6.4350
    7.425    6.2138
    7.440    6.4139
    7.455    6.5508
    7.470    6.5929
    7.485    5.9821
    7.500    6.5719
    7.515    6.4560
    7.530    6.1295
    7.545    6.7825
    7.560    6.4771
    7.575    6.4244
    7.590    6.2138
    7.605    6.3718
    7.620    6.9932
    7.635    6.3086
    7.650    6.7404
    7.665    6.5719
    7.680    6.1190
    7.695    6.2349
    7.710    6.4350
    7.725    6.7404
    7.740    6.2559
    7.755    6.2454
    7.770    6.4139
    7.785    6.6035
    7.800    6.4139
    7.815    6.5403
    7.830    6.6035
    7.845    6.7720
    7.860    7.0879
    7.875    6.8878
    7.890    6.9089
    7.905    6.7404
    7.920    6.8773
    7.935    6.6667
    7.950    6.7615
    7.965    6.6983
    7.980    6.6456
    7.995    6.4771
    8.010    7.0037
    8.025    6.7193
    8.040    7.0458
    8.055    6.9405
    8.070    6.4666
    8.085    6.1611
    8.100    6.3507
    8.115    6.3507
    8.130    6.7930
    8.145    6.8246
    8.160    6.8246
    8.175    6.9089
    8.190    7.0879
    8.205    6.9405
    8.220    6.8246
    8.235    6.8036
    8.250    6.6667
    8.265    6.5298
    8.280    6.7930
    8.295    7.0458
    8.310    6.6456
    8.325    6.4666
    8.340    6.6140
    8.355    6.7509
    8.370    6.7299
    8.385    6.7825
    8.400    6.5719
    8.415    6.4982
    8.430    6.5087
    8.445    6.5192
    8.460    6.7930
    8.475    6.4771
    8.490    6.7193
    8.505    6.7509
    8.520    6.8773
    8.535    6.8668
    8.550    6.7930
    8.565    6.8036
    8.580    6.9300
    8.595    7.0563
    8.610    6.8352
    8.625    6.6983
    8.640    6.8773
    8.655    6.9616
    8.670    7.0879
    8.685    6.8141
    8.700    6.5613
    8.715    6.6983
    8.730    6.8036
    8.745    6.8773
    8.760    6.6983
    8.775    6.9616
    8.790    7.1827
    8.805    6.8984
    8.820    7.3091
    8.835    7.0248
    8.850    7.2880
    8.865    6.9089
    8.880    6.4876
    8.895    6.7088
    8.910    6.9616
    8.925    6.7615
    8.940    6.5192
    8.955    6.5087
    8.970    6.6983
    8.985    6.9510
    9.000    7.1406
    9.015    6.9089
    9.030    7.1090
    9.045    6.8457
    9.060    6.8984
    9.075    7.3407
    9.090    7.1406
    9.105    6.9300
    9.120    6.9932
    9.135    6.8984
    9.150    7.0142
    9.165    7.2775
    9.180    6.5403
    9.195    6.8562
    9.210    7.1406
    9.225    6.8878
    9.240    6.7088
    9.255    6.8773
    9.270    6.8773
    9.285    6.6983
    9.300    6.7825
    9.315    6.9089
    9.330    6.8878
    9.345    7.2143
    9.360    7.0458
    9.375    6.7404
    9.390    6.8141
    9.405    7.5092
    9.420    7.1195
    9.435    7.3407
    9.450    6.8773
    9.465    6.9616
    9.480    6.5508
    9.495    6.9405
    9.510    6.9721
    9.525    7.0563
    9.540    7.0142
    9.555    7.2354
    9.570    7.1301
    9.585    7.1933
    9.600    7.0353
    9.615    7.4144
    9.630    6.9616
    9.645    6.8141
    9.660    7.0142
    9.675    6.7193
    9.690    6.6772
    9.705    7.2670
    9.720    6.8773
    9.735    7.2459
    9.750    7.5092
    9.765    7.4460
    9.780    7.0985
    9.795    6.8246
    9.810    6.6772
    9.825    7.0879
    9.840    6.8562
    9.855    6.9405
    9.870    7.3091
    9.885    7.2565
    9.900    7.5303
    9.915    7.3618
    9.930    7.2459
    9.945    7.0458
    9.960    6.8352
    9.975    7.0037
    9.990    7.2354
   10.005    6.7720
   10.020    6.9510
   10.035    6.8984
   10.050    7.2670
   10.065    7.2038
   10.080    7.3828
   10.095    6.9826
   10.110    7.1617
   10.125    7.0774
   10.140    7.1511
   10.155    7.3407
   10.170    7.1301
   10.185    6.9932
   10.200    7.0248
   10.215    7.2670
   10.230    7.2459
   10.245    7.3407
   10.260    6.9721
   10.275    6.8668
   10.290    7.2459
   10.305    7.2565
   10.320    7.1406
   10.335    7.1617
   10.350    7.0142
   10.365    6.8036
   10.380    6.7509
   10.395    6.6772
   10.410    6.7193
   10.425    7.0353
   10.440    7.1933
   10.455    7.0037
   10.470    6.8773
   10.485    6.9932
   10.500    7.2565
   10.515    7.2038
   10.530    6.8668
   10.545    7.0985
   10.560    7.3723
   10.575    7.2354
   10.590    6.8773
   10.605    6.7509
   10.620    6.5298
   10.635    6.9405
   10.650    7.2670
   10.665    7.1195
   10.680    6.9616
   10.695    6.9089
   10.710    7.0142
   10.725    7.2038
   10.740    6.7193
   10.755    7.1090
   10.770    6.5613
   10.785    6.6667
   10.800    7.0669
   10.815    6.8352
   10.830    6.7509
   10.845    6.4771
   10.860    6.9721
   10.875    6.9510
   10.890    6.6772
   10.905    7.0563
   10.920    7.0458
   10.935    6.5929
   10.950    6.6877
   10.965    6.7720
   10.980    6.9932
   10.995    6.8878
   11.010    6.2875
   11.025    6.7509
   11.040    6.8668
   11.055    6.7299
   11.070    6.5298
   11.085    6.7509
   11.100    6.6245
   11.115    6.8457
   11.130    6.7615
   11.145    6.4139
   11.160    6.2559
   11.175    6.2454
   11.190    6.6140
   11.205    6.6140
   11.220    6.8773
   11.235    7.1933
   11.250    6.7615
   11.265    6.2875
   11.280    6.5192
   11.295    6.7825
   11.310    6.8457
   11.325    6.7509
   11.340    6.7404
   11.355    6.2349
   11.370    6.2349
   11.385    6.4034
   11.400    6.1401
   11.415    6.6772
   11.430    6.3402
   11.445    6.1611
   11.460    6.4771
   11.475    6.4244
   11.490    6.5192
   11.505    6.8878
   11.520    6.8668
   11.535    6.3191
   11.550    6.5298
   11.565    6.4350
   11.580    6.5508
   11.595    6.6035
   11.610    6.5298
   11.625    6.7615
   11.640    6.6877
   11.655    6.6140
   11.670    6.4560
   11.685    6.6983
   11.700    6.7404
   11.715    6.4876
   11.730    6.3823
   11.745    6.7193
   11.760    6.3402
   11.775    6.4876
   11.790    6.3823
   11.805    6.2243
   11.820    6.2033
   11.835    6.2454
   11.850    6.1085
   11.865    6.0032
   11.880    6.2665
   11.895    6.6035
   11.910    6.3086
   11.925    6.3612
   11.940    6.2981
   11.955    6.2981
   11.970    6.2875
   11.985    6.4244
   12.000    6.4771
   12.015    6.5719
   12.030    6.1717
   12.045    6.2243
   12.060    6.3402
   12.075    6.2665
   12.090    6.1295
   12.105    6.2770
   12.120    6.2770
   12.135    5.9294
   12.150    6.1927
   12.165    6.2243
   12.180    5.8557
   12.195    6.1401
   12.210    6.3507
   12.225    6.4876
   12.240    6.5508
   12.255    6.2770
   12.270    6.3507
   12.285    6.1506
   12.300    6.2665
   12.315    6.2875
   12.330    6.0453
   12.345    6.5824
   12.360    6.3191
   12.375    6.2981
   12.390    6.3928
   12.405    6.1717
   12.420    6.1190
   12.435    5.9400
   12.450    6.0979
   12.465    6.1295
   12.480    5.9926
   12.495    6.2349
   12.510    5.9505
   12.525    6.2138
   12.540    6.0558
   12.555    5.9716
   12.570    5.8241
   12.585    6.0453
   12.600    6.0348
   12.615    6.1927
   12.630    6.1401
   12.645    5.9821
   12.660    6.0979
   12.675    5.9716
   12.690    6.2138
   12.705    5.6767
   12.720    6.0769
   12.735    6.2033
   12.750    6.4666
   12.765    6.3928
   12.780    6.0558
   12.795    6.0558
   12.810    6.0664
   12.825    6.0242
   12.840    5.9400
   12.855    6.0242
   12.870    6.0979
   12.885    6.4034
   12.900    6.1506
   12.915    6.3191
   12.930    6.3718
   12.945    5.8031
   12.960    5.9821
   12.975    6.3507
   12.990    6.4034
   13.005    6.0558
   13.020    5.9716
   13.035    5.8873
   13.050    5.5503
   13.065    5.6135
   13.080    5.8978
   13.095    5.8978
   13.110    6.1401
   13.125    6.0453
   13.140    6.1085
   13.155    6.3296
   13.170    5.9821
   13.185    6.1085
   13.200    5.8136
   13.215    5.7504
   13.230    5.7504
   13.245    6.0032
   13.260    6.3191
   13.275    6.0453
   13.290    6.0664
   13.305    5.8557
   13.320    6.0769
   13.335    6.3507
   13.350    6.2033
   13.365    5.9400
   13.380    5.9294
   13.395    5.8452
   13.410    5.7504
   13.425    6.0137
   13.440    5.9084
   13.455    6.0242
   13.470    5.3818
   13.485    5.5187
   13.500    5.6977
   13.515    5.8768
   13.530    5.6872
   13.545    5.9084
   13.560    6.1717
   13.575    6.1717
   13.590    6.1611
   13.605    5.7609
   13.620    5.9505
   13.635    6.0242
   13.650    6.1611
   13.665    5.8662
   13.680    5.9189
   13.695    6.2454
   13.710    6.2770
   13.725    5.7293
   13.740    5.9084
   13.755    5.7609
   13.770    5.4344
   13.785    5.8136
   13.800    6.0137
   13.815    6.0664
   13.830    5.8873
   13.845    5.8241
   13.860    5.7399
   13.875    5.5292
   13.890    5.8557
   13.905    5.8241
   13.920    5.7609
   13.935    5.8241
   13.950    5.7715
   13.965    5.8873
   13.980    6.1927
   13.995    5.9821
   14.010    6.0032
   14.025    5.9926
   14.040    5.4239
   14.055    5.5398
   14.070    6.0242
   14.085    6.3928
   14.100    6.4139
   14.115    6.3191
   14.130    5.9821
   14.145    5.9716
   14.160    5.6767
   14.175    5.6240
   14.190    5.6767
   14.205    5.6767
   14.220    5.6029
   14.235    6.0874
   14.250    5.9084
   14.265    6.0769
   14.280    6.0032
   14.295    6.4350
   14.310    5.7504
   14.325    6.0558
   14.340    5.7504
   14.355    5.7399
   14.370    6.0348
   14.385    5.9821
   14.400    5.8662
   14.415    6.0769
   14.430    5.8662
   14.445    5.8452
   14.460    5.8347
   14.475    5.9294
   14.490    5.8978
   14.505    5.5082
   14.520    5.7925
   14.535    6.0664
   14.550    6.0137
   14.565    5.8347
   14.580    5.5503
   14.595    5.8978
   14.610    5.7504
   14.625    5.6977
   14.640    5.7609
   14.655    5.5292
   14.670    5.5292
   14.685    5.6135
   14.700    5.7820
   14.715    6.1822
   14.730    5.8241
   14.745    6.0558
   14.760    6.2875
   14.775    5.8557
   14.790    5.9084
   14.805    6.2243
   14.820    5.9926
   14.835    6.1401
   14.850    6.0874
   14.865    5.5924
   14.880    5.5819
   14.895    5.7715
   14.910    6.1611
   14.925    6.0348
   14.940    6.1506
   14.955    5.7820
   14.970    5.8241
   14.985    6.3086
   15.000    5.9610
   15.015    5.9400
   15.030    5.8347
   15.045    5.8873
   15.060    5.8347
   15.075    5.8978
   15.090    5.9084
   15.105    5.7188
   15.120    5.8557
   15.135    6.0032
   15.150    5.5714
   15.165    5.6029
   15.180    5.7399
   15.195    5.6767
   15.210    5.9821
   15.225    6.0769
   15.240    6.0979
   15.255    6.1611
   15.270    5.9294
   15.285    5.8031
   15.300    5.5714
   15.315    5.8136
   15.330    5.9189
   15.345    6.3507
   15.360    5.6451
   15.375    5.7925
   15.390    5.6240
   15.405    5.8662
   15.420    5.8136
   15.435    5.7609
   15.450    5.8136
   15.465    6.0453
   15.480    6.1295
   15.495    6.1085
   15.510    6.0137
   15.525    5.8452
   15.540    5.9505
   15.555    6.0242
   15.570    5.7609
   15.585    5.9926
   15.600    5.3818
   15.615    5.8557
   15.630    5.7083
   15.645    6.2454
   15.660    6.1927
   15.675    5.9400
   15.690    5.7188
   15.705    5.9189
   15.720    6.0242
   15.735    6.1822
   15.750    6.2349
   15.765    6.0453
   15.780    5.8347
   15.795    5.8452
   15.810    6.1822
   15.825    5.8347
   15.840    5.8768
   15.855    5.9505
   15.870    6.0874
   15.885    6.1295
   15.900    6.3718
   15.915    6.2665
   15.930    6.0979
   15.945    6.0137
   15.960    6.1506
   15.975    6.3612
   15.990    6.0453
   16.005    6.2243
   16.020    6.2875
   16.035    6.5719
   16.050    6.3718
   16.065    6.1927
   16.080    6.0979
   16.095    6.4982
   16.110    5.9926
   16.125    6.0664
   16.140    6.0453
   16.155    5.9926
   16.170    6.0769
   16.185    6.6245
   16.200    6.5192
   16.215    6.6035
   16.230    5.9926
   16.245    6.4034
   16.260    5.8873
   16.275    6.2243
   16.290    6.2665
   16.305    6.1927
   16.320    6.3823
   16.335    6.1717
   16.350    6.1717
   16.365    6.3086
   16.380    6.0874
   16.395    5.7715
   16.410    6.1190
   16.425    6.1717
   16.440    6.0558
   16.455    6.2559
   16.470    6.1085
   16.485    5.5292
   16.500    5.6767
   16.515    6.0664
   16.530    5.8768
   16.545    5.6872
   16.560    5.8347
   16.575    5.9084
   16.590    5.8873
   16.605    5.7715
   16.620    5.9189
   16.635    5.7188
   16.650    6.1401
   16.665    6.0242
   16.680    6.0664
   16.695    5.7083
   16.710    5.6240
   16.725    5.7399
   16.740    6.0242
   16.755    6.1401
   16.770    5.8347
   16.785    5.9716
   16.800    6.1190
   16.815    6.1717
   16.830    6.3296
   16.845    6.0242
   16.860    5.9505
   16.875    5.9821
   16.890    5.9926
   16.905    5.9084
   16.920    5.5924
   16.935    5.6977
   16.950    5.8873
   16.965    5.6556
   16.980    5.7504
   16.995    6.1190
   17.010    6.0032
   17.025    5.8557
   17.040    5.9926
   17.055    5.9821
   17.070    5.9821
   17.085    5.8978
   17.100    6.0769
   17.115    6.1927
   17.130    6.1190
   17.145    6.1927
   17.160    6.0348
   17.175    6.1506
   17.190    6.1190
   17.205    6.1927
   17.220    5.9821
   17.235    5.7820
   17.250    6.2138
   17.265    5.8768
   17.280    6.0874
   17.295    5.7820
   17.310    5.8978
   17.325    6.1190
   17.340    5.9400
   17.355    5.9716
   17.370    6.3296
   17.385    6.4666
   17.400    6.2033
   17.415    5.8241
   17.430    5.4134
   17.445    5.9505
   17.460    6.2033
   17.475    6.0242
   17.490    5.8136
   17.505    5.6977
   17.520    6.1401
   17.535    6.0137
   17.550    6.1085
   17.565    5.9084
   17.580    5.6977
   17.595    6.2770
   17.610    6.0558
   17.625    6.0032
   17.640    6.2138
   17.655    6.2033
   17.670    6.2559
   17.685    6.2875
   17.700    5.7715
   17.715    5.9610
   17.730    5.9926
   17.745    6.1506
   17.760    6.0348
   17.775    5.8873
   17.790    6.2138
   17.805    6.5192
   17.820    6.0242
   17.835    5.9716
   17.850    6.1085
   17.865    5.8768
   17.880    5.7293
   17.895    5.9400
   17.910    6.3191
   17.925    6.0769
   17.940    6.2138
   17.955    6.2138
   17.970    6.2770
   17.985    6.0137
   18.000    6.2349
   18.015    6.1927
   18.030    6.3718
   18.045    6.0558
   18.060    6.3612
   18.075    6.1085
   18.090    5.3502
   18.105    5.8241
   18.120    5.6977
   18.135    5.8136
   18.150    5.9926
   18.165    5.9926
   18.180    5.6345
   18.195    5.6135
   18.210    6.2559
   18.225    6.3507
   18.240    6.3928
   18.255    5.6451
   18.270    5.7925
   18.285    5.7504
   18.300    6.0874
   18.315    6.0453
   18.330    5.6029
   18.345    6.0242
   18.360    6.1822
   18.375    6.4876
   18.390    5.8978
   18.405    5.9926
   18.420    6.1295
   18.435    5.9505
   18.450    5.4766
   18.465    5.8978
   18.480    5.8347
   18.495    5.9821
   18.510    5.9294
   18.525    5.9294
   18.540    6.0453
   18.555    5.7293
   18.570    5.7820
   18.585    5.9189
   18.600    5.4344
   18.615    5.8241
   18.630    5.8662
   18.645    6.1295
   18.660    6.0558
   18.675    6.0769
   18.690    6.0558
   18.705    5.7188
   18.720    6.0242
   18.735    6.2875
   18.750    6.0558
   18.765    6.1085
   18.780    6.0242
   18.795    5.8662
   18.810    5.9716
   18.825    6.2875
   18.840    6.1822
   18.855    6.0453
   18.870    6.4139
   18.885    6.4666
   18.900    6.2243
   18.915    6.4034
   18.930    6.2033
   18.945    6.3191
   18.960    6.3928
   18.975    6.4034
   18.990    6.5824
   19.005    6.4876
   19.020    6.4666
   19.035    6.1822
   19.050    6.1717
   19.065    6.3718
   19.080    6.2033
   19.095    5.9189
   19.110    6.4139
   19.125    6.0874
   19.140    6.0769
   19.155    5.9400
   19.170    6.3086
   19.185    6.0979
   19.200    6.1401
   19.215    5.9400
   19.230    6.1822
   19.245    5.9294
   19.260    5.9926
   19.275    6.1927
   19.290    6.2454
   19.305    5.9610
   19.320    5.8873
   19.335    5.8768
   19.350    6.1717
   19.365    6.1611
   19.380    6.1295
   19.395    6.2770
   19.410    6.4244
   19.425    6.0558
   19.440    6.0137
   19.455    6.0032
   19.470    6.0453
   19.485    5.8978
   19.500    6.1611
   19.515    6.1401
   19.530    6.0874
   19.545    5.8452
   19.560    6.2559
   19.575    6.1190
   19.590    5.8978
   19.605    5.8031
   19.620    6.1295
   19.635    5.9505
   19.650    6.0874
   19.665    6.0874
   19.680    6.0032
   19.695    6.1295
   19.710    5.9084
   19.725    6.2875
   19.740    5.9294
   19.755    5.7399
   19.770    5.9294
   19.785    6.0242
   19.800    6.2665
   19.815    5.9400
   19.830    5.9400
   19.845    6.2981
   19.860    5.7715
   19.875    5.9189
   19.890    6.2454
   19.905    6.1085
   19.920    6.5298
   19.935    6.0874
   19.950    6.0242
   19.965    6.0453
   19.980    5.7083
   19.995    5.9294
   20.010    6.1611
   20.025    6.4771
   20.040    6.1295
   20.055    6.1717
   20.070    5.8662
   20.085    6.1717
   20.100    5.7399
   20.115    6.0769
   20.130    6.2138
   20.145    6.0137
   20.160    6.0348
   20.175    6.0242
   20.190    5.8662
   20.205    6.0453
   20.220    5.7925
   20.235    6.0664
   20.250    6.4666
   20.265    6.3718
   20.280    6.2770
   20.295    6.0979
   20.310    6.5929
   20.325    6.3402
   20.340    6.1822
   20.355    6.2665
   20.370    5.9294
   20.385    6.0242
   20.400    6.0979
   20.415    6.0664
   20.430    6.0874
   20.445    6.5087
   20.460    6.2770
   20.475    6.0979
   20.490    5.9294
   20.505    6.1401
   20.520    6.2349
   20.535    6.0979
   20.550    6.3823
   20.565    6.1401
   20.580    6.3823
   20.595    6.0769
   20.610    6.2033
   20.625    5.9610
   20.640    6.2243
   20.655    6.0769
   20.670    6.2454
   20.685    6.2770
   20.700    6.0979
   20.715    6.0242
   20.730    6.1611
   20.745    6.0242
   20.760    6.1295
   20.775    5.8241
   20.790    5.8662
   20.805    6.1085
   20.820    6.2875
   20.835    6.3823
   20.850    6.1401
   20.865    5.9610
   20.880    6.4455
   20.895    6.4771
   20.910    5.9189
   20.925    6.2770
   20.940    6.0453
   20.955    5.7925
   20.970    6.5403
   20.985    6.3086
   21.000    6.5087
   21.015    6.1611
   21.030    6.2770
   21.045    6.1295
   21.060    6.0242
   21.075    6.2981
   21.090    6.2454
   21.105    6.0453
   21.120    6.0769
   21.135    6.3296
   21.150    6.3296
   21.165    6.3823
   21.180    6.1295
   21.195    5.8662
   21.210    5.9716
   21.225    6.1295
   21.240    6.4244
   21.255    6.2138
   21.270    6.3191
   21.285    6.2559
   21.300    6.2138
   21.315    6.3402
   21.330    6.8246
   21.345    6.2665
   21.360    6.2559
   21.375    6.0348
   21.390    6.3718
   21.405    6.3928
   21.420    6.3296
   21.435    6.4350
   21.450    6.2665
   21.465    5.9294
   21.480    5.9505
   21.495    6.5613
   21.510    6.2665
   21.525    6.2454
   21.540    5.9610
   21.555    6.1822
   21.570    6.2665
   21.585    6.2770
   21.600    5.9821
   21.615    6.0769
   21.630    6.2559
   21.645    6.2770
   21.660    6.1295
   21.675    6.4455
   21.690    6.3296
   21.705    6.7088
   21.720    6.3191
   21.735    6.2349
   21.750    6.0558
   21.765    6.0453
   21.780    6.0874
   21.795    6.4139
   21.810    6.2981
   21.825    6.2138
   21.840    6.1295
   21.855    6.3402
   21.870    6.7088
   21.885    6.5087
   21.900    6.4244
   21.915    6.7615
   21.930    6.7404
   21.945    6.1611
   21.960    6.0558
   21.975    6.5613
   21.990    6.5087
   22.005    6.2454
   22.020    6.4034
   22.035    6.2559
   22.050    6.4771
   22.065    6.6351
   22.080    6.8036
   22.095    6.5508
   22.110    6.0032
   22.125    6.4034
   22.140    6.0874
   22.155    6.2033
   22.170    6.5929
   22.185    6.4244
   22.200    6.3718
   22.215    6.6351
   22.230    6.3086
   22.245    6.4034
   22.260    6.4982
   22.275    6.3718
   22.290    6.2033
   22.305    6.6351
   22.320    6.3612
   22.335    6.6140
   22.350    6.7615
   22.365    6.2033
   22.380    6.0874
   22.395    6.3296
   22.410    6.7930
   22.425    6.2981
   22.440    6.5192
   22.455    6.1401
   22.470    6.3718
   22.485    6.3402
   22.500    6.6035
   22.515    6.7299
   22.530    6.4034
   22.545    6.1927
   22.560    6.1295
   22.575    6.4876
   22.590    6.3507
   22.605    6.3191
   22.620    6.5824
   22.635    6.3507
   22.650    6.6245
   22.665    6.7615
   22.680    6.6877
   22.695    6.4666
   22.710    6.4034
   22.725    6.3612
   22.740    6.2138
   22.755    6.0769
   22.770    5.6661
   22.785    6.0664
   22.800    6.0137
   22.815    6.2875
   22.830    6.4139
   22.845    6.1085
   22.860    6.4244
   22.875    6.5719
   22.890    6.5403
   22.905    6.2981
   22.920    6.5719
   22.935    6.5192
   22.950    6.6140
   22.965    6.3928
   22.980    6.3612
   22.995    6.4982
   23.010    6.7825
   23.025    6.8141
   23.040    6.2770
   23.055    6.1927
   23.070    6.5824
   23.085    6.5087
   23.100    6.2875
   23.115    6.0769
   23.130    6.3928
   23.145    6.2665
   23.160    6.4455
   23.175    6.5087
   23.190    6.4350
   23.205    6.3402
   23.220    6.2770
   23.235    6.2033
   23.250    6.4139
   23.265    6.2981
   23.280    6.5087
   23.295    6.4034
   23.310    6.1190
   23.325    5.7188
   23.340    6.2138
   23.355    6.2665
   23.370    6.5508
   23.385    6.2243
   23.400    6.1611
   23.415    6.2243
   23.430    6.4244
   23.445    6.1611
   23.460    6.4034
   23.475    6.2875
   23.490    6.5192
   23.505    6.3296
   23.520    6.2349
   23.535    6.2033
   23.550    6.2981
   23.565    6.3718
   23.580    6.6035
   23.595    6.1401
   23.610    6.0242
   23.625    6.0769
   23.640    6.3507
   23.655    6.5929
   23.670    6.3718
   23.685    6.4666
   23.700    6.4560
   23.715    6.1927
   23.730    6.3612
   23.745    5.8662
   23.760    6.4455
   23.775    6.2349
   23.790    6.2981
   23.805    6.4034
   23.820    6.2454
   23.835    6.5613
   23.850    6.3296
   23.865    6.2981
   23.880    6.6245
   23.895    6.6140
   23.910    6.2875
   23.925    6.5719
   23.940    6.2349
   23.955    6.0453
   23.970    6.3402
   23.985    6.3086
   24.000    6.3612
   24.015    6.0032
   24.030    6.1085
   24.045    6.4771
   24.060    6.5192
   24.075    5.9821
   24.090    6.2665
   24.105    6.4139
   24.120    6.2559
   24.135    6.0979
   24.150    6.1506
   24.165    6.5087
   24.180    6.2454
   24.195    6.5719
   24.210    6.6561
   24.225    6.7193
   24.240    6.6561
   24.255    6.0137
   24.270    6.3402
   24.285    6.3823
   24.300    6.3507
   24.315    6.1822
   24.330    6.3296
   24.345    6.5719
   24.360    6.2665
   24.375    6.0874
   24.390    5.9505
   24.405    5.9505
   24.420    6.1927
   24.435    6.0874
   24.450    5.6556
   24.465    6.0453
   24.480    6.2033
   24.495    6.1506
   24.510    6.6035
   24.525    6.4139
   24.540    6.1927
   24.555    5.9716
   24.570    5.9084
   24.585    6.0874
   24.600    6.4455
   24.615    6.3402
   24.630    6.6245
   24.645    5.9926
   24.660    6.1401
   24.675    6.6035
   24.690    6.3612
   24.705    6.6667
   24.720    6.2033
   24.735    6.4982
   24.750    6.4034
   24.765    6.0874
   24.780    6.4034
   24.795    6.2770
   24.810    6.1822
   24.825    6.2981
   24.840    6.2559
   24.855    5.9505
   24.870    6.1295
   24.885    6.2243
   24.900    6.2033
   24.915    6.2559
   24.930    6.0874
   24.945    6.0979
   24.960    6.2243
   24.975    6.0979
   24.990    6.2981
   25.005    6.2665
   25.020    6.4350
   25.035    6.3928
   25.050    6.3191
   25.065    5.9400
   25.080    6.0769
   25.095    5.8978
   25.110    6.2243
   25.125    6.4244
   25.140    6.7825
   25.155    6.4560
   25.170    6.3823
   25.185    6.3612
   25.200    6.5613
   25.215    6.3402
   25.230    6.3086
   25.245    6.2033
   25.260    6.0874
   25.275    6.0664
   25.290    6.4982
   25.305    6.1927
   25.320    5.7293
   25.335    6.3191
   25.350    6.2770
   25.365    6.1506
   25.380    6.2875
   25.395    6.2454
   25.410    5.9084
   25.425    6.3507
   25.440    5.8031
   25.455    6.0032
   25.470    6.2559
   25.485    6.3191
   25.500    6.3296
   25.515    6.2981
   25.530    6.4560
   25.545    6.6877
   25.560    6.4876
   25.575    6.3191
   25.590    6.0769
   25.605    6.0032
   25.620    6.4034
   25.635    6.1295
   25.650    5.8662
   25.665    5.8347
   25.680    5.8557
   25.695    5.6451
   25.710    5.8768
   25.725    5.7083
   25.740    6.2138
   25.755    6.4350
   25.770    5.6872
   25.785    6.1506
   25.800    6.1822
   25.815    6.0769
   25.830    5.8768
   25.845    6.1506
   25.860    5.9084
   25.875    6.1190
   25.890    6.0558
   25.905    6.3191
   25.920    6.1717
   25.935    6.3191
   25.950    6.2875
   25.965    5.8136
   25.980    6.1822
   25.995    6.0769
   26.010    6.1401
   26.025    5.8136
   26.040    6.1717
   26.055    6.0664
   26.070    6.0769
   26.085    6.1085
   26.100    6.0874
   26.115    5.9926
   26.130    6.3086
   26.145    6.3612
   26.160    6.0558
   26.175    5.9610
   26.190    6.2770
   26.205    6.2349
   26.220    6.4244
   26.235    5.6767
   26.250    5.5608
   26.265    5.8978
   26.280    5.6451
   26.295    5.8662
   26.310    5.9084
   26.325    5.5924
   26.340    5.8452
   26.355    5.9716
   26.370    6.2875
   26.385    5.7715
   26.400    5.9716
   26.415    6.0874
   26.430    6.0137
   26.445    5.5503
   26.460    5.8768
   26.475    5.8347
   26.490    6.2138
   26.505    6.1717
   26.520    5.8241
   26.535    6.3086
   26.550    6.5192
   26.565    6.1611
   26.580    5.8873
   26.595    6.0979
   26.610    5.9926
   26.625    5.8136
   26.640    5.7609
   26.655    5.6240
   26.670    6.0664
   26.685    5.9610
   26.700    5.7820
   26.715    5.9610
   26.730    6.2770
   26.745    5.9610
   26.760    5.7188
   26.775    5.8768
   26.790    5.8452
   26.805    5.7820
   26.820    6.0769
   26.835    6.3086
   26.850    6.2559
   26.865    5.9400
   26.880    5.9189
   26.895    6.2665
   26.910    6.0032
   26.925    5.8136
   26.940    6.0769
   26.955    6.0137
   26.970    6.1506
   26.985    6.1190
   27.000    6.3507
   27.015    5.9084
   27.030    6.4560
   27.045    6.2033
   27.060    5.8136
   27.075    5.4660
   27.090    5.6345
   27.105    5.8768
   27.120    5.8978
   27.135    6.2033
   27.150    5.9189
   27.165    5.8978
   27.180    6.0979
   27.195    6.0558
   27.210    6.1717
   27.225    6.0348
   27.240    5.9610
   27.255    5.9084
   27.270    5.9189
   27.285    5.8347
   27.300    5.7293
   27.315    5.6872
   27.330    5.7293
   27.345    5.8031
   27.360    5.5292
   27.375    5.6240
   27.390    5.9610
   27.405    6.2138
   27.420    6.2665
   27.435    6.0874
   27.450    5.9400
   27.465    5.6977
   27.480    5.5082
   27.495    5.5924
   27.510    6.4034
   27.525    5.9189
   27.540    5.8136
   27.555    6.1085
   27.570    5.9821
   27.585    6.0032
   27.600    5.8768
   27.615    5.8136
   27.630    5.9821
   27.645    5.8241
   27.660    5.9610
   27.675    5.6556
   27.690    5.9084
   27.705    5.6345
   27.720    5.7504
   27.735    5.8347
   27.750    6.2981
   27.765    6.0032
   27.780    5.6872
   27.795    5.6661
   27.810    5.9189
   27.825    5.9189
   27.840    6.0558
   27.855    6.0874
   27.870    5.6240
   27.885    5.8347
   27.900    5.6661
   27.915    5.9610
   27.930    6.2770
   27.945    6.1295
   27.960    5.8768
   27.975    5.8978
   27.990    5.8662
   28.005    5.7504
   28.020    5.8452
   28.035    5.8452
   28.050    6.0137
   28.065    6.0874
   28.080    5.9189
   28.095    6.0032
   28.110    5.8978
   28.125    5.9821
   28.140    5.8662
   28.155    5.6872
   28.170    5.4555
   28.185    5.8031
   28.200    5.8662
   28.215    5.6240
   28.230    5.6345
   28.245    5.6240
   28.260    5.5398
   28.275    5.3397
   28.290    5.4239
   28.305    5.5819
   28.320    5.5398
   28.335    5.6240
   28.350    5.6345
   28.365    5.7820
   28.380    5.6872
   28.395    5.7293
   28.410    5.2343
   28.425    5.4239
   28.440    5.9189
   28.455    5.9716
   28.470    5.5187
   28.485    5.5292
   28.500    5.9189
   28.515    5.8978
   28.530    5.7399
   28.545    5.6661
   28.560    5.6135
   28.575    5.5924
   28.590    5.7820
   28.605    5.6029
   28.620    5.9610
   28.635    5.4450
   28.650    5.4239
   28.665    5.8662
   28.680    5.5398
   28.695    5.6135
   28.710    5.8452
   28.725    5.8978
   28.740    5.7715
   28.755    5.8557
   28.770    5.8978
   28.785    5.9821
   28.800    5.4134
   28.815    5.6451
   28.830    5.6977
   28.845    5.5187
   28.860    5.5292
   28.875    5.6135
   28.890    5.8978
   28.905    5.8662
   28.920    6.0348
   28.935    6.0979
   28.950    5.6029
   28.965    5.6135
   28.980    5.8347
   28.995    5.9084
   29.010    5.9610
   29.025    6.1506
   29.040    5.7820
   29.055    5.6029
   29.070    5.7083
   29.085    5.4344
   29.100    5.5924
   29.115    5.6767
   29.130    5.6240
   29.145    5.4239
   29.160    5.4028
   29.175    5.8241
   29.190    5.5082
   29.205    5.5608
   29.220    5.7715
   29.235    5.8662
   29.250    6.0137
   29.265    5.6240
   29.280    5.7188
   29.295    5.4028
   29.310    5.1606
   29.325    5.8557
   29.340    5.4871
   29.355    5.3712
   29.370    5.6240
   29.385    5.5608
   29.400    5.8662
   29.415    5.6767
   29.430    5.7188
   29.445    5.3818
   29.460    5.1501
   29.475    5.5398
   29.490    5.6556
   29.505    5.7399
   29.520    5.6451
   29.535    5.4871
   29.550    5.7399
   29.565    5.8662
   29.580    6.0137
   29.595    5.7715
   29.610    5.1606
   29.625    5.3397
   29.640    5.7083
   29.655    5.4239
   29.670    5.7083
   29.685    5.6135
   29.700    5.5398
   29.715    5.4344
   29.730    5.5398
   29.745    5.8452
   29.760    5.6661
   29.775    5.5503
   29.790    5.5608
   29.805    5.4344
   29.820    5.7609
   29.835    5.7083
   29.850    5.3818
   29.865    5.4976
   29.880    5.4344
   29.895    5.4976
   29.910    5.1606
   29.925    5.8136
   29.940    5.5819
   29.955    5.4450
   29.970    5.4766
   29.985    5.4134
   30.000    5.7083
   30.015    5.9610
   30.030    5.2659
   30.045    5.2659
   30.060    5.6029
   30.075    5.3502
   30.090    5.1080
   30.105    5.3081
   30.120    5.3081
   30.135    5.4766
   30.150    5.2765
   30.165    5.4555
   30.180    5.7925
   30.195    5.6240
   30.210    5.4028
   30.225    5.1606
   30.240    5.3712
   30.255    5.1711
   30.270    5.5082
   30.285    5.6556
   30.300    5.2659
   30.315    5.5819
   30.330    5.6661
   30.345    5.7293
   30.360    5.2554
   30.375    5.1922
   30.390    5.2343
   30.405    5.4976
   30.420    5.4239
   30.435    5.5924
   30.450    5.2659
   30.465    5.5398
   30.480    5.4976
   30.495    5.3186
   30.510    5.3397
   30.525    5.5292
   30.540    5.2975
   30.555    5.0974
   30.570    5.3923
   30.585    5.3923
   30.600    5.6345
   30.615    5.3291
   30.630    5.4976
   30.645    5.5714
   30.660    5.5503
   30.675    5.5187
   30.690    5.6240
   30.705    5.5292
   30.720    5.0658
   30.735    5.4871
   30.750    5.5187
   30.765    5.4134
   30.780    5.3712
   30.795    5.8031
   30.810    5.2554
   30.825    5.6977
   30.840    5.4450
   30.855    5.3923
   30.870    5.5082
   30.885    5.2027
   30.900    5.5187
   30.915    5.1711
   30.930    5.4450
   30.945    5.3818
   30.960    5.3291
   30.975    4.7288
   30.990    5.2238
   31.005    5.4134
   31.020    5.4450
   31.035    5.2554
   31.050    5.5292
   31.065    5.1711
   31.080    5.3502
   31.095    5.5714
   31.110    5.3186
   31.125    5.2870
   31.140    5.1711
   31.155    5.1185
   31.170    5.5082
   31.185    5.4239
   31.200    5.4134
   31.215    5.5608
   31.230    5.4239
   31.245    5.1290
   31.260    5.4239
   31.275    5.3923
   31.290    4.9289
   31.305    5.3502
   31.320    5.3397
   31.335    5.2133
   31.350    5.1606
   31.365    5.0869
   31.380    5.3397
   31.395    5.2870
   31.410    5.1606
   31.425    4.9710
   31.440    5.0553
   31.455    5.1395
   31.470    5.5187
   31.485    5.5398
   31.500    5.2027
   31.515    5.1606
   31.530    5.1606
   31.545    5.2343
   31.560    5.5187
   31.575    5.5819
   31.590    5.0132
   31.605    5.0237
   31.620    5.4028
   31.635    5.6135
   31.650    5.4555
   31.665    5.1922
   31.680    4.7183
   31.695    5.5398
   31.710    5.8662
   31.725    5.5924
   31.740    5.2449
   31.755    5.0869
   31.770    5.3397
   31.785    5.3186
   31.800    5.6767
   31.815    5.5292
   31.830    5.2870
   31.845    5.0869
   31.860    4.9710
   31.875    5.7504
   31.890    5.5398
   31.905    5.4976
   31.920    5.3923
   31.935    5.1817
   31.950    5.4134
   31.965    5.6977
   31.980    5.0974
   31.995    5.4239
   32.010    5.4239
   32.025    5.6029
   32.040    5.5292
   32.055    5.7399
   32.070    5.7188
   32.085    6.2349
   32.100    6.3612
   32.115    6.1295
   32.130    5.5924
   32.145    5.5398
   32.160    5.6345
   32.175    5.6029
   32.190    5.4450
   32.205    5.5082
   32.220    5.3291
   32.235    4.9394
   32.250    5.4134
   32.265    5.2027
   32.280    5.1290
   32.295    5.0764
   32.310    5.3607
   32.325    5.5082
   32.340    5.3607
   32.355    5.0237
   32.370    5.3081
   32.385    5.1080
   32.400    5.3502
   32.415    5.3186
   32.430    5.1711
   32.445    4.6972
   32.460    4.8025
   32.475    4.6130
   32.490    5.0132
   32.505    5.1290
   32.520    5.3186
   32.535    5.1290
   32.550    5.4028
   32.565    5.2975
   32.580    5.2765
   32.595    5.3712
   32.610    5.2133
   32.625    5.1395
   32.640    5.0026
   32.655    5.1606
   32.670    5.2343
   32.685    5.1922
   32.700    5.1711
   32.715    5.3081
   32.730    4.8763
   32.745    5.1185
   32.760    5.1185
   32.775    4.9289
   32.790    5.0974
   32.805    4.8341
   32.820    5.0658
   32.835    5.0974
   32.850    5.0764
   32.865    5.1606
   32.880    5.3291
   32.895    5.0026
   32.910    5.1606
   32.925    5.2343
   32.940    5.1711
   32.955    5.0869
   32.970    5.0132
   32.985    4.7709
   33.000    4.9289
   33.015    5.0237
   33.030    4.7604
   33.045    5.1185
   33.060    4.8868
   33.075    5.1185
   33.090    4.9816
   33.105    4.9816
   33.120    5.4871
   33.135    5.3712
   33.150    4.8131
   33.165    4.5708
   33.180    4.6340
   33.195    5.0869
   33.210    5.0132
   33.225    4.8973
   33.240    4.7393
   33.255    5.1922
   33.270    5.0869
   33.285    4.9078
   33.300    4.8973
   33.315    4.8552
   33.330    5.0974
   33.345    4.8341
   33.360    5.0237
   33.375    4.6340
   33.390    4.5498
   33.405    4.7815
   33.420    4.5708
   33.435    4.9921
   33.450    4.8131
   33.465    4.6445
   33.480    4.7709
   33.495    4.9289
   33.510    4.9710
   33.525    5.0026
   33.540    4.9710
   33.555    5.1290
   33.570    4.8973
   33.585    5.1395
   33.600    4.8447
   33.615    4.7815
   33.630    4.9605
   33.645    4.7077
   33.660    4.9184
   33.675    5.2765
   33.690    4.9710
   33.705    4.7709
   33.720    4.8025
   33.735    5.0132
   33.750    4.6761
   33.765    4.6024
   33.780    4.8447
   33.795    5.1185
   33.810    5.2449
   33.825    5.1922
   33.840    5.3397
   33.855    5.2554
   33.870    5.1080
   33.885    5.1606
   33.900    4.8657
   33.915    4.7709
   33.930    5.1185
   33.945    5.1606
   33.960    5.1501
   33.975    5.0869
   33.990    5.0658
   34.005    5.0974
   34.020    5.1185
   34.035    5.0132
   34.050    4.5498
   34.065    4.7604
   34.080    4.6235
   34.095    4.6656
   34.110    4.8236
   34.125    4.9184
   34.140    4.8868
   34.155    4.8763
   34.170    5.1080
   34.185    4.9289
   34.200    4.8763
   34.215    4.8236
   34.230    4.8763
   34.245    4.6551
   34.260    4.8131
   34.275    4.6972
   34.290    4.8025
   34.305    4.6656
   34.320    4.8236
   34.335    4.6551
   34.350    4.7499
   34.365    4.9394
   34.380    5.0658
   34.395    4.8025
   34.410    4.7920
   34.425    5.1501
   34.440    5.2765
   34.455    5.1922
   34.470    4.8657
   34.485    4.6235
   34.500    4.7604
   34.515    5.0448
   34.530    4.6761
   34.545    4.8763
   34.560    4.4655
   34.575    4.9500
   34.590    4.8025
   34.605    4.7815
   34.620    5.0658
   34.635    4.8973
   34.650    4.7920
   34.665    4.7499
   34.680    4.8657
   34.695    5.0342
   34.710    4.8552
   34.725    4.6761
   34.740    4.9289
   34.755    4.6130
   34.770    4.4128
   34.785    4.5182
   34.800    4.6656
   34.815    4.5708
   34.830    4.5603
   34.845    4.7815
   34.860    4.7920
   34.875    4.4023
   34.890    4.7288
   34.905    4.8868
   34.920    4.8552
   34.935    4.3497
   34.950    4.7393
   34.965    4.8973
   34.980    5.0974
   34.995    4.7815
   35.010    4.8025
   35.025    4.6445
   35.040    4.6340
   35.055    4.4866
   35.070    5.0132
   35.085    4.7393
   35.100    4.9605
   35.115    4.8552
   35.130    4.8868
   35.145    4.5814
   35.160    4.2549
   35.175    4.6761
   35.190    4.7288
   35.205    4.4655
   35.220    4.3813
   35.235    5.0342
   35.250    4.7604
   35.265    4.8657
   35.280    4.7183
   35.295    4.6761
   35.310    4.9184
   35.325    5.0342
   35.340    4.6340
   35.355    4.8763
   35.370    4.7393
   35.385    4.6235
   35.400    4.9078
   35.415    4.7077
   35.430    4.7815
   35.445    4.7920
   35.460    4.5814
   35.475    4.6761
   35.490    4.5076
   35.505    4.5076
   35.520    4.5287
   35.535    4.3286
   35.550    4.6130
   35.565    4.7288
   35.580    4.6867
   35.595    4.6656
   35.610    4.6761
   35.625    4.9078
   35.640    4.6656
   35.655    4.6972
   35.670    4.7183
   35.685    4.5919
   35.700    4.4444
   35.715    4.6024
   35.730    4.3813
   35.745    4.4655
   35.760    4.5603
   35.775    4.3497
   35.790    4.5498
   35.805    4.7815
   35.820    4.6340
   35.835    4.7183
   35.850    4.9078
   35.865    4.7920
   35.880    4.6024
   35.895    4.6340
   35.910    4.8025
   35.925    4.8131
   35.940    4.7604
   35.955    4.6235
   35.970    4.6551
   35.985    4.4444
   36.000    4.2970
   36.015    4.5708
   36.030    4.5076
   36.045    4.7183
   36.060    4.6972
   36.075    4.4234
   36.090    4.4128
   36.105    4.2654
   36.120    4.3918
   36.135    4.6445
   36.150    5.0553
   36.165    4.6551
   36.180    4.4550
   36.195    4.6656
   36.210    4.4655
   36.225    4.5287
   36.240    4.6551
   36.255    4.4655
   36.270    4.7288
   36.285    4.4866
   36.300    4.5919
   36.315    4.5076
   36.330    4.6235
   36.345    4.4655
   36.360    4.3813
   36.375    4.3286
   36.390    4.5498
   36.405    4.9078
   36.420    4.5498
   36.435    4.1601
   36.450    4.8868
   36.465    4.5076
   36.480    4.4971
   36.495    4.5814
   36.510    4.5708
   36.525    4.8552
   36.540    4.5392
   36.555    4.5603
   36.570    4.6445
   36.585    4.4760
   36.600    4.8552
   36.615    4.9710
   36.630    4.5919
   36.645    4.5708
   36.660    4.2338
   36.675    4.2338
   36.690    4.1601
   36.705    4.4128
   36.720    4.8868
   36.735    4.3391
   36.750    4.2127
   36.765    4.7499
   36.780    4.6551
   36.795    4.5603
   36.810    4.4866
   36.825    4.5814
   36.840    4.7288
   36.855    4.5708
   36.870    4.2865
   36.885    4.6867
   36.900    4.5287
   36.915    4.5919
   36.930    4.7815
   36.945    4.3497
   36.960    4.3286
   36.975    4.4866
   36.990    4.7393
   37.005    4.6551
   37.020    4.5603
   37.035    4.4023
   37.050    4.3918
   37.065    4.5603
   37.080    4.3181
   37.095    4.5182
   37.110    4.6235
   37.125    4.2338
   37.140    4.3813
   37.155    4.5708
   37.170    4.6235
   37.185    4.5498
   37.200    4.6235
   37.215    4.6024
   37.230    4.2759
   37.245    4.3286
   37.260    4.4760
   37.275    4.6235
   37.290    4.2549
   37.305    4.4866
   37.320    4.5287
   37.335    4.4444
   37.350    4.4760
   37.365    4.5603
   37.380    4.4128
   37.395    4.8341
   37.410    4.6340
   37.425    4.3497
   37.440    4.5287
   37.455    4.6551
   37.470    4.4971
   37.485    4.3707
   37.500    4.4023
   37.515    4.4234
   37.530    4.4866
   37.545    4.3391
   37.560    4.4760
   37.575    4.3813
   37.590    4.5392
   37.605    4.4023
   37.620    4.3707
   37.635    4.2970
   37.650    4.0442
   37.665    4.4550
   37.680    4.6130
   37.695    4.8025
   37.710    4.5498
   37.725    4.3497
   37.740    4.5287
   37.755    4.5287
   37.770    4.3075
   37.785    4.3813
   37.800    4.7077
   37.815    4.6656
   37.830    4.5287
   37.845    4.4550
   37.860    4.4234
   37.875    4.4550
   37.890    4.6656
   37.905    4.4444
   37.920    4.4550
   37.935    4.5182
   37.950    4.6656
   37.965    4.4760
   37.980    4.4655
   37.995    4.6656
   38.010    4.6340
   38.025    4.4866
   38.040    4.6340
   38.055    4.5603
   38.070    4.3602
   38.085    4.3075
   38.100    4.1601
   38.115    4.2233
   38.130    4.7709
   38.145    4.5076
   38.160    4.1917
   38.175    4.3075
   38.190    4.4866
   38.205    4.4971
   38.220    4.5814
   38.235    4.6445
   38.250    4.5392
   38.265    4.6130
   38.280    4.6761
   38.295    4.8341
   38.310    4.4444
   38.325    4.7920
   38.340    4.6024
   38.355    4.6445
   38.370    4.3497
   38.385    4.0969
   38.400    4.6445
   38.415    4.6340
   38.430    4.6445
   38.445    4.2233
   38.460    4.3075
   38.475    4.7288
   38.490    4.7815
   38.505    4.3602
   38.520    4.7815
   38.535    4.3391
   38.550    4.2865
   38.565    4.4023
   38.580    4.5182
   38.595    4.6656
   38.610    4.5814
   38.625    4.4760
   38.640    5.0553
   38.655    4.7920
   38.670    4.4866
   38.685    4.5919
   38.700    4.4023
   38.715    4.2127
   38.730    4.3075
   38.745    4.2233
   38.760    4.4760
   38.775    4.5392
   38.790    4.4339
   38.805    4.3286
   38.820    4.3075
   38.835    4.5919
   38.850    5.0132
   38.865    4.6130
   38.880    4.4339
   38.895    4.5919
   38.910    4.7393
   38.925    4.5076
   38.940    4.5076
   38.955    4.6972
   38.970    4.4655
   38.985    4.7077
   39.000    5.0764
   39.015    4.8868
   39.030    4.6130
   39.045    4.6656
   39.060    4.6024
   39.075    4.6235
   39.090    4.6867
   39.105    5.0026
   39.120    4.9816
   39.135    4.9605
   39.150    4.4760
   39.165    4.2338
   39.180    4.4550
   39.195    4.6445
   39.210    4.8025
   39.225    4.7393
   39.240    4.8341
   39.255    4.8025
   39.270    4.7288
   39.285    4.6235
   39.300    4.7815
   39.315    4.7709
   39.330    4.4866
   39.345    4.6551
   39.360    4.5392
   39.375    4.7393
   39.390    4.7604
   39.405    4.5814
   39.420    4.6551
   39.435    4.7183
   39.450    4.7393
   39.465    4.5814
   39.480    4.7604
   39.495    4.3602
   39.510    4.6972
   39.525    4.7709
   39.540    4.1706
   39.555    4.3286
   39.570    4.4128
   39.585    4.6235
   39.600    4.8025
   39.615    4.8341
   39.630    4.6761
   39.645    4.7709
   39.660    4.1496
   39.675    4.3497
   39.690    4.3813
   39.705    4.5603
   39.720    4.3391
   39.735    4.3918
   39.750    4.2233
   39.765    4.5287
   39.780    4.4866
   39.795    4.5392
   39.810    4.4866
   39.825    4.6024
   39.840    4.4550
   39.855    4.3918
   39.870    4.4760
   39.885    4.3918
   39.900    4.3707
   39.915    4.9605
   39.930    4.6340
   39.945    4.3707
   39.960    4.3707
   39.975    4.3918
   39.990    4.6656
