    1.500   26.9194
    1.515   27.3407
    1.530   26.5087
    1.545   25.0026
    1.560   24.5392
    1.575   23.8968
    1.590   23.0542
    1.605   21.9800
    1.620   21.7588
    1.635   21.3060
    1.650   20.6424
    1.665   20.3897
    1.680   19.5155
    1.695   19.3365
    1.710   18.9784
    1.725   18.1675
    1.740   18.4097
    1.755   17.5566
    1.770   17.5882
    1.785   17.1143
    1.800   16.6825
    1.815   16.4402
    1.830   15.3555
    1.845   15.7873
    1.860   15.7451
    1.875   14.9342
    1.890   14.3549
    1.905   14.2391
    1.920   13.6282
    1.935   13.5756
    1.950   13.5440
    1.965   14.0495
    1.980   13.1227
    1.995   12.5434
    2.010   12.1222
    2.025   12.3749
    2.040   12.3117
    2.055   11.9326
    2.070   12.0063
    2.085   11.7114
    2.100   11.5324
    2.115   11.3849
    2.130   10.9637
    2.145   11.0058
    2.160   10.8478
    2.175   11.3639
    2.190   10.3633
    2.205    9.7736
    2.220   10.0369
    2.235   10.5845
    2.250    9.7736
    2.265    9.7209
    2.280    9.6577
    2.295    9.5945
    2.310    9.2891
    2.325    9.6051
    2.340    9.1627
    2.355    9.7209
    2.370    8.7625
    2.385    9.0679
    2.400    8.8468
    2.415    9.2259
    2.430    9.1311
    2.445    8.9731
    2.460    8.8573
    2.475    8.3728
    2.490    8.8152
    2.505    8.3834
    2.520    8.4466
    2.535    8.4781
    2.550    8.5835
    2.565    8.1517
    2.580    8.1411
    2.595    8.2149
    2.610    8.2675
    2.625    7.9621
    2.640    7.6777
    2.655    7.6777
    2.670    7.6672
    2.685    7.8884
    2.700    8.0253
    2.715    7.9305
    2.730    7.2249
    2.745    7.5724
    2.760    7.7830
    2.775    7.3196
    2.790    7.4987
    2.805    7.4882
    2.820    7.2880
    2.835    7.3934
    2.850    7.4987
    2.865    7.6777
    2.880    7.3091
    2.895    6.8668
    2.910    7.1617
    2.925    7.3512
    2.940    6.8668
    2.955    7.2670
    2.970    7.1090
    2.985    7.3512
    3.000    7.4460
    3.015    6.7088
    3.030    7.2038
    3.045    7.1617
    3.060    6.9721
    3.075    7.0037
    3.090    6.9194
    3.105    7.3091
    3.120    7.1195
    3.135    7.0774
    3.150    6.9089
    3.165    6.7299
    3.180    6.4350
    3.195    6.7930
    3.210    7.0985
    3.225    6.6983
    3.240    6.9300
    3.255    6.8036
    3.270    6.8352
    3.285    6.9300
    3.300    6.5298
    3.315    6.6035
    3.330    6.5403
    3.345    6.7509
    3.360    6.8773
    3.375    6.4771
    3.390    6.7825
    3.405    6.2454
    3.420    7.0142
    3.435    6.8773
    3.450    6.8141
    3.465    6.5929
    3.480    6.6772
    3.495    6.7615
    3.510    6.8878
    3.525    6.8457
    3.540    6.6772
    3.555    6.7404
    3.570    6.5403
    3.585    6.7299
    3.600    6.6456
    3.615    6.7299
    3.630    6.8984
    3.645    6.5929
    3.660    6.2559
    3.675    6.5192
    3.690    6.6140
    3.705    6.8246
    3.720    6.8141
    3.735    7.1511
    3.750    6.9194
    3.765    7.0669
    3.780    7.0248
    3.795    6.5508
    3.810    7.1406
    3.825    7.5197
    3.840    7.3934
    3.855    7.4250
    3.870    7.6988
    3.885    7.1195
    3.900    7.4566
    3.915    6.9616
    3.930    6.8562
    3.945    6.9089
    3.960    6.8246
    3.975    6.7509
    3.990    6.2243
    4.005    6.3718
    4.020    5.9610
    4.035    6.1506
    4.050    6.2665
    4.065    6.3402
    4.080    6.5719
    4.095    6.4666
    4.110    6.3191
    4.125    6.0664
    4.140    6.1611
    4.155    6.4982
    4.170    6.3086
    4.185    6.2033
    4.200    6.1401
    4.215    5.7820
    4.230    6.0664
    4.245    6.0874
    4.260    5.9505
    4.275    6.4876
    4.290    6.5298
    4.305    6.5298
    4.320    6.4876
    4.335    6.2875
    4.350    6.2033
    4.365    6.3402
    4.380    6.1927
    4.395    6.1295
    4.410    6.2033
    4.425    6.2559
    4.440    6.3402
    4.455    6.3928
    4.470    6.2033
    4.485    6.0664
    4.500    6.0137
    4.515    6.0242
    4.530    6.0558
    4.545    6.1611
    4.560    6.2243
    4.575    5.7925
    4.590    5.8873
    4.605    5.9926
    4.620    6.0137
    4.635    6.2770
    4.650    6.0348
    4.665    6.0453
    4.680    6.6140
    4.695    6.1717
    4.710    5.9926
    4.725    5.8978
    4.740    6.2770
    4.755    6.2349
    4.770    5.9610
    4.785    5.9294
    4.800    6.1717
    4.815    6.0664
    4.830    6.1822
    4.845    6.1717
    4.860    5.9926
    4.875    6.2454
    4.890    6.2033
    4.905    6.1822
    4.920    6.2454
    4.935    6.0874
    4.950    6.2559
    4.965    5.9821
    4.980    5.6977
    4.995    5.8136
    5.010    6.0664
    5.025    5.9505
    5.040    6.0032
    5.055    5.8452
    5.070    6.3086
    5.085    6.2770
    5.100    6.1611
    5.115    6.1190
    5.130    5.9821
    5.145    5.6556
    5.160    5.9400
    5.175    5.8136
    5.190    5.8768
    5.205    6.3402
    5.220    6.4455
    5.235    6.1717
    5.250    6.1295
    5.265    5.7609
    5.280    6.1295
    5.295    5.8347
    5.310    5.5714
    5.325    5.6240
    5.340    5.7399
    5.355    6.0979
    5.370    5.9716
    5.385    5.7609
    5.400    5.9189
    5.415    6.0032
    5.430    5.9821
    5.445    6.1295
    5.460    5.8768
    5.475    5.9716
    5.490    5.8662
    5.505    5.9294
    5.520    5.7399
    5.535    5.8768
    5.550    5.5398
    5.565    6.0453
    5.580    5.8136
    5.595    6.0242
    5.610    5.8768
    5.625    6.0453
    5.640    5.8768
    5.655    5.7715
    5.670    5.7609
    5.685    6.0664
    5.700    6.0453
    5.715    5.9821
    5.730    5.7715
    5.745    5.6451
    5.760    6.0453
    5.775    6.2981
    5.790    6.2138
    5.805    5.6661
    5.820    5.7715
    5.835    5.5608
    5.850    6.1085
    5.865    5.6661
    5.880    6.0453
    5.895    6.1295
    5.910    5.7188
    5.925    5.6345
    5.940    6.2243
    5.955    6.1611
    5.970    6.1190
    5.985    5.6451
    6.000    6.2243
    6.015    6.1611
    6.030    6.3296
    6.045    5.7715
    6.060    6.0558
    6.075    5.6661
    6.090    6.0242
    6.105    6.2033
    6.120    6.0874
    6.135    5.7083
    6.150    6.0769
    6.165    6.0769
    6.180    5.9610
    6.195    5.9610
    6.210    6.1190
    6.225    6.1401
    6.240    6.1295
    6.255    5.7293
    6.270    5.9926
    6.285    5.8241
    6.300    5.9400
    6.315    6.0874
    6.330    5.7715
    6.345    5.5187
    6.360    5.8662
    6.375    6.3402
    6.390    6.3086
    6.405    5.9716
    6.420    6.0874
    6.435    5.8557
    6.450    6.1085
    6.465    5.9084
    6.480    6.1190
    6.495    5.9610
    6.510    6.0664
    6.525    6.2770
    6.540    5.9084
    6.555    5.9716
    6.570    6.2033
    6.585    6.0137
    6.600    6.2981
    6.615    6.3086
    6.630    6.2770
    6.645    6.3402
    6.660    6.3402
    6.675    5.8662
    6.690    6.3296
    6.705    6.5824
    6.720    6.7404
    6.735    6.2665
    6.750    7.0774
    6.765    6.7193
    6.780    6.4771
    6.795    6.0874
    6.810    6.0979
    6.825    6.3086
    6.840    6.1295
    6.855    6.1085
    6.870    6.0979
    6.885    6.1506
    6.900    6.1085
    6.915    6.0979
    6.930    5.9821
    6.945    6.1506
    6.960    5.9294
    6.975    6.0032
    6.990    5.9400
    7.005    6.2559
    7.020    6.3507
    7.035    5.9926
    7.050    5.9821
    7.065    5.6661
    7.080    6.1401
    7.095    5.9400
    7.110    5.9610
    7.125    6.0979
    7.140    5.9084
    7.155    6.5192
    7.170    6.2875
    7.185    6.3612
    7.200    5.6767
    7.215    6.0769
    7.230    6.0558
    7.245    5.9189
    7.260    5.8452
    7.275    5.7399
    7.290    6.2559
    7.305    6.2454
    7.320    6.1717
    7.335    6.1927
    7.350    6.2559
    7.365    5.6977
    7.380    6.0664
    7.395    6.3086
    7.410    6.3191
    7.425    5.9084
    7.440    5.9926
    7.455    5.8978
    7.470    5.9189
    7.485    6.0453
    7.500    6.4455
    7.515    6.0137
    7.530    6.0769
    7.545    5.7188
    7.560    6.2033
    7.575    6.0032
    7.590    6.0032
    7.605    6.1085
    7.620    6.0979
    7.635    5.8978
    7.650    5.9505
    7.665    6.1085
    7.680    6.3612
    7.695    6.5824
    7.710    6.4455
    7.725    6.2138
    7.740    6.5613
    7.755    6.3718
    7.770    6.3928
    7.785    6.6667
    7.800    6.4982
    7.815    6.1611
    7.830    6.1190
    7.845    6.2138
    7.860    6.1822
    7.875    6.3928
    7.890    6.1506
    7.905    6.1611
    7.920    6.4139
    7.935    6.1822
    7.950    6.4771
    7.965    6.1190
    7.980    6.5087
    7.995    6.1927
    8.010    6.4034
    8.025    6.4244
    8.040    6.2243
    8.055    6.2033
    8.070    6.0874
    8.085    6.3296
    8.100    5.8978
    8.115    6.0558
    8.130    6.1717
    8.145    5.9400
    8.160    6.0032
    8.175    6.0558
    8.190    5.9821
    8.205    6.6456
    8.220    6.2243
    8.235    6.2454
    8.250    6.2559
    8.265    6.2559
    8.280    6.5508
    8.295    6.3402
    8.310    6.6351
    8.325    6.6245
    8.340    6.3612
    8.355    6.1822
    8.370    6.4560
    8.385    6.3718
    8.400    6.1506
    8.415    6.2454
    8.430    6.0242
    8.445    6.2033
    8.460    6.1822
    8.475    6.3718
    8.490    6.4350
    8.505    6.0242
    8.520    6.5508
    8.535    6.9932
    8.550    6.3823
    8.565    5.9505
    8.580    6.7615
    8.595    6.1927
    8.610    6.1190
    8.625    6.6035
    8.640    6.4455
    8.655    6.3191
    8.670    6.8352
    8.685    6.3191
    8.700    6.5087
    8.715    6.7404
    8.730    6.7825
    8.745    6.2349
    8.760    6.2559
    8.775    6.2875
    8.790    6.3402
    8.805    6.2665
    8.820    6.5298
    8.835    6.6561
    8.850    6.4982
    8.865    6.2349
    8.880    6.6140
    8.895    6.4034
    8.910    6.5613
    8.925    6.2349
    8.940    6.0874
    8.955    6.4244
    8.970    6.3191
    8.985    5.9821
    9.000    6.5192
    9.015    6.5824
    9.030    6.1611
    9.045    6.2349
    9.060    6.4244
    9.075    6.2138
    9.090    6.8457
    9.105    6.7299
    9.120    6.8562
    9.135    6.3402
    9.150    6.6245
    9.165    6.2981
    9.180    6.4455
    9.195    6.6140
    9.210    6.3718
    9.225    6.7509
    9.240    6.5192
    9.255    6.4244
    9.270    6.6456
    9.285    6.4666
    9.300    6.2243
    9.315    6.6035
    9.330    6.4034
    9.345    6.6667
    9.360    6.4139
    9.375    6.5719
    9.390    6.5824
    9.405    6.5719
    9.420    6.6456
    9.435    7.0037
    9.450    6.9300
    9.465    6.6140
    9.480    6.8352
    9.495    6.4876
    9.510    7.1827
    9.525    7.1617
    9.540    6.9300
    9.555    6.6772
    9.570    6.3718
    9.585    7.2459
    9.600    6.8141
    9.615    7.0458
    9.630    7.0669
    9.645    7.0563
    9.660    6.7509
    9.675    6.5192
    9.690    6.5508
    9.705    6.4139
    9.720    6.9616
    9.735    6.6245
    9.750    6.9721
    9.765    7.0774
    9.780    6.7404
    9.795    6.4560
    9.810    6.3612
    9.825    6.4455
    9.840    6.7299
    9.855    6.7930
    9.870    6.6877
    9.885    6.5508
    9.900    6.7615
    9.915    6.4139
    9.930    6.7404
    9.945    6.8878
    9.960    6.8562
    9.975    6.6877
    9.990    6.9194
   10.005    6.8246
   10.020    6.7720
   10.035    6.4455
   10.050    7.1722
   10.065    6.7720
   10.080    6.6035
   10.095    6.5192
   10.110    6.4982
   10.125    6.4350
   10.140    6.4982
   10.155    6.5403
   10.170    6.5508
   10.185    6.6245
   10.200    6.7720
   10.215    7.0458
   10.230    7.0563
   10.245    6.9089
   10.260    7.0248
   10.275    7.0458
   10.290    6.7193
   10.305    6.7088
   10.320    6.9616
   10.335    7.2354
   10.350    6.8562
   10.365    6.6667
   10.380    6.6772
   10.395    6.8352
   10.410    6.7930
   10.425    6.3612
   10.440    6.5824
   10.455    6.7720
   10.470    6.7615
   10.485    7.0353
   10.500    6.6561
   10.515    6.4034
   10.530    6.6351
   10.545    6.7404
   10.560    6.2981
   10.575    6.7720
   10.590    6.7088
   10.605    6.6351
   10.620    6.3612
   10.635    6.1295
   10.650    6.2138
   10.665    6.2665
   10.680    6.2243
   10.695    6.3612
   10.710    6.3718
   10.725    6.3612
   10.740    6.5087
   10.755    6.4876
   10.770    6.3191
   10.785    6.4034
   10.800    6.2349
   10.815    6.1822
   10.830    6.4034
   10.845    6.1822
   10.860    6.6877
   10.875    6.4560
   10.890    6.3718
   10.905    6.5087
   10.920    6.3507
   10.935    5.9821
   10.950    6.4244
   10.965    6.5824
   10.980    6.6772
   10.995    6.6983
   11.010    6.6456
   11.025    6.7193
   11.040    6.4455
   11.055    6.3928
   11.070    5.9716
   11.085    6.5087
   11.100    6.1506
   11.115    6.4244
   11.130    6.1927
   11.145    6.0242
   11.160    6.3296
   11.175    6.2454
   11.190    6.1822
   11.205    6.0664
   11.220    5.8557
   11.235    6.2770
   11.250    6.2138
   11.265    6.1085
   11.280    6.0664
   11.295    6.3086
   11.310    6.3191
   11.325    6.3928
   11.340    6.2349
   11.355    6.4350
   11.370    6.1822
   11.385    6.2875
   11.400    5.9926
   11.415    6.2243
   11.430    5.9821
   11.445    6.2138
   11.460    5.8873
   11.475    6.0664
   11.490    6.3296
   11.505    5.9610
   11.520    6.0032
   11.535    5.9610
   11.550    6.4034
   11.565    5.8662
   11.580    6.6035
   11.595    6.3823
   11.610    6.1190
   11.625    6.0558
   11.640    6.3086
   11.655    6.4034
   11.670    6.0664
   11.685    6.2138
   11.700    6.4034
   11.715    6.3296
   11.730    6.0242
   11.745    6.1295
   11.760    6.0769
   11.775    5.7925
   11.790    5.9505
   11.805    5.9189
   11.820    6.0032
   11.835    6.0874
   11.850    5.9821
   11.865    6.0558
   11.880    5.7820
   11.895    6.0664
   11.910    5.9716
   11.925    5.6451
   11.940    6.2770
   11.955    6.1717
   11.970    5.8347
   11.985    5.8662
   12.000    5.8768
   12.015    6.0032
   12.030    6.0032
   12.045    5.6240
   12.060    5.8768
   12.075    5.9610
   12.090    5.5608
   12.105    5.6345
   12.120    5.6135
   12.135    6.1927
   12.150    5.5608
   12.165    5.6661
   12.180    5.7399
   12.195    5.6240
   12.210    6.0348
   12.225    6.0137
   12.240    5.6872
   12.255    5.7399
   12.270    6.0558
   12.285    5.7504
   12.300    5.7609
   12.315    5.7293
   12.330    5.7715
   12.345    5.7715
   12.360    5.4344
   12.375    5.7609
   12.390    5.6451
   12.405    5.7609
   12.420    5.8031
   12.435    5.6977
   12.450    5.9716
   12.465    6.1822
   12.480    5.6661
   12.495    5.6977
   12.510    5.9189
   12.525    5.7609
   12.540    5.9926
   12.555    6.0242
   12.570    5.6556
   12.585    5.8241
   12.600    5.8136
   12.615    5.9189
   12.630    5.7715
   12.645    5.7504
   12.660    6.0032
   12.675    5.7925
   12.690    5.6240
   12.705    5.5608
   12.720    5.7188
   12.735    5.5187
   12.750    6.0137
   12.765    5.9084
   12.780    5.4660
   12.795    5.7715
   12.810    5.6451
   12.825    5.7293
   12.840    5.7399
   12.855    5.9084
   12.870    6.2033
   12.885    5.5187
   12.900    5.4239
   12.915    5.8241
   12.930    5.9189
   12.945    5.6977
   12.960    5.7715
   12.975    5.4766
   12.990    5.9294
   13.005    5.7609
   13.020    5.8241
   13.035    5.7609
   13.050    5.5924
   13.065    5.6451
   13.080    5.5503
   13.095    5.7820
   13.110    5.6977
   13.125    5.4871
   13.140    5.5924
   13.155    5.4871
   13.170    5.6977
   13.185    5.5819
   13.200    5.8557
   13.215    5.7609
   13.230    5.7504
   13.245    5.6135
   13.260    5.5503
   13.275    5.3186
   13.290    5.3712
   13.305    5.2554
   13.320    5.3818
   13.335    5.3607
   13.350    5.4766
   13.365    5.4028
   13.380    5.4871
   13.395    5.6451
   13.410    5.3397
   13.425    5.5714
   13.440    5.5187
   13.455    5.6135
   13.470    5.5503
   13.485    5.4660
   13.500    5.6240
   13.515    5.8031
   13.530    5.7188
   13.545    5.7083
   13.560    5.5608
   13.575    5.8347
   13.590    5.9821
   13.605    5.9505
   13.620    5.7399
   13.635    5.4134
   13.650    5.4976
   13.665    5.3397
   13.680    5.2554
   13.695    5.4134
   13.710    5.5714
   13.725    6.0453
   13.740    5.7504
   13.755    5.6240
   13.770    5.4871
   13.785    5.4871
   13.800    5.8557
   13.815    5.2765
   13.830    5.6556
   13.845    5.7715
   13.860    5.7399
   13.875    5.9821
   13.890    5.5503
   13.905    5.4766
   13.920    5.6451
   13.935    5.5924
   13.950    5.5608
   13.965    5.6135
   13.980    5.3291
   13.995    5.3081
   14.010    5.6029
   14.025    5.4976
   14.040    5.9189
   14.055    5.7504
   14.070    5.4028
   14.085    5.6977
   14.100    5.6135
   14.115    5.8557
   14.130    6.1401
   14.145    5.7399
   14.160    5.6977
   14.175    5.7399
   14.190    5.1290
   14.205    5.1080
   14.220    5.5924
   14.235    5.8768
   14.250    5.6451
   14.265    5.4239
   14.280    5.3397
   14.295    5.2133
   14.310    5.8136
   14.325    5.3502
   14.340    5.6977
   14.355    5.7715
   14.370    5.8662
   14.385    5.3818
   14.400    5.5503
   14.415    5.4344
   14.430    5.4976
   14.445    5.4028
   14.460    5.6135
   14.475    5.6556
   14.490    5.4766
   14.505    5.6451
   14.520    6.0137
   14.535    5.6240
   14.550    5.6240
   14.565    5.3712
   14.580    5.4450
   14.595    5.5292
   14.610    5.4660
   14.625    5.6345
   14.640    5.3607
   14.655    5.4450
   14.670    5.6345
   14.685    5.8241
   14.700    5.3397
   14.715    5.8662
   14.730    5.5924
   14.745    5.4766
   14.760    5.8136
   14.775    5.8978
   14.790    5.8662
   14.805    5.9294
   14.820    5.4871
   14.835    5.6661
   14.850    5.8136
   14.865    5.6977
   14.880    5.7188
   14.895    5.8347
   14.910    5.3291
   14.925    5.1711
   14.940    5.5503
   14.955    5.7504
   14.970    5.6135
   14.985    5.8136
   15.000    5.8768
   15.015    5.5398
   15.030    5.8241
   15.045    5.5924
   15.060    5.7820
   15.075    5.6135
   15.090    5.4660
   15.105    5.7083
   15.120    5.6872
   15.135    5.3081
   15.150    5.4660
   15.165    5.4344
   15.180    5.4766
   15.195    5.5292
   15.210    5.4450
   15.225    5.3397
   15.240    5.6029
   15.255    5.6872
   15.270    5.2765
   15.285    5.6977
   15.300    5.4134
   15.315    5.3923
   15.330    5.4871
   15.345    5.4555
   15.360    5.9084
   15.375    5.9505
   15.390    5.6767
   15.405    5.6451
   15.420    5.6661
   15.435    5.5714
   15.450    5.5924
   15.465    5.2449
   15.480    5.0342
   15.495    5.8873
   15.510    5.3502
   15.525    5.4871
   15.540    5.6977
   15.555    5.8978
   15.570    5.5503
   15.585    6.0137
   15.600    5.7399
   15.615    5.6451
   15.630    5.3081
   15.645    5.3923
   15.660    5.3923
   15.675    5.6977
   15.690    5.6029
   15.705    5.7399
   15.720    5.4871
   15.735    5.5292
   15.750    5.6240
   15.765    5.4976
   15.780    5.7715
   15.795    5.5924
   15.810    5.6135
   15.825    5.8557
   15.840    5.8662
   15.855    5.4976
   15.870    5.7504
   15.885    5.8768
   15.900    5.5082
   15.915    5.4134
   15.930    5.7609
   15.945    5.6240
   15.960    5.6977
   15.975    5.6029
   15.990    5.3923
   16.005    5.1711
   16.020    5.4976
   16.035    5.5082
   16.050    5.5714
   16.065    5.8873
   16.080    5.7083
   16.095    5.3081
   16.110    5.1185
   16.125    5.6661
   16.140    5.8347
   16.155    5.9821
   16.170    5.5714
   16.185    5.7820
   16.200    5.7820
   16.215    5.4555
   16.230    5.6661
   16.245    5.5819
   16.260    5.6872
   16.275    5.5924
   16.290    5.5082
   16.305    5.3397
   16.320    5.3607
   16.335    5.5187
   16.350    5.7083
   16.365    5.8241
   16.380    5.8662
   16.395    6.1822
   16.410    6.0242
   16.425    5.8662
   16.440    5.8873
   16.455    5.4871
   16.470    5.9084
   16.485    5.5924
   16.500    5.6556
   16.515    5.6767
   16.530    5.8136
   16.545    5.7188
   16.560    5.4239
   16.575    5.8873
   16.590    5.8241
   16.605    5.6240
   16.620    5.5714
   16.635    5.8662
   16.650    5.5503
   16.665    5.8768
   16.680    5.6661
   16.695    5.6556
   16.710    5.8557
   16.725    5.8557
   16.740    5.4660
   16.755    6.1295
   16.770    6.1717
   16.785    5.8241
   16.800    5.8662
   16.815    5.4239
   16.830    5.7715
   16.845    5.8978
   16.860    5.6872
   16.875    5.7399
   16.890    5.2554
   16.905    5.4555
   16.920    5.6977
   16.935    5.7925
   16.950    5.8768
   16.965    5.5924
   16.980    5.6556
   16.995    5.8347
   17.010    5.7925
   17.025    5.5292
   17.040    5.5398
   17.055    6.0242
   17.070    5.8136
   17.085    5.7925
   17.100    5.8978
   17.115    5.6556
   17.130    5.8978
   17.145    5.8241
   17.160    5.5292
   17.175    5.5082
   17.190    5.7504
   17.205    5.8452
   17.220    5.9400
   17.235    5.9294
   17.250    5.5187
   17.265    5.6029
   17.280    5.4134
   17.295    5.6240
   17.310    5.6029
   17.325    5.7083
   17.340    5.7609
   17.355    5.9505
   17.370    5.7820
   17.385    5.4028
   17.400    5.6556
   17.415    6.2349
   17.430    5.7925
   17.445    5.5398
   17.460    5.7609
   17.475    5.8662
   17.490    6.0032
   17.505    5.6240
   17.520    5.6872
   17.535    5.8031
   17.550    5.9821
   17.565    5.6661
   17.580    5.5819
   17.595    6.0453
   17.610    5.8241
   17.625    5.5714
   17.640    5.6240
   17.655    5.2870
   17.670    5.8347
   17.685    5.3923
   17.700    5.2343
   17.715    5.3923
   17.730    5.5819
   17.745    6.0137
   17.760    5.7925
   17.775    5.6451
   17.790    5.7715
   17.805    5.6556
   17.820    5.7188
   17.835    5.6029
   17.850    5.7820
   17.865    5.7293
   17.880    5.8241
   17.895    5.6556
   17.910    5.6661
   17.925    5.9084
   17.940    5.7504
   17.955    5.7820
   17.970    5.6135
   17.985    5.6240
   18.000    5.8241
   18.015    5.6345
   18.030    5.7715
   18.045    5.6872
   18.060    5.8978
   18.075    5.8557
   18.090    5.6135
   18.105    5.8978
   18.120    5.6872
   18.135    5.7715
   18.150    5.6977
   18.165    5.4660
   18.180    5.4239
   18.195    5.7715
   18.210    6.0032
   18.225    6.0137
   18.240    5.7504
   18.255    5.4660
   18.270    5.5608
   18.285    5.9400
   18.300    5.9716
   18.315    5.9716
   18.330    5.7399
   18.345    5.6345
   18.360    5.7715
   18.375    5.4766
   18.390    5.7188
   18.405    6.1295
   18.420    5.6977
   18.435    5.8873
   18.450    5.9926
   18.465    5.8241
   18.480    5.5082
   18.495    5.5924
   18.510    6.1611
   18.525    5.9294
   18.540    5.7083
   18.555    5.6767
   18.570    5.7715
   18.585    5.9084
   18.600    5.9189
   18.615    5.6135
   18.630    5.4766
   18.645    5.3712
   18.660    5.8241
   18.675    5.8031
   18.690    5.2765
   18.705    5.7188
   18.720    5.9189
   18.735    6.3086
   18.750    5.7925
   18.765    5.7083
   18.780    5.7083
   18.795    5.9294
   18.810    5.8031
   18.825    5.6661
   18.840    5.9926
   18.855    6.3296
   18.870    6.2243
   18.885    6.3086
   18.900    6.2349
   18.915    6.3402
   18.930    6.0558
   18.945    6.1611
   18.960    6.6877
   18.975    6.4034
   18.990    6.4771
   19.005    6.3191
   19.020    6.1085
   19.035    6.0558
   19.050    6.1401
   19.065    6.2454
   19.080    5.8452
   19.095    5.8031
   19.110    5.8347
   19.125    6.0453
   19.140    5.8768
   19.155    6.0032
   19.170    6.0137
   19.185    5.8978
   19.200    5.6451
   19.215    5.7188
   19.230    5.9821
   19.245    5.7083
   19.260    5.9821
   19.275    5.7820
   19.290    5.7820
   19.305    5.6977
   19.320    5.6029
   19.335    5.9505
   19.350    5.9821
   19.365    5.6872
   19.380    5.3186
   19.395    5.9505
   19.410    5.8452
   19.425    5.5187
   19.440    5.9400
   19.455    5.8873
   19.470    6.3402
   19.485    6.0769
   19.500    6.0242
   19.515    5.7504
   19.530    5.6767
   19.545    5.9084
   19.560    5.9294
   19.575    5.7188
   19.590    6.0348
   19.605    6.1190
   19.620    5.9084
   19.635    6.1401
   19.650    5.9821
   19.665    5.8873
   19.680    5.8136
   19.695    5.5187
   19.710    5.8136
   19.725    6.0348
   19.740    6.1506
   19.755    6.0769
   19.770    5.8768
   19.785    5.5608
   19.800    5.8873
   19.815    5.8452
   19.830    5.8031
   19.845    5.8557
   19.860    5.9505
   19.875    5.8557
   19.890    5.7083
   19.905    5.4976
   19.920    5.6556
   19.935    5.8662
   19.950    5.6977
   19.965    5.7609
   19.980    5.8873
   19.995    5.9400
   20.010    5.9400
   20.025    5.9400
   20.040    6.1190
   20.055    5.7820
   20.070    5.7399
   20.085    5.7609
   20.100    5.7609
   20.115    6.1506
   20.130    5.8978
   20.145    6.0979
   20.160    6.1295
   20.175    5.8557
   20.190    6.0242
   20.205    5.9716
   20.220    5.8662
   20.235    5.7293
   20.250    5.7609
   20.265    6.1190
   20.280    5.8662
   20.295    5.7715
   20.310    5.8662
   20.325    5.9610
   20.340    6.2559
   20.355    5.8557
   20.370    5.8873
   20.385    6.4876
   20.400    6.0137
   20.415    6.2033
   20.430    6.1190
   20.445    6.4034
   20.460    6.1611
   20.475    5.9400
   20.490    5.9084
   20.505    6.4244
   20.520    6.1295
   20.535    6.0874
   20.550    6.0664
   20.565    5.9821
   20.580    5.9926
   20.595    5.6977
   20.610    5.9821
   20.625    6.6140
   20.640    5.8347
   20.655    5.6872
   20.670    5.8452
   20.685    5.5292
   20.700    6.2349
   20.715    6.3086
   20.730    5.9716
   20.745    6.0137
   20.760    6.4034
   20.775    5.7504
   20.790    5.9400
   20.805    6.0979
   20.820    5.8241
   20.835    6.1927
   20.850    6.4455
   20.865    5.7188
   20.880    5.7504
   20.895    5.9610
   20.910    5.7609
   20.925    6.2981
   20.940    5.9400
   20.955    5.8347
   20.970    6.0242
   20.985    6.4139
   21.000    6.0979
   21.015    6.3191
   21.030    6.6877
   21.045    6.0664
   21.060    6.1927
   21.075    6.1717
   21.090    5.7820
   21.105    6.1611
   21.120    6.2875
   21.135    6.2138
   21.150    6.0348
   21.165    6.1085
   21.180    6.2665
   21.195    6.1295
   21.210    6.1295
   21.225    5.7820
   21.240    5.8136
   21.255    6.2454
   21.270    6.5508
   21.285    6.0769
   21.300    5.9189
   21.315    5.9084
   21.330    5.8241
   21.345    5.9926
   21.360    5.8136
   21.375    5.6767
   21.390    6.0348
   21.405    6.1717
   21.420    6.4139
   21.435    6.2454
   21.450    5.8978
   21.465    5.9505
   21.480    6.1611
   21.495    5.9716
   21.510    6.0874
   21.525    6.0558
   21.540    6.1927
   21.555    5.7504
   21.570    6.3928
   21.585    5.8452
   21.600    5.8136
   21.615    5.9505
   21.630    6.1085
   21.645    6.1190
   21.660    6.0348
   21.675    6.1190
   21.690    6.3402
   21.705    5.8873
   21.720    5.8768
   21.735    6.3718
   21.750    6.2665
   21.765    6.2033
   21.780    6.0032
   21.795    6.2875
   21.810    6.3507
   21.825    6.1822
   21.840    5.9400
   21.855    6.2033
   21.870    6.4350
   21.885    6.3296
   21.900    6.4350
   21.915    5.7820
   21.930    5.8557
   21.945    5.9084
   21.960    6.1611
   21.975    5.9084
   21.990    6.0979
   22.005    6.3191
   22.020    6.0874
   22.035    6.3823
   22.050    6.1190
   22.065    6.2665
   22.080    6.4560
   22.095    6.0453
   22.110    5.8031
   22.125    6.0979
   22.140    6.1401
   22.155    6.1190
   22.170    6.5087
   22.185    6.0664
   22.200    5.9400
   22.215    6.1611
   22.230    6.4666
   22.245    6.3612
   22.260    6.4666
   22.275    6.4982
   22.290    6.2665
   22.305    6.4771
   22.320    6.4244
   22.335    6.5087
   22.350    6.1401
   22.365    5.9505
   22.380    6.2875
   22.395    5.9505
   22.410    6.1401
   22.425    6.3612
   22.440    6.2981
   22.455    6.2454
   22.470    6.2243
   22.485    6.3823
   22.500    6.6456
   22.515    6.2875
   22.530    6.6035
   22.545    6.6772
   22.560    6.5613
   22.575    6.6667
   22.590    6.7930
   22.605    6.8036
   22.620    6.3823
   22.635    6.4876
   22.650    6.4876
   22.665    6.6140
   22.680    6.1085
   22.695    6.2138
   22.710    6.2349
   22.725    6.4139
   22.740    6.2981
   22.755    6.0979
   22.770    6.3191
   22.785    6.2349
   22.800    6.2454
   22.815    6.3507
   22.830    6.4034
   22.845    6.3507
   22.860    6.1401
   22.875    6.2770
   22.890    6.1927
   22.905    6.6035
   22.920    6.1401
   22.935    6.3402
   22.950    6.1822
   22.965    6.5087
   22.980    6.2875
   22.995    6.4244
   23.010    6.1506
   23.025    5.9294
   23.040    6.0664
   23.055    6.1085
   23.070    6.1506
   23.085    6.7404
   23.100    6.5298
   23.115    6.4982
   23.130    6.8352
   23.145    6.5719
   23.160    6.4666
   23.175    6.0769
   23.190    6.3507
   23.205    6.2665
   23.220    6.2243
   23.235    6.6456
   23.250    6.1611
   23.265    5.7715
   23.280    6.1295
   23.295    6.4139
   23.310    6.0769
   23.325    6.0558
   23.340    6.3718
   23.355    6.4034
   23.370    6.0453
   23.385    5.9189
   23.400    6.0664
   23.415    6.0979
   23.430    6.0769
   23.445    6.5403
   23.460    6.6245
   23.475    6.6245
   23.490    6.0874
   23.505    6.1401
   23.520    6.2559
   23.535    5.9716
   23.550    5.9926
   23.565    6.1717
   23.580    6.0979
   23.595    6.3612
   23.610    5.6029
   23.625    5.9084
   23.640    6.6140
   23.655    6.1717
   23.670    6.4350
   23.685    6.2033
   23.700    6.5508
   23.715    6.0664
   23.730    6.0874
   23.745    6.1295
   23.760    5.9716
   23.775    6.3612
   23.790    6.2243
   23.805    6.4350
   23.820    6.1401
   23.835    5.8662
   23.850    5.8873
   23.865    5.8978
   23.880    6.2770
   23.895    6.4455
   23.910    6.4244
   23.925    6.2138
   23.940    6.1085
   23.955    5.8662
   23.970    6.0348
   23.985    6.7825
   24.000    6.2875
   24.015    6.2981
   24.030    6.2875
   24.045    6.2770
   24.060    5.6556
   24.075    5.9716
   24.090    5.9610
   24.105    6.0348
   24.120    6.0453
   24.135    6.2138
   24.150    6.0137
   24.165    6.0979
   24.180    6.1822
   24.195    6.2981
   24.210    6.1295
   24.225    6.2770
   24.240    6.2875
   24.255    6.4034
   24.270    5.7609
   24.285    5.7609
   24.300    5.7609
   24.315    6.0348
   24.330    5.9294
   24.345    5.8557
   24.360    5.9926
   24.375    6.2770
   24.390    6.1506
   24.405    5.5714
   24.420    5.9610
   24.435    6.2875
   24.450    5.8136
   24.465    5.6451
   24.480    6.0558
   24.495    5.9189
   24.510    5.8347
   24.525    5.7399
   24.540    5.7820
   24.555    5.7715
   24.570    5.8978
   24.585    6.2033
   24.600    6.0664
   24.615    6.0979
   24.630    5.6135
   24.645    6.2138
   24.660    5.7925
   24.675    5.9610
   24.690    5.7715
   24.705    6.2665
   24.720    5.9716
   24.735    6.2770
   24.750    6.0453
   24.765    6.0664
   24.780    6.2243
   24.795    5.8873
   24.810    5.8873
   24.825    6.0874
   24.840    5.6661
   24.855    5.7399
   24.870    6.0242
   24.885    6.2033
   24.900    5.9926
   24.915    5.7188
   24.930    6.2033
   24.945    6.3296
   24.960    5.8452
   24.975    5.9610
   24.990    6.0032
   25.005    5.9926
   25.020    5.9926
   25.035    5.8031
   25.050    5.5398
   25.065    5.8031
   25.080    5.8347
   25.095    5.7399
   25.110    5.8031
   25.125    5.6977
   25.140    5.6661
   25.155    5.8978
   25.170    5.8452
   25.185    5.7504
   25.200    5.9084
   25.215    6.1190
   25.230    5.9189
   25.245    6.1295
   25.260    5.7399
   25.275    5.7399
   25.290    5.8031
   25.305    5.6977
   25.320    5.9294
   25.335    5.7820
   25.350    5.7715
   25.365    5.9294
   25.380    5.9189
   25.395    5.8873
   25.410    5.9821
   25.425    5.5503
   25.440    5.9084
   25.455    6.0769
   25.470    6.0874
   25.485    5.6977
   25.500    5.9610
   25.515    6.0558
   25.530    6.1190
   25.545    5.7820
   25.560    5.9821
   25.575    5.7504
   25.590    5.4450
   25.605    5.8662
   25.620    5.8347
   25.635    5.7820
   25.650    5.6767
   25.665    5.5292
   25.680    5.8873
   25.695    6.0558
   25.710    6.5508
   25.725    6.0348
   25.740    5.9189
   25.755    6.1506
   25.770    5.6977
   25.785    5.6451
   25.800    5.6556
   25.815    5.8347
   25.830    6.2770
   25.845    6.2243
   25.860    5.9716
   25.875    5.8241
   25.890    6.0979
   25.905    5.8241
   25.920    5.9821
   25.935    6.0558
   25.950    5.8031
   25.965    5.9926
   25.980    5.8136
   25.995    5.9084
   26.010    5.7504
   26.025    5.6767
   26.040    5.7293
   26.055    5.4976
   26.070    5.7399
   26.085    5.4660
   26.100    5.6345
   26.115    5.6345
   26.130    5.8557
   26.145    6.0032
   26.160    5.8768
   26.175    5.4976
   26.190    5.5503
   26.205    5.7504
   26.220    6.0242
   26.235    5.3607
   26.250    5.6451
   26.265    5.5819
   26.280    5.8241
   26.295    5.9716
   26.310    5.8768
   26.325    5.9926
   26.340    5.5714
   26.355    5.8136
   26.370    5.7715
   26.385    6.0664
   26.400    5.6451
   26.415    5.8136
   26.430    5.8031
   26.445    5.6661
   26.460    5.9189
   26.475    6.1295
   26.490    5.9716
   26.505    5.7399
   26.520    5.6872
   26.535    5.8031
   26.550    5.8873
   26.565    5.8768
   26.580    5.6977
   26.595    5.8662
   26.610    5.6977
   26.625    5.5924
   26.640    5.3291
   26.655    5.5082
   26.670    5.6451
   26.685    5.4871
   26.700    5.8452
   26.715    5.8557
   26.730    5.5819
   26.745    5.7715
   26.760    5.6135
   26.775    5.7293
   26.790    5.9610
   26.805    5.6977
   26.820    5.6661
   26.835    5.6977
   26.850    5.7293
   26.865    5.5082
   26.880    5.7399
   26.895    5.8136
   26.910    5.3081
   26.925    5.4555
   26.940    5.6661
   26.955    5.4871
   26.970    5.4450
   26.985    5.7504
   27.000    5.4766
   27.015    5.9294
   27.030    5.8557
   27.045    5.5714
   27.060    5.7820
   27.075    5.5398
   27.090    5.6029
   27.105    5.4134
   27.120    5.2343
   27.135    5.4344
   27.150    5.4555
   27.165    5.3923
   27.180    5.4871
   27.195    5.7820
   27.210    5.5082
   27.225    5.2870
   27.240    5.5082
   27.255    5.3397
   27.270    5.5819
   27.285    5.8452
   27.300    5.6977
   27.315    5.5082
   27.330    5.2133
   27.345    5.6767
   27.360    5.5503
   27.375    5.8873
   27.390    6.0032
   27.405    5.4660
   27.420    5.6872
   27.435    6.0769
   27.450    5.8452
   27.465    5.3607
   27.480    5.5187
   27.495    5.7083
   27.510    5.4344
   27.525    5.3502
   27.540    5.6029
   27.555    5.5924
   27.570    5.3291
   27.585    5.2975
   27.600    5.8557
   27.615    5.7083
   27.630    5.5292
   27.645    5.2343
   27.660    5.8978
   27.675    5.5398
   27.690    5.4871
   27.705    5.5608
   27.720    5.4450
   27.735    5.5398
   27.750    5.2870
   27.765    5.4239
   27.780    5.3818
   27.795    5.2554
   27.810    5.2343
   27.825    5.5924
   27.840    5.6240
   27.855    5.5503
   27.870    5.5714
   27.885    6.2770
   27.900    5.6135
   27.915    5.3923
   27.930    5.5292
   27.945    5.6345
   27.960    5.6029
   27.975    5.6977
   27.990    5.8136
   28.005    5.9716
   28.020    5.8557
   28.035    5.3186
   28.050    5.4344
   28.065    5.5924
   28.080    5.6451
   28.095    5.6977
   28.110    5.2133
   28.125    5.3923
   28.140    5.8347
   28.155    5.1711
   28.170    5.6135
   28.185    5.4976
   28.200    5.6977
   28.215    5.3923
   28.230    5.6556
   28.245    5.4239
   28.260    5.0237
   28.275    5.2659
   28.290    5.5503
   28.305    5.8768
   28.320    5.2765
   28.335    5.1501
   28.350    5.5608
   28.365    5.3818
   28.380    5.0448
   28.395    5.2238
   28.410    5.5292
   28.425    5.6661
   28.440    5.4134
   28.455    5.3291
   28.470    5.3397
   28.485    5.6029
   28.500    5.4871
   28.515    5.6029
   28.530    5.4134
   28.545    5.3291
   28.560    5.5187
   28.575    5.6240
   28.590    5.3186
   28.605    5.1290
   28.620    5.2133
   28.635    5.6977
   28.650    5.0974
   28.665    5.0869
   28.680    5.4450
   28.695    4.8657
   28.710    4.9500
   28.725    4.9500
   28.740    5.6345
   28.755    5.2659
   28.770    5.1290
   28.785    5.2554
   28.800    5.4450
   28.815    5.3607
   28.830    5.3923
   28.845    5.6240
   28.860    5.2870
   28.875    5.4660
   28.890    5.4028
   28.905    5.4239
   28.920    5.3397
   28.935    5.1290
   28.950    5.3081
   28.965    5.4134
   28.980    5.4766
   28.995    5.4134
   29.010    5.4344
   29.025    5.4239
   29.040    5.6135
   29.055    5.3186
   29.070    5.3081
   29.085    5.4555
   29.100    5.3502
   29.115    4.9605
   29.130    5.3923
   29.145    4.9394
   29.160    5.1185
   29.175    4.9500
   29.190    5.4766
   29.205    5.1606
   29.220    4.9816
   29.235    5.3818
   29.250    5.2133
   29.265    5.3923
   29.280    5.1817
   29.295    5.6345
   29.310    5.4766
   29.325    5.4871
   29.340    5.3923
   29.355    5.2343
   29.370    5.4028
   29.385    5.2765
   29.400    5.2554
   29.415    5.2238
   29.430    5.3712
   29.445    5.2449
   29.460    5.3081
   29.475    5.3923
   29.490    5.1395
   29.505    5.3607
   29.520    5.3712
   29.535    5.2449
   29.550    5.4976
   29.565    5.0132
   29.580    5.1395
   29.595    5.1185
   29.610    5.2975
   29.625    5.0764
   29.640    5.1290
   29.655    5.0869
   29.670    5.3291
   29.685    5.3923
   29.700    5.3818
   29.715    5.2554
   29.730    5.3923
   29.745    5.1922
   29.760    5.4344
   29.775    5.1922
   29.790    5.1501
   29.805    5.5187
   29.820    5.3186
   29.835    5.2238
   29.850    5.1711
   29.865    5.2238
   29.880    5.1606
   29.895    5.0764
   29.910    5.2765
   29.925    4.9816
   29.940    5.2238
   29.955    5.2765
   29.970    4.8341
   29.985    5.0974
   30.000    5.0448
   30.015    5.2027
   30.030    4.9816
   30.045    5.0342
   30.060    4.9816
   30.075    5.2449
   30.090    5.0448
   30.105    5.1080
   30.120    4.8447
   30.135    5.4028
   30.150    4.9710
   30.165    5.2449
   30.180    4.9394
   30.195    4.9394
   30.210    5.2133
   30.225    5.2554
   30.240    5.1922
   30.255    5.0237
   30.270    5.0764
   30.285    5.5608
   30.300    5.1395
   30.315    4.9921
   30.330    4.8025
   30.345    4.8763
   30.360    5.0869
   30.375    4.8131
   30.390    5.0448
   30.405    4.9816
   30.420    5.0764
   30.435    4.9816
   30.450    5.0342
   30.465    5.1711
   30.480    4.9605
   30.495    5.1290
   30.510    5.0026
   30.525    5.0764
   30.540    4.9921
   30.555    5.0342
   30.570    4.9184
   30.585    4.8447
   30.600    4.9184
   30.615    4.7077
   30.630    5.1711
   30.645    4.9184
   30.660    5.1606
   30.675    4.9921
   30.690    4.7815
   30.705    5.0764
   30.720    5.1606
   30.735    4.9921
   30.750    4.9710
   30.765    4.9710
   30.780    4.8868
   30.795    4.9605
   30.810    4.9289
   30.825    4.9394
   30.840    5.0132
   30.855    4.9710
   30.870    5.0658
   30.885    5.2343
   30.900    4.9289
   30.915    5.0553
   30.930    5.0448
   30.945    4.8763
   30.960    5.0869
   30.975    5.3186
   30.990    4.5814
   31.005    4.8973
   31.020    5.0553
   31.035    5.2343
   31.050    5.0448
   31.065    5.0342
   31.080    4.8552
   31.095    4.5919
   31.110    4.7077
   31.125    4.8131
   31.140    4.8868
   31.155    4.8341
   31.170    4.7709
   31.185    4.7815
   31.200    4.8447
   31.215    4.7920
   31.230    4.7077
   31.245    5.0448
   31.260    4.7183
   31.275    5.0974
   31.290    4.9816
   31.305    4.7499
   31.320    4.9816
   31.335    5.1395
   31.350    4.8236
   31.365    4.8657
   31.380    4.6656
   31.395    4.7288
   31.410    5.0237
   31.425    5.1080
   31.440    4.8657
   31.455    5.0026
   31.470    4.9394
   31.485    4.6340
   31.500    4.6551
   31.515    5.1395
   31.530    5.0132
   31.545    4.6551
   31.560    4.6130
   31.575    5.1711
   31.590    5.1185
   31.605    4.7499
   31.620    4.8763
   31.635    4.9289
   31.650    4.8447
   31.665    4.7393
   31.680    4.6235
   31.695    4.8341
   31.710    4.8763
   31.725    4.7393
   31.740    5.0553
   31.755    4.9289
   31.770    4.9605
   31.785    4.9710
   31.800    4.7183
   31.815    5.0132
   31.830    5.1606
   31.845    5.1185
   31.860    5.1711
   31.875    5.4660
   31.890    5.0764
   31.905    4.9289
   31.920    4.5919
   31.935    4.7393
   31.950    4.7077
   31.965    4.6551
   31.980    4.8973
   31.995    5.0658
   32.010    5.1185
   32.025    5.0974
   32.040    4.8868
   32.055    5.5924
   32.070    5.6872
   32.085    5.4134
   32.100    5.3607
   32.115    4.9816
   32.130    5.1080
   32.145    4.9078
   32.160    4.8341
   32.175    5.2449
   32.190    5.2554
   32.205    4.8341
   32.220    4.5814
   32.235    5.0764
   32.250    4.8341
   32.265    4.8447
   32.280    4.6235
   32.295    4.7077
   32.310    4.6972
   32.325    4.3602
   32.340    4.5814
   32.355    4.5919
   32.370    4.4339
   32.385    4.4655
   32.400    4.3918
   32.415    4.7393
   32.430    4.6867
   32.445    4.7393
   32.460    4.7499
   32.475    4.6551
   32.490    4.7393
   32.505    4.7920
   32.520    4.6130
   32.535    4.6235
   32.550    4.8763
   32.565    4.9500
   32.580    4.6972
   32.595    4.6130
   32.610    4.6130
   32.625    4.7393
   32.640    4.4866
   32.655    4.4234
   32.670    4.6761
   32.685    4.9184
   32.700    4.6972
   32.715    4.6445
   32.730    4.6340
   32.745    4.8236
   32.760    4.8341
   32.775    4.6551
   32.790    4.6656
   32.805    4.6340
   32.820    4.7288
   32.835    4.5814
   32.850    4.4866
   32.865    4.4866
   32.880    4.6235
   32.895    4.8236
   32.910    4.4971
   32.925    4.3918
   32.940    4.3707
   32.955    4.8763
   32.970    4.5919
   32.985    4.9816
   33.000    4.8131
   33.015    4.6130
   33.030    4.7393
   33.045    4.6340
   33.060    4.6445
   33.075    4.8236
   33.090    4.6551
   33.105    4.4760
   33.120    4.5182
   33.135    4.2759
   33.150    4.3497
   33.165    4.4655
   33.180    4.4128
   33.195    4.6130
   33.210    4.8341
   33.225    4.7709
   33.240    4.7393
   33.255    4.6656
   33.270    4.5392
   33.285    4.4023
   33.300    4.7288
   33.315    4.3286
   33.330    4.5076
   33.345    4.4971
   33.360    4.4760
   33.375    4.5182
   33.390    4.5182
   33.405    4.4234
   33.420    4.5708
   33.435    4.4023
   33.450    4.4339
   33.465    4.3918
   33.480    4.5182
   33.495    4.3391
   33.510    4.2970
   33.525    4.5498
   33.540    4.6656
   33.555    4.4655
   33.570    4.2443
   33.585    4.6551
   33.600    4.6761
   33.615    4.3497
   33.630    4.4760
   33.645    4.5392
   33.660    4.3918
   33.675    4.3391
   33.690    4.2759
   33.705    4.7815
   33.720    4.6551
   33.735    4.6972
   33.750    4.9605
   33.765    4.6867
   33.780    4.7604
   33.795    5.0026
   33.810    4.9921
   33.825    4.7288
   33.840    4.7604
   33.855    4.9921
   33.870    4.9500
   33.885    5.0237
   33.900    4.2443
   33.915    4.3075
   33.930    4.7920
   33.945    4.8025
   33.960    4.4866
   33.975    4.9289
   33.990    4.4023
   34.005    4.6024
   34.020    4.3602
   34.035    4.5287
   34.050    4.4023
   34.065    4.4339
   34.080    4.7183
   34.095    4.3602
   34.110    4.2022
   34.125    4.3286
   34.140    4.3497
   34.155    4.1706
   34.170    4.2338
   34.185    4.1811
   34.200    4.5182
   34.215    4.5392
   34.230    4.5392
   34.245    4.4023
   34.260    4.0969
   34.275    4.2338
   34.290    4.4550
   34.305    4.4760
   34.320    4.4234
   34.335    4.6024
   34.350    4.3075
   34.365    4.2549
   34.380    4.5182
   34.395    4.5287
   34.410    4.3497
   34.425    4.1917
   34.440    4.4760
   34.455    4.6656
   34.470    4.3497
   34.485    4.1706
   34.500    4.1496
   34.515    4.1285
   34.530    4.4023
   34.545    4.2654
   34.560    4.6656
   34.575    4.4866
   34.590    4.3391
   34.605    4.4655
   34.620    4.4655
   34.635    4.1601
   34.650    4.1811
   34.665    4.4444
   34.680    4.4760
   34.695    4.2022
   34.710    4.4128
   34.725    4.5708
   34.740    4.4339
   34.755    4.5392
   34.770    4.4760
   34.785    4.2443
   34.800    4.0653
   34.815    4.1706
   34.830    4.1180
   34.845    4.1811
   34.860    4.0126
   34.875    4.1706
   34.890    4.3075
   34.905    4.6445
   34.920    4.5708
   34.935    4.3391
   34.950    4.0969
   34.965    4.1390
   34.980    3.9810
   34.995    4.3707
   35.010    4.5392
   35.025    4.6972
   35.040    4.4444
   35.055    4.2549
   35.070    4.1917
   35.085    3.9600
   35.100    4.1390
   35.115    4.3497
   35.130    4.4023
   35.145    4.0442
   35.160    4.2759
   35.175    4.3918
   35.190    4.6235
   35.205    4.2233
   35.220    4.1074
   35.235    4.3497
   35.250    4.4234
   35.265    4.2759
   35.280    4.4234
   35.295    4.2654
   35.310    4.4866
   35.325    4.2022
   35.340    4.4234
   35.355    4.4234
   35.370    4.3813
   35.385    4.2022
   35.400    4.2022
   35.415    4.2233
   35.430    4.2654
   35.445    4.4971
   35.460    4.0548
   35.475    4.6024
   35.490    4.3391
   35.505    4.0969
   35.520    4.4128
   35.535    4.3918
   35.550    4.3391
   35.565    4.3918
   35.580    4.6867
   35.595    4.1706
   35.610    4.4655
   35.625    4.3813
   35.640    4.3497
   35.655    4.2127
   35.670    4.1706
   35.685    3.8652
   35.700    4.0232
   35.715    3.9494
   35.730    4.2338
   35.745    4.3602
   35.760    4.3813
   35.775    4.5814
   35.790    4.2970
   35.805    4.1706
   35.820    4.2549
   35.835    4.1285
   35.850    4.0548
   35.865    4.2127
   35.880    4.3286
   35.895    4.3707
   35.910    4.4550
   35.925    4.2022
   35.940    4.4550
   35.955    4.4023
   35.970    4.2338
   35.985    4.1917
   36.000    4.3497
   36.015    4.2233
   36.030    4.2338
   36.045    3.8968
   36.060    4.0232
   36.075    4.2443
   36.090    4.0021
   36.105    4.0758
   36.120    4.2654
   36.135    4.3391
   36.150    4.1706
   36.165    3.8863
   36.180    4.1390
   36.195    4.2127
   36.210    4.3181
   36.225    4.2338
   36.240    3.8441
   36.255    4.2654
   36.270    4.5392
   36.285    4.2127
   36.300    4.3813
   36.315    4.2865
   36.330    4.4339
   36.345    3.9705
   36.360    4.3075
   36.375    4.1601
   36.390    4.1180
   36.405    4.4760
   36.420    4.3391
   36.435    4.0548
   36.450    4.1074
   36.465    4.0337
   36.480    4.1706
   36.495    4.1074
   36.510    4.5182
   36.525    4.1285
   36.540    4.0864
   36.555    3.9705
   36.570    4.2127
   36.585    4.6024
   36.600    4.2970
   36.615    4.5287
   36.630    4.2127
   36.645    4.1390
   36.660    4.3813
   36.675    4.3391
   36.690    4.2759
   36.705    4.1601
   36.720    3.9494
   36.735    4.3497
   36.750    4.3391
   36.765    4.0758
   36.780    4.0337
   36.795    3.9810
   36.810    4.0442
   36.825    4.0337
   36.840    4.2338
   36.855    4.0969
   36.870    4.2022
   36.885    4.2443
   36.900    4.0653
   36.915    4.2022
   36.930    4.1601
   36.945    4.4444
   36.960    4.1074
   36.975    4.3602
   36.990    4.3286
   37.005    4.4023
   37.020    4.4655
   37.035    4.1811
   37.050    4.2865
   37.065    3.9810
   37.080    4.1601
   37.095    4.3286
   37.110    4.2654
   37.125    4.4444
   37.140    4.4444
   37.155    4.0864
   37.170    3.8020
   37.185    3.8336
   37.200    3.9810
   37.215    3.8863
   37.230    3.8652
   37.245    4.2443
   37.260    4.2443
   37.275    3.8757
   37.290    3.5914
   37.305    3.9389
   37.320    4.2022
   37.335    4.4339
   37.350    4.3707
   37.365    4.1811
   37.380    4.0232
   37.395    4.3181
   37.410    4.2549
   37.425    4.0021
   37.440    4.0337
   37.455    3.9810
   37.470    3.9705
   37.485    4.2970
   37.500    4.0232
   37.515    4.1390
   37.530    4.1917
   37.545    4.1601
   37.560    3.7809
   37.575    4.1811
   37.590    4.0021
   37.605    3.9810
   37.620    3.7915
   37.635    4.1917
   37.650    3.9600
   37.665    3.8547
   37.680    4.1074
   37.695    3.8441
   37.710    3.7493
   37.725    4.1917
   37.740    4.1601
   37.755    4.4866
   37.770    4.4655
   37.785    4.3602
   37.800    4.3707
   37.815    4.3707
   37.830    4.3181
   37.845    3.9916
   37.860    4.1706
   37.875    4.1601
   37.890    3.8547
   37.905    4.2549
   37.920    4.1601
   37.935    3.9916
   37.950    4.1601
   37.965    4.3075
   37.980    4.1601
   37.995    4.1496
   38.010    4.1390
   38.025    4.0232
   38.040    4.1180
   38.055    4.1811
   38.070    3.8020
   38.085    4.0969
   38.100    4.2759
   38.115    3.9916
   38.130    3.8757
   38.145    4.0126
   38.160    4.2338
   38.175    3.9916
   38.190    3.8441
   38.205    4.1601
   38.220    4.2443
   38.235    4.2022
   38.250    4.2759
   38.265    4.2865
   38.280    4.2970
   38.295    4.4339
   38.310    3.8652
   38.325    4.1390
   38.340    4.0126
   38.355    4.1390
   38.370    4.3075
   38.385    4.1601
   38.400    4.6024
   38.415    4.1811
   38.430    3.9179
   38.445    3.9916
   38.460    4.0126
   38.475    3.8757
   38.490    4.0232
   38.505    4.0864
   38.520    4.2970
   38.535    4.0758
   38.550    3.7388
   38.565    3.8125
   38.580    4.3075
   38.595    4.2022
   38.610    4.1706
   38.625    4.2865
   38.640    3.9073
   38.655    4.2338
   38.670    4.2443
   38.685    4.0548
   38.700    3.9389
   38.715    3.9389
   38.730    3.9073
   38.745    3.9916
   38.760    4.0126
   38.775    4.2443
   38.790    3.7493
   38.805    3.9073
   38.820    3.8652
   38.835    4.0337
   38.850    4.2549
   38.865    4.4023
   38.880    4.0126
   38.895    3.7599
   38.910    3.7599
   38.925    4.2127
   38.940    3.9810
   38.955    3.9705
   38.970    4.0337
   38.985    4.0021
   39.000    3.9284
   39.015    4.1390
   39.030    4.0969
   39.045    3.9389
   39.060    4.0021
   39.075    4.0969
   39.090    4.0232
   39.105    3.8757
   39.120    3.9600
   39.135    3.9179
   39.150    4.0126
   39.165    3.9179
   39.180    3.9073
   39.195    4.0548
   39.210    3.8652
   39.225    4.3497
   39.240    4.2338
   39.255    4.3286
   39.270    3.9073
   39.285    3.8757
   39.300    4.2233
   39.315    4.0653
   39.330    3.8231
   39.345    4.0969
   39.360    3.9916
   39.375    4.0548
   39.390    4.1180
   39.405    4.1180
   39.420    4.1285
   39.435    4.1601
   39.450    3.7704
   39.465    3.9179
   39.480    3.8863
   39.495    3.6756
   39.510    3.7493
   39.525    3.8968
   39.540    3.7915
   39.555    3.7493
   39.570    3.7704
   39.585    3.6124
   39.600    3.8968
   39.615    4.1074
   39.630    4.1811
   39.645    3.8231
   39.660    3.7704
   39.675    3.9284
   39.690    4.0126
   39.705    4.1180
   39.720    4.1811
   39.735    4.0232
   39.750    4.0969
   39.765    3.9600
   39.780    3.8968
   39.795    3.9073
   39.810    3.8757
   39.825    3.9073
   39.840    4.2022
   39.855    3.8441
   39.870    3.9600
   39.885    4.3075
   39.900    4.0864
   39.915    4.0969
   39.930    4.2970
   39.945    4.2443
   39.960    4.2127
   39.975    4.0126
   39.990    4.1390
