    1.500    2.7804
    1.515    2.9173
    1.530    2.6435
    1.545    2.6646
    1.560    2.9279
    1.575    2.6751
    1.590    2.7699
    1.605    2.9805
    1.620    2.6962
    1.635    2.6646
    1.650    2.5487
    1.665    2.7909
    1.680    3.2965
    1.695    3.0858
    1.710    3.1806
    1.725    2.8752
    1.740    3.0016
    1.755    3.0121
    1.770    3.1912
    1.785    2.8436
    1.800    2.9279
    1.815    2.7383
    1.830    2.9805
    1.845    2.7383
    1.860    2.9173
    1.875    2.9595
    1.890    2.7172
    1.905    2.8120
    1.920    2.7172
    1.935    2.8647
    1.950    2.9173
    1.965    3.0016
    1.980    2.8541
    1.995    2.7278
    2.010    2.8436
    2.025    2.7383
    2.040    2.8963
    2.055    2.8963
    2.070    3.1069
    2.085    2.8331
    2.100    2.8541
    2.115    3.0753
    2.130    2.9595
    2.145    2.8541
    2.160    2.9805
    2.175    3.1069
    2.190    3.0016
    2.205    2.9700
    2.220    2.8752
    2.235    3.0016
    2.250    3.0332
    2.265    3.0648
    2.280    2.7383
    2.295    3.0016
    2.310    2.9805
    2.325    2.7488
    2.340    3.0858
    2.355    2.9384
    2.370    2.8647
    2.385    2.8225
    2.400    3.0016
    2.415    2.8541
    2.430    2.9279
    2.445    2.8225
    2.460    2.8015
    2.475    3.0858
    2.490    3.1174
    2.505    2.8541
    2.520    2.9700
    2.535    3.0437
    2.550    2.8541
    2.565    3.1596
    2.580    3.0226
    2.595    3.1069
    2.610    3.1069
    2.625    3.2122
    2.640    2.7699
    2.655    2.8963
    2.670    2.8331
    2.685    3.0753
    2.700    3.1280
    2.715    3.1912
    2.730    3.4123
    2.745    3.4544
    2.760    3.2543
    2.775    3.1174
    2.790    3.0332
    2.805    3.2227
    2.820    2.8647
    2.835    2.9700
    2.850    3.0437
    2.865    2.9173
    2.880    2.9068
    2.895    3.0858
    2.910    2.9173
    2.925    3.1174
    2.940    2.9279
    2.955    3.0332
    2.970    2.7067
    2.985    3.0542
    3.000    3.1912
    3.015    3.0858
    3.030    3.2859
    3.045    3.2543
    3.060    3.2017
    3.075    3.0121
    3.090    3.1490
    3.105    2.8752
    3.120    3.2649
    3.135    3.2227
    3.150    2.9700
    3.165    3.1174
    3.180    3.2754
    3.195    3.2965
    3.210    2.9910
    3.225    3.0964
    3.240    2.7909
    3.255    3.1701
    3.270    3.2754
    3.285    3.1912
    3.300    3.1806
    3.315    3.0964
    3.330    3.2438
    3.345    2.9384
    3.360    2.9595
    3.375    3.0858
    3.390    3.0542
    3.405    3.0964
    3.420    3.0753
    3.435    2.9805
    3.450    3.0542
    3.465    3.1385
    3.480    2.9595
    3.495    2.8436
    3.510    3.0542
    3.525    3.0437
    3.540    3.1912
    3.555    3.2754
    3.570    3.2227
    3.585    3.0332
    3.600    3.0332
    3.615    3.2965
    3.630    3.3913
    3.645    3.0016
    3.660    2.8752
    3.675    3.2122
    3.690    3.2543
    3.705    3.2122
    3.720    3.1174
    3.735    3.4544
    3.750    3.1912
    3.765    3.0016
    3.780    3.3702
    3.795    3.5914
    3.810    3.7599
    3.825    3.5808
    3.840    3.4966
    3.855    3.4018
    3.870    3.7072
    3.885    3.7177
    3.900    3.4966
    3.915    3.4544
    3.930    3.2965
    3.945    3.0858
    3.960    2.7909
    3.975    2.8120
    3.990    3.1596
    4.005    3.3070
    4.020    2.9068
    4.035    2.8331
    4.050    2.8436
    4.065    2.7593
    4.080    2.7488
    4.095    2.9279
    4.110    3.1912
    4.125    3.5387
    4.140    3.0332
    4.155    3.0016
    4.170    2.9384
    4.185    2.9489
    4.200    2.9068
    4.215    2.7067
    4.230    2.9068
    4.245    3.3913
    4.260    3.2333
    4.275    2.8752
    4.290    2.7593
    4.305    3.2438
    4.320    3.1280
    4.335    3.0016
    4.350    3.0121
    4.365    2.9384
    4.380    2.7067
    4.395    2.7172
    4.410    2.7488
    4.425    2.9068
    4.440    2.7488
    4.455    2.7804
    4.470    3.0437
    4.485    3.0437
    4.500    3.2438
    4.515    3.0226
    4.530    3.0016
    4.545    2.7278
    4.560    3.0753
    4.575    3.2754
    4.590    3.1596
    4.605    2.9384
    4.620    3.2649
    4.635    3.0437
    4.650    3.0964
    4.665    2.6856
    4.680    2.8225
    4.695    3.0332
    4.710    2.9910
    4.725    3.0437
    4.740    2.8752
    4.755    2.6751
    4.770    2.6856
    4.785    2.8331
    4.800    2.9173
    4.815    2.8647
    4.830    2.8436
    4.845    2.9595
    4.860    3.0121
    4.875    2.9068
    4.890    3.0016
    4.905    3.1174
    4.920    3.3175
    4.935    3.0332
    4.950    2.9384
    4.965    2.7699
    4.980    3.0332
    4.995    2.8120
    5.010    2.8647
    5.025    2.8963
    5.040    2.9910
    5.055    2.7804
    5.070    2.9910
    5.085    3.0332
    5.100    2.9700
    5.115    2.7804
    5.130    3.0964
    5.145    3.0437
    5.160    2.6330
    5.175    2.8015
    5.190    2.9279
    5.205    3.2333
    5.220    3.1385
    5.235    3.2122
    5.250    3.0964
    5.265    2.8963
    5.280    2.8541
    5.295    2.6646
    5.310    2.8857
    5.325    3.0437
    5.340    3.0332
    5.355    2.8120
    5.370    2.9173
    5.385    3.0121
    5.400    3.0016
    5.415    3.2543
    5.430    3.2438
    5.445    2.8436
    5.460    3.0437
    5.475    2.9489
    5.490    2.7804
    5.505    2.9700
    5.520    2.9805
    5.535    2.7804
    5.550    3.1280
    5.565    2.9279
    5.580    3.0437
    5.595    3.2438
    5.610    2.8015
    5.625    2.9384
    5.640    3.1490
    5.655    3.0121
    5.670    2.8752
    5.685    3.1385
    5.700    3.0753
    5.715    3.1174
    5.730    2.8647
    5.745    2.9805
    5.760    3.1385
    5.775    2.8225
    5.790    2.8015
    5.805    2.9700
    5.820    3.1596
    5.835    3.3070
    5.850    3.0753
    5.865    2.8436
    5.880    3.0016
    5.895    3.0226
    5.910    2.8331
    5.925    2.8541
    5.940    3.2859
    5.955    2.8331
    5.970    3.0858
    5.985    3.0858
    6.000    2.8541
    6.015    3.0332
    6.030    3.0332
    6.045    2.7593
    6.060    2.7699
    6.075    2.8752
    6.090    3.0332
    6.105    2.8120
    6.120    3.0016
    6.135    2.8752
    6.150    2.7383
    6.165    2.8857
    6.180    2.8120
    6.195    3.0332
    6.210    2.8963
    6.225    2.8963
    6.240    2.9489
    6.255    2.8436
    6.270    3.1806
    6.285    2.9700
    6.300    2.8647
    6.315    2.6014
    6.330    2.9173
    6.345    2.7593
    6.360    2.7699
    6.375    2.8752
    6.390    3.0858
    6.405    2.9805
    6.420    2.9489
    6.435    2.9910
    6.450    2.7383
    6.465    2.4855
    6.480    2.8436
    6.495    2.8120
    6.510    2.8752
    6.525    3.0121
    6.540    3.1912
    6.555    2.8015
    6.570    2.8436
    6.585    2.8436
    6.600    2.9384
    6.615    3.0648
    6.630    2.9910
    6.645    2.9910
    6.660    3.2333
    6.675    3.1806
    6.690    3.2649
    6.705    3.0964
    6.720    2.9700
    6.735    2.8225
    6.750    2.9489
    6.765    3.0753
    6.780    3.0016
    6.795    2.9489
    6.810    2.8857
    6.825    3.0542
    6.840    3.0542
    6.855    2.8963
    6.870    2.8436
    6.885    2.7909
    6.900    2.8331
    6.915    2.9489
    6.930    2.9700
    6.945    2.8963
    6.960    2.8120
    6.975    2.9805
    6.990    3.0437
    7.005    3.0753
    7.020    3.0648
    7.035    2.9805
    7.050    3.1069
    7.065    2.9910
    7.080    2.8015
    7.095    2.8963
    7.110    3.1069
    7.125    3.0121
    7.140    2.9279
    7.155    2.8857
    7.170    2.9489
    7.185    2.8331
    7.200    2.8120
    7.215    2.8541
    7.230    2.9805
    7.245    2.9805
    7.260    2.7593
    7.275    2.8225
    7.290    2.6435
    7.305    2.9805
    7.320    2.7699
    7.335    2.9595
    7.350    3.0437
    7.365    3.0016
    7.380    2.9910
    7.395    2.8647
    7.410    3.0858
    7.425    2.9910
    7.440    2.8647
    7.455    3.0542
    7.470    2.9384
    7.485    2.6962
    7.500    2.9384
    7.515    3.0753
    7.530    2.8963
    7.545    2.7593
    7.560    2.9489
    7.575    2.7909
    7.590    2.9489
    7.605    3.1174
    7.620    3.1701
    7.635    3.2965
    7.650    2.9173
    7.665    2.9384
    7.680    2.9910
    7.695    3.0648
    7.710    3.0648
    7.725    3.0016
    7.740    2.8647
    7.755    3.0332
    7.770    3.0016
    7.785    2.6962
    7.800    2.9700
    7.815    2.9910
    7.830    2.9489
    7.845    3.1069
    7.860    3.1385
    7.875    3.0753
    7.890    2.9068
    7.905    2.7699
    7.920    3.0542
    7.935    2.8857
    7.950    3.0542
    7.965    3.0542
    7.980    3.0121
    7.995    2.7804
    8.010    2.9068
    8.025    2.9384
    8.040    2.9068
    8.055    2.9068
    8.070    2.8331
    8.085    2.6435
    8.100    2.9173
    8.115    3.1280
    8.130    2.9489
    8.145    2.9910
    8.160    2.9173
    8.175    2.9805
    8.190    2.9910
    8.205    2.9173
    8.220    3.0016
    8.235    3.0016
    8.250    2.6646
    8.265    2.6014
    8.280    2.9805
    8.295    2.9595
    8.310    2.7172
    8.325    2.8015
    8.340    2.9279
    8.355    2.7909
    8.370    2.8857
    8.385    2.8225
    8.400    2.9384
    8.415    2.9068
    8.430    3.0226
    8.445    2.4855
    8.460    2.7699
    8.475    2.8857
    8.490    2.8541
    8.505    2.8541
    8.520    2.7067
    8.535    2.7699
    8.550    2.9384
    8.565    3.0648
    8.580    2.9068
    8.595    3.1280
    8.610    2.7909
    8.625    2.9805
    8.640    3.0648
    8.655    3.0016
    8.670    2.8857
    8.685    2.9595
    8.700    2.7488
    8.715    2.8225
    8.730    2.7699
    8.745    2.7804
    8.760    2.6330
    8.775    2.9068
    8.790    2.9595
    8.805    2.7067
    8.820    2.9173
    8.835    3.1174
    8.850    2.9700
    8.865    3.0226
    8.880    2.9595
    8.895    2.9489
    8.910    3.0648
    8.925    2.9068
    8.940    3.0648
    8.955    2.8857
    8.970    3.0648
    8.985    2.9489
    9.000    2.6540
    9.015    2.8963
    9.030    2.7909
    9.045    2.7593
    9.060    2.7593
    9.075    2.9805
    9.090    2.7699
    9.105    2.8436
    9.120    2.8331
    9.135    2.7804
    9.150    2.7172
    9.165    2.7172
    9.180    2.9068
    9.195    2.8752
    9.210    2.9068
    9.225    3.0437
    9.240    2.9805
    9.255    2.6751
    9.270    2.7909
    9.285    3.0648
    9.300    2.9489
    9.315    2.9173
    9.330    2.8120
    9.345    2.9173
    9.360    2.8752
    9.375    3.2017
    9.390    2.8541
    9.405    2.8331
    9.420    2.7804
    9.435    2.9173
    9.450    2.9489
    9.465    2.9279
    9.480    3.0542
    9.495    3.2227
    9.510    3.3175
    9.525    3.1069
    9.540    3.0016
    9.555    3.1490
    9.570    2.9279
    9.585    2.8436
    9.600    2.7172
    9.615    2.7909
    9.630    2.9173
    9.645    2.7488
    9.660    2.9489
    9.675    2.9068
    9.690    2.7804
    9.705    2.7804
    9.720    2.7488
    9.735    3.1174
    9.750    2.8436
    9.765    3.0016
    9.780    3.0964
    9.795    3.2333
    9.810    3.1912
    9.825    2.9700
    9.840    2.9068
    9.855    2.9805
    9.870    2.7278
    9.885    3.1174
    9.900    3.0542
    9.915    3.0016
    9.930    2.9068
    9.945    3.1701
    9.960    3.0437
    9.975    2.7593
    9.990    2.8963
   10.005    2.8963
   10.020    2.8752
   10.035    2.6751
   10.050    2.6751
   10.065    2.9068
   10.080    3.2438
   10.095    3.1174
   10.110    3.0542
   10.125    2.8857
   10.140    2.7278
   10.155    3.2649
   10.170    3.2017
   10.185    2.8541
   10.200    2.8752
   10.215    2.8647
   10.230    3.1912
   10.245    3.0964
   10.260    2.8541
   10.275    3.2333
   10.290    3.2859
   10.305    3.0858
   10.320    3.1174
   10.335    2.9805
   10.350    2.8541
   10.365    2.9489
   10.380    2.9279
   10.395    2.7909
   10.410    2.9068
   10.425    2.9700
   10.440    3.0964
   10.455    2.7067
   10.470    2.7488
   10.485    2.9910
   10.500    2.8225
   10.515    2.7067
   10.530    2.7909
   10.545    2.6962
   10.560    2.9700
   10.575    2.8857
   10.590    2.8015
   10.605    2.8331
   10.620    3.0121
   10.635    2.9068
   10.650    2.6856
   10.665    3.0121
   10.680    2.8963
   10.695    2.9279
   10.710    2.8752
   10.725    2.6751
   10.740    2.8331
   10.755    3.1174
   10.770    2.9279
   10.785    2.9173
   10.800    2.8436
   10.815    2.6962
   10.830    2.6646
   10.845    2.8857
   10.860    3.0858
   10.875    3.0016
   10.890    3.0964
   10.905    2.8015
   10.920    3.0542
   10.935    3.0226
   10.950    2.9595
   10.965    2.9173
   10.980    2.7909
   10.995    2.8541
   11.010    3.0648
   11.025    2.8963
   11.040    2.9279
   11.055    2.7804
   11.070    3.0964
   11.085    2.9805
   11.100    2.9384
   11.115    2.8647
   11.130    2.8225
   11.145    3.0542
   11.160    3.0858
   11.175    3.1385
   11.190    3.2649
   11.205    3.0226
   11.220    3.1174
   11.235    2.8752
   11.250    3.1912
   11.265    2.9068
   11.280    2.9279
   11.295    3.0542
   11.310    3.1701
   11.325    3.2754
   11.340    3.3281
   11.355    2.9700
   11.370    3.0016
   11.385    3.1596
   11.400    3.0226
   11.415    2.7383
   11.430    3.1490
   11.445    3.2227
   11.460    3.1174
   11.475    3.0437
   11.490    2.8647
   11.505    2.9068
   11.520    3.0964
   11.535    2.8436
   11.550    3.0542
   11.565    2.9805
   11.580    2.9384
   11.595    2.9805
   11.610    2.8015
   11.625    2.8857
   11.640    3.0016
   11.655    2.9910
   11.670    3.2227
   11.685    3.3070
   11.700    2.9068
   11.715    2.9068
   11.730    2.7804
   11.745    3.0226
   11.760    3.1912
   11.775    3.0753
   11.790    3.1280
   11.805    3.1174
   11.820    3.1385
   11.835    2.9700
   11.850    2.7699
   11.865    2.9805
   11.880    3.1174
   11.895    2.8436
   11.910    2.8752
   11.925    2.8225
   11.940    2.9489
   11.955    2.8752
   11.970    2.8541
   11.985    2.9700
   12.000    2.9700
   12.015    3.0016
   12.030    2.9279
   12.045    3.0964
   12.060    2.9910
   12.075    3.0121
   12.090    2.9279
   12.105    3.0437
   12.120    3.0016
   12.135    3.1174
   12.150    3.0016
   12.165    2.9805
   12.180    3.0648
   12.195    2.9595
   12.210    2.9068
   12.225    3.0332
   12.240    2.9805
   12.255    3.1596
   12.270    3.0016
   12.285    3.0332
   12.300    3.0121
   12.315    2.9805
   12.330    2.8752
   12.345    2.9910
   12.360    3.0858
   12.375    3.1385
   12.390    3.0542
   12.405    3.0016
   12.420    3.0332
   12.435    3.1385
   12.450    2.9173
   12.465    3.2122
   12.480    3.1912
   12.495    3.0226
   12.510    2.7488
   12.525    3.0753
   12.540    3.0858
   12.555    3.2333
   12.570    2.9595
   12.585    3.3702
   12.600    3.0016
   12.615    3.2859
   12.630    3.2543
   12.645    3.0648
   12.660    3.0648
   12.675    3.0437
   12.690    2.9700
   12.705    3.1280
   12.720    3.0332
   12.735    3.3597
   12.750    3.0332
   12.765    3.0858
   12.780    3.0648
   12.795    3.2227
   12.810    3.2543
   12.825    3.1490
   12.840    3.2438
   12.855    3.0542
   12.870    3.0437
   12.885    3.2438
   12.900    3.0753
   12.915    3.1280
   12.930    3.2333
   12.945    3.4018
   12.960    3.1385
   12.975    3.1806
   12.990    3.0542
   13.005    3.0016
   13.020    2.9910
   13.035    2.9173
   13.050    3.0858
   13.065    3.2965
   13.080    3.1385
   13.095    3.1806
   13.110    2.9700
   13.125    2.9489
   13.140    2.9173
   13.155    3.2649
   13.170    3.3491
   13.185    3.1385
   13.200    3.0753
   13.215    3.2859
   13.230    2.9805
   13.245    3.1069
   13.260    3.2543
   13.275    3.0121
   13.290    3.1490
   13.305    3.2122
   13.320    3.3070
   13.335    3.2859
   13.350    2.9489
   13.365    3.1174
   13.380    3.1385
   13.395    3.3702
   13.410    3.0437
   13.425    3.2122
   13.440    3.1701
   13.455    3.3070
   13.470    3.3702
   13.485    3.3386
   13.500    3.5703
   13.515    3.3597
   13.530    3.2543
   13.545    2.9805
   13.560    3.0226
   13.575    3.2438
   13.590    3.3386
   13.605    3.2754
   13.620    3.0753
   13.635    3.2965
   13.650    3.3070
   13.665    2.9805
   13.680    3.5492
   13.695    3.0437
   13.710    2.8963
   13.725    3.1174
   13.740    3.0964
   13.755    3.1385
   13.770    3.0648
   13.785    3.0753
   13.800    3.1385
   13.815    3.1912
   13.830    3.4650
   13.845    3.3597
   13.860    3.2965
   13.875    3.3913
   13.890    3.3281
   13.905    3.0437
   13.920    3.2017
   13.935    3.1069
   13.950    3.1806
   13.965    3.1280
   13.980    3.0542
   13.995    3.0753
   14.010    3.3386
   14.025    3.5071
   14.040    3.2017
   14.055    3.2333
   14.070    3.2859
   14.085    3.1490
   14.100    3.4755
   14.115    3.6230
   14.130    3.3070
   14.145    3.2543
   14.160    3.0437
   14.175    3.1806
   14.190    3.3175
   14.205    3.4755
   14.220    3.1069
   14.235    3.4229
   14.250    3.2754
   14.265    3.2438
   14.280    3.4229
   14.295    3.3491
   14.310    3.2438
   14.325    3.2227
   14.340    3.2122
   14.355    3.0437
   14.370    3.3281
   14.385    3.4229
   14.400    3.2227
   14.415    3.1385
   14.430    3.3175
   14.445    3.1069
   14.460    3.5387
   14.475    3.3597
   14.490    3.4334
   14.505    3.2227
   14.520    3.0437
   14.535    3.1701
   14.550    3.2543
   14.565    3.4650
   14.580    3.2965
   14.595    3.3175
   14.610    3.1912
   14.625    2.9595
   14.640    3.5808
   14.655    3.1490
   14.670    3.4439
   14.685    3.2543
   14.700    3.4018
   14.715    3.2543
   14.730    3.3913
   14.745    3.5598
   14.760    3.6546
   14.775    3.4755
   14.790    3.2227
   14.805    3.2122
   14.820    3.4123
   14.835    3.4544
   14.850    3.4966
   14.865    3.2754
   14.880    3.0964
   14.895    3.4123
   14.910    3.6440
   14.925    3.6335
   14.940    3.5071
   14.955    3.6967
   14.970    3.6440
   14.985    3.3281
   15.000    3.5598
   15.015    3.5914
   15.030    3.3597
   15.045    3.2543
   15.060    3.6546
   15.075    3.6546
   15.090    3.5176
   15.105    3.6335
   15.120    3.5176
   15.135    3.7072
   15.150    3.3913
   15.165    3.4229
   15.180    3.4229
   15.195    3.8231
   15.210    3.3281
   15.225    3.4544
   15.240    3.7704
   15.255    3.4439
   15.270    3.6756
   15.285    3.7388
   15.300    3.7283
   15.315    3.5703
   15.330    3.4650
   15.345    3.8441
   15.360    3.7915
   15.375    3.6019
   15.390    3.6862
   15.405    3.6335
   15.420    3.7283
   15.435    3.5387
   15.450    3.4544
   15.465    3.7915
   15.480    3.5387
   15.495    3.7915
   15.510    3.6019
   15.525    3.4966
   15.540    3.5703
   15.555    3.4229
   15.570    3.4966
   15.585    3.6651
   15.600    3.3702
   15.615    3.3597
   15.630    3.5703
   15.645    3.4650
   15.660    3.3175
   15.675    3.3175
   15.690    3.4018
   15.705    3.5808
   15.720    3.6230
   15.735    3.5808
   15.750    3.6862
   15.765    3.5914
   15.780    3.5492
   15.795    3.8547
   15.810    3.7599
   15.825    3.6546
   15.840    3.4439
   15.855    3.4229
   15.870    3.6546
   15.885    3.7072
   15.900    4.0126
   15.915    4.0232
   15.930    3.7072
   15.945    3.6335
   15.960    3.5703
   15.975    3.8757
   15.990    3.7388
   16.005    3.8020
   16.020    3.7915
   16.035    3.8652
   16.050    3.6862
   16.065    3.9600
   16.080    3.7915
   16.095    3.7599
   16.110    3.6335
   16.125    3.6967
   16.140    3.6651
   16.155    3.7915
   16.170    3.8547
   16.185    3.8441
   16.200    3.6440
   16.215    3.7809
   16.230    3.7177
   16.245    3.6124
   16.260    3.8757
   16.275    3.9810
   16.290    3.4439
   16.305    3.8968
   16.320    3.4755
   16.335    3.8652
   16.350    3.5703
   16.365    3.6651
   16.380    4.0021
   16.395    3.7283
   16.410    3.8336
   16.425    3.8863
   16.440    3.6440
   16.455    3.6967
   16.470    3.8020
   16.485    3.8757
   16.500    3.7915
   16.515    3.9810
   16.530    3.8336
   16.545    4.1180
   16.560    4.1180
   16.575    4.2549
   16.590    4.2654
   16.605    4.3286
   16.620    4.3075
   16.635    4.5076
   16.650    3.6335
   16.665    3.4755
   16.680    3.6651
   16.695    3.7915
   16.710    3.9389
   16.725    3.9389
   16.740    4.0021
   16.755    4.1074
   16.770    4.1601
   16.785    4.0969
   16.800    3.9073
   16.815    3.8336
   16.830    4.1285
   16.845    3.8863
   16.860    3.7809
   16.875    4.1811
   16.890    3.9810
   16.905    3.8336
   16.920    3.8336
   16.935    3.7809
   16.950    3.7072
   16.965    4.0548
   16.980    4.4444
   16.995    4.2022
   17.010    3.9389
   17.025    3.9916
   17.040    4.1390
   17.055    4.2759
   17.070    4.4234
   17.085    4.3918
   17.100    4.3813
   17.115    4.1706
   17.130    4.0232
   17.145    4.0548
   17.160    4.2443
   17.175    4.1285
   17.190    3.9600
   17.205    4.2443
   17.220    4.0969
   17.235    3.9916
   17.250    4.0653
   17.265    3.8757
   17.280    3.9705
   17.295    4.1285
   17.310    4.0864
   17.325    4.0864
   17.340    4.3918
   17.355    4.4023
   17.370    4.5392
   17.385    4.3918
   17.400    4.1601
   17.415    4.5076
   17.430    4.5708
   17.445    4.6867
   17.460    4.5076
   17.475    4.0969
   17.490    4.3813
   17.505    4.3075
   17.520    4.3813
   17.535    4.1074
   17.550    4.2654
   17.565    4.2654
   17.580    4.5076
   17.595    4.5287
   17.610    4.4550
   17.625    4.2759
   17.640    4.1601
   17.655    4.2022
   17.670    4.1390
   17.685    4.2022
   17.700    4.0548
   17.715    4.1496
   17.730    4.1285
   17.745    4.0758
   17.760    4.2127
   17.775    4.1601
   17.790    4.0442
   17.805    4.2233
   17.820    4.4550
   17.835    4.3918
   17.850    4.3181
   17.865    4.5287
   17.880    4.2654
   17.895    4.3813
   17.910    4.4023
   17.925    4.3181
   17.940    4.6235
   17.955    4.3391
   17.970    4.4339
   17.985    4.1496
   18.000    3.9073
   18.015    3.8652
   18.030    4.3602
   18.045    4.3602
   18.060    4.7604
   18.075    4.4550
   18.090    4.3707
   18.105    4.4023
   18.120    4.4655
   18.135    4.4023
   18.150    4.7077
   18.165    4.6024
   18.180    4.6235
   18.195    4.4234
   18.210    4.6130
   18.225    4.3391
   18.240    4.3075
   18.255    4.3286
   18.270    4.5708
   18.285    4.3602
   18.300    4.8236
   18.315    4.6340
   18.330    4.3918
   18.345    4.7920
   18.360    4.4444
   18.375    4.2654
   18.390    3.8547
   18.405    4.1601
   18.420    4.4866
   18.435    4.5076
   18.450    4.4339
   18.465    4.4655
   18.480    4.7077
   18.495    4.2127
   18.510    4.6551
   18.525    4.7709
   18.540    4.4655
   18.555    4.6130
   18.570    4.5498
   18.585    4.2654
   18.600    4.3707
   18.615    4.4023
   18.630    4.5076
   18.645    4.4444
   18.660    4.6235
   18.675    4.6972
   18.690    4.5392
   18.705    4.5814
   18.720    4.2865
   18.735    4.2970
   18.750    4.2338
   18.765    4.5392
   18.780    4.6235
   18.795    4.7499
   18.810    4.7815
   18.825    4.6130
   18.840    4.6024
   18.855    4.4550
   18.870    4.6972
   18.885    4.5708
   18.900    4.5287
   18.915    4.6024
   18.930    4.4550
   18.945    4.3075
   18.960    4.8025
   18.975    4.7815
   18.990    4.8447
   19.005    4.5603
   19.020    4.3497
   19.035    4.5814
   19.050    4.6340
   19.065    4.4866
   19.080    4.6445
   19.095    4.5814
   19.110    4.6235
   19.125    4.6551
   19.140    5.0974
   19.155    4.6867
   19.170    4.8236
   19.185    4.7604
   19.200    4.5287
   19.215    5.0553
   19.230    4.6656
   19.245    4.5919
   19.260    4.9710
   19.275    5.1395
   19.290    5.0026
   19.305    4.9605
   19.320    4.8657
   19.335    4.6972
   19.350    4.4339
   19.365    4.8025
   19.380    4.8763
   19.395    5.0342
   19.410    4.9078
   19.425    4.7499
   19.440    4.6445
   19.455    4.7077
   19.470    4.4971
   19.485    4.5814
   19.500    4.4550
   19.515    4.6867
   19.530    4.8341
   19.545    4.5603
   19.560    4.5603
   19.575    4.4234
   19.590    5.0026
   19.605    4.8657
   19.620    4.7499
   19.635    4.8973
   19.650    4.4655
   19.665    4.4339
   19.680    4.7815
   19.695    4.7077
   19.710    4.8868
   19.725    4.5919
   19.740    4.7815
   19.755    4.8341
   19.770    4.6656
   19.785    4.5919
   19.800    4.3075
   19.815    4.8025
   19.830    5.2027
   19.845    4.9184
   19.860    4.7393
   19.875    4.4234
   19.890    4.7920
   19.905    4.5708
   19.920    4.7709
   19.935    4.5076
   19.950    4.7183
   19.965    4.6551
   19.980    4.5919
   19.995    4.3075
   20.010    4.7920
   20.025    4.5603
   20.040    4.2233
   20.055    4.6656
   20.070    4.8552
   20.085    4.5919
   20.100    4.5498
   20.115    4.7604
   20.130    4.5708
   20.145    4.6656
   20.160    4.6972
   20.175    4.3707
   20.190    4.3497
   20.205    4.2338
   20.220    4.4866
   20.235    4.4339
   20.250    4.5708
   20.265    4.5076
   20.280    4.7288
   20.295    4.7393
   20.310    4.5708
   20.325    4.7288
   20.340    5.0448
   20.355    4.5498
   20.370    4.4760
   20.385    4.8868
   20.400    4.6551
   20.415    4.7920
   20.430    4.6235
   20.445    4.5814
   20.460    4.6235
   20.475    4.5392
   20.490    4.3286
   20.505    4.6972
   20.520    4.7604
   20.535    4.4339
   20.550    4.4971
   20.565    4.5287
   20.580    4.6445
   20.595    4.8236
   20.610    4.8973
   20.625    4.4655
   20.640    4.6024
   20.655    4.5708
   20.670    4.4444
   20.685    4.3286
   20.700    4.2233
   20.715    4.2233
   20.730    4.2443
   20.745    4.4550
   20.760    4.4866
   20.775    4.4444
   20.790    4.4234
   20.805    4.1601
   20.820    4.0969
   20.835    4.6130
   20.850    4.1496
   20.865    4.0969
   20.880    4.2865
   20.895    4.2970
   20.910    4.3286
   20.925    4.3497
   20.940    4.2865
   20.955    4.4339
   20.970    4.1917
   20.985    4.1601
   21.000    4.5182
   21.015    4.4550
   21.030    4.4760
   21.045    4.4128
   21.060    4.4866
   21.075    4.1917
   21.090    4.3707
   21.105    4.2233
   21.120    4.4866
   21.135    4.4550
   21.150    4.1074
   21.165    4.2865
   21.180    4.3497
   21.195    4.4128
   21.210    4.2022
   21.225    4.1601
   21.240    4.0758
   21.255    4.0337
   21.270    4.0758
   21.285    4.0864
   21.300    4.5287
   21.315    4.2549
   21.330    4.4023
   21.345    4.6024
   21.360    4.4971
   21.375    4.3497
   21.390    4.2654
   21.405    4.3391
   21.420    4.2970
   21.435    3.9810
   21.450    4.0232
   21.465    4.3391
   21.480    4.2338
   21.495    4.1706
   21.510    4.0126
   21.525    4.0021
   21.540    4.0442
   21.555    4.4023
   21.570    4.5287
   21.585    4.0864
   21.600    4.1180
   21.615    4.0548
   21.630    4.2970
   21.645    3.9389
   21.660    4.0232
   21.675    4.2233
   21.690    4.1917
   21.705    4.0232
   21.720    4.2233
   21.735    3.9810
   21.750    4.1180
   21.765    4.2022
   21.780    4.2127
   21.795    4.0653
   21.810    4.0442
   21.825    4.0126
   21.840    4.0864
   21.855    4.3918
   21.870    4.1074
   21.885    3.7493
   21.900    3.8231
   21.915    4.0442
   21.930    4.1180
   21.945    3.9810
   21.960    3.9705
   21.975    3.9284
   21.990    4.0864
   22.005    3.6862
   22.020    3.8125
   22.035    4.1601
   22.050    4.1180
   22.065    4.0126
   22.080    3.9810
   22.095    3.9494
   22.110    3.9389
   22.125    3.9705
   22.140    4.0126
   22.155    3.8441
   22.170    3.9916
   22.185    3.9179
   22.200    4.0969
   22.215    4.1601
   22.230    3.9600
   22.245    3.9179
   22.260    4.1180
   22.275    3.9389
   22.290    3.9600
   22.305    4.0864
   22.320    3.9073
   22.335    4.1706
   22.350    3.7072
   22.365    3.8757
   22.380    3.7493
   22.395    3.8968
   22.410    3.7283
   22.425    3.6440
   22.440    3.8757
   22.455    3.9494
   22.470    3.8125
   22.485    4.2022
   22.500    4.2338
   22.515    3.9810
   22.530    3.9179
   22.545    3.4650
   22.560    3.5914
   22.575    3.6967
   22.590    4.1601
   22.605    4.2443
   22.620    4.1074
   22.635    3.9494
   22.650    3.9389
   22.665    3.7809
   22.680    3.8968
   22.695    3.9284
   22.710    3.7809
   22.725    3.7493
   22.740    3.9600
   22.755    3.9073
   22.770    4.0126
   22.785    3.9073
   22.800    3.6230
   22.815    3.8757
   22.830    3.9284
   22.845    3.8020
   22.860    3.8336
   22.875    3.6440
   22.890    3.8441
   22.905    3.7599
   22.920    3.7809
   22.935    3.4966
   22.950    3.8336
   22.965    3.7493
   22.980    3.6546
   22.995    3.6440
   23.010    3.4966
   23.025    3.7283
   23.040    3.6124
   23.055    3.7177
   23.070    3.8863
   23.085    3.4966
   23.100    3.5703
   23.115    3.4650
   23.130    3.9284
   23.145    3.8968
   23.160    3.5703
   23.175    3.6230
   23.190    3.7493
   23.205    3.6862
   23.220    3.5808
   23.235    3.8336
   23.250    3.6335
   23.265    3.6440
   23.280    3.3281
   23.295    3.5808
   23.310    3.5808
   23.325    3.6651
   23.340    3.5914
   23.355    3.6967
   23.370    3.4966
   23.385    3.3281
   23.400    3.6756
   23.415    3.8652
   23.430    3.6230
   23.445    3.6756
   23.460    3.5071
   23.475    3.4860
   23.490    3.5808
   23.505    3.6124
   23.520    3.3175
   23.535    3.6019
   23.550    3.6124
   23.565    3.4966
   23.580    3.4966
   23.595    3.1174
   23.610    3.1490
   23.625    3.4334
   23.640    3.6651
   23.655    3.0964
   23.670    3.4755
   23.685    3.6967
   23.700    3.5808
   23.715    3.5808
   23.730    3.3702
   23.745    3.2965
   23.760    3.0964
   23.775    3.7283
   23.790    3.6967
   23.805    3.2965
   23.820    3.5492
   23.835    3.4018
   23.850    3.0542
   23.865    3.4755
   23.880    3.3070
   23.895    3.6967
   23.910    3.6651
   23.925    3.5492
   23.940    3.3807
   23.955    3.4123
   23.970    3.6967
   23.985    3.6756
   24.000    3.3386
   24.015    3.6862
   24.030    3.3807
   24.045    3.4755
   24.060    3.7704
   24.075    3.2965
   24.090    3.3913
   24.105    3.7599
   24.120    3.4544
   24.135    3.3702
   24.150    3.4018
   24.165    3.4544
   24.180    3.1912
   24.195    3.1701
   24.210    3.1701
   24.225    3.4544
   24.240    3.3491
   24.255    3.3386
   24.270    3.4229
   24.285    3.5492
   24.300    3.5598
   24.315    3.0753
   24.330    3.3702
   24.345    3.5598
   24.360    3.4650
   24.375    2.9489
   24.390    3.1806
   24.405    3.2754
   24.420    3.0437
   24.435    3.1912
   24.450    3.3807
   24.465    3.4860
   24.480    3.3913
   24.495    3.2754
   24.510    3.3702
   24.525    3.4334
   24.540    3.3913
   24.555    3.3702
   24.570    3.4123
   24.585    3.4123
   24.600    3.1385
   24.615    3.2227
   24.630    3.2859
   24.645    3.4123
   24.660    3.4544
   24.675    3.3491
   24.690    3.3386
   24.705    3.2754
   24.720    3.0648
   24.735    3.2227
   24.750    3.0016
   24.765    2.9173
   24.780    3.0964
   24.795    3.6230
   24.810    3.4966
   24.825    3.2649
   24.840    3.0016
   24.855    3.3281
   24.870    3.2859
   24.885    3.5176
   24.900    3.2543
   24.915    3.0332
   24.930    3.3386
   24.945    3.2017
   24.960    3.2227
   24.975    2.8857
   24.990    3.0226
   25.005    3.1174
   25.020    3.2017
   25.035    3.1806
   25.050    3.0121
   25.065    3.3175
   25.080    3.3281
   25.095    3.0542
   25.110    3.0753
   25.125    3.0437
   25.140    3.0858
   25.155    3.0016
   25.170    3.5914
   25.185    3.3281
   25.200    3.2754
   25.215    3.3070
   25.230    3.0964
   25.245    2.7488
   25.260    3.2438
   25.275    2.8963
   25.290    2.9595
   25.305    2.8120
   25.320    2.8331
   25.335    2.7699
   25.350    3.0858
   25.365    3.2754
   25.380    2.9279
   25.395    3.0753
   25.410    3.1596
   25.425    3.0964
   25.440    3.0226
   25.455    2.9700
   25.470    3.1069
   25.485    3.0964
   25.500    3.1701
   25.515    3.0964
   25.530    3.0121
   25.545    3.1174
   25.560    3.1701
   25.575    3.2543
   25.590    3.3386
   25.605    3.0332
   25.620    2.9595
   25.635    3.3702
   25.650    3.0648
   25.665    3.0121
   25.680    2.7699
   25.695    2.6224
   25.710    2.9173
   25.725    2.9805
   25.740    3.0121
   25.755    3.1806
   25.770    3.1174
   25.785    3.0332
   25.800    3.2543
   25.815    3.1385
   25.830    3.0858
   25.845    3.0964
   25.860    3.0121
   25.875    3.1385
   25.890    2.9384
   25.905    2.9489
   25.920    2.9910
   25.935    3.0332
   25.950    3.1385
   25.965    2.8963
   25.980    2.7278
   25.995    2.7909
   26.010    3.0753
   26.025    3.0542
   26.040    2.9805
   26.055    3.1806
   26.070    3.1806
   26.085    3.0964
   26.100    2.9910
   26.115    2.8752
   26.130    3.0016
   26.145    2.9384
   26.160    2.9805
   26.175    2.9805
   26.190    2.8436
   26.205    3.1069
   26.220    2.8857
   26.235    2.8647
   26.250    2.8225
   26.265    2.9910
   26.280    2.9068
   26.295    2.8436
   26.310    2.8647
   26.325    2.8436
   26.340    2.9384
   26.355    2.8541
   26.370    2.8120
   26.385    2.9805
   26.400    2.7804
   26.415    2.8752
   26.430    2.9910
   26.445    2.8963
   26.460    2.9700
   26.475    3.0753
   26.490    3.0858
   26.505    2.6014
   26.520    3.1385
   26.535    3.0226
   26.550    2.7383
   26.565    2.9595
   26.580    2.7278
   26.595    2.8752
   26.610    2.8963
   26.625    2.8857
   26.640    2.8225
   26.655    2.6646
   26.670    2.8752
   26.685    2.8963
   26.700    2.7067
   26.715    2.9384
   26.730    2.9805
   26.745    2.8963
   26.760    2.9279
   26.775    2.8647
   26.790    3.0332
   26.805    2.9805
   26.820    2.9805
   26.835    2.8752
   26.850    2.9489
   26.865    2.8857
   26.880    2.7593
   26.895    2.8857
   26.910    2.8015
   26.925    3.0121
   26.940    3.0016
   26.955    2.8331
   26.970    2.8225
   26.985    2.8857
   27.000    2.8541
   27.015    2.8225
   27.030    3.0648
   27.045    2.9384
   27.060    2.7383
   27.075    2.5487
   27.090    2.9805
   27.105    2.7699
   27.120    2.8752
   27.135    2.9173
   27.150    2.6330
   27.165    2.9173
   27.180    2.9805
   27.195    3.1806
   27.210    2.8541
   27.225    2.7699
   27.240    2.4750
   27.255    2.7172
   27.270    3.0437
   27.285    2.8331
   27.300    2.7383
   27.315    2.8857
   27.330    2.8120
   27.345    2.6646
   27.360    2.7172
   27.375    2.7383
   27.390    2.7909
   27.405    2.7699
   27.420    2.6856
   27.435    2.7488
   27.450    2.7804
   27.465    2.7383
   27.480    2.6224
   27.495    2.6330
   27.510    2.8436
   27.525    2.8015
   27.540    2.7383
   27.555    2.9910
   27.570    2.9805
   27.585    2.8857
   27.600    2.8857
   27.615    2.8647
   27.630    2.8752
   27.645    2.6962
   27.660    2.8752
   27.675    2.5592
   27.690    2.7278
   27.705    2.8120
   27.720    2.9910
   27.735    2.7383
   27.750    2.9384
   27.765    2.9279
   27.780    2.7488
   27.795    2.7383
   27.810    2.9068
   27.825    2.9700
   27.840    2.9700
   27.855    2.7804
   27.870    2.8541
   27.885    2.7383
   27.900    2.6330
   27.915    2.8225
   27.930    2.8541
   27.945    2.9279
   27.960    2.9279
   27.975    2.5382
   27.990    2.7909
   28.005    2.6119
   28.020    2.7909
   28.035    2.5803
   28.050    2.8436
   28.065    2.8647
   28.080    2.6435
   28.095    2.6962
   28.110    2.7383
   28.125    3.0016
   28.140    2.6856
   28.155    2.5908
   28.170    2.8541
   28.185    2.5803
   28.200    2.7067
   28.215    2.6646
   28.230    2.7278
   28.245    2.5487
   28.260    2.3907
   28.275    2.8120
   28.290    2.8436
   28.305    2.6856
   28.320    2.4434
   28.335    2.8857
   28.350    2.8963
   28.365    2.9279
   28.380    2.6435
   28.395    2.5487
   28.410    2.7593
   28.425    2.5382
   28.440    2.6224
   28.455    2.8015
   28.470    2.9173
   28.485    2.7488
   28.500    2.6330
   28.515    2.6119
   28.530    2.6224
   28.545    2.7593
   28.560    2.5487
   28.575    2.6646
   28.590    2.7488
   28.605    2.7067
   28.620    2.5803
   28.635    2.5698
   28.650    2.7488
   28.665    2.5803
   28.680    2.6435
   28.695    2.7593
   28.710    2.5698
   28.725    2.5908
   28.740    2.6962
   28.755    2.7278
   28.770    2.6119
   28.785    2.6962
   28.800    2.6856
   28.815    2.9489
   28.830    2.6014
   28.845    2.3697
   28.860    2.5382
   28.875    2.5908
   28.890    2.5382
   28.905    2.3275
   28.920    2.5592
   28.935    2.7699
   28.950    2.4434
   28.965    2.6646
   28.980    2.6014
   28.995    2.7909
   29.010    2.6751
   29.025    2.6119
   29.040    2.5803
   29.055    2.6014
   29.070    2.4434
   29.085    2.8120
   29.100    2.8225
   29.115    2.8225
   29.130    2.8331
   29.145    2.5803
   29.160    2.6962
   29.175    2.6014
   29.190    2.5382
   29.205    2.8120
   29.220    2.8015
   29.235    2.6119
   29.250    2.5171
   29.265    2.5698
   29.280    2.6962
   29.295    2.7804
   29.310    2.7278
   29.325    2.5908
   29.340    2.8331
   29.355    2.7699
   29.370    2.4961
   29.385    2.4961
   29.400    2.3697
   29.415    2.3697
   29.430    2.6540
   29.445    2.6330
   29.460    2.3381
   29.475    2.4855
   29.490    2.3381
   29.505    2.4855
   29.520    2.7593
   29.535    2.5908
   29.550    2.4013
   29.565    2.5803
   29.580    2.4961
   29.595    2.5592
   29.610    2.4434
   29.625    2.4223
   29.640    2.5066
   29.655    2.4434
   29.670    2.4329
   29.685    2.4855
   29.700    2.6540
   29.715    2.3907
   29.730    2.3591
   29.745    2.4223
   29.760    2.5066
   29.775    2.4961
   29.790    2.5276
   29.805    2.5803
   29.820    2.3697
   29.835    2.3907
   29.850    2.5276
   29.865    2.5908
   29.880    2.6014
   29.895    2.5698
   29.910    2.3591
   29.925    2.4961
   29.940    2.6646
   29.955    2.4118
   29.970    2.7067
   29.985    2.8225
   30.000    2.5698
   30.015    2.5487
   30.030    2.4750
   30.045    2.7488
   30.060    2.4539
   30.075    2.4223
   30.090    2.6751
   30.105    2.7593
   30.120    2.8857
   30.135    2.4750
   30.150    2.2433
   30.165    2.3381
   30.180    2.3486
   30.195    2.5382
   30.210    2.5066
   30.225    2.5171
   30.240    2.6119
   30.255    2.6435
   30.270    2.6435
   30.285    2.5487
   30.300    2.4855
   30.315    2.6119
   30.330    2.4750
   30.345    2.3802
   30.360    2.6646
   30.375    2.3591
   30.390    2.3907
   30.405    2.3697
   30.420    2.3381
   30.435    2.4750
   30.450    2.3591
   30.465    2.4855
   30.480    2.6856
   30.495    2.6751
   30.510    2.5382
   30.525    2.6014
   30.540    2.3381
   30.555    2.3697
   30.570    2.4434
   30.585    2.5803
   30.600    2.5066
   30.615    2.6014
   30.630    2.3697
   30.645    2.3591
   30.660    2.2643
   30.675    2.6014
   30.690    2.3381
   30.705    2.3486
   30.720    2.6751
   30.735    2.5276
   30.750    2.5382
   30.765    2.4750
   30.780    2.4118
   30.795    2.4013
   30.810    2.3591
   30.825    2.4434
   30.840    2.3486
   30.855    2.5592
   30.870    2.2117
   30.885    2.2328
   30.900    2.3802
   30.915    2.4223
   30.930    2.3591
   30.945    2.5803
   30.960    2.6330
   30.975    2.4118
   30.990    2.3486
   31.005    2.1274
   31.020    2.2222
   31.035    2.5066
   31.050    2.4645
   31.065    2.6119
   31.080    2.4434
   31.095    2.4118
   31.110    2.4223
   31.125    2.3591
   31.140    2.4118
   31.155    2.5171
   31.170    2.6014
   31.185    2.5698
   31.200    2.6856
   31.215    2.4223
   31.230    2.2749
   31.245    2.3907
   31.260    2.3802
   31.275    2.6119
   31.290    2.2222
   31.305    2.4118
   31.320    2.3486
   31.335    2.4750
   31.350    2.4223
   31.365    2.4434
   31.380    2.4434
   31.395    2.2222
   31.410    2.4223
   31.425    2.2433
   31.440    2.1696
   31.455    2.2854
   31.470    2.4855
   31.485    2.4013
   31.500    2.3170
   31.515    2.2433
   31.530    2.4329
   31.545    2.4223
   31.560    2.3065
   31.575    2.4118
   31.590    2.4013
   31.605    2.2222
   31.620    2.3486
   31.635    2.4750
   31.650    2.3486
   31.665    2.3486
   31.680    2.1906
   31.695    2.3170
   31.710    2.4961
   31.725    2.2012
   31.740    2.2222
   31.755    2.4645
   31.770    2.3697
   31.785    2.4539
   31.800    2.3065
   31.815    2.4223
   31.830    2.2117
   31.845    2.1064
   31.860    2.2117
   31.875    2.4329
   31.890    2.1169
   31.905    2.2012
   31.920    2.4434
   31.935    2.3170
   31.950    2.3381
   31.965    2.1906
   31.980    2.1801
   31.995    2.0537
   32.010    2.3591
   32.025    2.1274
   32.040    2.2538
   32.055    2.2117
   32.070    2.0221
   32.085    2.4750
   32.100    2.2222
   32.115    2.3486
   32.130    2.3802
   32.145    2.2643
   32.160    2.1274
   32.175    2.2328
   32.190    2.1696
   32.205    2.2328
   32.220    2.4434
   32.235    2.2117
   32.250    2.2854
   32.265    2.3802
   32.280    2.3065
   32.295    2.5487
   32.310    2.3275
   32.325    2.1169
   32.340    2.1696
   32.355    2.0116
   32.370    2.2117
   32.385    2.2643
   32.400    2.2012
   32.415    2.0011
   32.430    1.8852
   32.445    2.2538
   32.460    2.2117
   32.475    2.2222
   32.490    2.1906
   32.505    1.9484
   32.520    2.1064
   32.535    2.1169
   32.550    2.0326
   32.565    2.0853
   32.580    2.2538
   32.595    2.0748
   32.610    2.2012
   32.625    2.2959
   32.640    2.2538
   32.655    2.2222
   32.670    2.2643
   32.685    2.2959
   32.700    2.1696
   32.715    2.0221
   32.730    2.1801
   32.745    2.1064
   32.760    2.1274
   32.775    2.3170
   32.790    2.4855
   32.805    2.2643
   32.820    2.1064
   32.835    1.9379
   32.850    2.1906
   32.865    2.2433
   32.880    2.2222
   32.895    2.0326
   32.910    2.0326
   32.925    2.0748
   32.940    2.1274
   32.955    2.0221
   32.970    1.8747
   32.985    1.9484
   33.000    2.0432
   33.015    2.1801
   33.030    2.1696
   33.045    1.9800
   33.060    2.0537
   33.075    2.3381
   33.090    2.0116
   33.105    1.9379
   33.120    1.9379
   33.135    1.9379
   33.150    2.2749
   33.165    2.0432
   33.180    2.0958
   33.195    2.2012
   33.210    1.8957
   33.225    1.8431
   33.240    2.0221
   33.255    2.0326
   33.270    1.9695
   33.285    1.9168
   33.300    1.9800
   33.315    1.9695
   33.330    2.1169
   33.345    2.0748
   33.360    1.8747
   33.375    2.0537
   33.390    2.1696
   33.405    2.0116
   33.420    1.7588
   33.435    1.9905
   33.450    2.0537
   33.465    2.0011
   33.480    2.0221
   33.495    1.9905
   33.510    1.9063
   33.525    1.9589
   33.540    1.9800
   33.555    1.9273
   33.570    1.8536
   33.585    1.8536
   33.600    1.8325
   33.615    2.0432
   33.630    1.8957
   33.645    2.0748
   33.660    1.8852
   33.675    1.8747
   33.690    2.0011
   33.705    2.1064
   33.720    2.0432
   33.735    2.1906
   33.750    1.9484
   33.765    1.7062
   33.780    1.8852
   33.795    2.1064
   33.810    2.1485
   33.825    1.9379
   33.840    1.9800
   33.855    1.7799
   33.870    2.0853
   33.885    1.9905
   33.900    2.0642
   33.915    1.8957
   33.930    1.8641
   33.945    1.9800
   33.960    1.9273
   33.975    1.7167
   33.990    1.8220
   34.005    1.8431
   34.020    1.9063
   34.035    2.0326
   34.050    2.0642
   34.065    1.9589
   34.080    1.9905
   34.095    1.8747
   34.110    2.2328
   34.125    2.2117
   34.140    1.9800
   34.155    1.8325
   34.170    1.8852
   34.185    1.8431
   34.200    2.0432
   34.215    1.9800
   34.230    2.0748
   34.245    1.9168
   34.260    1.9589
   34.275    1.8009
   34.290    1.9905
   34.305    2.1485
   34.320    2.2222
   34.335    2.0432
   34.350    1.9379
   34.365    1.8325
   34.380    1.7483
   34.395    1.8431
   34.410    1.9379
   34.425    2.0748
   34.440    1.8747
   34.455    1.8852
   34.470    1.7694
   34.485    2.0537
   34.500    1.9168
   34.515    1.8220
   34.530    1.7062
   34.545    2.0537
   34.560    1.6851
   34.575    1.9589
   34.590    1.9379
   34.605    1.8431
   34.620    1.8009
   34.635    1.8431
   34.650    1.8431
   34.665    1.8431
   34.680    1.7588
   34.695    1.9168
   34.710    2.0011
   34.725    1.9905
   34.740    1.8641
   34.755    1.8431
   34.770    1.8009
   34.785    2.0116
   34.800    1.9379
   34.815    1.7483
   34.830    1.7588
   34.845    1.9063
   34.860    1.9379
   34.875    1.8220
   34.890    1.6746
   34.905    1.6640
   34.920    1.6956
   34.935    1.7588
   34.950    1.8747
   34.965    1.6640
   34.980    1.7167
   34.995    1.8220
   35.010    1.7588
   35.025    1.8220
   35.040    1.9168
   35.055    1.9273
   35.070    1.8115
   35.085    1.9589
   35.100    1.8747
   35.115    1.6851
   35.130    2.0748
   35.145    1.9063
   35.160    1.8431
   35.175    1.9063
   35.190    1.6430
   35.205    1.6008
   35.220    1.6956
   35.235    1.5377
   35.250    1.7694
   35.265    1.6219
   35.280    1.8325
   35.295    1.8220
   35.310    1.7167
   35.325    1.7588
   35.340    1.6956
   35.355    1.9379
   35.370    1.9905
   35.385    1.7588
   35.400    1.6746
   35.415    1.8957
   35.430    1.8852
   35.445    1.8431
   35.460    1.7062
   35.475    1.8220
   35.490    2.0326
   35.505    1.8431
   35.520    1.8747
   35.535    2.0116
   35.550    1.8957
   35.565    1.4745
   35.580    1.6324
   35.595    1.6640
   35.610    1.5271
   35.625    1.6219
   35.640    1.6746
   35.655    1.8115
   35.670    1.7483
   35.685    1.6114
   35.700    1.6956
   35.715    1.9379
   35.730    1.8220
   35.745    1.7904
   35.760    1.6746
   35.775    1.6746
   35.790    1.7799
   35.805    1.8431
   35.820    1.7588
   35.835    1.6219
   35.850    1.6219
   35.865    1.5271
   35.880    1.5482
   35.895    1.6430
   35.910    1.7694
   35.925    1.8009
   35.940    1.6430
   35.955    1.5061
   35.970    1.7799
   35.985    1.7062
   36.000    1.7694
   36.015    1.7062
   36.030    1.6324
   36.045    1.8009
   36.060    1.6956
   36.075    1.8641
   36.090    1.5271
   36.105    1.6430
   36.120    1.4323
   36.135    1.6430
   36.150    1.8747
   36.165    1.6324
   36.180    1.6008
   36.195    1.6640
   36.210    1.6640
   36.225    1.6430
   36.240    1.4850
   36.255    1.7904
   36.270    1.8852
   36.285    1.5692
   36.300    1.7904
   36.315    1.7062
   36.330    1.4955
   36.345    1.6114
   36.360    1.7799
   36.375    1.7799
   36.390    1.5166
   36.405    1.5903
   36.420    1.5903
   36.435    1.7799
   36.450    1.5798
   36.465    1.7904
   36.480    1.6640
   36.495    1.6324
   36.510    1.4955
   36.525    1.6114
   36.540    1.7167
   36.555    1.6219
   36.570    1.4955
   36.585    1.5377
   36.600    1.5903
   36.615    1.4323
   36.630    1.6219
   36.645    1.5587
   36.660    1.6219
   36.675    1.5166
   36.690    1.5692
   36.705    1.6535
   36.720    1.4113
   36.735    1.5798
   36.750    1.6219
   36.765    1.5377
   36.780    1.6114
   36.795    1.6219
   36.810    1.6640
   36.825    1.5798
   36.840    1.2112
   36.855    1.3586
   36.870    1.4429
   36.885    1.4429
   36.900    1.5903
   36.915    1.5271
   36.930    1.5061
   36.945    1.5587
   36.960    1.4745
   36.975    1.5587
   36.990    1.6640
   37.005    1.5692
   37.020    1.6008
   37.035    1.7588
   37.050    1.8115
   37.065    1.5166
   37.080    1.4955
   37.095    1.6640
   37.110    1.6746
   37.125    1.5587
   37.140    1.5482
   37.155    1.5587
   37.170    1.6430
   37.185    1.7062
   37.200    1.6430
   37.215    1.5692
   37.230    1.5692
   37.245    1.5166
   37.260    1.6324
   37.275    1.7483
   37.290    1.6640
   37.305    1.4955
   37.320    1.5587
   37.335    1.4639
   37.350    1.4850
   37.365    1.5166
   37.380    1.5061
   37.395    1.4955
   37.410    1.5271
   37.425    1.5166
   37.440    1.5482
   37.455    1.4429
   37.470    1.4955
   37.485    1.7167
   37.500    1.6430
   37.515    1.7062
   37.530    1.6008
   37.545    1.4955
   37.560    1.4850
   37.575    1.4745
   37.590    1.4113
   37.605    1.4745
   37.620    1.5798
   37.635    1.5482
   37.650    1.3797
   37.665    1.4850
   37.680    1.5377
   37.695    1.4745
   37.710    1.5271
   37.725    1.5061
   37.740    1.4429
   37.755    1.2533
   37.770    1.5482
   37.785    1.5271
   37.800    1.6535
   37.815    1.5587
   37.830    1.4218
   37.845    1.2217
   37.860    1.4534
   37.875    1.5271
   37.890    1.5692
   37.905    1.5903
   37.920    1.5798
   37.935    1.6008
   37.950    1.4639
   37.965    1.3797
   37.980    1.5692
   37.995    1.5271
   38.010    1.5798
   38.025    1.4850
   38.040    1.4850
   38.055    1.4745
   38.070    1.3270
   38.085    1.5166
   38.100    1.5903
   38.115    1.4639
   38.130    1.6008
   38.145    1.4323
   38.160    1.4850
   38.175    1.4218
   38.190    1.5061
   38.205    1.5166
   38.220    1.5482
   38.235    1.6008
   38.250    1.4850
   38.265    1.5587
   38.280    1.4323
   38.295    1.4955
   38.310    1.4113
   38.325    1.3060
   38.340    1.4955
   38.355    1.3586
   38.370    1.6219
   38.385    1.6008
   38.400    1.5061
   38.415    1.5587
   38.430    1.5166
   38.445    1.5166
   38.460    1.4007
   38.475    1.3902
   38.490    1.5061
   38.505    1.5377
   38.520    1.3270
   38.535    1.3586
   38.550    1.3797
   38.565    1.3375
   38.580    1.3902
   38.595    1.5903
   38.610    1.4113
   38.625    1.3270
   38.640    1.2533
   38.655    1.3797
   38.670    1.4639
   38.685    1.3797
   38.700    1.1374
   38.715    1.4007
   38.730    1.6535
   38.745    1.5061
   38.760    1.4534
   38.775    1.5166
   38.790    1.5692
   38.805    1.2533
   38.820    1.3586
   38.835    1.5798
   38.850    1.5271
   38.865    1.5271
   38.880    1.5903
   38.895    1.5271
   38.910    1.5166
   38.925    1.3586
   38.940    1.3586
   38.955    1.5271
   38.970    1.5692
   38.985    1.2217
   39.000    1.3270
   39.015    1.3691
   39.030    1.4113
   39.045    1.6114
   39.060    1.3902
   39.075    1.3797
   39.090    1.3797
   39.105    1.3165
   39.120    1.3481
   39.135    1.5061
   39.150    1.2849
   39.165    1.2744
   39.180    1.2428
   39.195    1.2849
   39.210    1.3165
   39.225    1.0742
   39.240    1.3060
   39.255    1.4429
   39.270    1.2428
   39.285    1.3797
   39.300    1.3902
   39.315    1.4850
   39.330    1.3797
   39.345    1.4534
   39.360    1.3481
   39.375    1.3060
   39.390    1.4745
   39.405    1.3375
   39.420    1.3586
   39.435    1.3586
   39.450    1.1480
   39.465    1.3375
   39.480    1.3481
   39.495    1.3165
   39.510    1.5061
   39.525    1.3797
   39.540    1.2954
   39.555    1.3165
   39.570    1.4850
   39.585    1.2322
   39.600    1.4113
   39.615    1.3270
   39.630    1.4218
   39.645    1.4745
   39.660    1.4007
   39.675    1.3481
   39.690    1.3375
   39.705    1.4323
   39.720    1.4639
   39.735    1.3481
   39.750    1.3165
   39.765    1.2638
   39.780    1.4323
   39.795    1.5271
   39.810    1.3902
   39.825    1.3691
   39.840    1.5061
   39.855    1.3691
   39.870    1.4534
   39.885    1.5903
   39.900    1.5271
   39.915    1.5692
   39.930    1.4429
   39.945    1.3797
   39.960    1.4113
   39.975    1.6430
   39.990    1.4323
