    2.000     1543
    2.015     1622
    2.030     1675
    2.045     1627
    2.060     1611
    2.075     1613
    2.090     1556
    2.105     1554
    2.120     1564
    2.135     1598
    2.150     1583
    2.165     1630
    2.180     1570
    2.195     1515
    2.210     1531
    2.225     1689
    2.240     1581
    2.255     1588
    2.270     1511
    2.285     1496
    2.300     1556
    2.315     1436
    2.330     1537
    2.345     1584
    2.360     1589
    2.375     1623
    2.390     1555
    2.405     1527
    2.420     1572
    2.435     1613
    2.450     1525
    2.465     1550
    2.480     1569
    2.495     1511
    2.510     1509
    2.525     1486
    2.540     1473
    2.555     1510
    2.570     1583
    2.585     1518
    2.600     1491
    2.615     1549
    2.630     1483
    2.645     1500
    2.660     1521
    2.675     1502
    2.690     1569
    2.705     1608
    2.720     1559
    2.735     1465
    2.750     1458
    2.765     1406
    2.780     1398
    2.795     1490
    2.810     1552
    2.825     1516
    2.840     1488
    2.855     1559
    2.870     1595
    2.885     1564
    2.900     1507
    2.915     1488
    2.930     1485
    2.945     1455
    2.960     1542
    2.975     1481
    2.990     1420
    3.005     1454
    3.020     1488
    3.035     1485
    3.050     1535
    3.065     1532
    3.080     1498
    3.095     1473
    3.110     1536
    3.125     1540
    3.140     1535
    3.155     1527
    3.170     1498
    3.185     1569
    3.200     1569
    3.215     1517
    3.230     1493
    3.245     1472
    3.260     1555
    3.275     1474
    3.290     1470
    3.305     1476
    3.320     1451
    3.335     1584
    3.350     1529
    3.365     1397
    3.380     1445
    3.395     1512
    3.410     1400
    3.425     1483
    3.440     1493
    3.455     1453
    3.470     1411
    3.485     1526
    3.500     1550
    3.515     1462
    3.530     1483
    3.545     1438
    3.560     1413
    3.575     1430
    3.590     1446
    3.605     1384
    3.620     1412
    3.635     1501
    3.650     1416
    3.665     1500
    3.680     1512
    3.695     1478
    3.710     1452
    3.725     1473
    3.740     1431
    3.755     1448
    3.770     1471
    3.785     1476
    3.800     1402
    3.815     1470
    3.830     1470
    3.845     1423
    3.860     1417
    3.875     1498
    3.890     1467
    3.905     1394
    3.920     1397
    3.935     1522
    3.950     1471
    3.965     1404
    3.980     1429
    3.995     1455
    4.010     1502
    4.025     1466
    4.040     1453
    4.055     1444
    4.070     1472
    4.085     1445
    4.100     1474
    4.115     1422
    4.130     1426
    4.145     1433
    4.160     1462
    4.175     1495
    4.190     1407
    4.205     1539
    4.220     1501
    4.235     1491
    4.250     1428
    4.265     1409
    4.280     1480
    4.295     1498
    4.310     1403
    4.325     1367
    4.340     1422
    4.355     1428
    4.370     1454
    4.385     1442
    4.400     1451
    4.415     1505
    4.430     1476
    4.445     1488
    4.460     1485
    4.475     1492
    4.490     1538
    4.505     1511
    4.520     1424
    4.535     1410
    4.550     1451
    4.565     1440
    4.580     1410
    4.595     1445
    4.610     1435
    4.625     1432
    4.640     1434
    4.655     1462
    4.670     1436
    4.685     1440
    4.700     1453
    4.715     1487
    4.730     1469
    4.745     1424
    4.760     1417
    4.775     1445
    4.790     1442
    4.805     1378
    4.820     1356
    4.835     1445
    4.850     1432
    4.865     1433
    4.880     1413
    4.895     1436
    4.910     1482
    4.925     1472
    4.940     1502
    4.955     1416
    4.970     1384
    4.985     1397
    5.000     1415
    5.015     1459
    5.030     1418
    5.045     1360
    5.060     1355
    5.075     1433
    5.090     1436
    5.105     1374
    5.120     1376
    5.135     1399
    5.150     1434
    5.165     1440
    5.180     1395
    5.195     1417
    5.210     1430
    5.225     1440
    5.240     1437
    5.255     1328
    5.270     1336
    5.285     1369
    5.300     1360
    5.315     1419
    5.330     1390
    5.345     1400
    5.360     1390
    5.375     1406
    5.390     1452
    5.405     1461
    5.420     1461
    5.435     1400
    5.450     1427
    5.465     1403
    5.480     1336
    5.495     1375
    5.510     1446
    5.525     1397
    5.540     1431
    5.555     1488
    5.570     1421
    5.585     1332
    5.600     1378
    5.615     1369
    5.630     1349
    5.645     1467
    5.660     1406
    5.675     1468
    5.690     1425
    5.705     1445
    5.720     1379
    5.735     1401
    5.750     1521
    5.765     1512
    5.780     1389
    5.795     1464
    5.810     1401
    5.825     1372
    5.840     1413
    5.855     1412
    5.870     1436
    5.885     1361
    5.900     1367
    5.915     1285
    5.930     1405
    5.945     1435
    5.960     1333
    5.975     1396
    5.990     1372
    6.005     1391
    6.020     1437
    6.035     1383
    6.050     1359
    6.065     1420
    6.080     1292
    6.095     1301
    6.110     1406
    6.125     1377
    6.140     1350
    6.155     1335
    6.170     1376
    6.185     1408
    6.200     1372
    6.215     1347
    6.230     1433
    6.245     1387
    6.260     1318
    6.275     1323
    6.290     1347
    6.305     1372
    6.320     1369
    6.335     1389
    6.350     1361
    6.365     1390
    6.380     1435
    6.395     1403
    6.410     1364
    6.425     1333
    6.440     1360
    6.455     1366
    6.470     1355
    6.485     1339
    6.500     1342
    6.515     1342
    6.530     1363
    6.545     1359
    6.560     1403
    6.575     1434
    6.590     1363
    6.605     1398
    6.620     1379
    6.635     1347
    6.650     1403
    6.665     1429
    6.680     1431
    6.695     1378
    6.710     1350
    6.725     1395
    6.740     1451
    6.755     1421
    6.770     1409
    6.785     1397
    6.800     1400
    6.815     1370
    6.830     1447
    6.845     1429
    6.860     1402
    6.875     1392
    6.890     1479
    6.905     1363
    6.920     1380
    6.935     1342
    6.950     1310
    6.965     1397
    6.980     1415
    6.995     1345
    7.010     1279
    7.025     1363
    7.040     1412
    7.055     1376
    7.070     1423
    7.085     1281
    7.100     1415
    7.115     1429
    7.130     1449
    7.145     1324
    7.160     1225
    7.175     1366
    7.190     1424
    7.205     1368
    7.220     1367
    7.235     1307
    7.250     1383
    7.265     1388
    7.280     1365
    7.295     1405
    7.310     1355
    7.325     1363
    7.340     1418
    7.355     1409
    7.370     1325
    7.385     1306
    7.400     1397
    7.415     1382
    7.430     1365
    7.445     1298
    7.460     1386
    7.475     1338
    7.490     1353
    7.505     1430
    7.520     1341
    7.535     1387
    7.550     1404
    7.565     1352
    7.580     1380
    7.595     1405
    7.610     1376
    7.625     1460
    7.640     1359
    7.655     1398
    7.670     1427
    7.685     1382
    7.700     1290
    7.715     1378
    7.730     1332
    7.745     1441
    7.760     1385
    7.775     1335
    7.790     1320
    7.805     1370
    7.820     1402
    7.835     1463
    7.850     1432
    7.865     1384
    7.880     1382
    7.895     1391
    7.910     1381
    7.925     1361
    7.940     1337
    7.955     1391
    7.970     1434
    7.985     1399
    8.000     1406
    8.015     1430
    8.030     1540
    8.045     1521
    8.060     1425
    8.075     1411
    8.090     1380
    8.105     1442
    8.120     1410
    8.135     1375
    8.150     1375
    8.165     1383
    8.180     1372
    8.195     1373
    8.210     1366
    8.225     1445
    8.240     1438
    8.255     1423
    8.270     1398
    8.285     1349
    8.300     1410
    8.315     1369
    8.330     1417
    8.345     1468
    8.360     1481
    8.375     1443
    8.390     1442
    8.405     1425
    8.420     1475
    8.435     1467
    8.450     1393
    8.465     1393
    8.480     1387
    8.495     1320
    8.510     1353
    8.525     1440
    8.540     1414
    8.555     1433
    8.570     1451
    8.585     1456
    8.600     1366
    8.615     1416
    8.630     1350
    8.645     1368
    8.660     1394
    8.675     1411
    8.690     1400
    8.705     1485
    8.720     1475
    8.735     1396
    8.750     1359
    8.765     1397
    8.780     1472
    8.795     1428
    8.810     1491
    8.825     1489
    8.840     1466
    8.855     1573
    8.870     1606
    8.885     1662
    8.900     1634
    8.915     1688
    8.930     1652
    8.945     1668
    8.960     1688
    8.975     1730
    8.990     1840
    9.005     1893
    9.020     1968
    9.035     2065
    9.050     2221
    9.065     2333
    9.080     2334
    9.095     2375
    9.110     2699
    9.125     2866
    9.140     2928
    9.155     3311
    9.170     3546
    9.185     3791
    9.200     4286
    9.215     4540
    9.230     5051
    9.245     5638
    9.260     7095
    9.275     8132
    9.290    10037
    9.305    11867
    9.320    12798
    9.335    12011
    9.350     9239
    9.365     5853
    9.380     3708
    9.395     2638
    9.410     2208
    9.425     2106
    9.440     2088
    9.455     2063
    9.470     2068
    9.485     2329
    9.500     2481
    9.515     2651
    9.530     2972
    9.545     3030
    9.560     2717
    9.575     2340
    9.590     1817
    9.605     1605
    9.620     1495
    9.635     1480
    9.650     1407
    9.665     1477
    9.680     1522
    9.695     1452
    9.710     1441
    9.725     1461
    9.740     1440
    9.755     1409
    9.770     1375
    9.785     1360
    9.800     1387
    9.815     1490
    9.830     1427
    9.845     1465
    9.860     1408
    9.875     1441
    9.890     1491
    9.905     1379
    9.920     1481
    9.935     1461
    9.950     1359
    9.965     1402
    9.980     1413
    9.995     1392
   10.010     1478
   10.025     1403
   10.040     1402
   10.055     1381
   10.070     1411
   10.085     1447
   10.100     1495
   10.115     1490
   10.130     1393
   10.145     1401
   10.160     1432
   10.175     1476
   10.190     1356
   10.205     1385
   10.220     1400
   10.235     1432
   10.250     1396
   10.265     1381
   10.280     1476
   10.295     1472
   10.310     1378
   10.325     1392
   10.340     1438
   10.355     1391
   10.370     1431
   10.385     1452
   10.400     1381
   10.415     1429
   10.430     1436
   10.445     1460
   10.460     1489
   10.475     1539
   10.490     1491
   10.505     1540
   10.520     1433
   10.535     1356
   10.550     1453
   10.565     1453
   10.580     1410
   10.595     1427
   10.610     1420
   10.625     1468
   10.640     1435
   10.655     1375
   10.670     1365
   10.685     1448
   10.700     1440
   10.715     1453
   10.730     1456
   10.745     1429
   10.760     1432
   10.775     1413
   10.790     1441
   10.805     1467
   10.820     1421
   10.835     1408
   10.850     1422
   10.865     1444
   10.880     1437
   10.895     1436
   10.910     1502
   10.925     1534
   10.940     1481
   10.955     1406
   10.970     1395
   10.985     1417
   11.000     1394
   11.015     1448
   11.030     1435
   11.045     1436
   11.060     1433
   11.075     1401
   11.090     1410
   11.105     1395
   11.120     1365
   11.135     1443
   11.150     1479
   11.165     1447
   11.180     1416
   11.195     1438
   11.210     1537
   11.225     1493
   11.240     1388
   11.255     1415
   11.270     1476
   11.285     1483
   11.300     1459
   11.315     1431
   11.330     1359
   11.345     1432
   11.360     1463
   11.375     1419
   11.390     1453
   11.405     1518
   11.420     1415
   11.435     1464
   11.450     1538
   11.465     1468
   11.480     1395
   11.495     1396
   11.510     1441
   11.525     1433
   11.540     1496
   11.555     1488
   11.570     1424
   11.585     1379
   11.600     1436
   11.615     1428
   11.630     1387
   11.645     1366
   11.660     1358
   11.675     1440
   11.690     1425
   11.705     1460
   11.720     1450
   11.735     1375
   11.750     1442
   11.765     1549
   11.780     1413
   11.795     1490
   11.810     1424
   11.825     1435
   11.840     1508
   11.855     1497
   11.870     1465
   11.885     1339
   11.900     1427
   11.915     1387
   11.930     1467
   11.945     1440
   11.960     1348
   11.975     1412
   11.990     1458
   12.005     1450
   12.020     1445
   12.035     1432
   12.050     1430
   12.065     1463
   12.080     1376
   12.095     1394
   12.110     1341
   12.125     1372
   12.140     1384
   12.155     1419
   12.170     1431
   12.185     1479
   12.200     1491
   12.215     1507
   12.230     1489
   12.245     1535
   12.260     1505
   12.275     1541
   12.290     1597
   12.305     1592
   12.320     1639
   12.335     1729
   12.350     1741
   12.365     1893
   12.380     1972
   12.395     2059
   12.410     2192
   12.425     2290
   12.440     2570
   12.455     3036
   12.470     3494
   12.485     3642
   12.500     3530
   12.515     3163
   12.530     2400
   12.545     1825
   12.560     1571
   12.575     1499
   12.590     1453
   12.605     1431
   12.620     1477
   12.635     1453
   12.650     1354
   12.665     1471
   12.680     1425
   12.695     1426
   12.710     1482
   12.725     1487
   12.740     1460
   12.755     1442
   12.770     1426
   12.785     1423
   12.800     1479
   12.815     1403
   12.830     1443
   12.845     1465
   12.860     1437
   12.875     1479
   12.890     1469
   12.905     1433
   12.920     1529
   12.935     1398
   12.950     1420
   12.965     1529
   12.980     1436
   12.995     1443
   13.010     1455
   13.025     1383
   13.040     1442
   13.055     1466
   13.070     1472
   13.085     1359
   13.100     1409
   13.115     1455
   13.130     1411
   13.145     1437
   13.160     1366
   13.175     1397
   13.190     1415
   13.205     1472
   13.220     1444
   13.235     1431
   13.250     1430
   13.265     1407
   13.280     1488
   13.295     1487
   13.310     1429
   13.325     1388
   13.340     1468
   13.355     1441
   13.370     1401
   13.385     1423
   13.400     1416
   13.415     1334
   13.430     1390
   13.445     1328
   13.460     1442
   13.475     1408
   13.490     1398
   13.505     1476
   13.520     1447
   13.535     1431
   13.550     1403
   13.565     1375
   13.580     1476
   13.595     1422
   13.610     1470
   13.625     1470
   13.640     1411
   13.655     1433
   13.670     1475
   13.685     1455
   13.700     1412
   13.715     1466
   13.730     1486
   13.745     1486
   13.760     1542
   13.775     1506
   13.790     1425
   13.805     1562
   13.820     1591
   13.835     1614
   13.850     1572
   13.865     1669
   13.880     1625
   13.895     1576
   13.910     1601
   13.925     1617
   13.940     1576
   13.955     1537
   13.970     1589
   13.985     1479
   14.000     1412
   14.015     1425
   14.030     1505
   14.045     1479
   14.060     1450
   14.075     1484
   14.090     1455
   14.105     1483
   14.120     1436
   14.135     1400
   14.150     1444
   14.165     1498
   14.180     1466
   14.195     1443
   14.210     1449
   14.225     1485
   14.240     1504
   14.255     1578
   14.270     1475
   14.285     1448
   14.300     1460
   14.315     1441
   14.330     1480
   14.345     1521
   14.360     1506
   14.375     1554
   14.390     1572
   14.405     1514
   14.420     1445
   14.435     1469
   14.450     1475
   14.465     1489
   14.480     1488
   14.495     1447
   14.510     1466
   14.525     1465
   14.540     1465
   14.555     1517
   14.570     1508
   14.585     1453
   14.600     1399
   14.615     1464
   14.630     1432
   14.645     1479
   14.660     1472
   14.675     1528
   14.690     1583
   14.705     1566
   14.720     1556
   14.735     1525
   14.750     1465
   14.765     1393
   14.780     1442
   14.795     1521
   14.810     1499
   14.825     1498
   14.840     1453
   14.855     1545
   14.870     1565
   14.885     1595
   14.900     1548
   14.915     1562
   14.930     1511
   14.945     1474
   14.960     1525
   14.975     1476
   14.990     1472
   15.005     1479
   15.020     1543
   15.035     1527
   15.050     1534
   15.065     1519
   15.080     1553
   15.095     1477
   15.110     1552
   15.125     1591
   15.140     1503
   15.155     1570
   15.170     1572
   15.185     1622
   15.200     1571
   15.215     1489
   15.230     1513
   15.245     1512
   15.260     1601
   15.275     1494
   15.290     1549
   15.305     1592
   15.320     1475
   15.335     1547
   15.350     1533
   15.365     1478
   15.380     1508
   15.395     1467
   15.410     1498
   15.425     1507
   15.440     1622
   15.455     1457
   15.470     1493
   15.485     1598
   15.500     1640
   15.515     1574
   15.530     1441
   15.545     1520
   15.560     1477
   15.575     1561
   15.590     1463
   15.605     1499
   15.620     1525
   15.635     1615
   15.650     1498
   15.665     1629
   15.680     1611
   15.695     1553
   15.710     1553
   15.725     1608
   15.740     1578
   15.755     1565
   15.770     1498
   15.785     1537
   15.800     1558
   15.815     1555
   15.830     1603
   15.845     1587
   15.860     1631
   15.875     1625
   15.890     1616
   15.905     1632
   15.920     1655
   15.935     1668
   15.950     1647
   15.965     1620
   15.980     1675
   15.995     1755
   16.010     1921
   16.025     1898
   16.040     1996
   16.055     2080
   16.070     2222
   16.085     2374
   16.100     2529
   16.115     2425
   16.130     2269
   16.145     2113
   16.160     1965
   16.175     1877
   16.190     1664
   16.205     1703
   16.220     1639
   16.235     1600
   16.250     1553
   16.265     1597
   16.280     1700
   16.295     1662
   16.310     1601
   16.325     1609
   16.340     1680
   16.355     1716
   16.370     1705
   16.385     1751
   16.400     1752
   16.415     1903
   16.430     1932
   16.445     2051
   16.460     2142
   16.475     2445
   16.490     2581
   16.505     2496
   16.520     2242
   16.535     1886
   16.550     1744
   16.565     1707
   16.580     1661
   16.595     1659
   16.610     1646
   16.625     1676
   16.640     1608
   16.655     1623
   16.670     1618
   16.685     1675
   16.700     1677
   16.715     1757
   16.730     1739
   16.745     1706
   16.760     1717
   16.775     1718
   16.790     1737
   16.805     1743
   16.820     1755
   16.835     1757
   16.850     1739
   16.865     1824
   16.880     1880
   16.895     2020
   16.910     2111
   16.925     2117
   16.940     2149
   16.955     2075
   16.970     2003
   16.985     1875
   17.000     1732
   17.015     1740
   17.030     1695
   17.045     1711
   17.060     1712
   17.075     1701
   17.090     1704
   17.105     1647
   17.120     1662
   17.135     1721
   17.150     1757
   17.165     1744
   17.180     1700
   17.195     1772
   17.210     1839
   17.225     1729
   17.240     1751
   17.255     1648
   17.270     1832
   17.285     1832
   17.300     1830
   17.315     1819
   17.330     1783
   17.345     1814
   17.360     1854
   17.375     1772
   17.390     1819
   17.405     1819
   17.420     1731
   17.435     1739
   17.450     1749
   17.465     1734
   17.480     1646
   17.495     1644
   17.510     1757
   17.525     1733
   17.540     1823
   17.555     1798
   17.570     1703
   17.585     1642
   17.600     1659
   17.615     1664
   17.630     1663
   17.645     1764
   17.660     1739
   17.675     1833
   17.690     1700
   17.705     1780
   17.720     1789
   17.735     1774
   17.750     1792
   17.765     1832
   17.780     1781
   17.795     1766
   17.810     1753
   17.825     1727
   17.840     1719
   17.855     1816
   17.870     1820
   17.885     1689
   17.900     1688
   17.915     1689
   17.930     1791
   17.945     1785
   17.960     1736
   17.975     1702
   17.990     1754
   18.005     1729
   18.020     1799
   18.035     1765
   18.050     1681
   18.065     1747
   18.080     1734
   18.095     1752
   18.110     1773
   18.125     1707
   18.140     1690
   18.155     1740
   18.170     1829
   18.185     1798
   18.200     1784
   18.215     1819
   18.230     1837
   18.245     1763
   18.260     1747
   18.275     1720
   18.290     1758
   18.305     1758
   18.320     1695
   18.335     1733
   18.350     1739
   18.365     1770
   18.380     1822
   18.395     1818
   18.410     1833
   18.425     1785
   18.440     1817
   18.455     1827
   18.470     1873
   18.485     1813
   18.500     1863
   18.515     1827
   18.530     1784
   18.545     1806
   18.560     1934
   18.575     1972
   18.590     2024
   18.605     2077
   18.620     2139
   18.635     2220
   18.650     2368
   18.665     2616
   18.680     2854
   18.695     3178
   18.710     3699
   18.725     4329
   18.740     4932
   18.755     5245
   18.770     5683
   18.785     5697
   18.800     5518
   18.815     4568
   18.830     3894
   18.845     2948
   18.860     2427
   18.875     2118
   18.890     1970
   18.905     1990
   18.920     1984
   18.935     1865
   18.950     1871
   18.965     2056
   18.980     1948
   18.995     1894
   19.010     1893
   19.025     1973
   19.040     1990
   19.055     1978
   19.070     1925
   19.085     1948
   19.100     2115
   19.115     2122
   19.130     2185
   19.145     2032
   19.160     2170
   19.175     2494
   19.190     2554
   19.205     2987
   19.220     3089
   19.235     3105
   19.250     2811
   19.265     2513
   19.280     2188
   19.295     2091
   19.310     1902
   19.325     1907
   19.340     1930
   19.355     1900
   19.370     1950
   19.385     1900
   19.400     1949
   19.415     1896
   19.430     1918
   19.445     1910
   19.460     1987
   19.475     1876
   19.490     1800
   19.505     1928
   19.520     1884
   19.535     1943
   19.550     1931
   19.565     1800
   19.580     1886
   19.595     1881
   19.610     1913
   19.625     1977
   19.640     1829
   19.655     1899
   19.670     1907
   19.685     1963
   19.700     1930
   19.715     1973
   19.730     1872
   19.745     1858
   19.760     2087
   19.775     1961
   19.790     1830
   19.805     2009
   19.820     1988
   19.835     2089
   19.850     2053
   19.865     1912
   19.880     1901
   19.895     1933
   19.910     1907
   19.925     1891
   19.940     1884
   19.955     1903
   19.970     1967
   19.985     1920
   20.000     1891
   20.015     1904
   20.030     2066
   20.045     2097
   20.060     1925
   20.075     2008
   20.090     1964
   20.105     1988
   20.120     1917
   20.135     1936
   20.150     2027
   20.165     1956
   20.180     1905
   20.195     2006
   20.210     1993
   20.225     2039
   20.240     2019
   20.255     2028
   20.270     1932
   20.285     1977
   20.300     1981
   20.315     1892
   20.330     1991
   20.345     2110
   20.360     2078
   20.375     2041
   20.390     2036
   20.405     2007
   20.420     2087
   20.435     2087
   20.450     2020
   20.465     2008
   20.480     1972
   20.495     1915
   20.510     1968
   20.525     1985
   20.540     1995
   20.555     2034
   20.570     2091
   20.585     1999
   20.600     1931
   20.615     1979
   20.630     2014
   20.645     2092
   20.660     2006
   20.675     2006
   20.690     2017
   20.705     2077
   20.720     2117
   20.735     2033
   20.750     2028
   20.765     1988
   20.780     2038
   20.795     2061
   20.810     2143
   20.825     2177
   20.840     2199
   20.855     2397
   20.870     2419
   20.885     2509
   20.900     2327
   20.915     2302
   20.930     2180
   20.945     2172
   20.960     2198
   20.975     2228
   20.990     2178
   21.005     2184
   21.020     2353
   21.035     2411
   21.050     2565
   21.065     2786
   21.080     2802
   21.095     2685
   21.110     2867
   21.125     3125
   21.140     3190
   21.155     3577
   21.170     3641
   21.185     3804
   21.200     4014
   21.215     3957
   21.230     4051
   21.245     4213
   21.260     4586
   21.275     4513
   21.290     4568
   21.305     4623
   21.320     4482
   21.335     4367
   21.350     4369
   21.365     3966
   21.380     3876
   21.395     3672
   21.410     3387
   21.425     3279
   21.440     3177
   21.455     2697
   21.470     2439
   21.485     2476
   21.500     2369
   21.515     2217
   21.530     2108
   21.545     2111
   21.560     2030
   21.575     2028
   21.590     2030
   21.605     2012
   21.620     2002
   21.635     2027
   21.650     2016
   21.665     2090
   21.680     2129
   21.695     2045
   21.710     1987
   21.725     2089
   21.740     2123
   21.755     2143
   21.770     2097
   21.785     2173
   21.800     2353
   21.815     2509
   21.830     2664
   21.845     2720
   21.860     2850
   21.875     3064
   21.890     3083
   21.905     3205
   21.920     3311
   21.935     3451
   21.950     3309
   21.965     3098
   21.980     2855
   21.995     2570
   22.010     2355
   22.025     2066
   22.040     2045
   22.055     1930
   22.070     2024
   22.085     1987
   22.100     2086
   22.115     2009
   22.130     1917
   22.145     1876
   22.160     1882
   22.175     1954
   22.190     1826
   22.205     1947
   22.220     2002
   22.235     1949
   22.250     1824
   22.265     1843
   22.280     1973
   22.295     1962
   22.310     1912
   22.325     1851
   22.340     1962
   22.355     1937
   22.370     1920
   22.385     1945
   22.400     1886
   22.415     1915
   22.430     1920
   22.445     1901
   22.460     1916
   22.475     1910
   22.490     1876
   22.505     1861
   22.520     1900
   22.535     1838
   22.550     1839
   22.565     1894
   22.580     1852
   22.595     1837
   22.610     1838
   22.625     1873
   22.640     1854
   22.655     1763
   22.670     1709
   22.685     1839
   22.700     1796
   22.715     1848
   22.730     1845
   22.745     1856
   22.760     1889
   22.775     1829
   22.790     1797
   22.805     1873
   22.820     1854
   22.835     1833
   22.850     1851
   22.865     1846
   22.880     1811
   22.895     1828
   22.910     1851
   22.925     1855
   22.940     1872
   22.955     1860
   22.970     1815
   22.985     1857
   23.000     1827
   23.015     1860
   23.030     1798
   23.045     1769
   23.060     1810
   23.075     1802
   23.090     1742
   23.105     1751
   23.120     1782
   23.135     1761
   23.150     1765
   23.165     1740
   23.180     1713
   23.195     1793
   23.210     1874
   23.225     1851
   23.240     1768
   23.255     1650
   23.270     1789
   23.285     1806
   23.300     1843
   23.315     1866
   23.330     1833
   23.345     1877
   23.360     1860
   23.375     1753
   23.390     1907
   23.405     1952
   23.420     1974
   23.435     2011
   23.450     2031
   23.465     2140
   23.480     2107
   23.495     2185
   23.510     2215
   23.525     2321
   23.540     2385
   23.555     2355
   23.570     2298
   23.585     2172
   23.600     2347
   23.615     2333
   23.630     2372
   23.645     2432
   23.660     2353
   23.675     2494
   23.690     2396
   23.705     2467
   23.720     2425
   23.735     2282
   23.750     2309
   23.765     2295
   23.780     2151
   23.795     2258
   23.810     2104
   23.825     2120
   23.840     2088
   23.855     2097
   23.870     1993
   23.885     1844
   23.900     1802
   23.915     1704
   23.930     1733
   23.945     1670
   23.960     1660
   23.975     1639
   23.990     1671
   24.005     1665
   24.020     1747
   24.035     1625
   24.050     1603
   24.065     1625
   24.080     1591
   24.095     1560
   24.110     1512
   24.125     1513
   24.140     1487
   24.155     1597
   24.170     1655
   24.185     1632
   24.200     1644
   24.215     1597
   24.230     1596
   24.245     1554
   24.260     1535
   24.275     1598
   24.290     1650
   24.305     1671
   24.320     1604
   24.335     1593
   24.350     1545
   24.365     1562
   24.380     1635
   24.395     1626
   24.410     1570
   24.425     1541
   24.440     1571
   24.455     1627
   24.470     1589
   24.485     1562
   24.500     1533
   24.515     1533
   24.530     1513
   24.545     1486
   24.560     1487
   24.575     1545
   24.590     1570
   24.605     1551
   24.620     1674
   24.635     1617
   24.650     1575
   24.665     1614
   24.680     1583
   24.695     1613
   24.710     1600
   24.725     1638
   24.740     1678
   24.755     1658
   24.770     1666
   24.785     1590
   24.800     1628
   24.815     1618
   24.830     1579
   24.845     1548
   24.860     1487
   24.875     1494
   24.890     1565
   24.905     1577
   24.920     1556
   24.935     1476
   24.950     1488
   24.965     1550
   24.980     1551
   24.995     1506
   25.010     1563
   25.025     1527
   25.040     1562
   25.055     1586
   25.070     1520
   25.085     1467
   25.100     1589
   25.115     1510
   25.130     1588
   25.145     1583
   25.160     1500
   25.175     1659
   25.190     1807
   25.205     1744
   25.220     1768
   25.235     1652
   25.250     1604
   25.265     1555
   25.280     1575
   25.295     1531
   25.310     1436
   25.325     1428
   25.340     1516
   25.355     1522
   25.370     1486
   25.385     1494
   25.400     1492
   25.415     1457
   25.430     1527
   25.445     1548
   25.460     1568
   25.475     1536
   25.490     1456
   25.505     1551
   25.520     1413
   25.535     1443
   25.550     1472
   25.565     1420
   25.580     1474
   25.595     1396
   25.610     1447
   25.625     1510
   25.640     1384
   25.655     1434
   25.670     1491
   25.685     1462
   25.700     1422
   25.715     1424
   25.730     1417
   25.745     1437
   25.760     1520
   25.775     1508
   25.790     1508
   25.805     1603
   25.820     1704
   25.835     1762
   25.850     1781
   25.865     1808
   25.880     1724
   25.895     1792
   25.910     1857
   25.925     1750
   25.940     1628
   25.955     1492
   25.970     1498
   25.985     1395
   26.000     1365
   26.015     1381
   26.030     1449
   26.045     1524
   26.060     1513
   26.075     1585
   26.090     1544
   26.105     1637
   26.120     1618
   26.135     1633
   26.150     1769
   26.165     1734
   26.180     1778
   26.195     1839
   26.210     1799
   26.225     1777
   26.240     1678
   26.255     1627
   26.270     1438
   26.285     1434
   26.300     1364
   26.315     1304
   26.330     1378
   26.345     1383
   26.360     1375
   26.375     1349
   26.390     1367
   26.405     1338
   26.420     1301
   26.435     1360
   26.450     1351
   26.465     1333
   26.480     1324
   26.495     1309
   26.510     1260
   26.525     1325
   26.540     1338
   26.555     1331
   26.570     1366
   26.585     1329
   26.600     1308
   26.615     1360
   26.630     1291
   26.645     1349
   26.660     1351
   26.675     1309
   26.690     1308
   26.705     1351
   26.720     1347
   26.735     1303
   26.750     1273
   26.765     1262
   26.780     1280
   26.795     1325
   26.810     1329
   26.825     1341
   26.840     1344
   26.855     1352
   26.870     1343
   26.885     1355
   26.900     1327
   26.915     1338
   26.930     1276
   26.945     1323
   26.960     1300
   26.975     1273
   26.990     1284
   27.005     1326
   27.020     1337
   27.035     1315
   27.050     1353
   27.065     1352
   27.080     1398
   27.095     1254
   27.110     1367
   27.125     1327
   27.140     1283
   27.155     1398
   27.170     1334
   27.185     1296
   27.200     1384
   27.215     1319
   27.230     1300
   27.245     1263
   27.260     1377
   27.275     1320
   27.290     1328
   27.305     1353
   27.320     1285
   27.335     1282
   27.350     1282
   27.365     1298
   27.380     1247
   27.395     1226
   27.410     1254
   27.425     1312
   27.440     1357
   27.455     1270
   27.470     1243
   27.485     1345
   27.500     1354
   27.515     1334
   27.530     1278
   27.545     1220
   27.560     1225
   27.575     1254
   27.590     1300
   27.605     1246
   27.620     1282
   27.635     1285
   27.650     1260
   27.665     1293
   27.680     1263
   27.695     1298
   27.710     1275
   27.725     1317
   27.740     1396
   27.755     1345
   27.770     1332
   27.785     1309
   27.800     1386
   27.815     1465
   27.830     1445
   27.845     1409
   27.860     1386
   27.875     1448
   27.890     1460
   27.905     1426
   27.920     1377
   27.935     1428
   27.950     1385
   27.965     1327
   27.980     1343
   27.995     1329
   28.010     1406
   28.025     1336
   28.040     1388
   28.055     1313
   28.070     1354
   28.085     1391
   28.100     1468
   28.115     1419
   28.130     1385
   28.145     1426
   28.160     1428
   28.175     1457
   28.190     1359
   28.205     1396
   28.220     1401
   28.235     1352
   28.250     1336
   28.265     1302
   28.280     1443
   28.295     1508
   28.310     1463
   28.325     1502
   28.340     1601
   28.355     1620
   28.370     1702
   28.385     1789
   28.400     1686
   28.415     1548
   28.430     1485
   28.445     1396
   28.460     1345
   28.475     1251
   28.490     1201
   28.505     1222
   28.520     1215
   28.535     1196
   28.550     1176
   28.565     1204
   28.580     1174
   28.595     1171
   28.610     1228
   28.625     1250
   28.640     1211
   28.655     1147
   28.670     1171
   28.685     1147
   28.700     1114
   28.715     1224
   28.730     1229
   28.745     1195
   28.760     1193
   28.775     1132
   28.790     1174
   28.805     1180
   28.820     1182
   28.835     1172
   28.850     1147
   28.865     1219
   28.880     1276
   28.895     1245
   28.910     1272
   28.925     1329
   28.940     1324
   28.955     1268
   28.970     1254
   28.985     1223
   29.000     1217
   29.015     1224
   29.030     1142
   29.045     1155
   29.060     1183
   29.075     1150
   29.090     1173
   29.105     1137
   29.120     1158
   29.135     1187
   29.150     1224
   29.165     1183
   29.180     1158
   29.195     1207
   29.210     1219
   29.225     1214
   29.240     1206
   29.255     1191
   29.270     1261
   29.285     1278
   29.300     1270
   29.315     1186
   29.330     1206
   29.345     1180
   29.360     1193
   29.375     1139
   29.390     1217
   29.405     1176
   29.420     1159
   29.435     1212
   29.450     1178
   29.465     1149
   29.480     1057
   29.495     1105
   29.510     1164
   29.525     1152
   29.540     1220
   29.555     1190
   29.570     1145
   29.585     1087
   29.600     1152
   29.615     1159
   29.630     1165
   29.645     1201
   29.660     1252
   29.675     1263
   29.690     1277
   29.705     1284
   29.720     1309
   29.735     1326
   29.750     1363
   29.765     1371
   29.780     1302
   29.795     1306
   29.810     1268
   29.825     1280
   29.840     1270
   29.855     1241
   29.870     1277
   29.885     1168
   29.900     1127
   29.915     1088
   29.930     1124
   29.945     1124
   29.960     1087
   29.975     1091
   29.990     1094
   30.005     1100
   30.020     1127
   30.035     1140
   30.050     1096
   30.065     1065
   30.080     1029
   30.095     1039
   30.110     1048
   30.125     1091
   30.140     1021
   30.155     1074
   30.170     1121
   30.185     1132
   30.200     1166
   30.215     1127
   30.230     1110
   30.245     1085
   30.260     1070
   30.275     1092
   30.290     1089
   30.305     1064
   30.320     1073
   30.335     1117
   30.350     1064
   30.365     1079
   30.380     1057
   30.395     1057
   30.410     1086
   30.425     1066
   30.440     1058
   30.455     1061
   30.470     1089
   30.485     1081
   30.500      975
   30.515     1027
   30.530     1038
   30.545     1042
   30.560     1066
   30.575     1038
   30.590     1032
   30.605     1045
   30.620     1067
   30.635     1058
   30.650     1051
   30.665     1029
   30.680     1069
   30.695     1032
   30.710     1026
   30.725     1063
   30.740     1050
   30.755     1096
   30.770     1111
   30.785     1118
   30.800     1236
   30.815     1158
   30.830     1121
   30.845     1081
   30.860     1178
   30.875     1138
   30.890     1262
   30.905     1192
   30.920     1201
   30.935     1197
   30.950     1199
   30.965     1263
   30.980     1175
   30.995     1161
   31.010     1040
   31.025     1080
   31.040      995
   31.055     1039
   31.070     1049
   31.085      976
   31.100     1092
   31.115     1081
   31.130     1143
   31.145     1038
   31.160     1066
   31.175     1110
   31.190     1077
   31.205     1097
   31.220     1062
   31.235     1076
   31.250     1028
   31.265     1048
   31.280     1010
   31.295     1053
   31.310     1055
   31.325     1030
   31.340     1043
   31.355     1015
   31.370     1039
   31.385     1027
   31.400     1014
   31.415      990
   31.430      988
   31.445      996
   31.460     1004
   31.475     1010
   31.490     1036
   31.505     1067
   31.520     1021
   31.535     1035
   31.550     1000
   31.565     1072
   31.580     1058
   31.595      983
   31.610     1047
   31.625     1047
   31.640      984
   31.655     1017
   31.670     1002
   31.685      993
   31.700      966
   31.715     1055
   31.730     1004
   31.745      971
   31.760     1041
   31.775      986
   31.790      891
   31.805     1012
   31.820     1066
   31.835     1032
   31.850     1029
   31.865      978
   31.880      997
   31.895     1056
   31.910     1032
   31.925      985
   31.940      959
   31.955      995
   31.970     1026
   31.985      987
   32.000     1020
   32.015      980
   32.030     1038
   32.045     1070
   32.060     1022
   32.075     1064
   32.090     1022
   32.105     1013
   32.120     1006
   32.135      986
   32.150     1007
   32.165      969
   32.180     1005
   32.195      985
   32.210      962
   32.225     1053
   32.240     1038
   32.255     1063
   32.270     1010
   32.285     1005
   32.300     1039
   32.315      990
   32.330     1069
   32.345     1079
   32.360     1027
   32.375     1090
   32.390     1145
   32.405     1129
   32.420     1178
   32.435     1240
   32.450     1229
   32.465     1241
   32.480     1279
   32.495     1261
   32.510     1253
   32.525     1253
   32.540     1180
   32.555     1124
   32.570     1126
   32.585     1128
   32.600     1065
   32.615     1104
   32.630     1129
   32.645     1185
   32.660     1152
   32.675     1135
   32.690     1133
   32.705     1176
   32.720     1182
   32.735     1110
   32.750     1100
   32.765     1105
   32.780     1168
   32.795     1217
   32.810     1234
   32.825     1239
   32.840     1194
   32.855     1246
   32.870     1257
   32.885     1253
   32.900     1171
   32.915     1101
   32.930     1068
   32.945     1014
   32.960     1018
   32.975      986
   32.990      984
   33.005     1028
   33.020      979
   33.035      982
   33.050     1055
   33.065     1023
   33.080     1035
   33.095      980
   33.110      957
   33.125      932
   33.140      921
   33.155     1003
   33.170     1004
   33.185     1030
   33.200     1011
   33.215      985
   33.230      990
   33.245      994
   33.260     1053
   33.275     1049
   33.290     1043
   33.305     1031
   33.320     1058
   33.335     1037
   33.350     1055
   33.365     1074
   33.380     1168
   33.395     1266
   33.410     1276
   33.425     1402
   33.440     1375
   33.455     1222
   33.470     1124
   33.485     1086
   33.500     1010
   33.515      995
   33.530     1026
   33.545      991
   33.560      896
   33.575      996
   33.590      944
   33.605      937
   33.620      953
   33.635      962
   33.650      989
   33.665     1053
   33.680      998
   33.695      978
   33.710      943
   33.725     1005
   33.740     1012
   33.755      994
   33.770      976
   33.785      967
   33.800      987
   33.815      977
   33.830      935
   33.845      956
   33.860      946
   33.875      960
   33.890      948
   33.905      958
   33.920     1011
   33.935     1001
   33.950      942
   33.965      969
   33.980     1010
   33.995     1046
   34.010     1019
   34.025      973
   34.040     1021
   34.055      984
   34.070     1049
   34.085     1027
   34.100     1030
   34.115     1053
   34.130      986
   34.145      962
   34.160      979
   34.175      989
   34.190      952
   34.205      972
   34.220      994
   34.235     1042
   34.250     1037
   34.265     1036
   34.280     1111
   34.295     1111
   34.310     1171
   34.325     1151
   34.340     1220
   34.355     1261
   34.370     1248
   34.385     1239
   34.400     1158
   34.415     1105
   34.430     1091
   34.445     1075
   34.460     1083
   34.475     1155
   34.490     1091
   34.505     1124
   34.520     1156
   34.535     1182
   34.550     1159
   34.565     1134
   34.580     1050
   34.595     1002
   34.610     1003
   34.625     1041
   34.640     1017
   34.655      933
   34.670      953
   34.685      964
   34.700      919
   34.715      994
   34.730     1007
   34.745      965
   34.760      959
   34.775      952
   34.790      971
   34.805      983
   34.820      956
   34.835      980
   34.850      954
   34.865      969
   34.880      985
   34.895      971
   34.910      937
   34.925      972
   34.940     1050
   34.955     1017
   34.970      999
   34.985      962
   35.000      982
   35.015      983
   35.030      974
   35.045      939
   35.060      983
   35.075      995
   35.090      940
   35.105      943
   35.120      926
   35.135      979
   35.150      969
   35.165      969
   35.180      949
   35.195      983
   35.210      988
   35.225     1046
   35.240     1012
   35.255      998
   35.270     1034
   35.285     1000
   35.300      994
   35.315     1024
   35.330     1006
   35.345      999
   35.360     1055
   35.375     1007
   35.390     1050
   35.405      965
   35.420      949
   35.435      950
   35.450      920
   35.465      933
   35.480      876
   35.495      925
   35.510      960
   35.525      895
   35.540      979
   35.555      954
   35.570      930
   35.585      930
   35.600      951
   35.615      921
   35.630      951
   35.645      966
   35.660      985
   35.675      979
   35.690      924
   35.705     1000
   35.720     1000
   35.735      976
   35.750      984
   35.765      972
   35.780      983
   35.795     1032
   35.810      989
   35.825     1008
   35.840      984
   35.855      987
   35.870      966
   35.885      990
   35.900     1033
   35.915      989
   35.930      998
   35.945     1009
   35.960      970
   35.975      993
   35.990     1043
   36.005     1053
   36.020     1089
   36.035     1071
   36.050     1031
   36.065     1028
   36.080      980
   36.095     1006
   36.110      973
   36.125      953
   36.140      926
   36.155      912
   36.170      929
   36.185      943
   36.200      970
   36.215      931
   36.230      941
   36.245      901
   36.260      885
   36.275      880
   36.290      865
   36.305      867
   36.320      875
   36.335      906
   36.350      926
   36.365      904
   36.380      962
   36.395      927
   36.410      918
   36.425      926
   36.440      922
   36.455      898
   36.470      915
   36.485      906
   36.500      910
   36.515      934
   36.530      866
   36.545      888
   36.560      946
   36.575      906
   36.590      844
   36.605      915
   36.620      935
   36.635      939
   36.650      948
   36.665      913
   36.680      885
   36.695      926
   36.710      932
   36.725      963
   36.740      897
   36.755      904
   36.770      864
   36.785      903
   36.800      958
   36.815      912
   36.830      979
   36.845      939
   36.860      932
   36.875      884
   36.890      935
   36.905      945
   36.920      923
   36.935      932
   36.950      896
   36.965     1024
   36.980      990
   36.995     1022
   37.010     1033
   37.025     1048
   37.040     1016
   37.055      987
   37.070     1043
   37.085      918
   37.100      942
   37.115      922
   37.130      878
   37.145      840
   37.160      858
   37.175      874
   37.190      860
   37.205      863
   37.220      858
   37.235      884
   37.250      925
   37.265      906
   37.280      879
   37.295      936
   37.310      855
   37.325      886
   37.340      876
   37.355      882
   37.370      926
   37.385      917
   37.400      881
   37.415      915
   37.430      894
   37.445      877
   37.460      872
   37.475      874
   37.490      851
   37.505      906
   37.520      852
   37.535      890
   37.550      930
   37.565      861
   37.580      888
   37.595      904
   37.610      914
   37.625      928
   37.640      872
   37.655      946
   37.670      939
   37.685      924
   37.700      938
   37.715      886
   37.730      846
   37.745      871
   37.760      961
   37.775      922
   37.790      835
   37.805      913
   37.820      971
   37.835      985
   37.850      938
   37.865      963
   37.880     1002
   37.895     1004
   37.910     1055
   37.925     1031
   37.940      987
   37.955      983
   37.970      979
   37.985      892
   38.000      889
   38.015      957
   38.030      997
   38.045     1023
   38.060      926
   38.075      983
   38.090      972
   38.105     1033
   38.120      996
   38.135      983
   38.150     1031
   38.165     1047
   38.180     1057
   38.195     1040
   38.210     1148
   38.225     1117
   38.240     1049
   38.255     1055
   38.270      961
   38.285      912
   38.300      913
   38.315      880
   38.330      947
   38.345      931
   38.360      924
   38.375      923
   38.390      924
   38.405      912
   38.420      904
   38.435      916
   38.450      892
   38.465      887
   38.480      894
   38.495      892
   38.510      872
   38.525      846
   38.540      849
   38.555      929
   38.570      878
   38.585      862
   38.600      886
   38.615      882
   38.630      840
   38.645      885
   38.660      919
   38.675      932
   38.690      928
   38.705      954
   38.720      938
   38.735      913
   38.750      884
   38.765      834
   38.780      855
   38.795      859
   38.810      893
   38.825      857
   38.840      859
   38.855      908
   38.870      927
   38.885      920
   38.900      888
   38.915      945
   38.930      887
   38.945      867
   38.960      875
   38.975      892
   38.990      846
   39.005      880
   39.020      878
   39.035      902
   39.050      902
   39.065      906
   39.080      901
   39.095      813
   39.110      944
   39.125      917
   39.140      907
   39.155      879
   39.170      879
   39.185      922
   39.200      912
   39.215      898
   39.230      931
   39.245      881
   39.260      890
   39.275      877
   39.290      855
   39.305      881
   39.320      868
   39.335      911
   39.350      873
   39.365      862
   39.380      831
   39.395      836
   39.410      870
   39.425      876
   39.440      912
   39.455      875
   39.470      847
   39.485      879
   39.500      934
   39.515      877
   39.530      875
   39.545      899
   39.560      849
   39.575      886
   39.590      890
   39.605      879
   39.620      897
   39.635      901
   39.650      847
   39.665      919
   39.680      853
   39.695      851
   39.710      878
   39.725      910
   39.740      916
   39.755      910
   39.770      878
   39.785      882
   39.800      886
   39.815      846
   39.830      896
   39.845      904
   39.860      913
   39.875      918
   39.890      926
   39.905      884
   39.920      947
   39.935      941
   39.950      892
   39.965      850
   39.980      900
   39.995      898
   40.010      928
   40.025      896
   40.040      888
   40.055      842
   40.070      907
   40.085      876
   40.100      897
   40.115      850
   40.130      889
   40.145      892
   40.160      892
   40.175      934
   40.190      877
   40.205      839
   40.220      858
   40.235      952
   40.250      899
   40.265      875
   40.280      947
   40.295      933
   40.310      887
   40.325      885
   40.340      884
   40.355      907
   40.370      932
   40.385      928
   40.400      908
   40.415      930
   40.430      945
   40.445      935
   40.460      955
   40.475     1010
   40.490      959
   40.505      980
   40.520     1018
   40.535     1001
   40.550     1069
   40.565     1117
   40.580     1153
   40.595     1163
   40.610     1126
   40.625     1064
   40.640      988
   40.655      943
   40.670      922
   40.685      943
   40.700      890
   40.715      935
   40.730      955
   40.745      974
   40.760      959
   40.775      892
   40.790      874
   40.805      929
   40.820      918
   40.835      921
   40.850      953
   40.865      966
   40.880      973
   40.895     1014
   40.910     1005
   40.925      980
   40.940      943
   40.955      910
   40.970      955
   40.985      953
   41.000      895
   41.015      867
   41.030      886
   41.045      856
   41.060      873
   41.075      886
   41.090      850
   41.105      840
   41.120      857
   41.135      875
   41.150      875
   41.165      857
   41.180      835
   41.195      879
   41.210      870
   41.225      879
   41.240      868
   41.255      872
   41.270      841
   41.285      882
   41.300      930
   41.315      828
   41.330      891
   41.345      855
   41.360      875
   41.375      807
   41.390      874
   41.405      874
   41.420      865
   41.435      831
   41.450      883
   41.465      842
   41.480      813
   41.495      903
   41.510      889
   41.525      869
   41.540      915
   41.555      886
   41.570      859
   41.585      837
   41.600      869
   41.615      850
   41.630      874
   41.645      878
   41.660      944
   41.675     1030
   41.690     1078
   41.705     1138
   41.720     1222
   41.735     1267
   41.750     1259
   41.765     1206
   41.780     1164
   41.795     1251
   41.810     1149
   41.825     1193
   41.840     1031
   41.855     1021
   41.870      960
   41.885      881
   41.900      803
   41.915      814
   41.930      852
   41.945      848
   41.960      846
   41.975      832
   41.990      861
   42.005      861
   42.020      886
   42.035      881
   42.050      860
   42.065      858
   42.080      868
   42.095      852
   42.110      818
   42.125      856
   42.140      880
   42.155      904
   42.170      907
   42.185      936
   42.200      935
   42.215      929
   42.230      951
   42.245      988
   42.260      996
   42.275     1024
   42.290     1081
   42.305     1051
   42.320     1064
   42.335     1096
   42.350     1067
   42.365     1065
   42.380     1062
   42.395     1075
   42.410     1062
   42.425     1022
   42.440      942
   42.455      936
   42.470      924
   42.485      880
   42.500      887
   42.515      952
   42.530      931
   42.545      964
   42.560      993
   42.575      982
   42.590      995
   42.605      957
   42.620      915
   42.635      934
   42.650      829
   42.665      833
   42.680      867
   42.695      886
   42.710      870
   42.725      857
   42.740      903
   42.755      848
   42.770      844
   42.785      895
   42.800      912
   42.815      846
   42.830      904
   42.845      858
   42.860      914
   42.875      926
   42.890      999
   42.905      920
   42.920      824
   42.935      827
   42.950      871
   42.965      859
   42.980      866
   42.995      838
   43.010      867
   43.025      861
   43.040      872
   43.055      837
   43.070      894
   43.085      812
   43.100      874
   43.115      914
   43.130      852
   43.145      832
   43.160      847
   43.175      864
   43.190      822
   43.205      813
   43.220      863
   43.235      882
   43.250      802
   43.265      859
   43.280      876
   43.295      869
   43.310      860
   43.325      827
   43.340      813
   43.355      849
   43.370      823
   43.385      843
   43.400      891
   43.415      861
   43.430      845
   43.445      810
   43.460      870
   43.475      901
   43.490      834
   43.505      923
   43.520      925
   43.535      936
   43.550      936
   43.565      895
   43.580      941
   43.595      930
   43.610      899
   43.625      892
   43.640      845
   43.655      856
   43.670      864
   43.685      837
   43.700      851
   43.715      878
   43.730      837
   43.745      835
   43.760      868
   43.775      823
   43.790      787
   43.805      841
   43.820      810
   43.835      851
   43.850      838
   43.865      826
   43.880      818
   43.895      840
   43.910      811
   43.925      818
   43.940      813
   43.955      841
   43.970      877
   43.985      847
