    2.000     1632
    2.015     1653
    2.030     1694
    2.045     1643
    2.060     1536
    2.075     1605
    2.090     1573
    2.105     1679
    2.120     1576
    2.135     1553
    2.150     1554
    2.165     1487
    2.180     1440
    2.195     1507
    2.210     1586
    2.225     1583
    2.240     1542
    2.255     1627
    2.270     1516
    2.285     1424
    2.300     1490
    2.315     1467
    2.330     1553
    2.345     1575
    2.360     1534
    2.375     1549
    2.390     1500
    2.405     1460
    2.420     1507
    2.435     1564
    2.450     1523
    2.465     1482
    2.480     1481
    2.495     1423
    2.510     1471
    2.525     1493
    2.540     1462
    2.555     1494
    2.570     1549
    2.585     1512
    2.600     1428
    2.615     1500
    2.630     1423
    2.645     1386
    2.660     1417
    2.675     1452
    2.690     1479
    2.705     1508
    2.720     1476
    2.735     1432
    2.750     1438
    2.765     1429
    2.780     1426
    2.795     1436
    2.810     1453
    2.825     1490
    2.840     1456
    2.855     1461
    2.870     1541
    2.885     1531
    2.900     1519
    2.915     1445
    2.930     1417
    2.945     1410
    2.960     1410
    2.975     1401
    2.990     1375
    3.005     1431
    3.020     1413
    3.035     1395
    3.050     1484
    3.065     1393
    3.080     1393
    3.095     1355
    3.110     1457
    3.125     1398
    3.140     1430
    3.155     1436
    3.170     1401
    3.185     1450
    3.200     1414
    3.215     1464
    3.230     1488
    3.245     1435
    3.260     1437
    3.275     1430
    3.290     1482
    3.305     1441
    3.320     1393
    3.335     1404
    3.350     1390
    3.365     1377
    3.380     1387
    3.395     1381
    3.410     1315
    3.425     1369
    3.440     1405
    3.455     1403
    3.470     1323
    3.485     1398
    3.500     1463
    3.515     1352
    3.530     1359
    3.545     1381
    3.560     1322
    3.575     1414
    3.590     1306
    3.605     1317
    3.620     1413
    3.635     1375
    3.650     1376
    3.665     1386
    3.680     1362
    3.695     1318
    3.710     1413
    3.725     1410
    3.740     1442
    3.755     1460
    3.770     1350
    3.785     1390
    3.800     1368
    3.815     1327
    3.830     1336
    3.845     1418
    3.860     1354
    3.875     1387
    3.890     1360
    3.905     1361
    3.920     1431
    3.935     1379
    3.950     1304
    3.965     1311
    3.980     1320
    3.995     1362
    4.010     1427
    4.025     1378
    4.040     1429
    4.055     1328
    4.070     1321
    4.085     1434
    4.100     1388
    4.115     1399
    4.130     1393
    4.145     1404
    4.160     1357
    4.175     1367
    4.190     1348
    4.205     1357
    4.220     1300
    4.235     1349
    4.250     1333
    4.265     1310
    4.280     1340
    4.295     1360
    4.310     1318
    4.325     1311
    4.340     1354
    4.355     1384
    4.370     1417
    4.385     1370
    4.400     1310
    4.415     1340
    4.430     1390
    4.445     1338
    4.460     1327
    4.475     1368
    4.490     1389
    4.505     1352
    4.520     1403
    4.535     1366
    4.550     1359
    4.565     1422
    4.580     1366
    4.595     1318
    4.610     1363
    4.625     1363
    4.640     1372
    4.655     1331
    4.670     1321
    4.685     1298
    4.700     1289
    4.715     1397
    4.730     1395
    4.745     1352
    4.760     1381
    4.775     1420
    4.790     1372
    4.805     1346
    4.820     1285
    4.835     1321
    4.850     1354
    4.865     1361
    4.880     1359
    4.895     1370
    4.910     1384
    4.925     1440
    4.940     1464
    4.955     1406
    4.970     1391
    4.985     1382
    5.000     1372
    5.015     1383
    5.030     1302
    5.045     1306
    5.060     1344
    5.075     1415
    5.090     1377
    5.105     1302
    5.120     1276
    5.135     1332
    5.150     1340
    5.165     1349
    5.180     1341
    5.195     1405
    5.210     1385
    5.225     1327
    5.240     1348
    5.255     1359
    5.270     1380
    5.285     1342
    5.300     1327
    5.315     1363
    5.330     1344
    5.345     1303
    5.360     1360
    5.375     1320
    5.390     1384
    5.405     1383
    5.420     1355
    5.435     1330
    5.450     1319
    5.465     1344
    5.480     1250
    5.495     1279
    5.510     1322
    5.525     1335
    5.540     1318
    5.555     1396
    5.570     1347
    5.585     1220
    5.600     1296
    5.615     1290
    5.630     1320
    5.645     1365
    5.660     1366
    5.675     1289
    5.690     1293
    5.705     1325
    5.720     1338
    5.735     1366
    5.750     1416
    5.765     1360
    5.780     1341
    5.795     1361
    5.810     1373
    5.825     1341
    5.840     1272
    5.855     1302
    5.870     1369
    5.885     1348
    5.900     1262
    5.915     1288
    5.930     1315
    5.945     1341
    5.960     1298
    5.975     1330
    5.990     1343
    6.005     1281
    6.020     1331
    6.035     1368
    6.050     1330
    6.065     1316
    6.080     1371
    6.095     1357
    6.110     1321
    6.125     1336
    6.140     1349
    6.155     1310
    6.170     1356
    6.185     1376
    6.200     1370
    6.215     1369
    6.230     1321
    6.245     1285
    6.260     1287
    6.275     1362
    6.290     1344
    6.305     1287
    6.320     1260
    6.335     1327
    6.350     1300
    6.365     1342
    6.380     1320
    6.395     1301
    6.410     1324
    6.425     1327
    6.440     1299
    6.455     1310
    6.470     1326
    6.485     1344
    6.500     1320
    6.515     1294
    6.530     1313
    6.545     1336
    6.560     1381
    6.575     1326
    6.590     1355
    6.605     1366
    6.620     1330
    6.635     1327
    6.650     1288
    6.665     1307
    6.680     1306
    6.695     1288
    6.710     1303
    6.725     1337
    6.740     1307
    6.755     1311
    6.770     1341
    6.785     1406
    6.800     1299
    6.815     1267
    6.830     1299
    6.845     1255
    6.860     1327
    6.875     1306
    6.890     1361
    6.905     1243
    6.920     1295
    6.935     1298
    6.950     1216
    6.965     1300
    6.980     1305
    6.995     1304
    7.010     1345
    7.025     1402
    7.040     1282
    7.055     1290
    7.070     1313
    7.085     1279
    7.100     1329
    7.115     1324
    7.130     1369
    7.145     1305
    7.160     1309
    7.175     1289
    7.190     1248
    7.205     1266
    7.220     1324
    7.235     1399
    7.250     1285
    7.265     1349
    7.280     1295
    7.295     1358
    7.310     1276
    7.325     1197
    7.340     1314
    7.355     1307
    7.370     1297
    7.385     1295
    7.400     1376
    7.415     1305
    7.430     1331
    7.445     1245
    7.460     1276
    7.475     1309
    7.490     1327
    7.505     1337
    7.520     1235
    7.535     1358
    7.550     1300
    7.565     1282
    7.580     1360
    7.595     1356
    7.610     1371
    7.625     1322
    7.640     1300
    7.655     1315
    7.670     1260
    7.685     1224
    7.700     1276
    7.715     1280
    7.730     1291
    7.745     1334
    7.760     1280
    7.775     1302
    7.790     1250
    7.805     1342
    7.820     1307
    7.835     1265
    7.850     1286
    7.865     1255
    7.880     1318
    7.895     1319
    7.910     1308
    7.925     1345
    7.940     1313
    7.955     1342
    7.970     1404
    7.985     1371
    8.000     1326
    8.015     1380
    8.030     1392
    8.045     1343
    8.060     1343
    8.075     1321
    8.090     1274
    8.105     1313
    8.120     1309
    8.135     1275
    8.150     1256
    8.165     1246
    8.180     1293
    8.195     1315
    8.210     1218
    8.225     1298
    8.240     1302
    8.255     1349
    8.270     1309
    8.285     1271
    8.300     1274
    8.315     1245
    8.330     1330
    8.345     1370
    8.360     1346
    8.375     1325
    8.390     1305
    8.405     1360
    8.420     1388
    8.435     1412
    8.450     1369
    8.465     1332
    8.480     1291
    8.495     1263
    8.510     1343
    8.525     1328
    8.540     1301
    8.555     1313
    8.570     1315
    8.585     1323
    8.600     1336
    8.615     1401
    8.630     1386
    8.645     1408
    8.660     1385
    8.675     1420
    8.690     1471
    8.705     1508
    8.720     1557
    8.735     1453
    8.750     1513
    8.765     1548
    8.780     1594
    8.795     1601
    8.810     1664
    8.825     1676
    8.840     1700
    8.855     1844
    8.870     1997
    8.885     2039
    8.900     1953
    8.915     2048
    8.930     2104
    8.945     2166
    8.960     2274
    8.975     2360
    8.990     2412
    9.005     2557
    9.020     2788
    9.035     2927
    9.050     3198
    9.065     3456
    9.080     3674
    9.095     3697
    9.110     4176
    9.125     4569
    9.140     4629
    9.155     5250
    9.170     5802
    9.185     6431
    9.200     7290
    9.215     7847
    9.230     8791
    9.245    10119
    9.260    12555
    9.275    14371
    9.290    17396
    9.305    19312
    9.320    18841
    9.335    16648
    9.350    13533
    9.365     9573
    9.380     6514
    9.395     4267
    9.410     3153
    9.425     2999
    9.440     2836
    9.455     2866
    9.470     2965
    9.485     3335
    9.500     3695
    9.515     3838
    9.530     3706
    9.545     3270
    9.560     2863
    9.575     2496
    9.590     1996
    9.605     1707
    9.620     1565
    9.635     1524
    9.650     1424
    9.665     1432
    9.680     1386
    9.695     1396
    9.710     1358
    9.725     1441
    9.740     1390
    9.755     1361
    9.770     1329
    9.785     1350
    9.800     1344
    9.815     1326
    9.830     1301
    9.845     1360
    9.860     1313
    9.875     1398
    9.890     1354
    9.905     1289
    9.920     1385
    9.935     1302
    9.950     1258
    9.965     1246
    9.980     1317
    9.995     1362
   10.010     1340
   10.025     1364
   10.040     1348
   10.055     1292
   10.070     1311
   10.085     1319
   10.100     1333
   10.115     1402
   10.130     1386
   10.145     1351
   10.160     1353
   10.175     1359
   10.190     1309
   10.205     1310
   10.220     1299
   10.235     1348
   10.250     1333
   10.265     1328
   10.280     1323
   10.295     1285
   10.310     1283
   10.325     1295
   10.340     1296
   10.355     1302
   10.370     1336
   10.385     1365
   10.400     1306
   10.415     1360
   10.430     1367
   10.445     1310
   10.460     1308
   10.475     1366
   10.490     1374
   10.505     1369
   10.520     1373
   10.535     1258
   10.550     1271
   10.565     1352
   10.580     1311
   10.595     1315
   10.610     1336
   10.625     1359
   10.640     1343
   10.655     1314
   10.670     1311
   10.685     1301
   10.700     1318
   10.715     1329
   10.730     1359
   10.745     1392
   10.760     1302
   10.775     1365
   10.790     1355
   10.805     1399
   10.820     1288
   10.835     1307
   10.850     1307
   10.865     1370
   10.880     1340
   10.895     1357
   10.910     1399
   10.925     1452
   10.940     1388
   10.955     1271
   10.970     1308
   10.985     1285
   11.000     1292
   11.015     1303
   11.030     1306
   11.045     1311
   11.060     1331
   11.075     1377
   11.090     1370
   11.105     1348
   11.120     1353
   11.135     1290
   11.150     1271
   11.165     1263
   11.180     1329
   11.195     1355
   11.210     1326
   11.225     1280
   11.240     1289
   11.255     1307
   11.270     1390
   11.285     1405
   11.300     1354
   11.315     1288
   11.330     1269
   11.345     1318
   11.360     1294
   11.375     1272
   11.390     1322
   11.405     1310
   11.420     1327
   11.435     1261
   11.450     1309
   11.465     1307
   11.480     1280
   11.495     1330
   11.510     1253
   11.525     1354
   11.540     1379
   11.555     1287
   11.570     1322
   11.585     1290
   11.600     1351
   11.615     1262
   11.630     1251
   11.645     1324
   11.660     1315
   11.675     1317
   11.690     1256
   11.705     1287
   11.720     1327
   11.735     1270
   11.750     1325
   11.765     1260
   11.780     1329
   11.795     1340
   11.810     1332
   11.825     1256
   11.840     1317
   11.855     1361
   11.870     1392
   11.885     1300
   11.900     1269
   11.915     1298
   11.930     1312
   11.945     1313
   11.960     1276
   11.975     1279
   11.990     1321
   12.005     1303
   12.020     1341
   12.035     1306
   12.050     1300
   12.065     1350
   12.080     1354
   12.095     1407
   12.110     1314
   12.125     1382
   12.140     1415
   12.155     1394
   12.170     1464
   12.185     1502
   12.200     1524
   12.215     1499
   12.230     1480
   12.245     1540
   12.260     1611
   12.275     1686
   12.290     1734
   12.305     1747
   12.320     1850
   12.335     1969
   12.350     2096
   12.365     2294
   12.380     2506
   12.395     2663
   12.410     2880
   12.425     3229
   12.440     3701
   12.455     4397
   12.470     4761
   12.485     4595
   12.500     4128
   12.515     3608
   12.530     2852
   12.545     2248
   12.560     1832
   12.575     1612
   12.590     1486
   12.605     1399
   12.620     1391
   12.635     1398
   12.650     1341
   12.665     1313
   12.680     1355
   12.695     1348
   12.710     1289
   12.725     1322
   12.740     1346
   12.755     1301
   12.770     1273
   12.785     1353
   12.800     1310
   12.815     1326
   12.830     1283
   12.845     1267
   12.860     1280
   12.875     1311
   12.890     1336
   12.905     1285
   12.920     1323
   12.935     1285
   12.950     1208
   12.965     1297
   12.980     1336
   12.995     1248
   13.010     1279
   13.025     1327
   13.040     1335
   13.055     1275
   13.070     1329
   13.085     1213
   13.100     1326
   13.115     1311
   13.130     1279
   13.145     1302
   13.160     1276
   13.175     1278
   13.190     1272
   13.205     1230
   13.220     1266
   13.235     1312
   13.250     1204
   13.265     1310
   13.280     1328
   13.295     1311
   13.310     1325
   13.325     1311
   13.340     1315
   13.355     1270
   13.370     1369
   13.385     1352
   13.400     1332
   13.415     1316
   13.430     1272
   13.445     1214
   13.460     1277
   13.475     1218
   13.490     1282
   13.505     1346
   13.520     1248
   13.535     1325
   13.550     1316
   13.565     1224
   13.580     1284
   13.595     1188
   13.610     1278
   13.625     1310
   13.640     1270
   13.655     1272
   13.670     1328
   13.685     1211
   13.700     1215
   13.715     1264
   13.730     1307
   13.745     1292
   13.760     1373
   13.775     1322
   13.790     1253
   13.805     1347
   13.820     1379
   13.835     1359
   13.850     1349
   13.865     1391
   13.880     1455
   13.895     1506
   13.910     1505
   13.925     1486
   13.940     1467
   13.955     1439
   13.970     1408
   13.985     1340
   14.000     1244
   14.015     1324
   14.030     1373
   14.045     1281
   14.060     1298
   14.075     1164
   14.090     1244
   14.105     1360
   14.120     1288
   14.135     1239
   14.150     1263
   14.165     1258
   14.180     1185
   14.195     1287
   14.210     1253
   14.225     1297
   14.240     1311
   14.255     1335
   14.270     1277
   14.285     1226
   14.300     1257
   14.315     1251
   14.330     1306
   14.345     1321
   14.360     1302
   14.375     1321
   14.390     1279
   14.405     1298
   14.420     1354
   14.435     1372
   14.450     1322
   14.465     1324
   14.480     1283
   14.495     1252
   14.510     1352
   14.525     1308
   14.540     1289
   14.555     1286
   14.570     1331
   14.585     1338
   14.600     1318
   14.615     1340
   14.630     1304
   14.645     1302
   14.660     1265
   14.675     1297
   14.690     1374
   14.705     1380
   14.720     1372
   14.735     1349
   14.750     1316
   14.765     1308
   14.780     1368
   14.795     1361
   14.810     1344
   14.825     1287
   14.840     1352
   14.855     1354
   14.870     1377
   14.885     1368
   14.900     1319
   14.915     1373
   14.930     1353
   14.945     1269
   14.960     1302
   14.975     1289
   14.990     1277
   15.005     1380
   15.020     1322
   15.035     1283
   15.050     1410
   15.065     1325
   15.080     1315
   15.095     1334
   15.110     1356
   15.125     1308
   15.140     1300
   15.155     1326
   15.170     1330
   15.185     1400
   15.200     1266
   15.215     1301
   15.230     1375
   15.245     1308
   15.260     1292
   15.275     1391
   15.290     1311
   15.305     1321
   15.320     1350
   15.335     1292
   15.350     1284
   15.365     1211
   15.380     1334
   15.395     1310
   15.410     1183
   15.425     1261
   15.440     1332
   15.455     1351
   15.470     1266
   15.485     1335
   15.500     1353
   15.515     1218
   15.530     1262
   15.545     1285
   15.560     1278
   15.575     1323
   15.590     1219
   15.605     1364
   15.620     1362
   15.635     1343
   15.650     1347
   15.665     1420
   15.680     1316
   15.695     1319
   15.710     1377
   15.725     1343
   15.740     1332
   15.755     1425
   15.770     1321
   15.785     1310
   15.800     1373
   15.815     1334
   15.830     1267
   15.845     1383
   15.860     1396
   15.875     1435
   15.890     1468
   15.905     1400
   15.920     1486
   15.935     1572
   15.950     1499
   15.965     1529
   15.980     1722
   15.995     1780
   16.010     1809
   16.025     1854
   16.040     2074
   16.055     2308
   16.070     2575
   16.085     2967
   16.100     3196
   16.115     3004
   16.130     2656
   16.145     2389
   16.160     2094
   16.175     1819
   16.190     1583
   16.205     1514
   16.220     1426
   16.235     1387
   16.250     1462
   16.265     1427
   16.280     1494
   16.295     1491
   16.310     1419
   16.325     1423
   16.340     1545
   16.355     1573
   16.370     1629
   16.385     1699
   16.400     1726
   16.415     1879
   16.430     2060
   16.445     2259
   16.460     2454
   16.475     2604
   16.490     2590
   16.505     2462
   16.520     2180
   16.535     1805
   16.550     1625
   16.565     1560
   16.580     1471
   16.595     1417
   16.610     1410
   16.625     1394
   16.640     1384
   16.655     1383
   16.670     1343
   16.685     1346
   16.700     1371
   16.715     1422
   16.730     1457
   16.745     1518
   16.760     1478
   16.775     1487
   16.790     1536
   16.805     1531
   16.820     1527
   16.835     1566
   16.850     1644
   16.865     1716
   16.880     1773
   16.895     1917
   16.910     2154
   16.925     2258
   16.940     2188
   16.955     2000
   16.970     1951
   16.985     1740
   17.000     1615
   17.015     1523
   17.030     1376
   17.045     1390
   17.060     1358
   17.075     1373
   17.090     1383
   17.105     1351
   17.120     1313
   17.135     1322
   17.150     1300
   17.165     1302
   17.180     1309
   17.195     1396
   17.210     1378
   17.225     1358
   17.240     1416
   17.255     1392
   17.270     1363
   17.285     1399
   17.300     1405
   17.315     1338
   17.330     1376
   17.345     1403
   17.360     1349
   17.375     1291
   17.390     1387
   17.405     1336
   17.420     1316
   17.435     1345
   17.450     1397
   17.465     1347
   17.480     1283
   17.495     1303
   17.510     1329
   17.525     1339
   17.540     1412
   17.555     1279
   17.570     1360
   17.585     1326
   17.600     1378
   17.615     1371
   17.630     1326
   17.645     1338
   17.660     1342
   17.675     1412
   17.690     1400
   17.705     1380
   17.720     1355
   17.735     1381
   17.750     1383
   17.765     1394
   17.780     1363
   17.795     1331
   17.810     1389
   17.825     1376
   17.840     1334
   17.855     1372
   17.870     1447
   17.885     1364
   17.900     1339
   17.915     1325
   17.930     1356
   17.945     1345
   17.960     1276
   17.975     1317
   17.990     1306
   18.005     1323
   18.020     1363
   18.035     1390
   18.050     1381
   18.065     1409
   18.080     1339
   18.095     1354
   18.110     1307
   18.125     1346
   18.140     1369
   18.155     1316
   18.170     1335
   18.185     1387
   18.200     1421
   18.215     1398
   18.230     1357
   18.245     1386
   18.260     1359
   18.275     1353
   18.290     1399
   18.305     1384
   18.320     1366
   18.335     1432
   18.350     1340
   18.365     1406
   18.380     1437
   18.395     1395
   18.410     1435
   18.425     1463
   18.440     1436
   18.455     1467
   18.470     1547
   18.485     1443
   18.500     1450
   18.515     1519
   18.530     1538
   18.545     1663
   18.560     1684
   18.575     1739
   18.590     1870
   18.605     2064
   18.620     2234
   18.635     2387
   18.650     2555
   18.665     2910
   18.680     3307
   18.695     3775
   18.710     4440
   18.725     5564
   18.740     6956
   18.755     8021
   18.770     8862
   18.785     8402
   18.800     7879
   18.815     6250
   18.830     5011
   18.845     3467
   18.860     2545
   18.875     2034
   18.890     1773
   18.905     1588
   18.920     1596
   18.935     1503
   18.950     1464
   18.965     1531
   18.980     1527
   18.995     1530
   19.010     1605
   19.025     1495
   19.040     1631
   19.055     1640
   19.070     1642
   19.085     1587
   19.100     1902
   19.115     1957
   19.130     2104
   19.145     2177
   19.160     2314
   19.175     2793
   19.190     3146
   19.205     3204
   19.220     3031
   19.235     2790
   19.250     2408
   19.265     2057
   19.280     1811
   19.295     1607
   19.310     1483
   19.325     1459
   19.340     1472
   19.355     1395
   19.370     1477
   19.385     1374
   19.400     1412
   19.415     1339
   19.430     1331
   19.445     1357
   19.460     1330
   19.475     1392
   19.490     1420
   19.505     1417
   19.520     1321
   19.535     1442
   19.550     1358
   19.565     1335
   19.580     1350
   19.595     1355
   19.610     1408
   19.625     1402
   19.640     1339
   19.655     1319
   19.670     1343
   19.685     1280
   19.700     1279
   19.715     1347
   19.730     1321
   19.745     1351
   19.760     1397
   19.775     1372
   19.790     1342
   19.805     1423
   19.820     1334
   19.835     1286
   19.850     1342
   19.865     1325
   19.880     1325
   19.895     1353
   19.910     1369
   19.925     1369
   19.940     1345
   19.955     1319
   19.970     1378
   19.985     1339
   20.000     1275
   20.015     1385
   20.030     1421
   20.045     1429
   20.060     1435
   20.075     1330
   20.090     1339
   20.105     1375
   20.120     1330
   20.135     1318
   20.150     1329
   20.165     1319
   20.180     1273
   20.195     1281
   20.210     1283
   20.225     1377
   20.240     1333
   20.255     1397
   20.270     1357
   20.285     1307
   20.300     1338
   20.315     1327
   20.330     1346
   20.345     1427
   20.360     1442
   20.375     1373
   20.390     1396
   20.405     1449
   20.420     1468
   20.435     1436
   20.450     1399
   20.465     1372
   20.480     1335
   20.495     1277
   20.510     1360
   20.525     1390
   20.540     1400
   20.555     1404
   20.570     1482
   20.585     1474
   20.600     1397
   20.615     1413
   20.630     1424
   20.645     1451
   20.660     1428
   20.675     1437
   20.690     1453
   20.705     1483
   20.720     1557
   20.735     1493
   20.750     1500
   20.765     1508
   20.780     1610
   20.795     1593
   20.810     1717
   20.825     1777
   20.840     1847
   20.855     1959
   20.870     1879
   20.885     1813
   20.900     1810
   20.915     1740
   20.930     1637
   20.945     1566
   20.960     1547
   20.975     1497
   20.990     1509
   21.005     1516
   21.020     1549
   21.035     1575
   21.050     1652
   21.065     1723
   21.080     1748
   21.095     1729
   21.110     1824
   21.125     1850
   21.140     1826
   21.155     2011
   21.170     2142
   21.185     2253
   21.200     2318
   21.215     2240
   21.230     2363
   21.245     2424
   21.260     2689
   21.275     2692
   21.290     2717
   21.305     2864
   21.320     2989
   21.335     3056
   21.350     3050
   21.365     3117
   21.380     3160
   21.395     2964
   21.410     2772
   21.425     2645
   21.440     2321
   21.455     2006
   21.470     1791
   21.485     1602
   21.500     1593
   21.515     1505
   21.530     1509
   21.545     1494
   21.560     1435
   21.575     1445
   21.590     1452
   21.605     1501
   21.620     1465
   21.635     1550
   21.650     1468
   21.665     1660
   21.680     1578
   21.695     1619
   21.710     1552
   21.725     1571
   21.740     1611
   21.755     1675
   21.770     1692
   21.785     1784
   21.800     1894
   21.815     2016
   21.830     2175
   21.845     2419
   21.860     2709
   21.875     3114
   21.890     3576
   21.905     4189
   21.920     4817
   21.935     4834
   21.950     4291
   21.965     3718
   21.980     3169
   21.995     2639
   22.010     2191
   22.025     1801
   22.040     1699
   22.055     1535
   22.070     1497
   22.085     1531
   22.100     1490
   22.115     1499
   22.130     1450
   22.145     1449
   22.160     1408
   22.175     1446
   22.190     1436
   22.205     1446
   22.220     1337
   22.235     1410
   22.250     1440
   22.265     1409
   22.280     1407
   22.295     1336
   22.310     1364
   22.325     1355
   22.340     1430
   22.355     1356
   22.370     1347
   22.385     1399
   22.400     1368
   22.415     1429
   22.430     1418
   22.445     1375
   22.460     1419
   22.475     1493
   22.490     1448
   22.505     1470
   22.520     1429
   22.535     1343
   22.550     1360
   22.565     1428
   22.580     1399
   22.595     1406
   22.610     1438
   22.625     1425
   22.640     1469
   22.655     1454
   22.670     1467
   22.685     1462
   22.700     1407
   22.715     1449
   22.730     1489
   22.745     1546
   22.760     1433
   22.775     1432
   22.790     1419
   22.805     1391
   22.820     1364
   22.835     1377
   22.850     1366
   22.865     1467
   22.880     1469
   22.895     1446
   22.910     1431
   22.925     1442
   22.940     1493
   22.955     1447
   22.970     1467
   22.985     1381
   23.000     1426
   23.015     1479
   23.030     1437
   23.045     1414
   23.060     1410
   23.075     1454
   23.090     1508
   23.105     1446
   23.120     1402
   23.135     1382
   23.150     1378
   23.165     1382
   23.180     1403
   23.195     1446
   23.210     1432
   23.225     1390
   23.240     1380
   23.255     1434
   23.270     1459
   23.285     1473
   23.300     1455
   23.315     1431
   23.330     1416
   23.345     1538
   23.360     1505
   23.375     1450
   23.390     1509
   23.405     1616
   23.420     1599
   23.435     1613
   23.450     1799
   23.465     1835
   23.480     1764
   23.495     1845
   23.510     1854
   23.525     1803
   23.540     1840
   23.555     1703
   23.570     1577
   23.585     1588
   23.600     1701
   23.615     1641
   23.630     1678
   23.645     1809
   23.660     1765
   23.675     1827
   23.690     1813
   23.705     1818
   23.720     1883
   23.735     1848
   23.750     1871
   23.765     1901
   23.780     1958
   23.795     1908
   23.810     1906
   23.825     2011
   23.840     1954
   23.855     1867
   23.870     1869
   23.885     1716
   23.900     1505
   23.915     1434
   23.930     1454
   23.945     1464
   23.960     1363
   23.975     1434
   23.990     1421
   24.005     1341
   24.020     1380
   24.035     1445
   24.050     1403
   24.065     1397
   24.080     1402
   24.095     1415
   24.110     1381
   24.125     1368
   24.140     1403
   24.155     1395
   24.170     1403
   24.185     1447
   24.200     1468
   24.215     1395
   24.230     1382
   24.245     1430
   24.260     1443
   24.275     1454
   24.290     1511
   24.305     1496
   24.320     1490
   24.335     1503
   24.350     1480
   24.365     1445
   24.380     1422
   24.395     1424
   24.410     1431
   24.425     1383
   24.440     1378
   24.455     1377
   24.470     1465
   24.485     1430
   24.500     1378
   24.515     1400
   24.530     1318
   24.545     1401
   24.560     1396
   24.575     1419
   24.590     1450
   24.605     1443
   24.620     1449
   24.635     1431
   24.650     1365
   24.665     1455
   24.680     1406
   24.695     1430
   24.710     1406
   24.725     1502
   24.740     1579
   24.755     1592
   24.770     1683
   24.785     1658
   24.800     1661
   24.815     1594
   24.830     1573
   24.845     1501
   24.860     1453
   24.875     1411
   24.890     1400
   24.905     1398
   24.920     1374
   24.935     1372
   24.950     1302
   24.965     1385
   24.980     1354
   24.995     1428
   25.010     1382
   25.025     1447
   25.040     1398
   25.055     1397
   25.070     1446
   25.085     1375
   25.100     1448
   25.115     1555
   25.130     1542
   25.145     1472
   25.160     1566
   25.175     1673
   25.190     1666
   25.205     1687
   25.220     1712
   25.235     1650
   25.250     1497
   25.265     1514
   25.280     1467
   25.295     1447
   25.310     1423
   25.325     1352
   25.340     1384
   25.355     1359
   25.370     1480
   25.385     1470
   25.400     1530
   25.415     1509
   25.430     1549
   25.445     1478
   25.460     1457
   25.475     1448
   25.490     1455
   25.505     1431
   25.520     1366
   25.535     1424
   25.550     1409
   25.565     1367
   25.580     1378
   25.595     1353
   25.610     1401
   25.625     1421
   25.640     1360
   25.655     1427
   25.670     1468
   25.685     1427
   25.700     1388
   25.715     1414
   25.730     1398
   25.745     1440
   25.760     1522
   25.775     1522
   25.790     1495
   25.805     1646
   25.820     1745
   25.835     1949
   25.850     2109
   25.865     2229
   25.880     2266
   25.895     2266
   25.910     2168
   25.925     2038
   25.940     1924
   25.955     1725
   25.970     1599
   25.985     1507
   26.000     1443
   26.015     1491
   26.030     1498
   26.045     1477
   26.060     1504
   26.075     1525
   26.090     1514
   26.105     1709
   26.120     1803
   26.135     1892
   26.150     2104
   26.165     2300
   26.180     2333
   26.195     2359
   26.210     2235
   26.225     2115
   26.240     1905
   26.255     1816
   26.270     1550
   26.285     1446
   26.300     1492
   26.315     1387
   26.330     1445
   26.345     1463
   26.360     1371
   26.375     1397
   26.390     1387
   26.405     1372
   26.420     1451
   26.435     1458
   26.450     1405
   26.465     1363
   26.480     1366
   26.495     1338
   26.510     1382
   26.525     1406
   26.540     1382
   26.555     1368
   26.570     1393
   26.585     1400
   26.600     1391
   26.615     1405
   26.630     1384
   26.645     1411
   26.660     1399
   26.675     1426
   26.690     1401
   26.705     1420
   26.720     1411
   26.735     1377
   26.750     1406
   26.765     1388
   26.780     1407
   26.795     1407
   26.810     1419
   26.825     1410
   26.840     1374
   26.855     1385
   26.870     1460
   26.885     1424
   26.900     1449
   26.915     1464
   26.930     1434
   26.945     1391
   26.960     1438
   26.975     1365
   26.990     1293
   27.005     1434
   27.020     1401
   27.035     1424
   27.050     1462
   27.065     1347
   27.080     1381
   27.095     1343
   27.110     1409
   27.125     1336
   27.140     1352
   27.155     1434
   27.170     1366
   27.185     1484
   27.200     1453
   27.215     1377
   27.230     1410
   27.245     1378
   27.260     1457
   27.275     1470
   27.290     1447
   27.305     1412
   27.320     1328
   27.335     1390
   27.350     1413
   27.365     1372
   27.380     1388
   27.395     1368
   27.410     1305
   27.425     1331
   27.440     1357
   27.455     1406
   27.470     1404
   27.485     1362
   27.500     1428
   27.515     1314
   27.530     1392
   27.545     1450
   27.560     1400
   27.575     1301
   27.590     1314
   27.605     1345
   27.620     1329
   27.635     1339
   27.650     1291
   27.665     1376
   27.680     1310
   27.695     1270
   27.710     1354
   27.725     1414
   27.740     1461
   27.755     1461
   27.770     1313
   27.785     1413
   27.800     1409
   27.815     1424
   27.830     1364
   27.845     1390
   27.860     1402
   27.875     1423
   27.890     1439
   27.905     1431
   27.920     1425
   27.935     1405
   27.950     1376
   27.965     1380
   27.980     1420
   27.995     1458
   28.010     1445
   28.025     1418
   28.040     1502
   28.055     1532
   28.070     1586
   28.085     1569
   28.100     1679
   28.115     1789
   28.130     1787
   28.145     1843
   28.160     1847
   28.175     1880
   28.190     1700
   28.205     1659
   28.220     1609
   28.235     1572
   28.250     1572
   28.265     1610
   28.280     1607
   28.295     1728
   28.310     1842
   28.325     1967
   28.340     2301
   28.355     2465
   28.370     2518
   28.385     2490
   28.400     2331
   28.415     2190
   28.430     1996
   28.445     1804
   28.460     1626
   28.475     1559
   28.490     1459
   28.505     1419
   28.520     1438
   28.535     1404
   28.550     1422
   28.565     1442
   28.580     1376
   28.595     1323
   28.610     1369
   28.625     1382
   28.640     1387
   28.655     1423
   28.670     1429
   28.685     1434
   28.700     1389
   28.715     1447
   28.730     1483
   28.745     1452
   28.760     1394
   28.775     1414
   28.790     1438
   28.805     1383
   28.820     1352
   28.835     1382
   28.850     1427
   28.865     1504
   28.880     1492
   28.895     1557
   28.910     1635
   28.925     1643
   28.940     1665
   28.955     1640
   28.970     1635
   28.985     1565
   29.000     1483
   29.015     1444
   29.030     1417
   29.045     1403
   29.060     1436
   29.075     1432
   29.090     1408
   29.105     1398
   29.120     1419
   29.135     1427
   29.150     1469
   29.165     1372
   29.180     1379
   29.195     1389
   29.210     1397
   29.225     1318
   29.240     1389
   29.255     1408
   29.270     1461
   29.285     1551
   29.300     1465
   29.315     1488
   29.330     1439
   29.345     1497
   29.360     1473
   29.375     1476
   29.390     1477
   29.405     1443
   29.420     1493
   29.435     1349
   29.450     1454
   29.465     1369
   29.480     1360
   29.495     1403
   29.510     1465
   29.525     1363
   29.540     1382
   29.555     1391
   29.570     1371
   29.585     1387
   29.600     1392
   29.615     1411
   29.630     1387
   29.645     1455
   29.660     1527
   29.675     1569
   29.690     1548
   29.705     1626
   29.720     1715
   29.735     1807
   29.750     1822
   29.765     1745
   29.780     1779
   29.795     1759
   29.810     1711
   29.825     1671
   29.840     1583
   29.855     1573
   29.870     1572
   29.885     1420
   29.900     1324
   29.915     1349
   29.930     1369
   29.945     1406
   29.960     1337
   29.975     1385
   29.990     1327
   30.005     1330
   30.020     1435
   30.035     1384
   30.050     1360
   30.065     1400
   30.080     1398
   30.095     1351
   30.110     1361
   30.125     1364
   30.140     1358
   30.155     1451
   30.170     1479
   30.185     1536
   30.200     1503
   30.215     1402
   30.230     1362
   30.245     1336
   30.260     1345
   30.275     1379
   30.290     1366
   30.305     1372
   30.320     1465
   30.335     1411
   30.350     1356
   30.365     1388
   30.380     1422
   30.395     1370
   30.410     1411
   30.425     1366
   30.440     1360
   30.455     1351
   30.470     1383
   30.485     1401
   30.500     1380
   30.515     1358
   30.530     1264
   30.545     1400
   30.560     1406
   30.575     1381
   30.590     1390
   30.605     1415
   30.620     1411
   30.635     1350
   30.650     1331
   30.665     1366
   30.680     1315
   30.695     1332
   30.710     1306
   30.725     1413
   30.740     1400
   30.755     1430
   30.770     1371
   30.785     1401
   30.800     1446
   30.815     1422
   30.830     1434
   30.845     1518
   30.860     1481
   30.875     1539
   30.890     1618
   30.905     1779
   30.920     1864
   30.935     1764
   30.950     1674
   30.965     1691
   30.980     1587
   30.995     1514
   31.010     1505
   31.025     1421
   31.040     1353
   31.055     1391
   31.070     1374
   31.085     1336
   31.100     1521
   31.115     1410
   31.130     1376
   31.145     1400
   31.160     1356
   31.175     1470
   31.190     1476
   31.205     1377
   31.220     1393
   31.235     1444
   31.250     1346
   31.265     1431
   31.280     1387
   31.295     1404
   31.310     1333
   31.325     1284
   31.340     1310
   31.355     1317
   31.370     1414
   31.385     1264
   31.400     1377
   31.415     1296
   31.430     1347
   31.445     1393
   31.460     1289
   31.475     1328
   31.490     1300
   31.505     1406
   31.520     1345
   31.535     1375
   31.550     1348
   31.565     1272
   31.580     1375
   31.595     1355
   31.610     1359
   31.625     1401
   31.640     1349
   31.655     1299
   31.670     1321
   31.685     1253
   31.700     1308
   31.715     1327
   31.730     1336
   31.745     1355
   31.760     1325
   31.775     1336
   31.790     1240
   31.805     1309
   31.820     1281
   31.835     1311
   31.850     1284
   31.865     1237
   31.880     1243
   31.895     1298
   31.910     1331
   31.925     1282
   31.940     1292
   31.955     1323
   31.970     1283
   31.985     1301
   32.000     1307
   32.015     1289
   32.030     1365
   32.045     1290
   32.060     1372
   32.075     1356
   32.090     1288
   32.105     1323
   32.120     1277
   32.135     1342
   32.150     1351
   32.165     1323
   32.180     1262
   32.195     1328
   32.210     1268
   32.225     1319
   32.240     1359
   32.255     1387
   32.270     1329
   32.285     1323
   32.300     1391
   32.315     1375
   32.330     1429
   32.345     1527
   32.360     1569
   32.375     1606
   32.390     1567
   32.405     1542
   32.420     1639
   32.435     1791
   32.450     1756
   32.465     1820
   32.480     1787
   32.495     1722
   32.510     1701
   32.525     1666
   32.540     1548
   32.555     1505
   32.570     1577
   32.585     1573
   32.600     1534
   32.615     1563
   32.630     1557
   32.645     1604
   32.660     1554
   32.675     1537
   32.690     1542
   32.705     1459
   32.720     1461
   32.735     1431
   32.750     1503
   32.765     1591
   32.780     1728
   32.795     1821
   32.810     1920
   32.825     1963
   32.840     1864
   32.855     1931
   32.870     1808
   32.885     1703
   32.900     1581
   32.915     1549
   32.930     1452
   32.945     1408
   32.960     1399
   32.975     1364
   32.990     1330
   33.005     1402
   33.020     1351
   33.035     1324
   33.050     1381
   33.065     1300
   33.080     1353
   33.095     1295
   33.110     1349
   33.125     1315
   33.140     1324
   33.155     1352
   33.170     1274
   33.185     1391
   33.200     1402
   33.215     1326
   33.230     1435
   33.245     1370
   33.260     1410
   33.275     1407
   33.290     1393
   33.305     1393
   33.320     1439
   33.335     1492
   33.350     1585
   33.365     1699
   33.380     1777
   33.395     1835
   33.410     1781
   33.425     1847
   33.440     1787
   33.455     1650
   33.470     1543
   33.485     1512
   33.500     1480
   33.515     1311
   33.530     1302
   33.545     1335
   33.560     1361
   33.575     1329
   33.590     1310
   33.605     1318
   33.620     1252
   33.635     1324
   33.650     1271
   33.665     1409
   33.680     1320
   33.695     1297
   33.710     1307
   33.725     1333
   33.740     1308
   33.755     1364
   33.770     1282
   33.785     1331
   33.800     1284
   33.815     1256
   33.830     1283
   33.845     1329
   33.860     1304
   33.875     1314
   33.890     1290
   33.905     1296
   33.920     1359
   33.935     1341
   33.950     1250
   33.965     1273
   33.980     1361
   33.995     1353
   34.010     1383
   34.025     1385
   34.040     1412
   34.055     1393
   34.070     1440
   34.085     1438
   34.100     1465
   34.115     1514
   34.130     1414
   34.145     1398
   34.160     1357
   34.175     1413
   34.190     1353
   34.205     1330
   34.220     1341
   34.235     1368
   34.250     1395
   34.265     1419
   34.280     1545
   34.295     1723
   34.310     1782
   34.325     1820
   34.340     1896
   34.355     1909
   34.370     1854
   34.385     1769
   34.400     1675
   34.415     1616
   34.430     1583
   34.445     1534
   34.460     1516
   34.475     1546
   34.490     1607
   34.505     1707
   34.520     1751
   34.535     1654
   34.550     1610
   34.565     1625
   34.580     1495
   34.595     1401
   34.610     1457
   34.625     1372
   34.640     1367
   34.655     1372
   34.670     1348
   34.685     1308
   34.700     1291
   34.715     1333
   34.730     1395
   34.745     1379
   34.760     1327
   34.775     1302
   34.790     1350
   34.805     1324
   34.820     1275
   34.835     1274
   34.850     1264
   34.865     1322
   34.880     1349
   34.895     1332
   34.910     1344
   34.925     1429
   34.940     1346
   34.955     1338
   34.970     1325
   34.985     1332
   35.000     1356
   35.015     1360
   35.030     1283
   35.045     1356
   35.060     1367
   35.075     1374
   35.090     1311
   35.105     1310
   35.120     1283
   35.135     1325
   35.150     1299
   35.165     1277
   35.180     1291
   35.195     1311
   35.210     1329
   35.225     1287
   35.240     1299
   35.255     1307
   35.270     1370
   35.285     1397
   35.300     1444
   35.315     1477
   35.330     1494
   35.345     1481
   35.360     1490
   35.375     1404
   35.390     1429
   35.405     1377
   35.420     1333
   35.435     1258
   35.450     1295
   35.465     1250
   35.480     1263
   35.495     1330
   35.510     1312
   35.525     1312
   35.540     1308
   35.555     1266
   35.570     1310
   35.585     1238
   35.600     1293
   35.615     1285
   35.630     1370
   35.645     1405
   35.660     1429
   35.675     1415
   35.690     1427
   35.705     1442
   35.720     1359
   35.735     1363
   35.750     1317
   35.765     1290
   35.780     1347
   35.795     1354
   35.810     1273
   35.825     1284
   35.840     1290
   35.855     1293
   35.870     1419
   35.885     1351
   35.900     1289
   35.915     1338
   35.930     1413
   35.945     1389
   35.960     1420
   35.975     1492
   35.990     1516
   36.005     1512
   36.020     1592
   36.035     1553
   36.050     1464
   36.065     1424
   36.080     1321
   36.095     1312
   36.110     1261
   36.125     1294
   36.140     1327
   36.155     1332
   36.170     1306
   36.185     1352
   36.200     1306
   36.215     1263
   36.230     1225
   36.245     1220
   36.260     1256
   36.275     1315
   36.290     1269
   36.305     1231
   36.320     1256
   36.335     1255
   36.350     1261
   36.365     1276
   36.380     1288
   36.395     1253
   36.410     1314
   36.425     1330
   36.440     1342
   36.455     1299
   36.470     1324
   36.485     1239
   36.500     1263
   36.515     1237
   36.530     1199
   36.545     1284
   36.560     1291
   36.575     1295
   36.590     1275
   36.605     1323
   36.620     1288
   36.635     1273
   36.650     1193
   36.665     1199
   36.680     1260
   36.695     1223
   36.710     1187
   36.725     1257
   36.740     1327
   36.755     1273
   36.770     1320
   36.785     1318
   36.800     1266
   36.815     1308
   36.830     1241
   36.845     1264
   36.860     1242
   36.875     1317
   36.890     1287
   36.905     1310
   36.920     1298
   36.935     1319
   36.950     1316
   36.965     1459
   36.980     1507
   36.995     1606
   37.010     1688
   37.025     1615
   37.040     1619
   37.055     1552
   37.070     1622
   37.085     1437
   37.100     1333
   37.115     1326
   37.130     1338
   37.145     1299
   37.160     1240
   37.175     1268
   37.190     1204
   37.205     1229
   37.220     1260
   37.235     1227
   37.250     1143
   37.265     1287
   37.280     1260
   37.295     1278
   37.310     1232
   37.325     1201
   37.340     1208
   37.355     1241
   37.370     1304
   37.385     1266
   37.400     1273
   37.415     1200
   37.430     1207
   37.445     1201
   37.460     1208
   37.475     1221
   37.490     1232
   37.505     1327
   37.520     1287
   37.535     1329
   37.550     1330
   37.565     1263
   37.580     1337
   37.595     1296
   37.610     1307
   37.625     1258
   37.640     1209
   37.655     1246
   37.670     1230
   37.685     1190
   37.700     1180
   37.715     1235
   37.730     1222
   37.745     1250
   37.760     1279
   37.775     1286
   37.790     1208
   37.805     1371
   37.820     1371
   37.835     1434
   37.850     1541
   37.865     1558
   37.880     1657
   37.895     1621
   37.910     1601
   37.925     1570
   37.940     1537
   37.955     1476
   37.970     1412
   37.985     1327
   38.000     1260
   38.015     1313
   38.030     1291
   38.045     1344
   38.060     1384
   38.075     1367
   38.090     1304
   38.105     1470
   38.120     1485
   38.135     1632
   38.150     1761
   38.165     1798
   38.180     1787
   38.195     1797
   38.210     1712
   38.225     1769
   38.240     1624
   38.255     1593
   38.270     1370
   38.285     1291
   38.300     1312
   38.315     1321
   38.330     1413
   38.345     1404
   38.360     1385
   38.375     1438
   38.390     1346
   38.405     1323
   38.420     1323
   38.435     1320
   38.450     1277
   38.465     1283
   38.480     1236
   38.495     1223
   38.510     1261
   38.525     1216
   38.540     1206
   38.555     1202
   38.570     1264
   38.585     1290
   38.600     1339
   38.615     1406
   38.630     1318
   38.645     1346
   38.660     1364
   38.675     1379
   38.690     1390
   38.705     1417
   38.720     1369
   38.735     1319
   38.750     1351
   38.765     1292
   38.780     1273
   38.795     1247
   38.810     1297
   38.825     1295
   38.840     1231
   38.855     1261
   38.870     1372
   38.885     1345
   38.900     1322
   38.915     1282
   38.930     1271
   38.945     1228
   38.960     1340
   38.975     1297
   38.990     1268
   39.005     1346
   39.020     1330
   39.035     1325
   39.050     1418
   39.065     1287
   39.080     1326
   39.095     1301
   39.110     1360
   39.125     1278
   39.140     1288
   39.155     1346
   39.170     1342
   39.185     1317
   39.200     1293
   39.215     1276
   39.230     1374
   39.245     1330
   39.260     1307
   39.275     1352
   39.290     1285
   39.305     1289
   39.320     1308
   39.335     1273
   39.350     1283
   39.365     1225
   39.380     1267
   39.395     1250
   39.410     1218
   39.425     1266
   39.440     1263
   39.455     1260
   39.470     1244
   39.485     1293
   39.500     1371
   39.515     1239
   39.530     1254
   39.545     1263
   39.560     1299
   39.575     1289
   39.590     1218
   39.605     1276
   39.620     1217
   39.635     1306
   39.650     1235
   39.665     1308
   39.680     1229
   39.695     1274
   39.710     1241
   39.725     1259
   39.740     1295
   39.755     1283
   39.770     1256
   39.785     1294
   39.800     1301
   39.815     1211
   39.830     1195
   39.845     1308
   39.860     1296
   39.875     1331
   39.890     1290
   39.905     1301
   39.920     1323
   39.935     1268
   39.950     1256
   39.965     1279
   39.980     1347
   39.995     1296
   40.010     1410
   40.025     1399
   40.040     1328
   40.055     1256
   40.070     1274
   40.085     1316
   40.100     1320
   40.115     1294
   40.130     1251
   40.145     1299
   40.160     1301
   40.175     1324
   40.190     1214
   40.205     1268
   40.220     1222
   40.235     1291
   40.250     1245
   40.265     1278
   40.280     1305
   40.295     1287
   40.310     1298
   40.325     1267
   40.340     1318
   40.355     1369
   40.370     1344
   40.385     1329
   40.400     1355
   40.415     1409
   40.430     1397
   40.445     1401
   40.460     1432
   40.475     1564
   40.490     1494
   40.505     1540
   40.520     1628
   40.535     1643
   40.550     1629
   40.565     1725
   40.580     1722
   40.595     1692
   40.610     1703
   40.625     1602
   40.640     1479
   40.655     1439
   40.670     1394
   40.685     1359
   40.700     1343
   40.715     1364
   40.730     1368
   40.745     1400
   40.760     1364
   40.775     1369
   40.790     1460
   40.805     1457
   40.820     1461
   40.835     1561
   40.850     1563
   40.865     1562
   40.880     1576
   40.895     1583
   40.910     1504
   40.925     1510
   40.940     1500
   40.955     1460
   40.970     1444
   40.985     1380
   41.000     1362
   41.015     1382
   41.030     1369
   41.045     1322
   41.060     1358
   41.075     1380
   41.090     1342
   41.105     1289
   41.120     1320
   41.135     1343
   41.150     1318
   41.165     1242
   41.180     1315
   41.195     1312
   41.210     1299
   41.225     1294
   41.240     1318
   41.255     1340
   41.270     1370
   41.285     1327
   41.300     1313
   41.315     1241
   41.330     1191
   41.345     1296
   41.360     1368
   41.375     1268
   41.390     1331
   41.405     1277
   41.420     1296
   41.435     1301
   41.450     1287
   41.465     1330
   41.480     1270
   41.495     1259
   41.510     1253
   41.525     1275
   41.540     1364
   41.555     1277
   41.570     1249
   41.585     1233
   41.600     1391
   41.615     1325
   41.630     1346
   41.645     1458
   41.660     1562
   41.675     1619
   41.690     1550
   41.705     1785
   41.720     1909
   41.735     1971
   41.750     2045
   41.765     2163
   41.780     2069
   41.795     2047
   41.810     1910
   41.825     1808
   41.840     1630
   41.855     1537
   41.870     1548
   41.885     1451
   41.900     1356
   41.915     1288
   41.930     1261
   41.945     1320
   41.960     1265
   41.975     1264
   41.990     1303
   42.005     1245
   42.020     1262
   42.035     1282
   42.050     1295
   42.065     1318
   42.080     1274
   42.095     1308
   42.110     1280
   42.125     1271
   42.140     1310
   42.155     1340
   42.170     1339
   42.185     1330
   42.200     1395
   42.215     1408
   42.230     1424
   42.245     1504
   42.260     1612
   42.275     1699
   42.290     1824
   42.305     1872
   42.320     1970
   42.335     1983
   42.350     1978
   42.365     1918
   42.380     1839
   42.395     1731
   42.410     1643
   42.425     1503
   42.440     1460
   42.455     1404
   42.470     1377
   42.485     1401
   42.500     1474
   42.515     1525
   42.530     1473
   42.545     1536
   42.560     1533
   42.575     1533
   42.590     1409
   42.605     1462
   42.620     1406
   42.635     1347
   42.650     1280
   42.665     1290
   42.680     1261
   42.695     1278
   42.710     1233
   42.725     1317
   42.740     1367
   42.755     1373
   42.770     1476
   42.785     1460
   42.800     1483
   42.815     1433
   42.830     1475
   42.845     1473
   42.860     1448
   42.875     1348
   42.890     1402
   42.905     1344
   42.920     1309
   42.935     1304
   42.950     1233
   42.965     1264
   42.980     1268
   42.995     1259
   43.010     1235
   43.025     1236
   43.040     1236
   43.055     1337
   43.070     1290
   43.085     1228
   43.100     1345
   43.115     1282
   43.130     1298
   43.145     1245
   43.160     1251
   43.175     1298
   43.190     1290
   43.205     1249
   43.220     1248
   43.235     1317
   43.250     1231
   43.265     1275
   43.280     1243
   43.295     1342
   43.310     1257
   43.325     1207
   43.340     1261
   43.355     1302
   43.370     1309
   43.385     1308
   43.400     1308
   43.415     1283
   43.430     1305
   43.445     1250
   43.460     1274
   43.475     1368
   43.490     1431
   43.505     1489
   43.520     1383
   43.535     1451
   43.550     1461
   43.565     1408
   43.580     1433
   43.595     1410
   43.610     1447
   43.625     1443
   43.640     1303
   43.655     1325
   43.670     1343
   43.685     1309
   43.700     1302
   43.715     1300
   43.730     1254
   43.745     1237
   43.760     1389
   43.775     1312
   43.790     1188
   43.805     1295
   43.820     1285
   43.835     1293
   43.850     1249
   43.865     1216
   43.880     1274
   43.895     1289
   43.910     1327
   43.925     1324
   43.940     1379
   43.955     1411
   43.970     1410
   43.985     1373
