    2.000       74
    2.015       97
    2.030       95
    2.045       89
    2.060       93
    2.075      107
    2.090       79
    2.105       94
    2.120       79
    2.135       83
    2.150       84
    2.165       79
    2.180       71
    2.195       67
    2.210       75
    2.225       84
    2.240       79
    2.255       85
    2.270       79
    2.285       79
    2.300       80
    2.315       74
    2.330       75
    2.345       80
    2.360       76
    2.375       83
    2.390       76
    2.405       88
    2.420       89
    2.435       84
    2.450       76
    2.465       78
    2.480       75
    2.495       67
    2.510       80
    2.525       84
    2.540       83
    2.555       84
    2.570       77
    2.585       74
    2.600       77
    2.615       87
    2.630       84
    2.645       76
    2.660       75
    2.675       82
    2.690       86
    2.705       75
    2.720       72
    2.735       74
    2.750       77
    2.765       87
    2.780       88
    2.795       82
    2.810       92
    2.825       91
    2.840       74
    2.855       85
    2.870       90
    2.885       86
    2.900       89
    2.915       70
    2.930       60
    2.945       77
    2.960       85
    2.975       90
    2.990       78
    3.005       80
    3.020       81
    3.035       81
    3.050       90
    3.065       93
    3.080       76
    3.095       69
    3.110       82
    3.125       80
    3.140       79
    3.155       80
    3.170       71
    3.185       75
    3.200       77
    3.215       65
    3.230       71
    3.245       91
    3.260       87
    3.275       79
    3.290       79
    3.305       92
    3.320       89
    3.335       89
    3.350       83
    3.365       91
    3.380       79
    3.395       95
    3.410       94
    3.425       76
    3.440       71
    3.455       78
    3.470       92
    3.485       81
    3.500       74
    3.515       73
    3.530       69
    3.545       80
    3.560       83
    3.575       72
    3.590       76
    3.605       91
    3.620       97
    3.635       87
    3.650       76
    3.665       83
    3.680       78
    3.695       83
    3.710       72
    3.725       80
    3.740       86
    3.755       71
    3.770       69
    3.785       88
    3.800       73
    3.815       67
    3.830       98
    3.845       70
    3.860       75
    3.875       88
    3.890       86
    3.905       83
    3.920       80
    3.935       85
    3.950       76
    3.965       74
    3.980       71
    3.995       79
    4.010       88
    4.025       85
    4.040       72
    4.055       73
    4.070       76
    4.085       76
    4.100       81
    4.115       69
    4.130       78
    4.145       92
    4.160       70
    4.175       80
    4.190       71
    4.205       71
    4.220       86
    4.235       65
    4.250       74
    4.265       82
    4.280       77
    4.295       90
    4.310       77
    4.325       72
    4.340       78
    4.355       67
    4.370       58
    4.385       71
    4.400       78
    4.415       79
    4.430       71
    4.445       74
    4.460       85
    4.475       87
    4.490       82
    4.505       77
    4.520       78
    4.535       75
    4.550       61
    4.565       70
    4.580       74
    4.595       73
    4.610       79
    4.625       86
    4.640       81
    4.655       73
    4.670       75
    4.685       70
    4.700       79
    4.715       88
    4.730       85
    4.745       69
    4.760       74
    4.775       81
    4.790       77
    4.805       73
    4.820       86
    4.835       87
    4.850       77
    4.865       78
    4.880       83
    4.895       86
    4.910       78
    4.925       82
    4.940       88
    4.955       84
    4.970       78
    4.985       76
    5.000       82
    5.015       77
    5.030       81
    5.045       80
    5.060       82
    5.075       74
    5.090       83
    5.105       73
    5.120       75
    5.135       75
    5.150       69
    5.165       77
    5.180       90
    5.195       96
    5.210       80
    5.225       76
    5.240       82
    5.255       68
    5.270       78
    5.285       77
    5.300       81
    5.315       82
    5.330       86
    5.345       82
    5.360       71
    5.375       73
    5.390       67
    5.405       81
    5.420       84
    5.435       77
    5.450       61
    5.465       68
    5.480       76
    5.495       69
    5.510       82
    5.525       74
    5.540       77
    5.555       82
    5.570       76
    5.585       72
    5.600       80
    5.615       83
    5.630       78
    5.645       73
    5.660       72
    5.675       82
    5.690       94
    5.705       81
    5.720       78
    5.735       68
    5.750       81
    5.765       79
    5.780       76
    5.795       83
    5.810       71
    5.825       77
    5.840       78
    5.855       85
    5.870       70
    5.885       69
    5.900       76
    5.915       78
    5.930       71
    5.945       80
    5.960       79
    5.975       80
    5.990       85
    6.005       82
    6.020       72
    6.035       80
    6.050       80
    6.065       84
    6.080       77
    6.095       78
    6.110       71
    6.125       63
    6.140       65
    6.155       74
    6.170       71
    6.185       78
    6.200       92
    6.215       76
    6.230       89
    6.245       88
    6.260       83
    6.275       68
    6.290       64
    6.305       74
    6.320       79
    6.335       77
    6.350       81
    6.365       74
    6.380       78
    6.395       87
    6.410       88
    6.425       84
    6.440       87
    6.455       86
    6.470       84
    6.485       81
    6.500       76
    6.515       75
    6.530       74
    6.545       68
    6.560       79
    6.575       84
    6.590       79
    6.605       87
    6.620       79
    6.635       70
    6.650       76
    6.665       74
    6.680       72
    6.695       78
    6.710       82
    6.725       86
    6.740       71
    6.755       81
    6.770       80
    6.785       90
    6.800       81
    6.815       84
    6.830       86
    6.845       72
    6.860       84
    6.875       81
    6.890       95
    6.905       81
    6.920       54
    6.935       63
    6.950       77
    6.965       94
    6.980      101
    6.995       66
    7.010       71
    7.025       93
    7.040       90
    7.055       75
    7.070       80
    7.085       77
    7.100       75
    7.115       79
    7.130       77
    7.145       75
    7.160       68
    7.175       86
    7.190       87
    7.205       71
    7.220       79
    7.235       72
    7.250       62
    7.265       84
    7.280       90
    7.295       83
    7.310       69
    7.325       65
    7.340       67
    7.355       79
    7.370       73
    7.385       74
    7.400       89
    7.415       82
    7.430       72
    7.445       68
    7.460       67
    7.475       69
    7.490       85
    7.505       91
    7.520       92
    7.535       80
    7.550       62
    7.565       68
    7.580       67
    7.595       83
    7.610       80
    7.625       64
    7.640       56
    7.655       88
    7.670       73
    7.685       82
    7.700       77
    7.715       74
    7.730       79
    7.745       72
    7.760       83
    7.775       74
    7.790       58
    7.805       75
    7.820       92
    7.835       90
    7.850       81
    7.865       64
    7.880       62
    7.895       68
    7.910       71
    7.925       77
    7.940       74
    7.955       82
    7.970       89
    7.985       90
    8.000       88
    8.015       84
    8.030       95
    8.045       66
    8.060       73
    8.075       82
    8.090       80
    8.105       80
    8.120       76
    8.135       76
    8.150       91
    8.165       98
    8.180       77
    8.195       74
    8.210       68
    8.225       75
    8.240       71
    8.255       76
    8.270       80
    8.285       77
    8.300       89
    8.315       78
    8.330       90
    8.345       83
    8.360       66
    8.375       85
    8.390       94
    8.405       85
    8.420       87
    8.435       91
    8.450       85
    8.465       74
    8.480       83
    8.495       94
    8.510       91
    8.525       77
    8.540       73
    8.555       81
    8.570       79
    8.585       88
    8.600       87
    8.615       84
    8.630       96
    8.645       99
    8.660       92
    8.675       97
    8.690       98
    8.705      103
    8.720      118
    8.735      106
    8.750      112
    8.765      121
    8.780      122
    8.795      134
    8.810      145
    8.825      152
    8.840      179
    8.855      194
    8.870      228
    8.885      262
    8.900      286
    8.915      350
    8.930      387
    8.945      454
    8.960      559
    8.975      633
    8.990      691
    9.005      755
    9.020      840
    9.035      863
    9.050      814
    9.065      744
    9.080      716
    9.095      579
    9.110      497
    9.125      421
    9.140      323
    9.155      262
    9.170      203
    9.185      175
    9.200      137
    9.215      120
    9.230      107
    9.245       93
    9.260       99
    9.275       95
    9.290       84
    9.305      100
    9.320       78
    9.335       85
    9.350       88
    9.365       98
    9.380       94
    9.395       94
    9.410       75
    9.425       84
    9.440       91
    9.455       92
    9.470       95
    9.485       99
    9.500      102
    9.515      105
    9.530       94
    9.545      104
    9.560      110
    9.575      115
    9.590      128
    9.605      145
    9.620      143
    9.635      188
    9.650      215
    9.665      256
    9.680      286
    9.695      327
    9.710      379
    9.725      447
    9.740      500
    9.755      515
    9.770      457
    9.785      425
    9.800      384
    9.815      310
    9.830      247
    9.845      175
    9.860      126
    9.875      133
    9.890      132
    9.905      104
    9.920       91
    9.935       85
    9.950       87
    9.965       70
    9.980       97
    9.995       95
   10.010       82
   10.025       90
   10.040       78
   10.055       74
   10.070       82
   10.085       89
   10.100       76
   10.115       87
   10.130       81
   10.145       75
   10.160       82
   10.175       87
   10.190       88
   10.205       81
   10.220       71
   10.235       79
   10.250       80
   10.265       83
   10.280       81
   10.295       72
   10.310       73
   10.325       90
   10.340       95
   10.355       80
   10.370       75
   10.385       89
   10.400       84
   10.415       84
   10.430       91
   10.445       91
   10.460       85
   10.475       74
   10.490       71
   10.505       89
   10.520       77
   10.535       79
   10.550       79
   10.565       94
   10.580       80
   10.595       76
   10.610       75
   10.625       74
   10.640       82
   10.655       85
   10.670       79
   10.685       76
   10.700       84
   10.715       81
   10.730       80
   10.745       83
   10.760       84
   10.775       84
   10.790       80
   10.805       82
   10.820       84
   10.835       72
   10.850       71
   10.865       80
   10.880       92
   10.895       85
   10.910       82
   10.925       77
   10.940       94
   10.955       91
   10.970       73
   10.985       77
   11.000       84
   11.015       73
   11.030       73
   11.045       79
   11.060       85
   11.075       83
   11.090       75
   11.105       76
   11.120       63
   11.135       75
   11.150       72
   11.165       74
   11.180       75
   11.195       77
   11.210       85
   11.225       83
   11.240       67
   11.255       81
   11.270       75
   11.285       75
   11.300       75
   11.315       79
   11.330       69
   11.345       75
   11.360       71
   11.375       79
   11.390       88
   11.405       76
   11.420       75
   11.435       69
   11.450       88
   11.465       84
   11.480       93
   11.495       83
   11.510       81
   11.525       85
   11.540       89
   11.555       71
   11.570       82
   11.585       74
   11.600       84
   11.615       71
   11.630       78
   11.645       81
   11.660       69
   11.675       86
   11.690       73
   11.705       88
   11.720       87
   11.735       68
   11.750       81
   11.765       80
   11.780       78
   11.795       74
   11.810       89
   11.825       72
   11.840       64
   11.855       71
   11.870       87
   11.885       76
   11.900       70
   11.915       72
   11.930       77
   11.945       80
   11.960       80
   11.975       77
   11.990       82
   12.005       76
   12.020       59
   12.035       78
   12.050       74
   12.065       75
   12.080       75
   12.095       76
   12.110       72
   12.125       82
   12.140       81
   12.155       83
   12.170       83
   12.185       83
   12.200       89
   12.215       84
   12.230       79
   12.245       73
   12.260       83
   12.275       96
   12.290       79
   12.305       67
   12.320       80
   12.335       90
   12.350       71
   12.365       69
   12.380       80
   12.395       83
   12.410       73
   12.425       80
   12.440       88
   12.455       87
   12.470       90
   12.485       83
   12.500       77
   12.515       76
   12.530       69
   12.545       78
   12.560       81
   12.575       69
   12.590       81
   12.605       90
   12.620       97
   12.635       90
   12.650       93
   12.665       84
   12.680       79
   12.695       67
   12.710       73
   12.725       73
   12.740       78
   12.755       85
   12.770       77
   12.785       79
   12.800       83
   12.815       71
   12.830       78
   12.845       69
   12.860       76
   12.875       75
   12.890       93
   12.905       82
   12.920       80
   12.935       73
   12.950       75
   12.965       81
   12.980       77
   12.995       79
   13.010       84
   13.025       82
   13.040       82
   13.055       83
   13.070       78
   13.085       63
   13.100       92
   13.115       90
   13.130       72
   13.145       71
   13.160       76
   13.175       71
   13.190       82
   13.205       79
   13.220       74
   13.235       77
   13.250       75
   13.265       83
   13.280      106
   13.295       80
   13.310       66
   13.325       81
   13.340       78
   13.355       91
   13.370       80
   13.385       78
   13.400       74
   13.415       88
   13.430       74
   13.445       72
   13.460       83
   13.475       70
   13.490       71
   13.505       92
   13.520       76
   13.535       90
   13.550       79
   13.565       80
   13.580       88
   13.595       89
   13.610       85
   13.625       85
   13.640       90
   13.655       85
   13.670       71
   13.685       72
   13.700       77
   13.715       67
   13.730       73
   13.745       90
   13.760       72
   13.775       77
   13.790       65
   13.805       93
   13.820       87
   13.835       81
   13.850       84
   13.865       80
   13.880       73
   13.895       84
   13.910       78
   13.925       84
   13.940       88
   13.955       90
   13.970       73
   13.985       85
   14.000       78
   14.015       90
   14.030       89
   14.045       68
   14.060       84
   14.075       79
   14.090       84
   14.105       84
   14.120       72
   14.135       66
   14.150       76
   14.165       87
   14.180       79
   14.195       75
   14.210       90
   14.225       89
   14.240       84
   14.255       78
   14.270       85
   14.285       73
   14.300       80
   14.315       88
   14.330       82
   14.345       80
   14.360       77
   14.375       77
   14.390       81
   14.405       81
   14.420       84
   14.435       96
   14.450       88
   14.465       73
   14.480       75
   14.495       79
   14.510       83
   14.525       94
   14.540       85
   14.555       89
   14.570       84
   14.585       89
   14.600       98
   14.615       88
   14.630       86
   14.645       87
   14.660       95
   14.675       94
   14.690       88
   14.705       86
   14.720       94
   14.735       99
   14.750      103
   14.765      115
   14.780      116
   14.795      116
   14.810      112
   14.825      130
   14.840      140
   14.855      175
   14.870      186
   14.885      187
   14.900      210
   14.915      225
   14.930      205
   14.945      192
   14.960      174
   14.975      169
   14.990      147
   15.005      136
   15.020      119
   15.035      106
   15.050      114
   15.065      110
   15.080       95
   15.095       94
   15.110       95
   15.125       91
   15.140       79
   15.155       88
   15.170      111
   15.185      108
   15.200       97
   15.215      108
   15.230      105
   15.245      111
   15.260      103
   15.275       96
   15.290       88
   15.305       90
   15.320       90
   15.335      100
   15.350       92
   15.365       82
   15.380       86
   15.395       87
   15.410       69
   15.425       87
   15.440      105
   15.455      113
   15.470       89
   15.485       91
   15.500       90
   15.515      101
   15.530       84
   15.545       96
   15.560       96
   15.575       89
   15.590       96
   15.605       83
   15.620       97
   15.635       91
   15.650       90
   15.665       95
   15.680      100
   15.695       82
   15.710       91
   15.725       72
   15.740       94
   15.755       99
   15.770       97
   15.785       83
   15.800       94
   15.815       80
   15.830       98
   15.845       84
   15.860       83
   15.875      106
   15.890       98
   15.905       88
   15.920       97
   15.935       91
   15.950       82
   15.965       96
   15.980       79
   15.995       74
   16.010       86
   16.025       95
   16.040       93
   16.055       97
   16.070       86
   16.085       87
   16.100       96
   16.115       87
   16.130       94
   16.145       91
   16.160       76
   16.175       87
   16.190       86
   16.205       79
   16.220       93
   16.235       87
   16.250       84
   16.265       94
   16.280      102
   16.295       99
   16.310       95
   16.325       85
   16.340       90
   16.355       85
   16.370       74
   16.385       95
   16.400       92
   16.415       77
   16.430       92
   16.445       93
   16.460       94
   16.475       99
   16.490      105
   16.505      103
   16.520      119
   16.535      124
   16.550      133
   16.565      142
   16.580      171
   16.595      179
   16.610      172
   16.625      167
   16.640      160
   16.655      158
   16.670      128
   16.685      123
   16.700      117
   16.715      117
   16.730      118
   16.745      100
   16.760       89
   16.775       89
   16.790       98
   16.805      102
   16.820       97
   16.835      103
   16.850       99
   16.865       94
   16.880       91
   16.895       89
   16.910       99
   16.925       90
   16.940       91
   16.955       90
   16.970      103
   16.985      105
   17.000       95
   17.015       97
   17.030      100
   17.045       98
   17.060       99
   17.075       95
   17.090      105
   17.105      102
   17.120      101
   17.135       93
   17.150       91
   17.165      108
   17.180       98
   17.195      100
   17.210      100
   17.225       76
   17.240      110
   17.255       99
   17.270      106
   17.285      103
   17.300       89
   17.315      101
   17.330      100
   17.345       98
   17.360      100
   17.375       93
   17.390       92
   17.405      100
   17.420      115
   17.435       89
   17.450      112
   17.465      113
   17.480      100
   17.495      103
   17.510       98
   17.525      124
   17.540      108
   17.555      132
   17.570      118
   17.585      132
   17.600      156
   17.615      133
   17.630      146
   17.645      122
   17.660      126
   17.675      120
   17.690      112
   17.705       91
   17.720       97
   17.735      124
   17.750       99
   17.765      106
   17.780       87
   17.795      114
   17.810      111
   17.825      115
   17.840      112
   17.855      106
   17.870      106
   17.885      118
   17.900      120
   17.915      107
   17.930      108
   17.945      116
   17.960      113
   17.975      126
   17.990      126
   18.005      144
   18.020      155
   18.035      161
   18.050      156
   18.065      192
   18.080      216
   18.095      245
   18.110      274
   18.125      295
   18.140      310
   18.155      352
   18.170      375
   18.185      376
   18.200      355
   18.215      312
   18.230      327
   18.245      338
   18.260      306
   18.275      289
   18.290      278
   18.305      269
   18.320      271
   18.335      258
   18.350      236
   18.365      241
   18.380      230
   18.395      208
   18.410      183
   18.425      156
   18.440      144
   18.455      144
   18.470      143
   18.485      137
   18.500      119
   18.515      116
   18.530      119
   18.545      112
   18.560      111
   18.575      112
   18.590      109
   18.605      104
   18.620      110
   18.635      116
   18.650      105
   18.665       99
   18.680       93
   18.695       99
   18.710      104
   18.725      117
   18.740      109
   18.755      108
   18.770       92
   18.785      101
   18.800      101
   18.815      111
   18.830       99
   18.845      117
   18.860      126
   18.875      114
   18.890      107
   18.905      115
   18.920      113
   18.935      123
   18.950       92
   18.965      105
   18.980      109
   18.995      110
   19.010      115
   19.025      126
   19.040      107
   19.055      107
   19.070      111
   19.085       87
   19.100      111
   19.115       97
   19.130      115
   19.145      105
   19.160       91
   19.175       96
   19.190      116
   19.205      108
   19.220      103
   19.235      101
   19.250      108
   19.265      110
   19.280      116
   19.295      119
   19.310       98
   19.325       82
   19.340       89
   19.355       97
   19.370      127
   19.385      102
   19.400      116
   19.415      101
   19.430       97
   19.445      104
   19.460      104
   19.475       94
   19.490       94
   19.505      105
   19.520      105
   19.535      106
   19.550      129
   19.565      126
   19.580      121
   19.595      112
   19.610      120
   19.625      125
   19.640      109
   19.655      122
   19.670      121
   19.685      121
   19.700      127
   19.715      131
   19.730      102
   19.745      116
   19.760       94
   19.775      103
   19.790      110
   19.805      104
   19.820       87
   19.835       99
   19.850      107
   19.865      102
   19.880      104
   19.895       89
   19.910       87
   19.925      100
   19.940       95
   19.955       94
   19.970       94
   19.985       98
   20.000       91
   20.015      105
   20.030      113
   20.045       92
   20.060       89
   20.075      128
   20.090      106
   20.105      106
   20.120      105
   20.135       87
   20.150      114
   20.165      105
   20.180       96
   20.195       99
   20.210      109
   20.225      104
   20.240      102
   20.255       99
   20.270      100
   20.285      101
   20.300      102
   20.315       98
   20.330       99
   20.345      111
   20.360      110
   20.375      112
   20.390      106
   20.405      125
   20.420      129
   20.435      133
   20.450      147
   20.465      129
   20.480      121
   20.495      118
   20.510      133
   20.525      137
   20.540      124
   20.555      116
   20.570      132
   20.585      157
   20.600      148
   20.615      154
   20.630      130
   20.645      128
   20.660      136
   20.675      151
   20.690      146
   20.705      145
   20.720      145
   20.735      147
   20.750      134
   20.765      117
   20.780      117
   20.795      116
   20.810      125
   20.825      130
   20.840      115
   20.855      123
   20.870      123
   20.885      128
   20.900      117
   20.915      111
   20.930      127
   20.945      125
   20.960      125
   20.975      118
   20.990      118
   21.005      102
   21.020       96
   21.035      107
   21.050      101
   21.065      100
   21.080      119
   21.095      104
   21.110       95
   21.125       95
   21.140      108
   21.155      114
   21.170      116
   21.185       98
   21.200      104
   21.215      107
   21.230      106
   21.245      108
   21.260      105
   21.275       99
   21.290       95
   21.305      117
   21.320      100
   21.335      104
   21.350      104
   21.365       96
   21.380      105
   21.395       96
   21.410       93
   21.425      106
   21.440      113
   21.455      108
   21.470       90
   21.485      111
   21.500      122
   21.515       93
   21.530      107
   21.545      103
   21.560       94
   21.575      109
   21.590      104
   21.605      103
   21.620       96
   21.635      104
   21.650      108
   21.665      109
   21.680       90
   21.695       81
   21.710      112
   21.725      102
   21.740      107
   21.755      109
   21.770      111
   21.785      111
   21.800      106
   21.815      105
   21.830      110
   21.845      115
   21.860      104
   21.875      110
   21.890       98
   21.905       91
   21.920       96
   21.935      110
   21.950      112
   21.965      101
   21.980       94
   21.995       98
   22.010      106
   22.025      102
   22.040      105
   22.055      117
   22.070      108
   22.085      103
   22.100      119
   22.115      107
   22.130      101
   22.145       95
   22.160      105
   22.175      105
   22.190       94
   22.205       98
   22.220      102
   22.235       96
   22.250      104
   22.265      104
   22.280      121
   22.295      106
   22.310       94
   22.325      101
   22.340      106
   22.355      109
   22.370      108
   22.385      114
   22.400      106
   22.415       97
   22.430      101
   22.445      107
   22.460      101
   22.475      113
   22.490      106
   22.505       94
   22.520      102
   22.535      100
   22.550       90
   22.565      103
   22.580      118
   22.595      111
   22.610       98
   22.625       96
   22.640       93
   22.655      111
   22.670      107
   22.685      101
   22.700      100
   22.715      100
   22.730       99
   22.745      108
   22.760      102
   22.775       98
   22.790      101
   22.805       99
   22.820       87
   22.835      101
   22.850      126
   22.865      120
   22.880      110
   22.895      100
   22.910       88
   22.925      109
   22.940      112
   22.955       88
   22.970       95
   22.985       98
   23.000      104
   23.015       88
   23.030       97
   23.045      104
   23.060      102
   23.075      100
   23.090      103
   23.105      110
   23.120       98
   23.135      102
   23.150      105
   23.165      112
   23.180      108
   23.195      112
   23.210      101
   23.225       92
   23.240       94
   23.255       91
   23.270       92
   23.285       90
   23.300       84
   23.315       93
   23.330      109
   23.345       92
   23.360       90
   23.375       84
   23.390       97
   23.405      100
   23.420      101
   23.435       86
   23.450      100
   23.465       90
   23.480       93
   23.495       98
   23.510      100
   23.525      101
   23.540       87
   23.555       93
   23.570       91
   23.585      111
   23.600       87
   23.615       89
   23.630       88
   23.645       89
   23.660       84
   23.675      110
   23.690       99
   23.705       87
   23.720       90
   23.735       84
   23.750      108
   23.765      103
   23.780       94
   23.795      106
   23.810      104
   23.825      108
   23.840      105
   23.855       99
   23.870       90
   23.885       89
   23.900      106
   23.915       84
   23.930       92
   23.945       94
   23.960       92
   23.975       96
   23.990       95
   24.005      101
   24.020      108
   24.035      105
   24.050       93
   24.065       97
   24.080       92
   24.095       97
   24.110      105
   24.125       98
   24.140       99
   24.155       83
   24.170       79
   24.185       81
   24.200      103
   24.215       88
   24.230       86
   24.245       88
   24.260       93
   24.275      105
   24.290      104
   24.305       89
   24.320       96
   24.335      106
   24.350       99
   24.365       89
   24.380      107
   24.395      109
   24.410       97
   24.425       95
   24.440       92
   24.455       89
   24.470      101
   24.485       98
   24.500       91
   24.515       97
   24.530      101
   24.545       92
   24.560      103
   24.575      117
   24.590      118
   24.605      111
   24.620      102
   24.635      114
   24.650       96
   24.665      105
   24.680      105
   24.695      106
   24.710      117
   24.725      112
   24.740      110
   24.755      109
   24.770       97
   24.785      105
   24.800       93
   24.815       95
   24.830      100
   24.845      102
   24.860       88
   24.875      101
   24.890      106
   24.905       91
   24.920       88
   24.935       79
   24.950       63
   24.965      107
   24.980      109
   24.995      115
   25.010       88
   25.025       97
   25.040       94
   25.055       98
   25.070       90
   25.085      100
   25.100       91
   25.115      110
   25.130      108
   25.145      104
   25.160      129
   25.175       96
   25.190      102
   25.205       93
   25.220       95
   25.235      112
   25.250      117
   25.265      112
   25.280      134
   25.295      110
   25.310       94
   25.325      105
   25.340       96
   25.355       97
   25.370      131
   25.385      102
   25.400       93
   25.415       95
   25.430       89
   25.445       80
   25.460       93
   25.475      103
   25.490       89
   25.505       83
   25.520       97
   25.535       82
   25.550       97
   25.565       89
   25.580      105
   25.595       93
   25.610       86
   25.625       95
   25.640       93
   25.655       86
   25.670       76
   25.685       92
   25.700       78
   25.715       88
   25.730       94
   25.745       92
   25.760      106
   25.775       98
   25.790       89
   25.805       82
   25.820      105
   25.835       92
   25.850      111
   25.865       96
   25.880      101
   25.895       87
   25.910       96
   25.925       98
   25.940      103
   25.955      113
   25.970      104
   25.985       91
   26.000       97
   26.015      110
   26.030       90
   26.045       96
   26.060       93
   26.075       82
   26.090       79
   26.105       92
   26.120       91
   26.135      101
   26.150       83
   26.165       91
   26.180       79
   26.195       87
   26.210       97
   26.225       97
   26.240       89
   26.255       94
   26.270       82
   26.285       84
   26.300       85
   26.315       86
   26.330      110
   26.345       97
   26.360       82
   26.375       90
   26.390       92
   26.405       85
   26.420       95
   26.435       91
   26.450       89
   26.465       94
   26.480       98
   26.495       92
   26.510       92
   26.525       87
   26.540       95
   26.555       96
   26.570       98
   26.585       98
   26.600       83
   26.615       84
   26.630       88
   26.645       88
   26.660       88
   26.675       95
   26.690       94
   26.705       88
   26.720       95
   26.735       96
   26.750       94
   26.765       94
   26.780       89
   26.795       83
   26.810       94
   26.825      100
   26.840       99
   26.855       98
   26.870       93
   26.885       93
   26.900       97
   26.915       88
   26.930       91
   26.945      114
   26.960       93
   26.975       81
   26.990       93
   27.005      103
   27.020      101
   27.035       96
   27.050       89
   27.065       86
   27.080       85
   27.095       86
   27.110      100
   27.125       97
   27.140       84
   27.155      106
   27.170      116
   27.185      133
   27.200      143
   27.215      126
   27.230      139
   27.245      146
   27.260      144
   27.275      131
   27.290      150
   27.305      130
   27.320      116
   27.335      133
   27.350      122
   27.365      127
   27.380      124
   27.395      131
   27.410      140
   27.425      150
   27.440      123
   27.455      154
   27.470      150
   27.485      144
   27.500      154
   27.515      158
   27.530      155
   27.545      157
   27.560      172
   27.575      155
   27.590      183
   27.605      186
   27.620      170
   27.635      156
   27.650      159
   27.665      171
   27.680      139
   27.695      138
   27.710      133
   27.725      123
   27.740      115
   27.755      120
   27.770      111
   27.785      121
   27.800      109
   27.815      102
   27.830      107
   27.845       96
   27.860      102
   27.875       87
   27.890      114
   27.905      103
   27.920       96
   27.935      107
   27.950       89
   27.965       99
   27.980      101
   27.995      107
   28.010      105
   28.025      103
   28.040       83
   28.055       81
   28.070      103
   28.085       94
   28.100       99
   28.115       91
   28.130       91
   28.145       87
   28.160       82
   28.175       93
   28.190       94
   28.205      108
   28.220       97
   28.235       88
   28.250       90
   28.265      104
   28.280      104
   28.295       89
   28.310       89
   28.325       98
   28.340      101
   28.355       99
   28.370       87
   28.385       94
   28.400       99
   28.415       86
   28.430       90
   28.445       92
   28.460       88
   28.475       85
   28.490       91
   28.505      100
   28.520       89
   28.535       80
   28.550       83
   28.565       92
   28.580       99
   28.595       93
   28.610       78
   28.625       82
   28.640       85
   28.655       89
   28.670       89
   28.685       83
   28.700       89
   28.715       91
   28.730       87
   28.745       84
   28.760       82
   28.775       82
   28.790       86
   28.805       83
   28.820       73
   28.835       82
   28.850       96
   28.865       95
   28.880       98
   28.895       90
   28.910       79
   28.925       83
   28.940       96
   28.955       83
   28.970       80
   28.985       94
   29.000       94
   29.015       97
   29.030       86
   29.045       84
   29.060       96
   29.075       98
   29.090       85
   29.105       78
   29.120       75
   29.135       85
   29.150       94
   29.165       91
   29.180       95
   29.195       95
   29.210       99
   29.225       85
   29.240       86
   29.255       91
   29.270       86
   29.285       87
   29.300       85
   29.315      102
   29.330       86
   29.345       83
   29.360       79
   29.375       95
   29.390       98
   29.405      103
   29.420      105
   29.435       86
   29.450       96
   29.465       97
   29.480      101
   29.495       75
   29.510       83
   29.525       90
   29.540       89
   29.555       95
   29.570       89
   29.585       84
   29.600       99
   29.615       93
   29.630       82
   29.645       82
   29.660       93
   29.675      106
   29.690       89
   29.705       91
   29.720       94
   29.735       89
   29.750       86
   29.765      103
   29.780       84
   29.795       87
   29.810       94
   29.825       79
   29.840       71
   29.855      100
   29.870       90
   29.885       91
   29.900       86
   29.915       89
   29.930       74
   29.945       93
   29.960       96
   29.975      100
   29.990       95
   30.005       89
   30.020       94
   30.035      103
   30.050       84
   30.065       95
   30.080      108
   30.095       95
   30.110       96
   30.125       88
   30.140       85
   30.155       97
   30.170       86
   30.185       88
   30.200       91
   30.215       93
   30.230       93
   30.245      106
   30.260       94
   30.275       93
   30.290      105
   30.305       98
   30.320       89
   30.335      104
   30.350      114
   30.365      100
   30.380      105
   30.395      115
   30.410      113
   30.425      114
   30.440       98
   30.455       78
   30.470       87
   30.485       93
   30.500       71
   30.515       75
   30.530       83
   30.545       86
   30.560       78
   30.575       95
   30.590       89
   30.605       89
   30.620       86
   30.635      100
   30.650       86
   30.665       85
   30.680       86
   30.695       87
   30.710       79
   30.725       81
   30.740       85
   30.755       83
   30.770       80
   30.785       83
   30.800       90
   30.815       85
   30.830       77
   30.845       85
   30.860       95
   30.875       69
   30.890       72
   30.905       94
   30.920      101
   30.935       75
   30.950       91
   30.965       71
   30.980       94
   30.995       85
   31.010       79
   31.025       73
   31.040       75
   31.055       91
   31.070       72
   31.085       83
   31.100       83
   31.115       80
   31.130      101
   31.145       85
   31.160       96
   31.175      102
   31.190       95
   31.205       95
   31.220       96
   31.235       89
   31.250       91
   31.265       96
   31.280       84
   31.295       98
   31.310       93
   31.325       91
   31.340       96
   31.355      121
   31.370      132
   31.385      110
   31.400      128
   31.415      107
   31.430       97
   31.445      102
   31.460      110
   31.475      107
   31.490      100
   31.505       94
   31.520      103
   31.535       90
   31.550       83
   31.565       90
   31.580       93
   31.595      106
   31.610      107
   31.625      102
   31.640       98
   31.655      108
   31.670      114
   31.685       98
   31.700       96
   31.715       87
   31.730       78
   31.745       84
   31.760       79
   31.775       85
   31.790       83
   31.805       89
   31.820       75
   31.835       86
   31.850       89
   31.865       76
   31.880       72
   31.895       77
   31.910       73
   31.925       72
   31.940       73
   31.955       86
   31.970      102
   31.985      117
   32.000      107
   32.015      114
   32.030      123
   32.045       98
   32.060       87
   32.075       92
   32.090       93
   32.105      110
   32.120       99
   32.135       99
   32.150      108
   32.165      112
   32.180      100
   32.195       95
   32.210       93
   32.225      109
   32.240      108
   32.255       91
   32.270      102
   32.285       94
   32.300       87
   32.315       83
   32.330       83
   32.345       94
   32.360       89
   32.375       97
   32.390       97
   32.405      104
   32.420      101
   32.435       91
   32.450       94
   32.465       89
   32.480       73
   32.495       80
   32.510       83
   32.525       88
   32.540       88
   32.555       90
   32.570       86
   32.585       85
   32.600       82
   32.615       89
   32.630       92
   32.645       90
   32.660       81
   32.675       89
   32.690       90
   32.705       91
   32.720       95
   32.735       97
   32.750       89
   32.765       92
   32.780       93
   32.795       88
   32.810       99
   32.825       87
   32.840       71
   32.855       90
   32.870      104
   32.885      102
   32.900      101
   32.915      110
   32.930      103
   32.945       98
   32.960       94
   32.975       96
   32.990       92
   33.005       87
   33.020       95
   33.035       99
   33.050      106
   33.065       97
   33.080       93
   33.095       84
   33.110       88
   33.125       99
   33.140       81
   33.155       83
   33.170       77
   33.185       79
   33.200       82
   33.215       94
   33.230       76
   33.245       80
   33.260       97
   33.275       78
   33.290       82
   33.305       86
   33.320       75
   33.335       81
   33.350       97
   33.365       77
   33.380       92
   33.395      105
   33.410      102
   33.425       82
   33.440       94
   33.455       77
   33.470       95
   33.485       98
   33.500       91
   33.515      101
   33.530       98
   33.545       92
   33.560       94
   33.575       87
   33.590       96
   33.605       91
   33.620      108
   33.635       87
   33.650       81
   33.665      106
   33.680       98
   33.695       96
   33.710       91
   33.725       96
   33.740      112
   33.755       96
   33.770       88
   33.785       87
   33.800       80
   33.815       89
   33.830       89
   33.845       92
   33.860       88
   33.875       86
   33.890       77
   33.905       82
   33.920       95
   33.935       81
   33.950       84
   33.965       86
   33.980       95
   33.995       95
   34.010       86
   34.025       88
   34.040      101
   34.055       80
   34.070       88
   34.085       90
   34.100       86
   34.115      104
   34.130       93
   34.145       94
   34.160      111
   34.175      109
   34.190       89
   34.205       88
   34.220       84
   34.235       84
   34.250       93
   34.265       91
   34.280       91
   34.295       97
   34.310       91
   34.325       88
   34.340       99
   34.355      102
   34.370       94
   34.385       79
   34.400       80
   34.415       82
   34.430       86
   34.445       95
   34.460       88
   34.475       85
   34.490       85
   34.505       77
   34.520       77
   34.535       81
   34.550       87
   34.565       88
   34.580       78
   34.595       84
   34.610       89
   34.625       83
   34.640       85
   34.655       83
   34.670       78
   34.685       88
   34.700       85
   34.715       82
   34.730       72
   34.745       86
   34.760       84
   34.775       75
   34.790       87
   34.805       86
   34.820       76
   34.835       75
   34.850       86
   34.865       77
   34.880       73
   34.895       76
   34.910       81
   34.925       83
   34.940       82
   34.955       76
   34.970       78
   34.985       86
   35.000       90
   35.015       98
   35.030      102
   35.045       97
   35.060       81
   35.075       90
   35.090       96
   35.105       86
   35.120       73
   35.135       72
   35.150       84
   35.165       82
   35.180       86
   35.195      110
   35.210      104
   35.225      103
   35.240       93
   35.255       99
   35.270       87
   35.285       83
   35.300       92
   35.315       82
   35.330       87
   35.345       89
   35.360       96
   35.375       92
   35.390       99
   35.405       83
   35.420       97
   35.435       71
   35.450       85
   35.465       78
   35.480       84
   35.495       86
   35.510       85
   35.525       72
   35.540       87
   35.555       74
   35.570       79
   35.585       85
   35.600       72
   35.615       79
   35.630       74
   35.645       80
   35.660       86
   35.675       84
   35.690       86
   35.705       73
   35.720       76
   35.735       78
   35.750       80
   35.765       90
   35.780       76
   35.795       89
   35.810       91
   35.825       94
   35.840       90
   35.855       79
   35.870       78
   35.885       76
   35.900       81
   35.915       67
   35.930       80
   35.945       83
   35.960       81
   35.975       83
   35.990       71
   36.005       72
   36.020       74
   36.035       80
   36.050       85
   36.065       81
   36.080       79
   36.095       73
   36.110       78
   36.125       78
   36.140       82
   36.155       80
   36.170       86
   36.185       81
   36.200       80
   36.215       80
   36.230       83
   36.245       86
   36.260       98
   36.275       90
   36.290       97
   36.305       93
   36.320       79
   36.335       74
   36.350       83
   36.365       79
   36.380       80
   36.395       87
   36.410       89
   36.425       77
   36.440       70
   36.455       74
   36.470       86
   36.485       81
   36.500       69
   36.515       74
   36.530       70
   36.545       66
   36.560       81
   36.575       81
   36.590       86
   36.605       94
   36.620       87
   36.635       77
   36.650       67
   36.665       71
   36.680       79
   36.695       75
   36.710       79
   36.725       79
   36.740       78
   36.755       88
   36.770       81
   36.785       91
   36.800       81
   36.815       83
   36.830       78
   36.845      100
   36.860       90
   36.875       79
   36.890       89
   36.905       85
   36.920       70
   36.935       79
   36.950       91
   36.965       94
   36.980       97
   36.995       86
   37.010       97
   37.025       96
   37.040       87
   37.055       94
   37.070       86
   37.085       86
   37.100       83
   37.115       91
   37.130       88
   37.145       82
   37.160       86
   37.175       84
   37.190       83
   37.205       86
   37.220       94
   37.235       83
   37.250       75
   37.265       74
   37.280       86
   37.295       93
   37.310       86
   37.325       80
   37.340       74
   37.355       73
   37.370       83
   37.385       80
   37.400       89
   37.415       92
   37.430       97
   37.445       73
   37.460       74
   37.475       83
   37.490       86
   37.505       90
   37.520       75
   37.535       78
   37.550       82
   37.565       91
   37.580       71
   37.595       81
   37.610       81
   37.625       87
   37.640       66
   37.655       74
   37.670       77
   37.685       62
   37.700       70
   37.715       81
   37.730       78
   37.745       76
   37.760       64
   37.775       72
   37.790       81
   37.805       90
   37.820       92
   37.835       90
   37.850       80
   37.865       72
   37.880       77
   37.895       82
   37.910       84
   37.925       74
   37.940       72
   37.955       72
   37.970       86
   37.985       85
   38.000       77
   38.015       84
   38.030       60
   38.045       70
   38.060       65
   38.075       86
   38.090       77
   38.105       73
   38.120       81
   38.135       80
   38.150       90
   38.165       78
   38.180       67
   38.195       69
   38.210       73
   38.225       80
   38.240       83
   38.255       70
   38.270       56
   38.285       63
   38.300       65
   38.315       74
   38.330       84
   38.345       92
   38.360       81
   38.375       79
   38.390       76
   38.405       75
   38.420       89
   38.435       84
   38.450       69
   38.465       72
   38.480       77
   38.495       73
   38.510       70
   38.525       66
   38.540       70
   38.555       76
   38.570       75
   38.585       71
   38.600       70
   38.615       74
   38.630       80
   38.645       80
   38.660       88
   38.675       88
   38.690       86
   38.705       79
   38.720       76
   38.735       79
   38.750       81
   38.765       83
   38.780       74
   38.795       73
   38.810       74
   38.825       75
   38.840       86
   38.855       77
   38.870       81
   38.885       93
   38.900       93
   38.915       76
   38.930       87
   38.945       83
   38.960       78
   38.975       78
   38.990       74
   39.005       75
   39.020       81
   39.035       95
   39.050       92
   39.065       84
   39.080       73
   39.095       82
   39.110       84
   39.125       82
   39.140       66
   39.155       73
   39.170       79
   39.185       74
   39.200       68
   39.215       79
   39.230       81
   39.245       69
   39.260       76
   39.275       87
   39.290       80
   39.305       77
   39.320       86
   39.335       72
   39.350       90
   39.365       66
   39.380       66
   39.395       84
   39.410       92
   39.425       83
   39.440      103
   39.455       87
   39.470       94
   39.485       78
   39.500       95
   39.515       80
   39.530       73
   39.545       88
   39.560       90
   39.575       71
   39.590       78
   39.605       74
   39.620       64
   39.635       67
   39.650       78
   39.665       88
   39.680       67
   39.695       80
   39.710       81
   39.725       88
   39.740       84
   39.755       80
   39.770       83
   39.785       98
   39.800      102
   39.815       77
   39.830       85
   39.845       81
   39.860       86
   39.875      103
   39.890      107
   39.905       91
   39.920       91
   39.935       87
   39.950      104
   39.965      103
   39.980       99
   39.995      110
   40.010      119
   40.025      101
   40.040      111
   40.055      104
   40.070      101
   40.085       99
   40.100      104
   40.115       99
   40.130       91
   40.145       89
   40.160       91
   40.175       90
   40.190       79
   40.205       77
   40.220       96
   40.235       97
   40.250       87
   40.265       86
   40.280       76
   40.295       73
   40.310       77
   40.325       77
   40.340       87
   40.355       89
   40.370       83
   40.385       89
   40.400       81
   40.415       79
   40.430       81
   40.445       71
   40.460       78
   40.475       85
   40.490       80
   40.505       77
   40.520       76
   40.535       78
   40.550       77
   40.565       80
   40.580       85
   40.595       91
   40.610       88
   40.625       88
   40.640       74
   40.655       74
   40.670       73
   40.685       76
   40.700       78
   40.715       87
   40.730       88
   40.745       82
   40.760       81
   40.775       97
   40.790       84
   40.805       83
   40.820       83
   40.835       66
   40.850       74
   40.865       81
   40.880       78
   40.895       83
   40.910       87
   40.925       95
   40.940       96
   40.955       82
   40.970       74
   40.985       74
   41.000       89
   41.015       94
   41.030       86
   41.045       86
   41.060       83
   41.075       70
   41.090       80
   41.105       89
   41.120       62
   41.135       88
   41.150       75
   41.165       76
   41.180       80
   41.195       80
   41.210       83
   41.225       77
   41.240       69
   41.255       72
   41.270       81
   41.285       88
   41.300       77
   41.315       79
   41.330       83
   41.345       79
   41.360       64
   41.375       89
   41.390       77
   41.405       79
   41.420       89
   41.435       85
   41.450       76
   41.465       90
   41.480       87
   41.495       95
   41.510       85
   41.525       75
   41.540       85
   41.555       69
   41.570       88
   41.585       74
   41.600       83
   41.615       77
   41.630       77
   41.645       77
   41.660       88
   41.675       98
   41.690       73
   41.705       75
   41.720       90
   41.735       81
   41.750       83
   41.765       78
   41.780       74
   41.795       85
   41.810       82
   41.825       83
   41.840       74
   41.855       71
   41.870       80
   41.885       76
   41.900       73
   41.915       71
   41.930       74
   41.945       79
   41.960       72
   41.975       77
   41.990       83
   42.005       89
   42.020       83
   42.035       79
   42.050       84
   42.065       84
   42.080       85
   42.095       89
   42.110       81
   42.125       79
   42.140       92
   42.155       76
   42.170       86
   42.185      100
   42.200       92
   42.215       97
   42.230       88
   42.245       76
   42.260       86
   42.275       99
   42.290      106
   42.305      108
   42.320      103
   42.335      108
   42.350      115
   42.365      110
   42.380      117
   42.395      106
   42.410      108
   42.425      105
   42.440       93
   42.455       96
   42.470       87
   42.485       82
   42.500       80
   42.515       96
   42.530       80
   42.545       80
   42.560       92
   42.575       92
   42.590       92
   42.605       95
   42.620       83
   42.635       88
   42.650       86
   42.665       78
   42.680       91
   42.695       81
   42.710       94
   42.725       79
   42.740       86
   42.755       84
   42.770       69
   42.785       73
   42.800       96
   42.815       83
   42.830       81
   42.845       78
   42.860       80
   42.875       86
   42.890       87
   42.905       83
   42.920       86
   42.935       85
   42.950       75
   42.965       78
   42.980       85
   42.995       87
   43.010       80
   43.025       88
   43.040       88
   43.055       78
   43.070       80
   43.085       84
   43.100       93
   43.115       93
   43.130      106
   43.145       94
   43.160       85
   43.175      100
   43.190       97
   43.205       97
   43.220       97
   43.235       94
   43.250       86
   43.265       82
   43.280       91
   43.295       90
   43.310       88
   43.325       95
   43.340       73
   43.355       85
   43.370       99
   43.385       96
   43.400       86
   43.415       90
   43.430       82
   43.445       90
   43.460       82
   43.475       98
   43.490       89
   43.505       80
   43.520       87
   43.535       91
   43.550       98
   43.565       80
   43.580       92
   43.595       92
   43.610       92
   43.625      103
   43.640       95
   43.655       90
   43.670      100
   43.685       80
   43.700       87
   43.715       85
   43.730       97
   43.745       95
   43.760       99
   43.775      100
   43.790       74
   43.805       91
   43.820       89
   43.835       95
   43.850       80
   43.865       73
   43.880       74
   43.895       80
   43.910       89
   43.925       87
   43.940       80
   43.955       76
   43.970       84
   43.985       86
