    2.000     2305
    2.015     2463
    2.030     2574
    2.045     2424
    2.060     2375
    2.075     2456
    2.090     2362
    2.105     2431
    2.120     2379
    2.135     2345
    2.150     2392
    2.165     2276
    2.180     2249
    2.195     2214
    2.210     2222
    2.225     2239
    2.240     2214
    2.255     2325
    2.270     2215
    2.285     2136
    2.300     2198
    2.315     2159
    2.330     2259
    2.345     2327
    2.360     2259
    2.375     2271
    2.390     2141
    2.405     2099
    2.420     2225
    2.435     2302
    2.450     2231
    2.465     2136
    2.480     2137
    2.495     2135
    2.510     2136
    2.525     2128
    2.540     2122
    2.555     2152
    2.570     2185
    2.585     2160
    2.600     2041
    2.615     2104
    2.630     2087
    2.645     2124
    2.660     2121
    2.675     2133
    2.690     2093
    2.705     2142
    2.720     2091
    2.735     2059
    2.750     2029
    2.765     1977
    2.780     2048
    2.795     2066
    2.810     2040
    2.825     2001
    2.840     2029
    2.855     2068
    2.870     2090
    2.885     2160
    2.900     2157
    2.915     2122
    2.930     2024
    2.945     1935
    2.960     2046
    2.975     1999
    2.990     1944
    3.005     2008
    3.020     2070
    3.035     2067
    3.050     2112
    3.065     1986
    3.080     2086
    3.095     1945
    3.110     1943
    3.125     1951
    3.140     1934
    3.155     2055
    3.170     2028
    3.185     2017
    3.200     1989
    3.215     1956
    3.230     2072
    3.245     1982
    3.260     2109
    3.275     1955
    3.290     1975
    3.305     1954
    3.320     1947
    3.335     1941
    3.350     1926
    3.365     1865
    3.380     1931
    3.395     1941
    3.410     1850
    3.425     1937
    3.440     1994
    3.455     1937
    3.470     1895
    3.485     1929
    3.500     2068
    3.515     1913
    3.530     1893
    3.545     1845
    3.560     1896
    3.575     1897
    3.590     1863
    3.605     1895
    3.620     1827
    3.635     1940
    3.650     1869
    3.665     1956
    3.680     1956
    3.695     1817
    3.710     1916
    3.725     1977
    3.740     2009
    3.755     1955
    3.770     1828
    3.785     1901
    3.800     1862
    3.815     1962
    3.830     1948
    3.845     1943
    3.860     1932
    3.875     1962
    3.890     1992
    3.905     1922
    3.920     1972
    3.935     1976
    3.950     1864
    3.965     1917
    3.980     1998
    3.995     1985
    4.010     2025
    4.025     1984
    4.040     1959
    4.055     1981
    4.070     1965
    4.085     1977
    4.100     2039
    4.115     2016
    4.130     1977
    4.145     1988
    4.160     2019
    4.175     2014
    4.190     2000
    4.205     2063
    4.220     1996
    4.235     2024
    4.250     1974
    4.265     1948
    4.280     1960
    4.295     1946
    4.310     1940
    4.325     1934
    4.340     2040
    4.355     2000
    4.370     1972
    4.385     2091
    4.400     2035
    4.415     2052
    4.430     1963
    4.445     1997
    4.460     2071
    4.475     2187
    4.490     2134
    4.505     2090
    4.520     2105
    4.535     2143
    4.550     2211
    4.565     2225
    4.580     2195
    4.595     2289
    4.610     2370
    4.625     2385
    4.640     2460
    4.655     2564
    4.670     2682
    4.685     2843
    4.700     2847
    4.715     2965
    4.730     2740
    4.745     2502
    4.760     2237
    4.775     2003
    4.790     2013
    4.805     1923
    4.820     1889
    4.835     1905
    4.850     1871
    4.865     1926
    4.880     1971
    4.895     1947
    4.910     1959
    4.925     2051
    4.940     2064
    4.955     2044
    4.970     2079
    4.985     2041
    5.000     2052
    5.015     2098
    5.030     2059
    5.045     2050
    5.060     2071
    5.075     2018
    5.090     1954
    5.105     1878
    5.120     1872
    5.135     1872
    5.150     1881
    5.165     1898
    5.180     1837
    5.195     1980
    5.210     1899
    5.225     1908
    5.240     1911
    5.255     1844
    5.270     1911
    5.285     1901
    5.300     1844
    5.315     1841
    5.330     1887
    5.345     1956
    5.360     1960
    5.375     1844
    5.390     1923
    5.405     1991
    5.420     1949
    5.435     1865
    5.450     1999
    5.465     1993
    5.480     1904
    5.495     1970
    5.510     1986
    5.525     1952
    5.540     1990
    5.555     1967
    5.570     1962
    5.585     1835
    5.600     1941
    5.615     1834
    5.630     1879
    5.645     1868
    5.660     1922
    5.675     2052
    5.690     1961
    5.705     1938
    5.720     1976
    5.735     2036
    5.750     2008
    5.765     2017
    5.780     1988
    5.795     1984
    5.810     1948
    5.825     1913
    5.840     1882
    5.855     1931
    5.870     1904
    5.885     1836
    5.900     1733
    5.915     1737
    5.930     1827
    5.945     1878
    5.960     1796
    5.975     1842
    5.990     1891
    6.005     1840
    6.020     1886
    6.035     1838
    6.050     1840
    6.065     1863
    6.080     1887
    6.095     1892
    6.110     1868
    6.125     1801
    6.140     1838
    6.155     1843
    6.170     1839
    6.185     1861
    6.200     1933
    6.215     1881
    6.230     1822
    6.245     1781
    6.260     1785
    6.275     1841
    6.290     1834
    6.305     1895
    6.320     1941
    6.335     1913
    6.350     1872
    6.365     1884
    6.380     1892
    6.395     1913
    6.410     1930
    6.425     1967
    6.440     1864
    6.455     1849
    6.470     1900
    6.485     1909
    6.500     1917
    6.515     1920
    6.530     1819
    6.545     1937
    6.560     1961
    6.575     1891
    6.590     1977
    6.605     1896
    6.620     1915
    6.635     1840
    6.650     1791
    6.665     1811
    6.680     1819
    6.695     1845
    6.710     1804
    6.725     1872
    6.740     1939
    6.755     1935
    6.770     1898
    6.785     1884
    6.800     1932
    6.815     1945
    6.830     1855
    6.845     1919
    6.860     1953
    6.875     1948
    6.890     2041
    6.905     1935
    6.920     1867
    6.935     1920
    6.950     1909
    6.965     2007
    6.980     1939
    6.995     1891
    7.010     2003
    7.025     1949
    7.040     2004
    7.055     1938
    7.070     1994
    7.085     1870
    7.100     1993
    7.115     2010
    7.130     1974
    7.145     1977
    7.160     1994
    7.175     1954
    7.190     1968
    7.205     1870
    7.220     1939
    7.235     1928
    7.250     1877
    7.265     1957
    7.280     2003
    7.295     2035
    7.310     1914
    7.325     1992
    7.340     1994
    7.355     1982
    7.370     2088
    7.385     1992
    7.400     1960
    7.415     1987
    7.430     1975
    7.445     1962
    7.460     2084
    7.475     2001
    7.490     2060
    7.505     2171
    7.520     2052
    7.535     2056
    7.550     2039
    7.565     1981
    7.580     1947
    7.595     1908
    7.610     2124
    7.625     2012
    7.640     1887
    7.655     2024
    7.670     1988
    7.685     1982
    7.700     1943
    7.715     1969
    7.730     1970
    7.745     1979
    7.760     2081
    7.775     1981
    7.790     1939
    7.805     2080
    7.820     2032
    7.835     2094
    7.850     2108
    7.865     2056
    7.880     2033
    7.895     2107
    7.910     2114
    7.925     2123
    7.940     2125
    7.955     2098
    7.970     2248
    7.985     2232
    8.000     2166
    8.015     2237
    8.030     2258
    8.045     2210
    8.060     2309
    8.075     2336
    8.090     2299
    8.105     2398
    8.120     2245
    8.135     2317
    8.150     2384
    8.165     2468
    8.180     2468
    8.195     2493
    8.210     2625
    8.225     2716
    8.240     2677
    8.255     2868
    8.270     2773
    8.285     2686
    8.300     2771
    8.315     2698
    8.330     2733
    8.345     2794
    8.360     2699
    8.375     2613
    8.390     2582
    8.405     2596
    8.420     2697
    8.435     2857
    8.450     2846
    8.465     2896
    8.480     2920
    8.495     2830
    8.510     2847
    8.525     2865
    8.540     2843
    8.555     2819
    8.570     2816
    8.585     2837
    8.600     2765
    8.615     2874
    8.630     2940
    8.645     3027
    8.660     3138
    8.675     3308
    8.690     3469
    8.705     3751
    8.720     4040
    8.735     4155
    8.750     4340
    8.765     4305
    8.780     4333
    8.795     4347
    8.810     4324
    8.825     4271
    8.840     4233
    8.855     4463
    8.870     4833
    8.885     5305
    8.900     5761
    8.915     6148
    8.930     6174
    8.945     5937
    8.960     5716
    8.975     5177
    8.990     4550
    9.005     4165
    9.020     4250
    9.035     4147
    9.050     4088
    9.065     4164
    9.080     4225
    9.095     4113
    9.110     4421
    9.125     4651
    9.140     4616
    9.155     5101
    9.170     5212
    9.185     5265
    9.200     5047
    9.215     4640
    9.230     4327
    9.245     4027
    9.260     4151
    9.275     3844
    9.290     3670
    9.305     3528
    9.320     3352
    9.335     3229
    9.350     3076
    9.365     2843
    9.380     2943
    9.395     2979
    9.410     2970
    9.425     3197
    9.440     3422
    9.455     3476
    9.470     3864
    9.485     4472
    9.500     4397
    9.515     4374
    9.530     4070
    9.545     3765
    9.560     3377
    9.575     3224
    9.590     3036
    9.605     3088
    9.620     3116
    9.635     3178
    9.650     3023
    9.665     3239
    9.680     3495
    9.695     3395
    9.710     3372
    9.725     3571
    9.740     3437
    9.755     3238
    9.770     2879
    9.785     2701
    9.800     2617
    9.815     2554
    9.830     2504
    9.845     2305
    9.860     2341
    9.875     2514
    9.890     2500
    9.905     2467
    9.920     2488
    9.935     2588
    9.950     2508
    9.965     2653
    9.980     2833
    9.995     2827
   10.010     2944
   10.025     2772
   10.040     2765
   10.055     2656
   10.070     2656
   10.085     2670
   10.100     2843
   10.115     2854
   10.130     2906
   10.145     3002
   10.160     3173
   10.175     3326
   10.190     3177
   10.205     3312
   10.220     3195
   10.235     3020
   10.250     2853
   10.265     2665
   10.280     2693
   10.295     2633
   10.310     2458
   10.325     2437
   10.340     2428
   10.355     2437
   10.370     2475
   10.385     2464
   10.400     2355
   10.415     2398
   10.430     2316
   10.445     2315
   10.460     2288
   10.475     2409
   10.490     2386
   10.505     2345
   10.520     2344
   10.535     2270
   10.550     2268
   10.565     2254
   10.580     2166
   10.595     2241
   10.610     2261
   10.625     2202
   10.640     2140
   10.655     2176
   10.670     2144
   10.685     2165
   10.700     2126
   10.715     2204
   10.730     2219
   10.745     2103
   10.760     2078
   10.775     2087
   10.790     2068
   10.805     2070
   10.820     1981
   10.835     1997
   10.850     1920
   10.865     1989
   10.880     1946
   10.895     1916
   10.910     1976
   10.925     2094
   10.940     2071
   10.955     2016
   10.970     2017
   10.985     1913
   11.000     2003
   11.015     2014
   11.030     1997
   11.045     1984
   11.060     2125
   11.075     2172
   11.090     2181
   11.105     2143
   11.120     2071
   11.135     2066
   11.150     2057
   11.165     2062
   11.180     2008
   11.195     2083
   11.210     2060
   11.225     2036
   11.240     1942
   11.255     1971
   11.270     1957
   11.285     2066
   11.300     2035
   11.315     1969
   11.330     1936
   11.345     2034
   11.360     1937
   11.375     1885
   11.390     1870
   11.405     1907
   11.420     1825
   11.435     1794
   11.450     1855
   11.465     1767
   11.480     1727
   11.495     1781
   11.510     1921
   11.525     1805
   11.540     1889
   11.555     1841
   11.570     1938
   11.585     1764
   11.600     1833
   11.615     1842
   11.630     1834
   11.645     1851
   11.660     1797
   11.675     1792
   11.690     1800
   11.705     1835
   11.720     1824
   11.735     1863
   11.750     1814
   11.765     1848
   11.780     1794
   11.795     1826
   11.810     1893
   11.825     1784
   11.840     1749
   11.855     1807
   11.870     1849
   11.885     1737
   11.900     1716
   11.915     1756
   11.930     1769
   11.945     1805
   11.960     1763
   11.975     1822
   11.990     1853
   12.005     1703
   12.020     1769
   12.035     1771
   12.050     1749
   12.065     1807
   12.080     1741
   12.095     1772
   12.110     1679
   12.125     1732
   12.140     1794
   12.155     1778
   12.170     1732
   12.185     1796
   12.200     1841
   12.215     1811
   12.230     1746
   12.245     1698
   12.260     1741
   12.275     1732
   12.290     1712
   12.305     1771
   12.320     1814
   12.335     1865
   12.350     1850
   12.365     1849
   12.380     1883
   12.395     1896
   12.410     1884
   12.425     1900
   12.440     1946
   12.455     2014
   12.470     1959
   12.485     1934
   12.500     1926
   12.515     1896
   12.530     1816
   12.545     1855
   12.560     1882
   12.575     1931
   12.590     1955
   12.605     1922
   12.620     1911
   12.635     1896
   12.650     1794
   12.665     1803
   12.680     1778
   12.695     1742
   12.710     1779
   12.725     1802
   12.740     1775
   12.755     1845
   12.770     1836
   12.785     1826
   12.800     1854
   12.815     1748
   12.830     1797
   12.845     1850
   12.860     1832
   12.875     1745
   12.890     1844
   12.905     1831
   12.920     1852
   12.935     1774
   12.950     1727
   12.965     1885
   12.980     1869
   12.995     1847
   13.010     1894
   13.025     1966
   13.040     1908
   13.055     1900
   13.070     1948
   13.085     1763
   13.100     1894
   13.115     1887
   13.130     1856
   13.145     1747
   13.160     1800
   13.175     1858
   13.190     1847
   13.205     1792
   13.220     1780
   13.235     1779
   13.250     1712
   13.265     1800
   13.280     1799
   13.295     1811
   13.310     1739
   13.325     1677
   13.340     1717
   13.355     1706
   13.370     1892
   13.385     1808
   13.400     1758
   13.415     1702
   13.430     1742
   13.445     1692
   13.460     1714
   13.475     1782
   13.490     1851
   13.505     1869
   13.520     1722
   13.535     1873
   13.550     1849
   13.565     1759
   13.580     1838
   13.595     1777
   13.610     1886
   13.625     1834
   13.640     1885
   13.655     1822
   13.670     1867
   13.685     1767
   13.700     1788
   13.715     1742
   13.730     1692
   13.745     1713
   13.760     1749
   13.775     1758
   13.790     1651
   13.805     1770
   13.820     1760
   13.835     1823
   13.850     1793
   13.865     1876
   13.880     1838
   13.895     1765
   13.910     1759
   13.925     1745
   13.940     1757
   13.955     1761
   13.970     1843
   13.985     1795
   14.000     1744
   14.015     1794
   14.030     1873
   14.045     1812
   14.060     1795
   14.075     1855
   14.090     1778
   14.105     1795
   14.120     1790
   14.135     1782
   14.150     1859
   14.165     1791
   14.180     1661
   14.195     1676
   14.210     1671
   14.225     1741
   14.240     1769
   14.255     1918
   14.270     1830
   14.285     1731
   14.300     1805
   14.315     1826
   14.330     1915
   14.345     1946
   14.360     1864
   14.375     1894
   14.390     1787
   14.405     1728
   14.420     1838
   14.435     1849
   14.450     1776
   14.465     1769
   14.480     1805
   14.495     1702
   14.510     1733
   14.525     1770
   14.540     1796
   14.555     1813
   14.570     1796
   14.585     1768
   14.600     1776
   14.615     1819
   14.630     1763
   14.645     1761
   14.660     1793
   14.675     1822
   14.690     1850
   14.705     1840
   14.720     1840
   14.735     1867
   14.750     1827
   14.765     1817
   14.780     1888
   14.795     1927
   14.810     1886
   14.825     1880
   14.840     1876
   14.855     1910
   14.870     1978
   14.885     1991
   14.900     2064
   14.915     2048
   14.930     1930
   14.945     1907
   14.960     2073
   14.975     2064
   14.990     2042
   15.005     2129
   15.020     2139
   15.035     2085
   15.050     2145
   15.065     2071
   15.080     2063
   15.095     1946
   15.110     1946
   15.125     1865
   15.140     1951
   15.155     2012
   15.170     1930
   15.185     2036
   15.200     2073
   15.215     2084
   15.230     2095
   15.245     2087
   15.260     2129
   15.275     2037
   15.290     1904
   15.305     1876
   15.320     1948
   15.335     1850
   15.350     1993
   15.365     1903
   15.380     1985
   15.395     1963
   15.410     1852
   15.425     1922
   15.440     1875
   15.455     1800
   15.470     1866
   15.485     1912
   15.500     1918
   15.515     1806
   15.530     1887
   15.545     1930
   15.560     1930
   15.575     1945
   15.590     1862
   15.605     1877
   15.620     1984
   15.635     2025
   15.650     1874
   15.665     1949
   15.680     1879
   15.695     1797
   15.710     1852
   15.725     1944
   15.740     1880
   15.755     1859
   15.770     1860
   15.785     1907
   15.800     1892
   15.815     1980
   15.830     1957
   15.845     2063
   15.860     2004
   15.875     2042
   15.890     2020
   15.905     1959
   15.920     2028
   15.935     2108
   15.950     2002
   15.965     2089
   15.980     2143
   15.995     2100
   16.010     2224
   16.025     2216
   16.040     2184
   16.055     2060
   16.070     2077
   16.085     2127
   16.100     2161
   16.115     2152
   16.130     2043
   16.145     2040
   16.160     2096
   16.175     2154
   16.190     2034
   16.205     2103
   16.220     2079
   16.235     2144
   16.250     2238
   16.265     2244
   16.280     2373
   16.295     2387
   16.310     2374
   16.325     2443
   16.340     2630
   16.355     2684
   16.370     2713
   16.385     2643
   16.400     2434
   16.415     2337
   16.430     2315
   16.445     2245
   16.460     2199
   16.475     2355
   16.490     2302
   16.505     2338
   16.520     2370
   16.535     2369
   16.550     2392
   16.565     2489
   16.580     2535
   16.595     2499
   16.610     2420
   16.625     2315
   16.640     2242
   16.655     2205
   16.670     2266
   16.685     2285
   16.700     2274
   16.715     2380
   16.730     2345
   16.745     2351
   16.760     2345
   16.775     2246
   16.790     2199
   16.805     2124
   16.820     2057
   16.835     2104
   16.850     2055
   16.865     2079
   16.880     2113
   16.895     2087
   16.910     2134
   16.925     2123
   16.940     2190
   16.955     2153
   16.970     2090
   16.985     2160
   17.000     2157
   17.015     2123
   17.030     2082
   17.045     2083
   17.060     2213
   17.075     2195
   17.090     2150
   17.105     2170
   17.120     2171
   17.135     2098
   17.150     2115
   17.165     2155
   17.180     2059
   17.195     2218
   17.210     2213
   17.225     2295
   17.240     2259
   17.255     2268
   17.270     2332
   17.285     2290
   17.300     2182
   17.315     2114
   17.330     2053
   17.345     2146
   17.360     2161
   17.375     2008
   17.390     2094
   17.405     2098
   17.420     2089
   17.435     2049
   17.450     2169
   17.465     2127
   17.480     2138
   17.495     2181
   17.510     2283
   17.525     2146
   17.540     2287
   17.555     2220
   17.570     2193
   17.585     2036
   17.600     2211
   17.615     2176
   17.630     2223
   17.645     2333
   17.660     2277
   17.675     2355
   17.690     2285
   17.705     2368
   17.720     2516
   17.735     2410
   17.750     2443
   17.765     2510
   17.780     2414
   17.795     2418
   17.810     2342
   17.825     2288
   17.840     2179
   17.855     2200
   17.870     2256
   17.885     2172
   17.900     2190
   17.915     2182
   17.930     2308
   17.945     2291
   17.960     2267
   17.975     2474
   17.990     2451
   18.005     2365
   18.020     2411
   18.035     2306
   18.050     2146
   18.065     2170
   18.080     2129
   18.095     2122
   18.110     2082
   18.125     2148
   18.140     2163
   18.155     2216
   18.170     2287
   18.185     2291
   18.200     2372
   18.215     2426
   18.230     2345
   18.245     2291
   18.260     2297
   18.275     2264
   18.290     2342
   18.305     2425
   18.320     2444
   18.335     2377
   18.350     2433
   18.365     2501
   18.380     2586
   18.395     2635
   18.410     2660
   18.425     2663
   18.440     2822
   18.455     2880
   18.470     2887
   18.485     2817
   18.500     2798
   18.515     2828
   18.530     2623
   18.545     2613
   18.560     2613
   18.575     2651
   18.590     2614
   18.605     2646
   18.620     2710
   18.635     2587
   18.650     2587
   18.665     2655
   18.680     2632
   18.695     2727
   18.710     2780
   18.725     2745
   18.740     2773
   18.755     2623
   18.770     2559
   18.785     2502
   18.800     2551
   18.815     2393
   18.830     2377
   18.845     2419
   18.860     2423
   18.875     2358
   18.890     2312
   18.905     2185
   18.920     2223
   18.935     2184
   18.950     2135
   18.965     2286
   18.980     2214
   18.995     2231
   19.010     2274
   19.025     2348
   19.040     2359
   19.055     2265
   19.070     2463
   19.085     2354
   19.100     2478
   19.115     2640
   19.130     2693
   19.145     2809
   19.160     2731
   19.175     2694
   19.190     2737
   19.205     2575
   19.220     2425
   19.235     2450
   19.250     2322
   19.265     2334
   19.280     2323
   19.295     2272
   19.310     2174
   19.325     2115
   19.340     2163
   19.355     2247
   19.370     2266
   19.385     2186
   19.400     2236
   19.415     2197
   19.430     2244
   19.445     2152
   19.460     2207
   19.475     2154
   19.490     2247
   19.505     2319
   19.520     2206
   19.535     2269
   19.550     2182
   19.565     2158
   19.580     2239
   19.595     2275
   19.610     2309
   19.625     2310
   19.640     2221
   19.655     2202
   19.670     2209
   19.685     2110
   19.700     2169
   19.715     2272
   19.730     2151
   19.745     2143
   19.760     2264
   19.775     2176
   19.790     2097
   19.805     2216
   19.820     2212
   19.835     2266
   19.850     2261
   19.865     2194
   19.880     2144
   19.895     2206
   19.910     2237
   19.925     2225
   19.940     2224
   19.955     2157
   19.970     2237
   19.985     2196
   20.000     2204
   20.015     2312
   20.030     2349
   20.045     2351
   20.060     2261
   20.075     2238
   20.090     2164
   20.105     2222
   20.120     2179
   20.135     2144
   20.150     2212
   20.165     2191
   20.180     2109
   20.195     2096
   20.210     2157
   20.225     2244
   20.240     2225
   20.255     2302
   20.270     2191
   20.285     2192
   20.300     2192
   20.315     2153
   20.330     2167
   20.345     2333
   20.360     2318
   20.375     2306
   20.390     2223
   20.405     2198
   20.420     2286
   20.435     2368
   20.450     2244
   20.465     2192
   20.480     2191
   20.495     2186
   20.510     2235
   20.525     2261
   20.540     2278
   20.555     2272
   20.570     2313
   20.585     2282
   20.600     2254
   20.615     2327
   20.630     2276
   20.645     2317
   20.660     2308
   20.675     2331
   20.690     2347
   20.705     2447
   20.720     2468
   20.735     2376
   20.750     2350
   20.765     2259
   20.780     2264
   20.795     2351
   20.810     2440
   20.825     2411
   20.840     2379
   20.855     2475
   20.870     2428
   20.885     2452
   20.900     2490
   20.915     2466
   20.930     2309
   20.945     2281
   20.960     2393
   20.975     2377
   20.990     2316
   21.005     2421
   21.020     2458
   21.035     2413
   21.050     2379
   21.065     2353
   21.080     2414
   21.095     2196
   21.110     2268
   21.125     2340
   21.140     2305
   21.155     2441
   21.170     2375
   21.185     2353
   21.200     2311
   21.215     2265
   21.230     2302
   21.245     2269
   21.260     2412
   21.275     2283
   21.290     2377
   21.305     2306
   21.320     2341
   21.335     2344
   21.350     2361
   21.365     2249
   21.380     2257
   21.395     2165
   21.410     2201
   21.425     2359
   21.440     2418
   21.455     2344
   21.470     2393
   21.485     2440
   21.500     2510
   21.515     2420
   21.530     2395
   21.545     2535
   21.560     2492
   21.575     2459
   21.590     2259
   21.605     2177
   21.620     2343
   21.635     2304
   21.650     2210
   21.665     2318
   21.680     2272
   21.695     2140
   21.710     2256
   21.725     2209
   21.740     2306
   21.755     2373
   21.770     2284
   21.785     2389
   21.800     2446
   21.815     2434
   21.830     2454
   21.845     2452
   21.860     2408
   21.875     2401
   21.890     2368
   21.905     2297
   21.920     2288
   21.935     2271
   21.950     2197
   21.965     2249
   21.980     2292
   21.995     2309
   22.010     2277
   22.025     2272
   22.040     2254
   22.055     2112
   22.070     2157
   22.085     2181
   22.100     2246
   22.115     2231
   22.130     2143
   22.145     2133
   22.160     2245
   22.175     2300
   22.190     2112
   22.205     2239
   22.220     2197
   22.235     2155
   22.250     2112
   22.265     2182
   22.280     2278
   22.295     2177
   22.310     2087
   22.325     2100
   22.340     2145
   22.355     2146
   22.370     2154
   22.385     2225
   22.400     2139
   22.415     2120
   22.430     2101
   22.445     2219
   22.460     2217
   22.475     2214
   22.490     2230
   22.505     2229
   22.520     2222
   22.535     2145
   22.550     2211
   22.565     2266
   22.580     2240
   22.595     2238
   22.610     2300
   22.625     2236
   22.640     2184
   22.655     2218
   22.670     2209
   22.685     2226
   22.700     2171
   22.715     2283
   22.730     2280
   22.745     2247
   22.760     2271
   22.775     2196
   22.790     2156
   22.805     2154
   22.820     2122
   22.835     2197
   22.850     2136
   22.865     2221
   22.880     2206
   22.895     2162
   22.910     2157
   22.925     2201
   22.940     2240
   22.955     2191
   22.970     2249
   22.985     2199
   23.000     2159
   23.015     2205
   23.030     2130
   23.045     2068
   23.060     2140
   23.075     2181
   23.090     2157
   23.105     2093
   23.120     2075
   23.135     2136
   23.150     2117
   23.165     2136
   23.180     2045
   23.195     2187
   23.210     2166
   23.225     2204
   23.240     2090
   23.255     2068
   23.270     2200
   23.285     2206
   23.300     2128
   23.315     2115
   23.330     2096
   23.345     2113
   23.360     2110
   23.375     2085
   23.390     2205
   23.405     2197
   23.420     2166
   23.435     2162
   23.450     2308
   23.465     2261
   23.480     2136
   23.495     2291
   23.510     2319
   23.525     2217
   23.540     2333
   23.555     2250
   23.570     2169
   23.585     2048
   23.600     2115
   23.615     2048
   23.630     2139
   23.645     2181
   23.660     2180
   23.675     2222
   23.690     2131
   23.705     2220
   23.720     2237
   23.735     2130
   23.750     2153
   23.765     2159
   23.780     2169
   23.795     2162
   23.810     2205
   23.825     2190
   23.840     2149
   23.855     2179
   23.870     2233
   23.885     2118
   23.900     2042
   23.915     2068
   23.930     2124
   23.945     2216
   23.960     2159
   23.975     2224
   23.990     2298
   24.005     2286
   24.020     2392
   24.035     2290
   24.050     2213
   24.065     2302
   24.080     2104
   24.095     2101
   24.110     2050
   24.125     2067
   24.140     2004
   24.155     2050
   24.170     2138
   24.185     2203
   24.200     2161
   24.215     2192
   24.230     2185
   24.245     2148
   24.260     2131
   24.275     2108
   24.290     2143
   24.305     2145
   24.320     2129
   24.335     2138
   24.350     2074
   24.365     2070
   24.380     2208
   24.395     2165
   24.410     2104
   24.425     2117
   24.440     2123
   24.455     2070
   24.470     2169
   24.485     2152
   24.500     2215
   24.515     2302
   24.530     2176
   24.545     2241
   24.560     2315
   24.575     2273
   24.590     2197
   24.605     2192
   24.620     2201
   24.635     2197
   24.650     2094
   24.665     2200
   24.680     2153
   24.695     2105
   24.710     2078
   24.725     2126
   24.740     2163
   24.755     2067
   24.770     2046
   24.785     2148
   24.800     2217
   24.815     2077
   24.830     2104
   24.845     2137
   24.860     2112
   24.875     2141
   24.890     2066
   24.905     2107
   24.920     2115
   24.935     1998
   24.950     1997
   24.965     2123
   24.980     2037
   24.995     1980
   25.010     2039
   25.025     2082
   25.040     2165
   25.055     1925
   25.070     2107
   25.085     2040
   25.100     2161
   25.115     2136
   25.130     2193
   25.145     2125
   25.160     2087
   25.175     2159
   25.190     2128
   25.205     2154
   25.220     2138
   25.235     2152
   25.250     2062
   25.265     2150
   25.280     2038
   25.295     2102
   25.310     2044
   25.325     1961
   25.340     2042
   25.355     2050
   25.370     2115
   25.385     2036
   25.400     2077
   25.415     2100
   25.430     2128
   25.445     2069
   25.460     2089
   25.475     2131
   25.490     2105
   25.505     2241
   25.520     2259
   25.535     2113
   25.550     2079
   25.565     1919
   25.580     2084
   25.595     1884
   25.610     2037
   25.625     2043
   25.640     1971
   25.655     1911
   25.670     1881
   25.685     1853
   25.700     1894
   25.715     1948
   25.730     1901
   25.745     1959
   25.760     2041
   25.775     2009
   25.790     1934
   25.805     2065
   25.820     2051
   25.835     1934
   25.850     2009
   25.865     1954
   25.880     1904
   25.895     1872
   25.910     1954
   25.925     1931
   25.940     1946
   25.955     1880
   25.970     1999
   25.985     1935
   26.000     1870
   26.015     1909
   26.030     2018
   26.045     1963
   26.060     1972
   26.075     2042
   26.090     1980
   26.105     2111
   26.120     2053
   26.135     2029
   26.150     2026
   26.165     1955
   26.180     1854
   26.195     1872
   26.210     1904
   26.225     1958
   26.240     1946
   26.255     2001
   26.270     1870
   26.285     1827
   26.300     1896
   26.315     1856
   26.330     1875
   26.345     1934
   26.360     1925
   26.375     1966
   26.390     1944
   26.405     1920
   26.420     1969
   26.435     1990
   26.450     1908
   26.465     1882
   26.480     1856
   26.495     1794
   26.510     1838
   26.525     1869
   26.540     1906
   26.555     1898
   26.570     1939
   26.585     1946
   26.600     1918
   26.615     1965
   26.630     1913
   26.645     1918
   26.660     1906
   26.675     1998
   26.690     1979
   26.705     2018
   26.720     2070
   26.735     2077
   26.750     2038
   26.765     2044
   26.780     2117
   26.795     2142
   26.810     2193
   26.825     2103
   26.840     2028
   26.855     2076
   26.870     2162
   26.885     2172
   26.900     2035
   26.915     2008
   26.930     1943
   26.945     1879
   26.960     1887
   26.975     1867
   26.990     1843
   27.005     1955
   27.020     2003
   27.035     1927
   27.050     1995
   27.065     1913
   27.080     1891
   27.095     1823
   27.110     1896
   27.125     1872
   27.140     1929
   27.155     1940
   27.170     1866
   27.185     1972
   27.200     1870
   27.215     1875
   27.230     1954
   27.245     1858
   27.260     2017
   27.275     2008
   27.290     1986
   27.305     1954
   27.320     1990
   27.335     1950
   27.350     1959
   27.365     1912
   27.380     1917
   27.395     1872
   27.410     1768
   27.425     1999
   27.440     1946
   27.455     1870
   27.470     1933
   27.485     1992
   27.500     2066
   27.515     1976
   27.530     1913
   27.545     2031
   27.560     2008
   27.575     2000
   27.590     1867
   27.605     1907
   27.620     1901
   27.635     1929
   27.650     1917
   27.665     1922
   27.680     2010
   27.695     2007
   27.710     1999
   27.725     2073
   27.740     2073
   27.755     2103
   27.770     1969
   27.785     1954
   27.800     1991
   27.815     2049
   27.830     2004
   27.845     2050
   27.860     2022
   27.875     2031
   27.890     2050
   27.905     2016
   27.920     2084
   27.935     2062
   27.950     1974
   27.965     1950
   27.980     2016
   27.995     1902
   28.010     1950
   28.025     1928
   28.040     1865
   28.055     1791
   28.070     1777
   28.085     1776
   28.100     1922
   28.115     1926
   28.130     1848
   28.145     1794
   28.160     1868
   28.175     1869
   28.190     1809
   28.205     1917
   28.220     1865
   28.235     1921
   28.250     1916
   28.265     1862
   28.280     1907
   28.295     1850
   28.310     1819
   28.325     1810
   28.340     1890
   28.355     1876
   28.370     1813
   28.385     1834
   28.400     1755
   28.415     1838
   28.430     1814
   28.445     1814
   28.460     1823
   28.475     1856
   28.490     1845
   28.505     1850
   28.520     1874
   28.535     1793
   28.550     1898
   28.565     1942
   28.580     1846
   28.595     1847
   28.610     1869
   28.625     1799
   28.640     1787
   28.655     1855
   28.670     1843
   28.685     1825
   28.700     1818
   28.715     1894
   28.730     1900
   28.745     1929
   28.760     1965
   28.775     1908
   28.790     1817
   28.805     1804
   28.820     1803
   28.835     1854
   28.850     1784
   28.865     1835
   28.880     1876
   28.895     1861
   28.910     1838
   28.925     1923
   28.940     1912
   28.955     1848
   28.970     1884
   28.985     1824
   29.000     1831
   29.015     1851
   29.030     1664
   29.045     1737
   29.060     1723
   29.075     1772
   29.090     1772
   29.105     1750
   29.120     1715
   29.135     1706
   29.150     1740
   29.165     1746
   29.180     1718
   29.195     1755
   29.210     1770
   29.225     1694
   29.240     1758
   29.255     1734
   29.270     1761
   29.285     1819
   29.300     1755
   29.315     1777
   29.330     1685
   29.345     1775
   29.360     1756
   29.375     1696
   29.390     1805
   29.405     1801
   29.420     1716
   29.435     1678
   29.450     1746
   29.465     1755
   29.480     1750
   29.495     1720
   29.510     1714
   29.525     1638
   29.540     1788
   29.555     1794
   29.570     1780
   29.585     1706
   29.600     1742
   29.615     1745
   29.630     1733
   29.645     1772
   29.660     1795
   29.675     1766
   29.690     1688
   29.705     1847
   29.720     1796
   29.735     1764
   29.750     1703
   29.765     1750
   29.780     1675
   29.795     1796
   29.810     1777
   29.825     1764
   29.840     1723
   29.855     1794
   29.870     1747
   29.885     1733
   29.900     1730
   29.915     1715
   29.930     1768
   29.945     1752
   29.960     1666
   29.975     1704
   29.990     1792
   30.005     1702
   30.020     1678
   30.035     1726
   30.050     1699
   30.065     1773
   30.080     1666
   30.095     1679
   30.110     1699
   30.125     1697
   30.140     1685
   30.155     1695
   30.170     1766
   30.185     1745
   30.200     1789
   30.215     1772
   30.230     1713
   30.245     1647
   30.260     1695
   30.275     1716
   30.290     1747
   30.305     1778
   30.320     1806
   30.335     1773
   30.350     1735
   30.365     1758
   30.380     1791
   30.395     1754
   30.410     1765
   30.425     1719
   30.440     1704
   30.455     1686
   30.470     1728
   30.485     1731
   30.500     1706
   30.515     1688
   30.530     1649
   30.545     1700
   30.560     1684
   30.575     1739
   30.590     1709
   30.605     1797
   30.620     1778
   30.635     1698
   30.650     1687
   30.665     1701
   30.680     1691
   30.695     1708
   30.710     1694
   30.725     1750
   30.740     1888
   30.755     1834
   30.770     1884
   30.785     1861
   30.800     1827
   30.815     1779
   30.830     1832
   30.845     1835
   30.860     1741
   30.875     1715
   30.890     1662
   30.905     1644
   30.920     1655
   30.935     1611
   30.950     1543
   30.965     1712
   30.980     1650
   30.995     1723
   31.010     1687
   31.025     1775
   31.040     1713
   31.055     1717
   31.070     1739
   31.085     1625
   31.100     1690
   31.115     1690
   31.130     1666
   31.145     1615
   31.160     1784
   31.175     1728
   31.190     1785
   31.205     1666
   31.220     1657
   31.235     1712
   31.250     1654
   31.265     1725
   31.280     1727
   31.295     1727
   31.310     1712
   31.325     1592
   31.340     1661
   31.355     1619
   31.370     1735
   31.385     1665
   31.400     1765
   31.415     1638
   31.430     1691
   31.445     1616
   31.460     1635
   31.475     1731
   31.490     1734
   31.505     1710
   31.520     1692
   31.535     1737
   31.550     1692
   31.565     1656
   31.580     1732
   31.595     1668
   31.610     1799
   31.625     1779
   31.640     1648
   31.655     1657
   31.670     1799
   31.685     1736
   31.700     1686
   31.715     1705
   31.730     1693
   31.745     1692
   31.760     1721
   31.775     1683
   31.790     1641
   31.805     1646
   31.820     1625
   31.835     1686
   31.850     1554
   31.865     1662
   31.880     1568
   31.895     1621
   31.910     1565
   31.925     1560
   31.940     1591
   31.955     1653
   31.970     1765
   31.985     1647
   32.000     1605
   32.015     1610
   32.030     1639
   32.045     1626
   32.060     1692
   32.075     1747
   32.090     1652
   32.105     1703
   32.120     1672
   32.135     1673
   32.150     1715
   32.165     1660
   32.180     1599
   32.195     1585
   32.210     1612
   32.225     1729
   32.240     1747
   32.255     1812
   32.270     1729
   32.285     1702
   32.300     1862
   32.315     1786
   32.330     1871
   32.345     1927
   32.360     1901
   32.375     1905
   32.390     1770
   32.405     1731
   32.420     1873
   32.435     1846
   32.450     1753
   32.465     1696
   32.480     1680
   32.495     1634
   32.510     1642
   32.525     1691
   32.540     1736
   32.555     1713
   32.570     1743
   32.585     1786
   32.600     1760
   32.615     1780
   32.630     1681
   32.645     1728
   32.660     1797
   32.675     1790
   32.690     1748
   32.705     1799
   32.720     1809
   32.735     1775
   32.750     1753
   32.765     1693
   32.780     1783
   32.795     1777
   32.810     1732
   32.825     1707
   32.840     1674
   32.855     1759
   32.870     1781
   32.885     1858
   32.900     1814
   32.915     1795
   32.930     1708
   32.945     1672
   32.960     1733
   32.975     1710
   32.990     1718
   33.005     1814
   33.020     1816
   33.035     1724
   33.050     1764
   33.065     1679
   33.080     1744
   33.095     1638
   33.110     1790
   33.125     1675
   33.140     1700
   33.155     1781
   33.170     1774
   33.185     1774
   33.200     1654
   33.215     1702
   33.230     1776
   33.245     1691
   33.260     1765
   33.275     1712
   33.290     1662
   33.305     1629
   33.320     1653
   33.335     1643
   33.350     1727
   33.365     1691
   33.380     1628
   33.395     1662
   33.410     1600
   33.425     1707
   33.440     1633
   33.455     1727
   33.470     1612
   33.485     1666
   33.500     1726
   33.515     1671
   33.530     1589
   33.545     1703
   33.560     1685
   33.575     1710
   33.590     1611
   33.605     1669
   33.620     1708
   33.635     1773
   33.650     1642
   33.665     1728
   33.680     1707
   33.695     1676
   33.710     1766
   33.725     1716
   33.740     1731
   33.755     1711
   33.770     1669
   33.785     1766
   33.800     1670
   33.815     1694
   33.830     1710
   33.845     1769
   33.860     1703
   33.875     1767
   33.890     1758
   33.905     1739
   33.920     1799
   33.935     1746
   33.950     1679
   33.965     1694
   33.980     1759
   33.995     1682
   34.010     1693
   34.025     1677
   34.040     1690
   34.055     1678
   34.070     1645
   34.085     1730
   34.100     1789
   34.115     1758
   34.130     1721
   34.145     1647
   34.160     1648
   34.175     1673
   34.190     1552
   34.205     1686
   34.220     1685
   34.235     1691
   34.250     1704
   34.265     1641
   34.280     1657
   34.295     1679
   34.310     1680
   34.325     1636
   34.340     1701
   34.355     1727
   34.370     1679
   34.385     1641
   34.400     1611
   34.415     1714
   34.430     1668
   34.445     1647
   34.460     1625
   34.475     1729
   34.490     1710
   34.505     1652
   34.520     1663
   34.535     1643
   34.550     1634
   34.565     1691
   34.580     1656
   34.595     1651
   34.610     1684
   34.625     1659
   34.640     1623
   34.655     1652
   34.670     1656
   34.685     1583
   34.700     1558
   34.715     1596
   34.730     1606
   34.745     1609
   34.760     1643
   34.775     1679
   34.790     1650
   34.805     1641
   34.820     1554
   34.835     1601
   34.850     1580
   34.865     1633
   34.880     1640
   34.895     1586
   34.910     1587
   34.925     1683
   34.940     1776
   34.955     1667
   34.970     1678
   34.985     1648
   35.000     1683
   35.015     1626
   35.030     1540
   35.045     1636
   35.060     1593
   35.075     1619
   35.090     1666
   35.105     1649
   35.120     1616
   35.135     1590
   35.150     1568
   35.165     1537
   35.180     1582
   35.195     1656
   35.210     1635
   35.225     1553
   35.240     1593
   35.255     1613
   35.270     1605
   35.285     1616
   35.300     1629
   35.315     1551
   35.330     1617
   35.345     1632
   35.360     1634
   35.375     1516
   35.390     1624
   35.405     1578
   35.420     1619
   35.435     1591
   35.450     1650
   35.465     1565
   35.480     1483
   35.495     1545
   35.510     1634
   35.525     1557
   35.540     1687
   35.555     1579
   35.570     1602
   35.585     1544
   35.600     1649
   35.615     1556
   35.630     1568
   35.645     1555
   35.660     1573
   35.675     1578
   35.690     1611
   35.705     1679
   35.720     1609
   35.735     1677
   35.750     1654
   35.765     1677
   35.780     1581
   35.795     1668
   35.810     1594
   35.825     1614
   35.840     1593
   35.855     1651
   35.870     1690
   35.885     1612
   35.900     1505
   35.915     1517
   35.930     1587
   35.945     1524
   35.960     1474
   35.975     1582
   35.990     1580
   36.005     1482
   36.020     1581
   36.035     1594
   36.050     1611
   36.065     1601
   36.080     1531
   36.095     1612
   36.110     1549
   36.125     1573
   36.140     1522
   36.155     1533
   36.170     1516
   36.185     1555
   36.200     1656
   36.215     1570
   36.230     1510
   36.245     1467
   36.260     1573
   36.275     1578
   36.290     1549
   36.305     1539
   36.320     1515
   36.335     1520
   36.350     1549
   36.365     1602
   36.380     1602
   36.395     1583
   36.410     1630
   36.425     1609
   36.440     1593
   36.455     1541
   36.470     1530
   36.485     1593
   36.500     1585
   36.515     1587
   36.530     1566
   36.545     1624
   36.560     1702
   36.575     1643
   36.590     1603
   36.605     1615
   36.620     1654
   36.635     1580
   36.650     1567
   36.665     1547
   36.680     1559
   36.695     1539
   36.710     1487
   36.725     1525
   36.740     1610
   36.755     1562
   36.770     1578
   36.785     1575
   36.800     1552
   36.815     1592
   36.830     1532
   36.845     1528
   36.860     1532
   36.875     1595
   36.890     1595
   36.905     1530
   36.920     1520
   36.935     1451
   36.950     1397
   36.965     1600
   36.980     1464
   36.995     1481
   37.010     1483
   37.025     1550
   37.040     1496
   37.055     1509
   37.070     1554
   37.085     1456
   37.100     1472
   37.115     1617
   37.130     1485
   37.145     1514
   37.160     1520
   37.175     1561
   37.190     1468
   37.205     1536
   37.220     1560
   37.235     1517
   37.250     1460
   37.265     1566
   37.280     1505
   37.295     1543
   37.310     1466
   37.325     1453
   37.340     1553
   37.355     1546
   37.370     1613
   37.385     1495
   37.400     1559
   37.415     1498
   37.430     1503
   37.445     1480
   37.460     1391
   37.475     1514
   37.490     1530
   37.505     1609
   37.520     1506
   37.535     1577
   37.550     1517
   37.565     1543
   37.580     1553
   37.595     1481
   37.610     1599
   37.625     1637
   37.640     1481
   37.655     1416
   37.670     1483
   37.685     1515
   37.700     1514
   37.715     1552
   37.730     1532
   37.745     1516
   37.760     1479
   37.775     1496
   37.790     1424
   37.805     1496
   37.820     1440
   37.835     1529
   37.850     1479
   37.865     1443
   37.880     1468
   37.895     1564
   37.910     1477
   37.925     1440
   37.940     1488
   37.955     1502
   37.970     1495
   37.985     1488
   38.000     1490
   38.015     1580
   38.030     1529
   38.045     1486
   38.060     1487
   38.075     1525
   38.090     1449
   38.105     1521
   38.120     1499
   38.135     1508
   38.150     1579
   38.165     1509
   38.180     1474
   38.195     1434
   38.210     1398
   38.225     1449
   38.240     1488
   38.255     1560
   38.270     1470
   38.285     1476
   38.300     1527
   38.315     1494
   38.330     1522
   38.345     1515
   38.360     1468
   38.375     1537
   38.390     1543
   38.405     1496
   38.420     1566
   38.435     1530
   38.450     1530
   38.465     1533
   38.480     1486
   38.495     1453
   38.510     1485
   38.525     1506
   38.540     1504
   38.555     1459
   38.570     1469
   38.585     1493
   38.600     1513
   38.615     1538
   38.630     1476
   38.645     1534
   38.660     1516
   38.675     1558
   38.690     1574
   38.705     1598
   38.720     1574
   38.735     1583
   38.750     1562
   38.765     1487
   38.780     1532
   38.795     1613
   38.810     1598
   38.825     1523
   38.840     1533
   38.855     1509
   38.870     1549
   38.885     1599
   38.900     1633
   38.915     1573
   38.930     1574
   38.945     1486
   38.960     1594
   38.975     1530
   38.990     1514
   39.005     1559
   39.020     1608
   39.035     1602
   39.050     1587
   39.065     1527
   39.080     1535
   39.095     1469
   39.110     1511
   39.125     1542
   39.140     1538
   39.155     1651
   39.170     1533
   39.185     1535
   39.200     1535
   39.215     1526
   39.230     1556
   39.245     1521
   39.260     1592
   39.275     1506
   39.290     1551
   39.305     1448
   39.320     1484
   39.335     1440
   39.350     1497
   39.365     1485
   39.380     1474
   39.395     1491
   39.410     1469
   39.425     1586
   39.440     1498
   39.455     1517
   39.470     1495
   39.485     1599
   39.500     1600
   39.515     1494
   39.530     1535
   39.545     1512
   39.560     1474
   39.575     1562
   39.590     1471
   39.605     1485
   39.620     1469
   39.635     1545
   39.650     1492
   39.665     1543
   39.680     1554
   39.695     1488
   39.710     1434
   39.725     1461
   39.740     1505
   39.755     1557
   39.770     1430
   39.785     1492
   39.800     1543
   39.815     1482
   39.830     1484
   39.845     1616
   39.860     1631
   39.875     1644
   39.890     1589
   39.905     1541
   39.920     1576
   39.935     1556
   39.950     1490
   39.965     1561
   39.980     1621
   39.995     1595
   40.010     1681
   40.025     1650
   40.040     1643
   40.055     1587
   40.070     1623
   40.085     1631
   40.100     1685
   40.115     1636
   40.130     1563
   40.145     1558
   40.160     1642
   40.175     1666
   40.190     1543
   40.205     1569
   40.220     1510
   40.235     1494
   40.250     1530
   40.265     1568
   40.280     1634
   40.295     1548
   40.310     1519
   40.325     1496
   40.340     1561
   40.355     1567
   40.370     1547
   40.385     1622
   40.400     1529
   40.415     1583
   40.430     1498
   40.445     1507
   40.460     1510
   40.475     1596
   40.490     1554
   40.505     1548
   40.520     1589
   40.535     1545
   40.550     1596
   40.565     1673
   40.580     1637
   40.595     1548
   40.610     1600
   40.625     1553
   40.640     1557
   40.655     1598
   40.670     1623
   40.685     1602
   40.700     1563
   40.715     1620
   40.730     1653
   40.745     1667
   40.760     1668
   40.775     1684
   40.790     1685
   40.805     1703
   40.820     1569
   40.835     1608
   40.850     1624
   40.865     1618
   40.880     1662
   40.895     1640
   40.910     1655
   40.925     1736
   40.940     1718
   40.955     1620
   40.970     1595
   40.985     1592
   41.000     1617
   41.015     1570
   41.030     1546
   41.045     1606
   41.060     1677
   41.075     1658
   41.090     1673
   41.105     1602
   41.120     1605
   41.135     1606
   41.150     1603
   41.165     1520
   41.180     1555
   41.195     1680
   41.210     1658
   41.225     1593
   41.240     1596
   41.255     1583
   41.270     1657
   41.285     1767
   41.300     1707
   41.315     1613
   41.330     1552
   41.345     1631
   41.360     1546
   41.375     1546
   41.390     1650
   41.405     1691
   41.420     1604
   41.435     1569
   41.450     1591
   41.465     1595
   41.480     1582
   41.495     1620
   41.510     1594
   41.525     1594
   41.540     1653
   41.555     1615
   41.570     1614
   41.585     1489
   41.600     1625
   41.615     1580
   41.630     1624
   41.645     1612
   41.660     1616
   41.675     1663
   41.690     1635
   41.705     1699
   41.720     1717
   41.735     1688
   41.750     1713
   41.765     1651
   41.780     1587
   41.795     1565
   41.810     1586
   41.825     1633
   41.840     1521
   41.855     1509
   41.870     1578
   41.885     1523
   41.900     1463
   41.915     1502
   41.930     1487
   41.945     1517
   41.960     1450
   41.975     1467
   41.990     1550
   42.005     1570
   42.020     1611
   42.035     1599
   42.050     1562
   42.065     1623
   42.080     1529
   42.095     1580
   42.110     1569
   42.125     1510
   42.140     1544
   42.155     1607
   42.170     1587
   42.185     1629
   42.200     1665
   42.215     1622
   42.230     1546
   42.245     1544
   42.260     1564
   42.275     1577
   42.290     1636
   42.305     1660
   42.320     1670
   42.335     1646
   42.350     1665
   42.365     1644
   42.380     1683
   42.395     1691
   42.410     1654
   42.425     1616
   42.440     1637
   42.455     1605
   42.470     1564
   42.485     1561
   42.500     1576
   42.515     1602
   42.530     1536
   42.545     1639
   42.560     1673
   42.575     1606
   42.590     1691
   42.605     1713
   42.620     1693
   42.635     1572
   42.650     1555
   42.665     1620
   42.680     1527
   42.695     1553
   42.710     1577
   42.725     1547
   42.740     1645
   42.755     1607
   42.770     1642
   42.785     1632
   42.800     1609
   42.815     1591
   42.830     1612
   42.845     1575
   42.860     1641
   42.875     1623
   42.890     1595
   42.905     1515
   42.920     1561
   42.935     1543
   42.950     1467
   42.965     1588
   42.980     1579
   42.995     1593
   43.010     1564
   43.025     1642
   43.040     1631
   43.055     1567
   43.070     1563
   43.085     1518
   43.100     1567
   43.115     1620
   43.130     1613
   43.145     1597
   43.160     1576
   43.175     1628
   43.190     1546
   43.205     1527
   43.220     1479
   43.235     1536
   43.250     1516
   43.265     1640
   43.280     1591
   43.295     1565
   43.310     1556
   43.325     1583
   43.340     1508
   43.355     1549
   43.370     1538
   43.385     1519
   43.400     1529
   43.415     1491
   43.430     1517
   43.445     1557
   43.460     1499
   43.475     1610
   43.490     1563
   43.505     1586
   43.520     1528
   43.535     1518
   43.550     1565
   43.565     1567
   43.580     1618
   43.595     1552
   43.610     1556
   43.625     1552
   43.640     1408
   43.655     1439
   43.670     1495
   43.685     1502
   43.700     1514
   43.715     1523
   43.730     1544
   43.745     1504
   43.760     1567
   43.775     1490
   43.790     1542
   43.805     1596
   43.820     1588
   43.835     1596
   43.850     1576
   43.865     1500
   43.880     1508
   43.895     1518
   43.910     1598
   43.925     1515
   43.940     1544
   43.955     1585
   43.970     1648
   43.985     1618
