    2.000      638
    2.015      611
    2.030      641
    2.045      673
    2.060      585
    2.075      597
    2.090      636
    2.105      653
    2.120      611
    2.135      593
    2.150      674
    2.165      633
    2.180      646
    2.195      634
    2.210      640
    2.225      636
    2.240      683
    2.255      724
    2.270      650
    2.285      649
    2.300      685
    2.315      642
    2.330      655
    2.345      680
    2.360      669
    2.375      706
    2.390      746
    2.405      764
    2.420      769
    2.435      779
    2.450      718
    2.465      738
    2.480      723
    2.495      714
    2.510      752
    2.525      769
    2.540      773
    2.555      845
    2.570      850
    2.585      877
    2.600      872
    2.615      940
    2.630      964
    2.645     1000
    2.660     1094
    2.675     1253
    2.690     1327
    2.705     1368
    2.720     1218
    2.735     1023
    2.750      893
    2.765      757
    2.780      734
    2.795      752
    2.810      765
    2.825      786
    2.840      782
    2.855      789
    2.870      778
    2.885      831
    2.900      821
    2.915      869
    2.930      835
    2.945      884
    2.960      926
    2.975      947
    2.990      914
    3.005      921
    3.020     1005
    3.035     1092
    3.050     1096
    3.065     1163
    3.080     1226
    3.095     1231
    3.110     1365
    3.125     1535
    3.140     1606
    3.155     1940
    3.170     2043
    3.185     1952
    3.200     1791
    3.215     1433
    3.230     1216
    3.245     1071
    3.260     1058
    3.275      999
    3.290     1091
    3.305     1187
    3.320     1225
    3.335     1118
    3.350     1038
    3.365      852
    3.380      761
    3.395      689
    3.410      599
    3.425      627
    3.440      666
    3.455      657
    3.470      623
    3.485      656
    3.500      640
    3.515      648
    3.530      634
    3.545      609
    3.560      582
    3.575      612
    3.590      619
    3.605      609
    3.620      589
    3.635      632
    3.650      613
    3.665      650
    3.680      691
    3.695      664
    3.710      663
    3.725      703
    3.740      703
    3.755      711
    3.770      676
    3.785      717
    3.800      754
    3.815      786
    3.830      798
    3.845      798
    3.860      748
    3.875      769
    3.890      699
    3.905      663
    3.920      611
    3.935      614
    3.950      626
    3.965      625
    3.980      640
    3.995      606
    4.010      667
    4.025      661
    4.040      619
    4.055      616
    4.070      685
    4.085      662
    4.100      711
    4.115      707
    4.130      648
    4.145      680
    4.160      717
    4.175      757
    4.190      733
    4.205      779
    4.220      768
    4.235      730
    4.250      669
    4.265      618
    4.280      646
    4.295      615
    4.310      604
    4.325      638
    4.340      666
    4.355      638
    4.370      651
    4.385      667
    4.400      611
    4.415      632
    4.430      648
    4.445      647
    4.460      642
    4.475      676
    4.490      642
    4.505      657
    4.520      636
    4.535      642
    4.550      646
    4.565      634
    4.580      636
    4.595      671
    4.610      714
    4.625      699
    4.640      727
    4.655      711
    4.670      720
    4.685      740
    4.700      735
    4.715      810
    4.730      873
    4.745      811
    4.760      807
    4.775      790
    4.790      756
    4.805      727
    4.820      701
    4.835      663
    4.850      680
    4.865      715
    4.880      763
    4.895      777
    4.910      820
    4.925      800
    4.940      802
    4.955      831
    4.970      934
    4.985      956
    5.000     1060
    5.015     1137
    5.030     1122
    5.045     1025
    5.060      941
    5.075      788
    5.090      675
    5.105      642
    5.120      624
    5.135      624
    5.150      657
    5.165      642
    5.180      630
    5.195      654
    5.210      608
    5.225      621
    5.240      594
    5.255      580
    5.270      642
    5.285      620
    5.300      658
    5.315      654
    5.330      630
    5.345      656
    5.360      731
    5.375      693
    5.390      702
    5.405      754
    5.420      719
    5.435      739
    5.450      799
    5.465      816
    5.480      719
    5.495      714
    5.510      743
    5.525      704
    5.540      718
    5.555      756
    5.570      709
    5.585      666
    5.600      673
    5.615      708
    5.630      708
    5.645      786
    5.660      757
    5.675      878
    5.690      904
    5.705      983
    5.720     1057
    5.735      998
    5.750      976
    5.765      939
    5.780      785
    5.795      764
    5.810      695
    5.825      651
    5.840      661
    5.855      652
    5.870      641
    5.885      597
    5.900      588
    5.915      596
    5.930      660
    5.945      645
    5.960      606
    5.975      610
    5.990      617
    6.005      676
    6.020      614
    6.035      614
    6.050      611
    6.065      637
    6.080      657
    6.095      636
    6.110      639
    6.125      665
    6.140      634
    6.155      640
    6.170      628
    6.185      636
    6.200      608
    6.215      603
    6.230      628
    6.245      628
    6.260      606
    6.275      607
    6.290      634
    6.305      630
    6.320      576
    6.335      634
    6.350      626
    6.365      636
    6.380      680
    6.395      647
    6.410      611
    6.425      596
    6.440      625
    6.455      645
    6.470      654
    6.485      631
    6.500      588
    6.515      633
    6.530      619
    6.545      552
    6.560      582
    6.575      623
    6.590      609
    6.605      606
    6.620      641
    6.635      637
    6.650      605
    6.665      599
    6.680      641
    6.695      619
    6.710      600
    6.725      628
    6.740      630
    6.755      667
    6.770      640
    6.785      596
    6.800      682
    6.815      670
    6.830      654
    6.845      649
    6.860      658
    6.875      620
    6.890      625
    6.905      623
    6.920      598
    6.935      621
    6.950      670
    6.965      659
    6.980      618
    6.995      649
    7.010      672
    7.025      676
    7.040      651
    7.055      604
    7.070      624
    7.085      635
    7.100      695
    7.115      675
    7.130      657
    7.145      668
    7.160      572
    7.175      634
    7.190      695
    7.205      645
    7.220      638
    7.235      632
    7.250      698
    7.265      665
    7.280      729
    7.295      711
    7.310      667
    7.325      660
    7.340      653
    7.355      656
    7.370      672
    7.385      653
    7.400      612
    7.415      615
    7.430      616
    7.445      602
    7.460      665
    7.475      627
    7.490      631
    7.505      686
    7.520      666
    7.535      628
    7.550      631
    7.565      663
    7.580      642
    7.595      640
    7.610      605
    7.625      641
    7.640      614
    7.655      639
    7.670      643
    7.685      665
    7.700      729
    7.715      693
    7.730      630
    7.745      649
    7.760      657
    7.775      635
    7.790      608
    7.805      644
    7.820      705
    7.835      684
    7.850      667
    7.865      675
    7.880      617
    7.895      638
    7.910      673
    7.925      716
    7.940      689
    7.955      727
    7.970      733
    7.985      689
    8.000      720
    8.015      704
    8.030      716
    8.045      705
    8.060      694
    8.075      654
    8.090      670
    8.105      730
    8.120      702
    8.135      740
    8.150      819
    8.165      788
    8.180      775
    8.195      840
    8.210      854
    8.225      933
    8.240     1046
    8.255     1189
    8.270     1182
    8.285     1206
    8.300     1076
    8.315      942
    8.330      898
    8.345      811
    8.360      769
    8.375      783
    8.390      795
    8.405      894
    8.420      997
    8.435     1038
    8.450      996
    8.465      974
    8.480      923
    8.495      827
    8.510      758
    8.525      765
    8.540      752
    8.555      734
    8.570      748
    8.585      777
    8.600      778
    8.615      797
    8.630      826
    8.645      937
    8.660      954
    8.675     1040
    8.690     1167
    8.705     1295
    8.720     1465
    8.735     1363
    8.750     1249
    8.765     1172
    8.780     1141
    8.795     1130
    8.810     1168
    8.825     1249
    8.840     1429
    8.855     1726
    8.870     2037
    8.885     2261
    8.900     2187
    8.915     2073
    8.930     1784
    8.945     1542
    8.960     1252
    8.975     1032
    8.990      884
    9.005      757
    9.020      717
    9.035      690
    9.050      706
    9.065      743
    9.080      721
    9.095      684
    9.110      676
    9.125      687
    9.140      672
    9.155      687
    9.170      670
    9.185      691
    9.200      678
    9.215      674
    9.230      668
    9.245      714
    9.260      764
    9.275      699
    9.290      709
    9.305      745
    9.320      714
    9.335      746
    9.350      708
    9.365      631
    9.380      663
    9.395      714
    9.410      690
    9.425      737
    9.440      743
    9.455      681
    9.470      716
    9.485      736
    9.500      748
    9.515      757
    9.530      761
    9.545      782
    9.560      787
    9.575      767
    9.590      772
    9.605      766
    9.620      740
    9.635      720
    9.650      678
    9.665      758
    9.680      809
    9.695      824
    9.710      793
    9.725      841
    9.740      823
    9.755      811
    9.770      714
    9.785      698
    9.800      735
    9.815      727
    9.830      732
    9.845      697
    9.860      720
    9.875      744
    9.890      778
    9.905      753
    9.920      809
    9.935      852
    9.950      817
    9.965      865
    9.980      803
    9.995      779
   10.010      818
   10.025      796
   10.040      778
   10.055      766
   10.070      792
   10.085      840
   10.100      912
   10.115      966
   10.130      997
   10.145     1096
   10.160     1137
   10.175     1087
   10.190      981
   10.205      926
   10.220      787
   10.235      728
   10.250      703
   10.265      657
   10.280      717
   10.295      714
   10.310      686
   10.325      705
   10.340      739
   10.355      733
   10.370      735
   10.385      743
   10.400      718
   10.415      707
   10.430      717
   10.445      764
   10.460      751
   10.475      789
   10.490      767
   10.505      723
   10.520      721
   10.535      737
   10.550      737
   10.565      752
   10.580      710
   10.595      732
   10.610      725
   10.625      753
   10.640      770
   10.655      728
   10.670      703
   10.685      740
   10.700      774
   10.715      820
   10.730      827
   10.745      758
   10.760      753
   10.775      729
   10.790      728
   10.805      732
   10.820      727
   10.835      694
   10.850      673
   10.865      715
   10.880      735
   10.895      747
   10.910      763
   10.925      751
   10.940      746
   10.955      752
   10.970      753
   10.985      774
   11.000      813
   11.015      815
   11.030      835
   11.045      867
   11.060      874
   11.075      817
   11.090      846
   11.105      787
   11.120      769
   11.135      778
   11.150      801
   11.165      783
   11.180      747
   11.195      807
   11.210      858
   11.225      864
   11.240      808
   11.255      767
   11.270      771
   11.285      780
   11.300      786
   11.315      712
   11.330      717
   11.345      745
   11.360      745
   11.375      735
   11.390      778
   11.405      788
   11.420      723
   11.435      737
   11.450      729
   11.465      722
   11.480      732
   11.495      733
   11.510      794
   11.525      769
   11.540      795
   11.555      828
   11.570      772
   11.585      777
   11.600      789
   11.615      722
   11.630      683
   11.645      790
   11.660      726
   11.675      834
   11.690      720
   11.705      721
   11.720      814
   11.735      758
   11.750      803
   11.765      811
   11.780      756
   11.795      778
   11.810      738
   11.825      754
   11.840      738
   11.855      784
   11.870      782
   11.885      721
   11.900      709
   11.915      692
   11.930      810
   11.945      734
   11.960      729
   11.975      764
   11.990      792
   12.005      821
   12.020      788
   12.035      702
   12.050      692
   12.065      719
   12.080      725
   12.095      748
   12.110      753
   12.125      741
   12.140      735
   12.155      773
   12.170      754
   12.185      745
   12.200      765
   12.215      797
   12.230      787
   12.245      746
   12.260      741
   12.275      757
   12.290      794
   12.305      795
   12.320      779
   12.335      806
   12.350      757
   12.365      775
   12.380      806
   12.395      784
   12.410      796
   12.425      746
   12.440      752
   12.455      797
   12.470      793
   12.485      779
   12.500      746
   12.515      763
   12.530      781
   12.545      763
   12.560      770
   12.575      778
   12.590      812
   12.605      754
   12.620      792
   12.635      792
   12.650      748
   12.665      827
   12.680      801
   12.695      795
   12.710      841
   12.725      844
   12.740      793
   12.755      813
   12.770      805
   12.785      842
   12.800      852
   12.815      811
   12.830      804
   12.845      833
   12.860      841
   12.875      821
   12.890      858
   12.905      796
   12.920      819
   12.935      827
   12.950      835
   12.965      900
   12.980      811
   12.995      837
   13.010      811
   13.025      858
   13.040      801
   13.055      882
   13.070      810
   13.085      817
   13.100      863
   13.115      884
   13.130      902
   13.145      801
   13.160      789
   13.175      843
   13.190      879
   13.205      830
   13.220      796
   13.235      798
   13.250      767
   13.265      769
   13.280      916
   13.295      853
   13.310      829
   13.325      821
   13.340      836
   13.355      845
   13.370      868
   13.385      864
   13.400      899
   13.415      854
   13.430      904
   13.445      817
   13.460      879
   13.475      862
   13.490      854
   13.505      862
   13.520      855
   13.535      858
   13.550      868
   13.565      898
   13.580      859
   13.595      870
   13.610      902
   13.625      937
   13.640      845
   13.655      908
   13.670      853
   13.685      865
   13.700      890
   13.715      886
   13.730      847
   13.745      876
   13.760      892
   13.775      867
   13.790      869
   13.805      939
   13.820      912
   13.835      996
   13.850      987
   13.865      942
   13.880      886
   13.895      879
   13.910      867
   13.925      851
   13.940      864
   13.955      889
   13.970      887
   13.985      894
   14.000      888
   14.015      873
   14.030      905
   14.045      945
   14.060      936
   14.075      946
   14.090      954
   14.105      958
   14.120      933
   14.135      932
   14.150     1006
   14.165      997
   14.180      917
   14.195      931
   14.210      931
   14.225      947
   14.240      954
   14.255      933
   14.270      932
   14.285      966
   14.300      927
   14.315      883
   14.330      926
   14.345      968
   14.360      958
   14.375      967
   14.390      944
   14.405      967
   14.420      987
   14.435     1023
   14.450      976
   14.465      962
   14.480      980
   14.495      942
   14.510      941
   14.525      966
   14.540      943
   14.555      997
   14.570      999
   14.585      943
   14.600      950
   14.615      984
   14.630      943
   14.645      962
   14.660      937
   14.675      978
   14.690     1001
   14.705     1003
   14.720     1039
   14.735      966
   14.750      939
   14.765      912
   14.780      957
   14.795     1025
   14.810     1011
   14.825     1052
   14.840     1006
   14.855     1039
   14.870     1017
   14.885     1016
   14.900     1030
   14.915     1040
   14.930     1007
   14.945     1053
   14.960     1061
   14.975     1021
   14.990      935
   15.005     1005
   15.020     1082
   15.035     1059
   15.050     1117
   15.065     1106
   15.080     1064
   15.095     1029
   15.110     1062
   15.125     1116
   15.140     1025
   15.155     1113
   15.170     1070
   15.185     1068
   15.200     1117
   15.215     1024
   15.230     1044
   15.245     1160
   15.260     1124
   15.275     1091
   15.290     1117
   15.305     1113
   15.320     1103
   15.335     1088
   15.350     1161
   15.365     1070
   15.380     1085
   15.395     1091
   15.410     1089
   15.425     1109
   15.440     1127
   15.455     1089
   15.470     1104
   15.485     1165
   15.500     1133
   15.515     1139
   15.530     1048
   15.545     1084
   15.560     1072
   15.575     1109
   15.590     1115
   15.605     1108
   15.620     1148
   15.635     1155
   15.650     1117
   15.665     1154
   15.680     1234
   15.695     1147
   15.710     1114
   15.725     1228
   15.740     1178
   15.755     1164
   15.770     1131
   15.785     1133
   15.800     1225
   15.815     1287
   15.830     1206
   15.845     1158
   15.860     1158
   15.875     1171
   15.890     1232
   15.905     1213
   15.920     1235
   15.935     1282
   15.950     1244
   15.965     1235
   15.980     1283
   15.995     1240
   16.010     1258
   16.025     1224
   16.040     1277
   16.055     1250
   16.070     1293
   16.085     1256
   16.100     1289
   16.115     1270
   16.130     1281
   16.145     1281
   16.160     1264
   16.175     1339
   16.190     1264
   16.205     1362
   16.220     1366
   16.235     1388
   16.250     1419
   16.265     1451
   16.280     1620
   16.295     1599
   16.310     1476
   16.325     1390
   16.340     1481
   16.355     1406
   16.370     1336
   16.385     1334
   16.400     1223
   16.415     1246
   16.430     1287
   16.445     1303
   16.460     1293
   16.475     1295
   16.490     1301
   16.505     1328
   16.520     1320
   16.535     1323
   16.550     1334
   16.565     1334
   16.580     1277
   16.595     1310
   16.610     1335
   16.625     1376
   16.640     1409
   16.655     1435
   16.670     1416
   16.685     1421
   16.700     1363
   16.715     1446
   16.730     1411
   16.745     1342
   16.760     1388
   16.775     1351
   16.790     1329
   16.805     1384
   16.820     1394
   16.835     1335
   16.850     1312
   16.865     1408
   16.880     1458
   16.895     1442
   16.910     1481
   16.925     1510
   16.940     1467
   16.955     1481
   16.970     1493
   16.985     1466
   17.000     1479
   17.015     1548
   17.030     1539
   17.045     1488
   17.060     1418
   17.075     1441
   17.090     1391
   17.105     1355
   17.120     1419
   17.135     1477
   17.150     1517
   17.165     1546
   17.180     1453
   17.195     1551
   17.210     1647
   17.225     1563
   17.240     1559
   17.255     1477
   17.270     1527
   17.285     1506
   17.300     1528
   17.315     1495
   17.330     1495
   17.345     1474
   17.360     1492
   17.375     1538
   17.390     1594
   17.405     1592
   17.420     1588
   17.435     1681
   17.450     1613
   17.465     1605
   17.480     1536
   17.495     1538
   17.510     1576
   17.525     1476
   17.540     1591
   17.555     1727
   17.570     1588
   17.585     1547
   17.600     1692
   17.615     1605
   17.630     1636
   17.645     1676
   17.660     1646
   17.675     1762
   17.690     1745
   17.705     1752
   17.720     1812
   17.735     1678
   17.750     1732
   17.765     1720
   17.780     1665
   17.795     1704
   17.810     1655
   17.825     1660
   17.840     1670
   17.855     1701
   17.870     1668
   17.885     1575
   17.900     1544
   17.915     1517
   17.930     1661
   17.945     1659
   17.960     1665
   17.975     1639
   17.990     1641
   18.005     1638
   18.020     1699
   18.035     1628
   18.050     1546
   18.065     1631
   18.080     1664
   18.095     1623
   18.110     1677
   18.125     1629
   18.140     1601
   18.155     1659
   18.170     1685
   18.185     1644
   18.200     1630
   18.215     1632
   18.230     1669
   18.245     1689
   18.260     1667
   18.275     1658
   18.290     1684
   18.305     1723
   18.320     1670
   18.335     1737
   18.350     1679
   18.365     1711
   18.380     1734
   18.395     1736
   18.410     1725
   18.425     1660
   18.440     1667
   18.455     1764
   18.470     1767
   18.485     1757
   18.500     1731
   18.515     1844
   18.530     1863
   18.545     1845
   18.560     1824
   18.575     1920
   18.590     1898
   18.605     1873
   18.620     1880
   18.635     1794
   18.650     1818
   18.665     1874
   18.680     1821
   18.695     1798
   18.710     1871
   18.725     1925
   18.740     1859
   18.755     1905
   18.770     1920
   18.785     1874
   18.800     1983
   18.815     1802
   18.830     1770
   18.845     1754
   18.860     1865
   18.875     1746
   18.890     1933
   18.905     1892
   18.920     1765
   18.935     1752
   18.950     1874
   18.965     1952
   18.980     1913
   18.995     1848
   19.010     1713
   19.025     1803
   19.040     1798
   19.055     1809
   19.070     1842
   19.085     1693
   19.100     1789
   19.115     1798
   19.130     1953
   19.145     1805
   19.160     1765
   19.175     1812
   19.190     1828
   19.205     1816
   19.220     1747
   19.235     1737
   19.250     1840
   19.265     1791
   19.280     1753
   19.295     1813
   19.310     1665
   19.325     1681
   19.340     1794
   19.355     1760
   19.370     1909
   19.385     1814
   19.400     1756
   19.415     1759
   19.430     1788
   19.445     1750
   19.460     1899
   19.475     1767
   19.490     1730
   19.505     1848
   19.520     1787
   19.535     1739
   19.550     1820
   19.565     1756
   19.580     1755
   19.595     1809
   19.610     1907
   19.625     1855
   19.640     1776
   19.655     1773
   19.670     1815
   19.685     1809
   19.700     1851
   19.715     1829
   19.730     1715
   19.745     1779
   19.760     1863
   19.775     1806
   19.790     1767
   19.805     1860
   19.820     1878
   19.835     1879
   19.850     1856
   19.865     1841
   19.880     1708
   19.895     1786
   19.910     1818
   19.925     1750
   19.940     1814
   19.955     1798
   19.970     1776
   19.985     1792
   20.000     1794
   20.015     1756
   20.030     1858
   20.045     1926
   20.060     1756
   20.075     1757
   20.090     1740
   20.105     1854
   20.120     1744
   20.135     1711
   20.150     1828
   20.165     1827
   20.180     1696
   20.195     1738
   20.210     1813
   20.225     1785
   20.240     1796
   20.255     1802
   20.270     1778
   20.285     1745
   20.300     1757
   20.315     1683
   20.330     1707
   20.345     1800
   20.360     1804
   20.375     1779
   20.390     1741
   20.405     1798
   20.420     1834
   20.435     1804
   20.450     1764
   20.465     1715
   20.480     1759
   20.495     1746
   20.510     1743
   20.525     1710
   20.540     1690
   20.555     1733
   20.570     1739
   20.585     1713
   20.600     1611
   20.615     1695
   20.630     1674
   20.645     1744
   20.660     1662
   20.675     1653
   20.690     1722
   20.705     1795
   20.720     1762
   20.735     1686
   20.750     1634
   20.765     1646
   20.780     1651
   20.795     1691
   20.810     1704
   20.825     1722
   20.840     1698
   20.855     1788
   20.870     1720
   20.885     1786
   20.900     1737
   20.915     1725
   20.930     1681
   20.945     1723
   20.960     1719
   20.975     1664
   20.990     1645
   21.005     1655
   21.020     1726
   21.035     1749
   21.050     1656
   21.065     1695
   21.080     1724
   21.095     1656
   21.110     1702
   21.125     1772
   21.140     1653
   21.155     1699
   21.170     1694
   21.185     1765
   21.200     1740
   21.215     1615
   21.230     1655
   21.245     1654
   21.260     1796
   21.275     1667
   21.290     1696
   21.305     1781
   21.320     1679
   21.335     1717
   21.350     1731
   21.365     1697
   21.380     1582
   21.395     1557
   21.410     1601
   21.425     1627
   21.440     1618
   21.455     1664
   21.470     1669
   21.485     1650
   21.500     1733
   21.515     1707
   21.530     1582
   21.545     1587
   21.560     1565
   21.575     1536
   21.590     1558
   21.605     1687
   21.620     1646
   21.635     1620
   21.650     1568
   21.665     1654
   21.680     1730
   21.695     1612
   21.710     1539
   21.725     1632
   21.740     1610
   21.755     1647
   21.770     1515
   21.785     1511
   21.800     1586
   21.815     1720
   21.830     1710
   21.845     1606
   21.860     1556
   21.875     1591
   21.890     1614
   21.905     1539
   21.920     1571
   21.935     1641
   21.950     1529
   21.965     1514
   21.980     1523
   21.995     1531
   22.010     1639
   22.025     1482
   22.040     1510
   22.055     1532
   22.070     1557
   22.085     1542
   22.100     1673
   22.115     1573
   22.130     1435
   22.145     1479
   22.160     1508
   22.175     1589
   22.190     1511
   22.205     1560
   22.220     1563
   22.235     1535
   22.250     1524
   22.265     1507
   22.280     1607
   22.295     1577
   22.310     1519
   22.325     1495
   22.340     1542
   22.355     1534
   22.370     1555
   22.385     1587
   22.400     1500
   22.415     1524
   22.430     1508
   22.445     1550
   22.460     1567
   22.475     1532
   22.490     1537
   22.505     1566
   22.520     1554
   22.535     1527
   22.550     1563
   22.565     1579
   22.580     1535
   22.595     1551
   22.610     1513
   22.625     1506
   22.640     1510
   22.655     1470
   22.670     1433
   22.685     1437
   22.700     1453
   22.715     1499
   22.730     1469
   22.745     1428
   22.760     1523
   22.775     1462
   22.790     1486
   22.805     1549
   22.820     1482
   22.835     1474
   22.850     1403
   22.865     1420
   22.880     1483
   22.895     1442
   22.910     1461
   22.925     1496
   22.940     1498
   22.955     1466
   22.970     1459
   22.985     1438
   23.000     1411
   23.015     1479
   23.030     1375
   23.045     1380
   23.060     1462
   23.075     1433
   23.090     1379
   23.105     1343
   23.120     1390
   23.135     1431
   23.150     1437
   23.165     1456
   23.180     1350
   23.195     1410
   23.210     1526
   23.225     1506
   23.240     1417
   23.255     1384
   23.270     1428
   23.285     1440
   23.300     1432
   23.315     1391
   23.330     1450
   23.345     1422
   23.360     1412
   23.375     1427
   23.390     1507
   23.405     1449
   23.420     1484
   23.435     1583
   23.450     1517
   23.465     1484
   23.480     1397
   23.495     1361
   23.510     1432
   23.525     1387
   23.540     1473
   23.555     1524
   23.570     1442
   23.585     1374
   23.600     1435
   23.615     1340
   23.630     1348
   23.645     1436
   23.660     1364
   23.675     1439
   23.690     1337
   23.705     1452
   23.720     1447
   23.735     1381
   23.750     1413
   23.765     1475
   23.780     1397
   23.795     1477
   23.810     1381
   23.825     1465
   23.840     1475
   23.855     1464
   23.870     1425
   23.885     1395
   23.900     1371
   23.915     1322
   23.930     1427
   23.945     1328
   23.960     1328
   23.975     1376
   23.990     1379
   24.005     1399
   24.020     1465
   24.035     1354
   24.050     1310
   24.065     1400
   24.080     1310
   24.095     1320
   24.110     1322
   24.125     1313
   24.140     1262
   24.155     1308
   24.170     1360
   24.185     1326
   24.200     1284
   24.215     1353
   24.230     1378
   24.245     1364
   24.260     1272
   24.275     1303
   24.290     1337
   24.305     1308
   24.320     1251
   24.335     1272
   24.350     1344
   24.365     1379
   24.380     1387
   24.395     1356
   24.410     1426
   24.425     1342
   24.440     1335
   24.455     1386
   24.470     1377
   24.485     1311
   24.500     1323
   24.515     1394
   24.530     1343
   24.545     1309
   24.560     1289
   24.575     1303
   24.590     1313
   24.605     1276
   24.620     1324
   24.635     1282
   24.650     1255
   24.665     1297
   24.680     1299
   24.695     1233
   24.710     1320
   24.725     1329
   24.740     1322
   24.755     1318
   24.770     1332
   24.785     1270
   24.800     1325
   24.815     1255
   24.830     1288
   24.845     1243
   24.860     1259
   24.875     1225
   24.890     1303
   24.905     1297
   24.920     1306
   24.935     1288
   24.950     1305
   24.965     1381
   24.980     1277
   24.995     1275
   25.010     1245
   25.025     1289
   25.040     1315
   25.055     1306
   25.070     1345
   25.085     1197
   25.100     1319
   25.115     1311
   25.130     1358
   25.145     1277
   25.160     1295
   25.175     1249
   25.190     1268
   25.205     1206
   25.220     1244
   25.235     1240
   25.250     1267
   25.265     1175
   25.280     1239
   25.295     1247
   25.310     1224
   25.325     1253
   25.340     1310
   25.355     1246
   25.370     1312
   25.385     1303
   25.400     1246
   25.415     1251
   25.430     1260
   25.445     1232
   25.460     1199
   25.475     1159
   25.490     1190
   25.505     1202
   25.520     1200
   25.535     1202
   25.550     1191
   25.565     1189
   25.580     1211
   25.595     1218
   25.610     1252
   25.625     1248
   25.640     1137
   25.655     1206
   25.670     1205
   25.685     1216
   25.700     1213
   25.715     1167
   25.730     1079
   25.745     1179
   25.760     1211
   25.775     1204
   25.790     1227
   25.805     1219
   25.820     1225
   25.835     1244
   25.850     1207
   25.865     1199
   25.880     1135
   25.895     1173
   25.910     1224
   25.925     1166
   25.940     1178
   25.955     1174
   25.970     1170
   25.985     1191
   26.000     1208
   26.015     1207
   26.030     1277
   26.045     1274
   26.060     1211
   26.075     1221
   26.090     1275
   26.105     1244
   26.120     1135
   26.135     1171
   26.150     1224
   26.165     1196
   26.180     1161
   26.195     1178
   26.210     1199
   26.225     1226
   26.240     1230
   26.255     1202
   26.270     1140
   26.285     1187
   26.300     1139
   26.315     1094
   26.330     1162
   26.345     1223
   26.360     1216
   26.375     1129
   26.390     1161
   26.405     1195
   26.420     1206
   26.435     1261
   26.450     1170
   26.465     1134
   26.480     1135
   26.495     1156
   26.510     1122
   26.525     1126
   26.540     1146
   26.555     1183
   26.570     1177
   26.585     1113
   26.600     1086
   26.615     1153
   26.630     1160
   26.645     1190
   26.660     1140
   26.675     1133
   26.690     1137
   26.705     1210
   26.720     1196
   26.735     1139
   26.750     1123
   26.765     1072
   26.780     1092
   26.795     1153
   26.810     1105
   26.825     1129
   26.840     1150
   26.855     1130
   26.870     1127
   26.885     1153
   26.900     1124
   26.915     1162
   26.930     1144
   26.945     1215
   26.960     1175
   26.975     1082
   26.990     1069
   27.005     1050
   27.020     1108
   27.035     1107
   27.050     1130
   27.065     1181
   27.080     1191
   27.095     1072
   27.110     1085
   27.125     1177
   27.140     1064
   27.155     1164
   27.170     1143
   27.185     1105
   27.200     1134
   27.215     1111
   27.230     1079
   27.245     1148
   27.260     1170
   27.275     1115
   27.290     1101
   27.305     1118
   27.320     1143
   27.335     1132
   27.350     1167
   27.365     1045
   27.380     1107
   27.395     1133
   27.410     1073
   27.425     1112
   27.440     1128
   27.455     1082
   27.470     1126
   27.485     1144
   27.500     1135
   27.515     1153
   27.530     1109
   27.545     1069
   27.560     1041
   27.575     1077
   27.590     1126
   27.605     1107
   27.620     1146
   27.635     1089
   27.650     1036
   27.665     1158
   27.680     1182
   27.695     1142
   27.710     1097
   27.725     1138
   27.740     1126
   27.755     1104
   27.770     1067
   27.785     1085
   27.800     1098
   27.815     1152
   27.830     1129
   27.845     1087
   27.860     1087
   27.875     1087
   27.890     1105
   27.905     1040
   27.920     1038
   27.935     1104
   27.950     1106
   27.965     1078
   27.980     1036
   27.995     1104
   28.010     1136
   28.025     1050
   28.040     1078
   28.055     1030
   28.070     1119
   28.085     1092
   28.100     1132
   28.115     1129
   28.130     1080
   28.145     1042
   28.160      981
   28.175     1053
   28.190      984
   28.205     1047
   28.220     1075
   28.235     1093
   28.250     1017
   28.265     1019
   28.280     1109
   28.295     1121
   28.310     1043
   28.325     1014
   28.340     1093
   28.355     1074
   28.370     1111
   28.385     1105
   28.400     1077
   28.415     1103
   28.430     1106
   28.445     1119
   28.460     1107
   28.475     1100
   28.490     1052
   28.505     1053
   28.520     1053
   28.535     1024
   28.550     1017
   28.565     1021
   28.580     1038
   28.595     1033
   28.610     1019
   28.625     1042
   28.640     1058
   28.655     1033
   28.670     1015
   28.685     1022
   28.700     1021
   28.715     1068
   28.730     1068
   28.745     1079
   28.760     1051
   28.775     1003
   28.790     1033
   28.805     1022
   28.820     1021
   28.835      981
   28.850      997
   28.865     1034
   28.880     1061
   28.895     1016
   28.910     1016
   28.925     1038
   28.940     1028
   28.955     1044
   28.970     1039
   28.985     1034
   29.000     1049
   29.015     1060
   29.030      989
   29.045      958
   29.060     1001
   29.075      946
   29.090      993
   29.105      982
   29.120     1005
   29.135     1020
   29.150      978
   29.165     1007
   29.180      939
   29.195     1018
   29.210     1007
   29.225     1006
   29.240      952
   29.255      908
   29.270     1002
   29.285     1010
   29.300     1022
   29.315     1030
   29.330     1024
   29.345      962
   29.360      984
   29.375     1010
   29.390     1018
   29.405     1005
   29.420     1039
   29.435     1012
   29.450      965
   29.465      992
   29.480      956
   29.495      942
   29.510     1033
   29.525      940
   29.540      952
   29.555     1009
   29.570      954
   29.585      914
   29.600      976
   29.615      976
   29.630      942
   29.645      980
   29.660     1009
   29.675     1046
   29.690      965
   29.705      991
   29.720      993
   29.735      964
   29.750     1025
   29.765     1068
   29.780      973
   29.795      992
   29.810      985
   29.825      957
   29.840      974
   29.855      958
   29.870      993
   29.885      949
   29.900      891
   29.915      891
   29.930      972
   29.945      967
   29.960      910
   29.975      954
   29.990      949
   30.005      992
   30.020      972
   30.035      935
   30.050      908
   30.065      948
   30.080      932
   30.095      916
   30.110      897
   30.125      920
   30.140      905
   30.155      887
   30.170      928
   30.185      927
   30.200      922
   30.215      930
   30.230      947
   30.245      925
   30.260      876
   30.275      878
   30.290      916
   30.305      964
   30.320      872
   30.335      886
   30.350      912
   30.365      928
   30.380      932
   30.395      932
   30.410      957
   30.425      908
   30.440      912
   30.455      929
   30.470      914
   30.485      895
   30.500      846
   30.515      934
   30.530      868
   30.545      853
   30.560      898
   30.575      909
   30.590      919
   30.605      898
   30.620      945
   30.635      902
   30.650      857
   30.665      964
   30.680      916
   30.695      942
   30.710      912
   30.725      903
   30.740      935
   30.755      945
   30.770      951
   30.785      884
   30.800      967
   30.815      900
   30.830      886
   30.845      913
   30.860      907
   30.875      918
   30.890      929
   30.905      964
   30.920      964
   30.935      869
   30.950      904
   30.965      977
   30.980      924
   30.995      882
   31.010      891
   31.025      904
   31.040      850
   31.055      905
   31.070      925
   31.085      860
   31.100      946
   31.115      856
   31.130      928
   31.145      880
   31.160      833
   31.175      892
   31.190      849
   31.205      873
   31.220      848
   31.235      863
   31.250      915
   31.265      888
   31.280      865
   31.295      870
   31.310      850
   31.325      862
   31.340      889
   31.355      900
   31.370      877
   31.385      880
   31.400      861
   31.415      850
   31.430      879
   31.445      844
   31.460      911
   31.475      868
   31.490      865
   31.505      866
   31.520      837
   31.535      798
   31.550      873
   31.565      824
   31.580      893
   31.595      848
   31.610      909
   31.625      949
   31.640      834
   31.655      880
   31.670      875
   31.685      838
   31.700      848
   31.715      853
   31.730      827
   31.745      829
   31.760      863
   31.775      837
   31.790      784
   31.805      846
   31.820      863
   31.835      919
   31.850      824
   31.865      839
   31.880      810
   31.895      797
   31.910      852
   31.925      823
   31.940      832
   31.955      862
   31.970      853
   31.985      821
   32.000      850
   32.015      874
   32.030      881
   32.045      870
   32.060      823
   32.075      828
   32.090      793
   32.105      842
   32.120      848
   32.135      834
   32.150      872
   32.165      872
   32.180      828
   32.195      828
   32.210      851
   32.225      828
   32.240      830
   32.255      882
   32.270      804
   32.285      808
   32.300      808
   32.315      785
   32.330      824
   32.345      897
   32.360      843
   32.375      807
   32.390      836
   32.405      840
   32.420      873
   32.435      878
   32.450      827
   32.465      862
   32.480      830
   32.495      804
   32.510      800
   32.525      835
   32.540      826
   32.555      867
   32.570      902
   32.585      833
   32.600      806
   32.615      842
   32.630      850
   32.645      863
   32.660      795
   32.675      794
   32.690      784
   32.705      782
   32.720      814
   32.735      779
   32.750      740
   32.765      724
   32.780      768
   32.795      753
   32.810      776
   32.825      824
   32.840      778
   32.855      838
   32.870      804
   32.885      806
   32.900      784
   32.915      823
   32.930      778
   32.945      827
   32.960      802
   32.975      774
   32.990      764
   33.005      750
   33.020      780
   33.035      816
   33.050      828
   33.065      801
   33.080      792
   33.095      738
   33.110      761
   33.125      822
   33.140      741
   33.155      768
   33.170      769
   33.185      784
   33.200      769
   33.215      738
   33.230      750
   33.245      749
   33.260      795
   33.275      791
   33.290      790
   33.305      755
   33.320      731
   33.335      775
   33.350      793
   33.365      739
   33.380      729
   33.395      742
   33.410      733
   33.425      736
   33.440      761
   33.455      724
   33.470      727
   33.485      777
   33.500      767
   33.515      776
   33.530      720
   33.545      742
   33.560      733
   33.575      741
   33.590      755
   33.605      742
   33.620      722
   33.635      820
   33.650      740
   33.665      803
   33.680      786
   33.695      724
   33.710      703
   33.725      774
   33.740      745
   33.755      769
   33.770      755
   33.785      745
   33.800      750
   33.815      751
   33.830      745
   33.845      744
   33.860      713
   33.875      734
   33.890      762
   33.905      756
   33.920      748
   33.935      742
   33.950      725
   33.965      713
   33.980      750
   33.995      736
   34.010      734
   34.025      670
   34.040      704
   34.055      680
   34.070      666
   34.085      691
   34.100      758
   34.115      734
   34.130      716
   34.145      675
   34.160      727
   34.175      744
   34.190      661
   34.205      700
   34.220      708
   34.235      676
   34.250      688
   34.265      691
   34.280      748
   34.295      731
   34.310      708
   34.325      694
   34.340      759
   34.355      724
   34.370      708
   34.385      731
   34.400      711
   34.415      764
   34.430      745
   34.445      735
   34.460      712
   34.475      733
   34.490      721
   34.505      713
   34.520      712
   34.535      676
   34.550      695
   34.565      737
   34.580      706
   34.595      684
   34.610      695
   34.625      719
   34.640      669
   34.655      676
   34.670      666
   34.685      628
   34.700      675
   34.715      710
   34.730      683
   34.745      692
   34.760      688
   34.775      659
   34.790      647
   34.805      670
   34.820      678
   34.835      657
   34.850      648
   34.865      670
   34.880      677
   34.895      671
   34.910      682
   34.925      678
   34.940      678
   34.955      668
   34.970      674
   34.985      667
   35.000      686
   35.015      712
   35.030      651
   35.045      646
   35.060      717
   35.075      672
   35.090      666
   35.105      633
   35.120      657
   35.135      653
   35.150      680
   35.165      708
   35.180      632
   35.195      702
   35.210      739
   35.225      719
   35.240      672
   35.255      662
   35.270      692
   35.285      664
   35.300      661
   35.315      647
   35.330      647
   35.345      666
   35.360      682
   35.375      656
   35.390      642
   35.405      684
   35.420      653
   35.435      666
   35.450      656
   35.465      673
   35.480      648
   35.495      648
   35.510      670
   35.525      610
   35.540      651
   35.555      704
   35.570      687
   35.585      584
   35.600      660
   35.615      624
   35.630      616
   35.645      676
   35.660      632
   35.675      673
   35.690      645
   35.705      648
   35.720      662
   35.735      628
   35.750      613
   35.765      628
   35.780      622
   35.795      658
   35.810      621
   35.825      629
   35.840      621
   35.855      616
   35.870      643
   35.885      628
   35.900      634
   35.915      575
   35.930      595
   35.945      585
   35.960      594
   35.975      618
   35.990      634
   36.005      662
   36.020      645
   36.035      614
   36.050      577
   36.065      628
   36.080      645
   36.095      606
   36.110      596
   36.125      606
   36.140      570
   36.155      569
   36.170      604
   36.185      630
   36.200      609
   36.215      638
   36.230      596
   36.245      608
   36.260      577
   36.275      574
   36.290      612
   36.305      634
   36.320      636
   36.335      606
   36.350      590
   36.365      610
   36.380      609
   36.395      615
   36.410      641
   36.425      613
   36.440      573
   36.455      605
   36.470      596
   36.485      572
   36.500      577
   36.515      578
   36.530      583
   36.545      572
   36.560      557
   36.575      598
   36.590      607
   36.605      589
   36.620      640
   36.635      573
   36.650      567
   36.665      621
   36.680      607
   36.695      619
   36.710      621
   36.725      639
   36.740      620
   36.755      588
   36.770      617
   36.785      602
   36.800      649
   36.815      591
   36.830      595
   36.845      611
   36.860      636
   36.875      613
   36.890      632
   36.905      625
   36.920      609
   36.935      588
   36.950      576
   36.965      586
   36.980      620
   36.995      565
   37.010      617
   37.025      601
   37.040      591
   37.055      585
   37.070      641
   37.085      566
   37.100      663
   37.115      598
   37.130      631
   37.145      617
   37.160      582
   37.175      588
   37.190      567
   37.205      545
   37.220      595
   37.235      568
   37.250      618
   37.265      569
   37.280      587
   37.295      642
   37.310      572
   37.325      575
   37.340      593
   37.355      583
   37.370      623
   37.385      564
   37.400      580
   37.415      572
   37.430      578
   37.445      571
   37.460      604
   37.475      596
   37.490      553
   37.505      616
   37.520      559
   37.535      523
   37.550      561
   37.565      567
   37.580      629
   37.595      564
   37.610      564
   37.625      601
   37.640      564
   37.655      607
   37.670      596
   37.685      541
   37.700      590
   37.715      604
   37.730      544
   37.745      567
   37.760      601
   37.775      559
   37.790      537
   37.805      630
   37.820      593
   37.835      592
   37.850      578
   37.865      580
   37.880      565
   37.895      505
   37.910      547
   37.925      559
   37.940      566
   37.955      588
   37.970      584
   37.985      537
   38.000      558
   38.015      572
   38.030      577
   38.045      586
   38.060      539
   38.075      598
   38.090      558
   38.105      596
   38.120      544
   38.135      555
   38.150      570
   38.165      547
   38.180      519
   38.195      565
   38.210      581
   38.225      571
   38.240      594
   38.255      574
   38.270      569
   38.285      575
   38.300      570
   38.315      536
   38.330      552
   38.345      581
   38.360      586
   38.375      564
   38.390      556
   38.405      555
   38.420      563
   38.435      589
   38.450      553
   38.465      567
   38.480      576
   38.495      561
   38.510      572
   38.525      544
   38.540      559
   38.555      556
   38.570      550
   38.585      574
   38.600      524
   38.615      539
   38.630      572
   38.645      585
   38.660      524
   38.675      536
   38.690      570
   38.705      595
   38.720      578
   38.735      533
   38.750      542
   38.765      548
   38.780      515
   38.795      504
   38.810      548
   38.825      580
   38.840      560
   38.855      542
   38.870      543
   38.885      564
   38.900      562
   38.915      567
   38.930      523
   38.945      580
   38.960      556
   38.975      557
   38.990      543
   39.005      589
   39.020      565
   39.035      553
   39.050      563
   39.065      571
   39.080      566
   39.095      553
   39.110      537
   39.125      567
   39.140      510
   39.155      544
   39.170      534
   39.185      571
   39.200      543
   39.215      530
   39.230      535
   39.245      540
   39.260      565
   39.275      557
   39.290      541
   39.305      565
   39.320      593
   39.335      563
   39.350      570
   39.365      546
   39.380      550
   39.395      555
   39.410      514
   39.425      539
   39.440      599
   39.455      507
   39.470      528
   39.485      543
   39.500      518
   39.515      545
   39.530      493
   39.545      534
   39.560      550
   39.575      535
   39.590      532
   39.605      535
   39.620      543
   39.635      508
   39.650      539
   39.665      602
   39.680      563
   39.695      546
   39.710      499
   39.725      577
   39.740      524
   39.755      588
   39.770      541
   39.785      542
   39.800      521
   39.815      561
   39.830      576
   39.845      543
   39.860      569
   39.875      583
   39.890      570
   39.905      532
   39.920      523
   39.935      540
   39.950      546
   39.965      541
   39.980      520
   39.995      575
   40.010      585
   40.025      527
   40.040      569
   40.055      564
   40.070      547
   40.085      564
   40.100      609
   40.115      563
   40.130      526
   40.145      548
   40.160      550
   40.175      529
   40.190      498
   40.205      544
   40.220      581
   40.235      574
   40.250      550
   40.265      524
   40.280      567
   40.295      557
   40.310      525
   40.325      531
   40.340      573
   40.355      551
   40.370      538
   40.385      541
   40.400      539
   40.415      543
   40.430      561
   40.445      533
   40.460      529
   40.475      569
   40.490      593
   40.505      560
   40.520      539
   40.535      508
   40.550      539
   40.565      562
   40.580      521
   40.595      548
   40.610      576
   40.625      588
   40.640      591
   40.655      575
   40.670      543
   40.685      549
   40.700      547
   40.715      563
   40.730      573
   40.745      562
   40.760      550
   40.775      510
   40.790      516
   40.805      535
   40.820      523
   40.835      529
   40.850      528
   40.865      560
   40.880      554
   40.895      557
   40.910      546
   40.925      513
   40.940      527
   40.955      537
   40.970      547
   40.985      526
   41.000      523
   41.015      538
   41.030      546
   41.045      564
   41.060      571
   41.075      575
   41.090      559
   41.105      544
   41.120      542
   41.135      549
   41.150      587
   41.165      601
   41.180      540
   41.195      596
   41.210      580
   41.225      555
   41.240      532
   41.255      529
   41.270      591
   41.285      593
   41.300      551
   41.315      513
   41.330      569
   41.345      541
   41.360      563
   41.375      565
   41.390      592
   41.405      561
   41.420      575
   41.435      550
   41.450      584
   41.465      574
   41.480      536
   41.495      558
   41.510      546
   41.525      517
   41.540      561
   41.555      546
   41.570      564
   41.585      526
   41.600      530
   41.615      548
   41.630      496
   41.645      564
   41.660      541
   41.675      582
   41.690      535
   41.705      542
   41.720      509
   41.735      512
   41.750      521
   41.765      503
   41.780      493
   41.795      526
   41.810      532
   41.825      518
   41.840      527
   41.855      534
   41.870      577
   41.885      533
   41.900      508
   41.915      498
   41.930      542
   41.945      562
   41.960      542
   41.975      546
   41.990      536
   42.005      527
   42.020      576
   42.035      504
   42.050      500
   42.065      521
   42.080      515
   42.095      533
   42.110      542
   42.125      513
   42.140      502
   42.155      490
   42.170      507
   42.185      540
   42.200      538
   42.215      558
   42.230      541
   42.245      521
   42.260      523
   42.275      522
   42.290      495
   42.305      504
   42.320      509
   42.335      510
   42.350      496
   42.365      506
   42.380      523
   42.395      540
   42.410      539
   42.425      507
   42.440      513
   42.455      550
   42.470      526
   42.485      506
   42.500      515
   42.515      552
   42.530      520
   42.545      490
   42.560      526
   42.575      553
   42.590      509
   42.605      481
   42.620      530
   42.635      522
   42.650      499
   42.665      536
   42.680      521
   42.695      489
   42.710      494
   42.725      509
   42.740      512
   42.755      551
   42.770      532
   42.785      515
   42.800      525
   42.815      509
   42.830      501
   42.845      536
   42.860      541
   42.875      532
   42.890      564
   42.905      528
   42.920      509
   42.935      500
   42.950      526
   42.965      560
   42.980      527
   42.995      496
   43.010      497
   43.025      524
   43.040      473
   43.055      513
   43.070      516
   43.085      517
   43.100      575
   43.115      564
   43.130      560
   43.145      544
   43.160      539
   43.175      552
   43.190      491
   43.205      506
   43.220      521
   43.235      549
   43.250      526
   43.265      538
   43.280      562
   43.295      539
   43.310      467
   43.325      490
   43.340      548
   43.355      518
   43.370      508
   43.385      503
   43.400      476
   43.415      481
   43.430      475
   43.445      470
   43.460      524
   43.475      533
   43.490      493
   43.505      523
   43.520      509
   43.535      509
   43.550      542
   43.565      513
   43.580      520
   43.595      487
   43.610      556
   43.625      581
   43.640      523
   43.655      525
   43.670      532
   43.685      561
   43.700      548
   43.715      520
   43.730      528
   43.745      534
   43.760      520
   43.775      482
   43.790      488
   43.805      530
   43.820      526
   43.835      519
   43.850      523
   43.865      525
   43.880      484
   43.895      470
   43.910      480
   43.925      493
   43.940      481
   43.955      504
   43.970      485
   43.985      482
