    2.000      627
    2.015      662
    2.030      707
    2.045      745
    2.060      669
    2.075      695
    2.090      687
    2.105      676
    2.120      644
    2.135      626
    2.150      651
    2.165      633
    2.180      636
    2.195      706
    2.210      708
    2.225      699
    2.240      679
    2.255      661
    2.270      649
    2.285      678
    2.300      643
    2.315      619
    2.330      636
    2.345      668
    2.360      676
    2.375      656
    2.390      702
    2.405      714
    2.420      670
    2.435      669
    2.450      661
    2.465      662
    2.480      666
    2.495      621
    2.510      606
    2.525      663
    2.540      688
    2.555      680
    2.570      673
    2.585      650
    2.600      680
    2.615      686
    2.630      652
    2.645      658
    2.660      652
    2.675      638
    2.690      648
    2.705      647
    2.720      716
    2.735      665
    2.750      633
    2.765      677
    2.780      680
    2.795      656
    2.810      660
    2.825      673
    2.840      658
    2.855      666
    2.870      615
    2.885      657
    2.900      631
    2.915      641
    2.930      637
    2.945      661
    2.960      661
    2.975      683
    2.990      665
    3.005      636
    3.020      654
    3.035      662
    3.050      697
    3.065      694
    3.080      707
    3.095      643
    3.110      634
    3.125      685
    3.140      652
    3.155      651
    3.170      738
    3.185      712
    3.200      697
    3.215      667
    3.230      655
    3.245      654
    3.260      693
    3.275      658
    3.290      636
    3.305      640
    3.320      656
    3.335      677
    3.350      649
    3.365      625
    3.380      636
    3.395      663
    3.410      650
    3.425      674
    3.440      672
    3.455      659
    3.470      652
    3.485      637
    3.500      641
    3.515      625
    3.530      658
    3.545      669
    3.560      654
    3.575      653
    3.590      636
    3.605      644
    3.620      679
    3.635      672
    3.650      648
    3.665      656
    3.680      744
    3.695      677
    3.710      639
    3.725      730
    3.740      636
    3.755      653
    3.770      611
    3.785      608
    3.800      630
    3.815      715
    3.830      676
    3.845      638
    3.860      609
    3.875      692
    3.890      690
    3.905      688
    3.920      678
    3.935      687
    3.950      666
    3.965      611
    3.980      648
    3.995      668
    4.010      680
    4.025      647
    4.040      638
    4.055      656
    4.070      687
    4.085      686
    4.100      701
    4.115      682
    4.130      635
    4.145      649
    4.160      652
    4.175      619
    4.190      588
    4.205      647
    4.220      676
    4.235      675
    4.250      650
    4.265      656
    4.280      711
    4.295      662
    4.310      643
    4.325      647
    4.340      639
    4.355      640
    4.370      672
    4.385      673
    4.400      622
    4.415      639
    4.430      654
    4.445      681
    4.460      680
    4.475      662
    4.490      675
    4.505      694
    4.520      655
    4.535      649
    4.550      687
    4.565      697
    4.580      706
    4.595      660
    4.610      634
    4.625      656
    4.640      682
    4.655      677
    4.670      656
    4.685      652
    4.700      654
    4.715      689
    4.730      652
    4.745      660
    4.760      674
    4.775      676
    4.790      668
    4.805      647
    4.820      649
    4.835      638
    4.850      611
    4.865      641
    4.880      654
    4.895      670
    4.910      693
    4.925      672
    4.940      661
    4.955      645
    4.970      644
    4.985      688
    5.000      684
    5.015      700
    5.030      661
    5.045      639
    5.060      650
    5.075      647
    5.090      640
    5.105      647
    5.120      638
    5.135      638
    5.150      643
    5.165      655
    5.180      653
    5.195      663
    5.210      666
    5.225      654
    5.240      617
    5.255      600
    5.270      653
    5.285      660
    5.300      682
    5.315      632
    5.330      661
    5.345      656
    5.360      694
    5.375      649
    5.390      653
    5.405      672
    5.420      647
    5.435      677
    5.450      634
    5.465      617
    5.480      633
    5.495      667
    5.510      671
    5.525      633
    5.540      674
    5.555      693
    5.570      645
    5.585      617
    5.600      688
    5.615      621
    5.630      653
    5.645      667
    5.660      729
    5.675      727
    5.690      658
    5.705      648
    5.720      673
    5.735      673
    5.750      633
    5.765      655
    5.780      695
    5.795      729
    5.810      660
    5.825      681
    5.840      684
    5.855      643
    5.870      648
    5.885      618
    5.900      623
    5.915      604
    5.930      661
    5.945      648
    5.960      632
    5.975      652
    5.990      687
    6.005      644
    6.020      682
    6.035      633
    6.050      636
    6.065      654
    6.080      625
    6.095      628
    6.110      647
    6.125      625
    6.140      606
    6.155      617
    6.170      653
    6.185      656
    6.200      658
    6.215      670
    6.230      664
    6.245      643
    6.260      635
    6.275      629
    6.290      650
    6.305      646
    6.320      645
    6.335      675
    6.350      662
    6.365      660
    6.380      647
    6.395      646
    6.410      656
    6.425      625
    6.440      641
    6.455      687
    6.470      682
    6.485      683
    6.500      623
    6.515      638
    6.530      620
    6.545      647
    6.560      644
    6.575      609
    6.590      654
    6.605      646
    6.620      658
    6.635      662
    6.650      669
    6.665      652
    6.680      631
    6.695      655
    6.710      673
    6.725      680
    6.740      621
    6.755      688
    6.770      675
    6.785      636
    6.800      673
    6.815      669
    6.830      672
    6.845      700
    6.860      696
    6.875      683
    6.890      673
    6.905      675
    6.920      697
    6.935      701
    6.950      650
    6.965      692
    6.980      667
    6.995      660
    7.010      652
    7.025      685
    7.040      667
    7.055      725
    7.070      716
    7.085      609
    7.100      686
    7.115      653
    7.130      682
    7.145      617
    7.160      630
    7.175      693
    7.190      696
    7.205      648
    7.220      627
    7.235      622
    7.250      641
    7.265      668
    7.280      656
    7.295      679
    7.310      636
    7.325      646
    7.340      710
    7.355      661
    7.370      663
    7.385      642
    7.400      634
    7.415      653
    7.430      691
    7.445      615
    7.460      638
    7.475      631
    7.490      644
    7.505      665
    7.520      672
    7.535      687
    7.550      706
    7.565      626
    7.580      668
    7.595      686
    7.610      687
    7.625      687
    7.640      624
    7.655      673
    7.670      684
    7.685      705
    7.700      678
    7.715      694
    7.730      655
    7.745      708
    7.760      693
    7.775      685
    7.790      631
    7.805      675
    7.820      733
    7.835      705
    7.850      702
    7.865      732
    7.880      694
    7.895      691
    7.910      696
    7.925      650
    7.940      683
    7.955      699
    7.970      677
    7.985      652
    8.000      676
    8.015      682
    8.030      713
    8.045      709
    8.060      632
    8.075      692
    8.090      623
    8.105      674
    8.120      658
    8.135      645
    8.150      714
    8.165      694
    8.180      680
    8.195      725
    8.210      697
    8.225      690
    8.240      659
    8.255      668
    8.270      674
    8.285      685
    8.300      661
    8.315      611
    8.330      669
    8.345      723
    8.360      710
    8.375      648
    8.390      671
    8.405      708
    8.420      707
    8.435      726
    8.450      696
    8.465      676
    8.480      692
    8.495      677
    8.510      668
    8.525      673
    8.540      681
    8.555      701
    8.570      669
    8.585      663
    8.600      701
    8.615      708
    8.630      666
    8.645      714
    8.660      714
    8.675      699
    8.690      670
    8.705      696
    8.720      711
    8.735      664
    8.750      686
    8.765      672
    8.780      667
    8.795      673
    8.810      721
    8.825      724
    8.840      702
    8.855      739
    8.870      688
    8.885      720
    8.900      759
    8.915      783
    8.930      727
    8.945      730
    8.960      764
    8.975      771
    8.990      747
    9.005      716
    9.020      759
    9.035      800
    9.050      789
    9.065      879
    9.080      895
    9.095      928
    9.110     1016
    9.125     1135
    9.140     1146
    9.155     1348
    9.170     1479
    9.185     1731
    9.200     2035
    9.215     2291
    9.230     2667
    9.245     3074
    9.260     3370
    9.275     2729
    9.290     2205
    9.305     1678
    9.320     1186
    9.335      911
    9.350      833
    9.365      784
    9.380      744
    9.395      781
    9.410      783
    9.425      786
    9.440      864
    9.455      826
    9.470      862
    9.485      908
    9.500     1006
    9.515     1100
    9.530     1199
    9.545     1319
    9.560     1166
    9.575     1122
    9.590     1005
    9.605      920
    9.620      759
    9.635      790
    9.650      736
    9.665      732
    9.680      729
    9.695      751
    9.710      677
    9.725      728
    9.740      757
    9.755      681
    9.770      677
    9.785      707
    9.800      697
    9.815      721
    9.830      766
    9.845      739
    9.860      689
    9.875      720
    9.890      779
    9.905      706
    9.920      690
    9.935      709
    9.950      711
    9.965      651
    9.980      668
    9.995      683
   10.010      674
   10.025      672
   10.040      727
   10.055      695
   10.070      690
   10.085      698
   10.100      754
   10.115      710
   10.130      692
   10.145      716
   10.160      714
   10.175      729
   10.190      688
   10.205      717
   10.220      694
   10.235      720
   10.250      694
   10.265      666
   10.280      736
   10.295      747
   10.310      717
   10.325      684
   10.340      709
   10.355      705
   10.370      734
   10.385      764
   10.400      697
   10.415      707
   10.430      722
   10.445      754
   10.460      704
   10.475      703
   10.490      742
   10.505      729
   10.520      732
   10.535      730
   10.550      742
   10.565      781
   10.580      764
   10.595      721
   10.610      699
   10.625      737
   10.640      731
   10.655      737
   10.670      701
   10.685      718
   10.700      702
   10.715      712
   10.730      710
   10.745      723
   10.760      752
   10.775      749
   10.790      753
   10.805      756
   10.820      759
   10.835      706
   10.850      719
   10.865      749
   10.880      738
   10.895      726
   10.910      751
   10.925      777
   10.940      790
   10.955      743
   10.970      732
   10.985      747
   11.000      761
   11.015      751
   11.030      772
   11.045      724
   11.060      714
   11.075      742
   11.090      734
   11.105      712
   11.120      735
   11.135      725
   11.150      724
   11.165      719
   11.180      743
   11.195      782
   11.210      754
   11.225      765
   11.240      737
   11.255      752
   11.270      800
   11.285      819
   11.300      760
   11.315      761
   11.330      766
   11.345      732
   11.360      773
   11.375      756
   11.390      802
   11.405      771
   11.420      731
   11.435      786
   11.450      765
   11.465      742
   11.480      741
   11.495      722
   11.510      777
   11.525      747
   11.540      792
   11.555      826
   11.570      766
   11.585      741
   11.600      778
   11.615      710
   11.630      696
   11.645      788
   11.660      723
   11.675      780
   11.690      685
   11.705      794
   11.720      766
   11.735      784
   11.750      763
   11.765      820
   11.780      738
   11.795      805
   11.810      815
   11.825      737
   11.840      769
   11.855      763
   11.870      764
   11.885      722
   11.900      740
   11.915      705
   11.930      775
   11.945      751
   11.960      756
   11.975      817
   11.990      797
   12.005      768
   12.020      769
   12.035      768
   12.050      709
   12.065      785
   12.080      736
   12.095      745
   12.110      785
   12.125      816
   12.140      773
   12.155      757
   12.170      767
   12.185      784
   12.200      768
   12.215      785
   12.230      805
   12.245      790
   12.260      735
   12.275      735
   12.290      780
   12.305      812
   12.320      871
   12.335      926
   12.350      905
   12.365      953
   12.380     1038
   12.395     1101
   12.410     1258
   12.425     1323
   12.440     1414
   12.455     1491
   12.470     1361
   12.485     1175
   12.500      977
   12.515      927
   12.530      863
   12.545      792
   12.560      798
   12.575      825
   12.590      816
   12.605      848
   12.620      833
   12.635      814
   12.650      817
   12.665      785
   12.680      792
   12.695      812
   12.710      835
   12.725      822
   12.740      814
   12.755      795
   12.770      833
   12.785      831
   12.800      807
   12.815      773
   12.830      837
   12.845      838
   12.860      842
   12.875      821
   12.890      820
   12.905      833
   12.920      846
   12.935      802
   12.950      844
   12.965      828
   12.980      868
   12.995      852
   13.010      813
   13.025      806
   13.040      801
   13.055      892
   13.070      874
   13.085      747
   13.100      911
   13.115      878
   13.130      861
   13.145      858
   13.160      784
   13.175      824
   13.190      884
   13.205      836
   13.220      787
   13.235      830
   13.250      870
   13.265      861
   13.280      830
   13.295      855
   13.310      830
   13.325      839
   13.340      852
   13.355      865
   13.370      867
   13.385      833
   13.400      838
   13.415      850
   13.430      863
   13.445      816
   13.460      847
   13.475      861
   13.490      829
   13.505      852
   13.520      890
   13.535      843
   13.550      854
   13.565      878
   13.580      883
   13.595      840
   13.610      885
   13.625      927
   13.640      868
   13.655      885
   13.670      898
   13.685      974
   13.700      946
   13.715      979
   13.730      976
   13.745     1035
   13.760     1211
   13.775     1160
   13.790     1151
   13.805     1175
   13.820     1141
   13.835     1044
   13.850     1007
   13.865      934
   13.880      870
   13.895      892
   13.910      932
   13.925      938
   13.940      923
   13.955      851
   13.970      949
   13.985      868
   14.000      896
   14.015      927
   14.030      942
   14.045      980
   14.060      932
   14.075      932
   14.090      937
   14.105      940
   14.120      905
   14.135      885
   14.150      977
   14.165      999
   14.180      877
   14.195      928
   14.210      936
   14.225      923
   14.240      931
   14.255      941
   14.270      909
   14.285      909
   14.300      904
   14.315      848
   14.330      906
   14.345      942
   14.360      948
   14.375      946
   14.390      935
   14.405      964
   14.420      974
   14.435      954
   14.450      938
   14.465      962
   14.480      955
   14.495      938
   14.510      898
   14.525      964
   14.540      945
   14.555      929
   14.570      957
   14.585      960
   14.600      970
   14.615      968
   14.630      949
   14.645      995
   14.660      952
   14.675      977
   14.690      967
   14.705      983
   14.720      994
   14.735      966
   14.750      941
   14.765      900
   14.780      918
   14.795      962
   14.810      982
   14.825     1023
   14.840      995
   14.855     1021
   14.870     1012
   14.885     1029
   14.900     1014
   14.915     1048
   14.930     1006
   14.945     1023
   14.960      999
   14.975      987
   14.990     1016
   15.005      981
   15.020      981
   15.035     1009
   15.050     1067
   15.065     1029
   15.080     1031
   15.095     1014
   15.110     1058
   15.125     1085
   15.140     1000
   15.155     1021
   15.170     1063
   15.185     1036
   15.200     1081
   15.215     1042
   15.230     1033
   15.245      998
   15.260     1096
   15.275     1052
   15.290     1040
   15.305     1056
   15.320     1020
   15.335     1032
   15.350     1135
   15.365     1071
   15.380     1060
   15.395     1021
   15.410     1035
   15.425     1092
   15.440     1099
   15.455     1103
   15.470     1052
   15.485     1131
   15.500     1108
   15.515     1106
   15.530     1073
   15.545     1061
   15.560     1031
   15.575     1054
   15.590     1056
   15.605     1045
   15.620     1103
   15.635     1160
   15.650     1071
   15.665     1197
   15.680     1258
   15.695     1126
   15.710     1098
   15.725     1216
   15.740     1133
   15.755     1085
   15.770     1114
   15.785     1126
   15.800     1166
   15.815     1180
   15.830     1236
   15.845     1183
   15.860     1182
   15.875     1247
   15.890     1324
   15.905     1295
   15.920     1352
   15.935     1385
   15.950     1381
   15.965     1330
   15.980     1277
   15.995     1255
   16.010     1255
   16.025     1155
   16.040     1168
   16.055     1144
   16.070     1195
   16.085     1195
   16.100     1274
   16.115     1225
   16.130     1148
   16.145     1223
   16.160     1195
   16.175     1236
   16.190     1147
   16.205     1228
   16.220     1255
   16.235     1215
   16.250     1181
   16.265     1156
   16.280     1241
   16.295     1273
   16.310     1193
   16.325     1231
   16.340     1327
   16.355     1317
   16.370     1308
   16.385     1337
   16.400     1342
   16.415     1466
   16.430     1576
   16.445     1698
   16.460     1686
   16.475     1711
   16.490     1666
   16.505     1596
   16.520     1475
   16.535     1404
   16.550     1356
   16.565     1350
   16.580     1304
   16.595     1265
   16.610     1239
   16.625     1298
   16.640     1321
   16.655     1280
   16.670     1275
   16.685     1228
   16.700     1223
   16.715     1345
   16.730     1385
   16.745     1413
   16.760     1426
   16.775     1408
   16.790     1440
   16.805     1457
   16.820     1483
   16.835     1453
   16.850     1437
   16.865     1457
   16.880     1445
   16.895     1362
   16.910     1380
   16.925     1362
   16.940     1407
   16.955     1352
   16.970     1349
   16.985     1384
   17.000     1336
   17.015     1338
   17.030     1376
   17.045     1330
   17.060     1332
   17.075     1343
   17.090     1327
   17.105     1313
   17.120     1294
   17.135     1314
   17.150     1396
   17.165     1463
   17.180     1421
   17.195     1462
   17.210     1422
   17.225     1470
   17.240     1355
   17.255     1349
   17.270     1385
   17.285     1371
   17.300     1414
   17.315     1393
   17.330     1396
   17.345     1379
   17.360     1437
   17.375     1425
   17.390     1493
   17.405     1483
   17.420     1447
   17.435     1493
   17.450     1504
   17.465     1484
   17.480     1386
   17.495     1443
   17.510     1476
   17.525     1399
   17.540     1512
   17.555     1644
   17.570     1446
   17.585     1372
   17.600     1483
   17.615     1465
   17.630     1439
   17.645     1582
   17.660     1494
   17.675     1548
   17.690     1484
   17.705     1580
   17.720     1578
   17.735     1509
   17.750     1579
   17.765     1587
   17.780     1531
   17.795     1565
   17.810     1482
   17.825     1529
   17.840     1556
   17.855     1602
   17.870     1517
   17.885     1516
   17.900     1528
   17.915     1416
   17.930     1571
   17.945     1508
   17.960     1513
   17.975     1565
   17.990     1596
   18.005     1619
   18.020     1647
   18.035     1553
   18.050     1482
   18.065     1539
   18.080     1575
   18.095     1516
   18.110     1571
   18.125     1538
   18.140     1563
   18.155     1546
   18.170     1579
   18.185     1548
   18.200     1546
   18.215     1624
   18.230     1603
   18.245     1555
   18.260     1510
   18.275     1561
   18.290     1574
   18.305     1601
   18.320     1565
   18.335     1647
   18.350     1618
   18.365     1629
   18.380     1651
   18.395     1649
   18.410     1638
   18.425     1563
   18.440     1595
   18.455     1665
   18.470     1663
   18.485     1645
   18.500     1640
   18.515     1764
   18.530     1773
   18.545     1759
   18.560     1813
   18.575     1920
   18.590     2126
   18.605     2368
   18.620     2690
   18.635     2935
   18.650     3008
   18.665     3044
   18.680     2877
   18.695     2516
   18.710     2215
   18.725     2012
   18.740     1901
   18.755     1762
   18.770     1761
   18.785     1736
   18.800     1749
   18.815     1763
   18.830     1706
   18.845     1769
   18.860     1712
   18.875     1676
   18.890     1766
   18.905     1821
   18.920     1805
   18.935     1589
   18.950     1705
   18.965     1798
   18.980     1743
   18.995     1698
   19.010     1737
   19.025     1792
   19.040     1732
   19.055     1716
   19.070     1769
   19.085     1657
   19.100     1811
   19.115     1719
   19.130     1840
   19.145     1749
   19.160     1707
   19.175     1847
   19.190     1994
   19.205     1887
   19.220     1801
   19.235     1966
   19.250     2034
   19.265     1873
   19.280     2012
   19.295     1989
   19.310     1798
   19.325     1781
   19.340     1751
   19.355     1730
   19.370     1758
   19.385     1731
   19.400     1677
   19.415     1679
   19.430     1678
   19.445     1593
   19.460     1746
   19.475     1751
   19.490     1746
   19.505     1756
   19.520     1652
   19.535     1671
   19.550     1717
   19.565     1676
   19.580     1665
   19.595     1708
   19.610     1803
   19.625     1826
   19.640     1667
   19.655     1722
   19.670     1706
   19.685     1741
   19.700     1740
   19.715     1699
   19.730     1663
   19.745     1715
   19.760     1781
   19.775     1712
   19.790     1647
   19.805     1721
   19.820     1733
   19.835     1827
   19.850     1789
   19.865     1737
   19.880     1647
   19.895     1630
   19.910     1650
   19.925     1670
   19.940     1728
   19.955     1642
   19.970     1663
   19.985     1651
   20.000     1662
   20.015     1713
   20.030     1798
   20.045     1827
   20.060     1688
   20.075     1828
   20.090     1718
   20.105     1744
   20.120     1661
   20.135     1626
   20.150     1715
   20.165     1710
   20.180     1634
   20.195     1721
   20.210     1764
   20.225     1727
   20.240     1674
   20.255     1695
   20.270     1679
   20.285     1695
   20.300     1649
   20.315     1601
   20.330     1633
   20.345     1733
   20.360     1726
   20.375     1677
   20.390     1721
   20.405     1702
   20.420     1728
   20.435     1735
   20.450     1657
   20.465     1663
   20.480     1647
   20.495     1607
   20.510     1611
   20.525     1634
   20.540     1653
   20.555     1696
   20.570     1655
   20.585     1601
   20.600     1570
   20.615     1571
   20.630     1583
   20.645     1679
   20.660     1615
   20.675     1639
   20.690     1609
   20.705     1703
   20.720     1703
   20.735     1602
   20.750     1589
   20.765     1493
   20.780     1513
   20.795     1642
   20.810     1667
   20.825     1692
   20.840     1690
   20.855     1832
   20.870     1748
   20.885     1787
   20.900     1734
   20.915     1763
   20.930     1636
   20.945     1618
   20.960     1639
   20.975     1645
   20.990     1591
   21.005     1582
   21.020     1593
   21.035     1643
   21.050     1574
   21.065     1733
   21.080     1694
   21.095     1585
   21.110     1646
   21.125     1715
   21.140     1635
   21.155     1769
   21.170     1797
   21.185     1791
   21.200     1751
   21.215     1695
   21.230     1622
   21.245     1612
   21.260     1711
   21.275     1529
   21.290     1546
   21.305     1580
   21.320     1607
   21.335     1576
   21.350     1615
   21.365     1552
   21.380     1553
   21.395     1538
   21.410     1492
   21.425     1582
   21.440     1609
   21.455     1550
   21.470     1495
   21.485     1587
   21.500     1605
   21.515     1602
   21.530     1541
   21.545     1558
   21.560     1570
   21.575     1539
   21.590     1567
   21.605     1588
   21.620     1701
   21.635     1737
   21.650     1604
   21.665     1816
   21.680     2014
   21.695     2149
   21.710     2163
   21.725     2425
   21.740     2346
   21.755     2241
   21.770     1916
   21.785     1797
   21.800     1790
   21.815     1738
   21.830     1648
   21.845     1511
   21.860     1502
   21.875     1559
   21.890     1543
   21.905     1453
   21.920     1525
   21.935     1504
   21.950     1465
   21.965     1432
   21.980     1458
   21.995     1475
   22.010     1577
   22.025     1469
   22.040     1544
   22.055     1429
   22.070     1483
   22.085     1512
   22.100     1552
   22.115     1521
   22.130     1413
   22.145     1462
   22.160     1459
   22.175     1470
   22.190     1374
   22.205     1482
   22.220     1485
   22.235     1452
   22.250     1348
   22.265     1416
   22.280     1561
   22.295     1499
   22.310     1453
   22.325     1424
   22.340     1472
   22.355     1468
   22.370     1473
   22.385     1489
   22.400     1385
   22.415     1469
   22.430     1485
   22.445     1429
   22.460     1442
   22.475     1493
   22.490     1428
   22.505     1372
   22.520     1436
   22.535     1426
   22.550     1450
   22.565     1438
   22.580     1442
   22.595     1441
   22.610     1435
   22.625     1449
   22.640     1451
   22.655     1348
   22.670     1327
   22.685     1377
   22.700     1377
   22.715     1380
   22.730     1372
   22.745     1371
   22.760     1441
   22.775     1391
   22.790     1386
   22.805     1402
   22.820     1387
   22.835     1371
   22.850     1394
   22.865     1410
   22.880     1412
   22.895     1371
   22.910     1406
   22.925     1368
   22.940     1382
   22.955     1396
   22.970     1366
   22.985     1326
   23.000     1368
   23.015     1356
   23.030     1320
   23.045     1298
   23.060     1382
   23.075     1337
   23.090     1306
   23.105     1273
   23.120     1316
   23.135     1376
   23.150     1346
   23.165     1365
   23.180     1296
   23.195     1342
   23.210     1392
   23.225     1424
   23.240     1338
   23.255     1319
   23.270     1507
   23.285     1488
   23.300     1415
   23.315     1371
   23.330     1415
   23.345     1387
   23.360     1429
   23.375     1351
   23.390     1383
   23.405     1350
   23.420     1346
   23.435     1362
   23.450     1340
   23.465     1287
   23.480     1287
   23.495     1287
   23.510     1256
   23.525     1231
   23.540     1305
   23.555     1348
   23.570     1284
   23.585     1278
   23.600     1359
   23.615     1254
   23.630     1266
   23.645     1362
   23.660     1274
   23.675     1339
   23.690     1309
   23.705     1319
   23.720     1439
   23.735     1344
   23.750     1398
   23.765     1403
   23.780     1265
   23.795     1405
   23.810     1415
   23.825     1373
   23.840     1373
   23.855     1439
   23.870     1348
   23.885     1208
   23.900     1230
   23.915     1226
   23.930     1277
   23.945     1181
   23.960     1246
   23.975     1314
   23.990     1277
   24.005     1314
   24.020     1331
   24.035     1246
   24.050     1163
   24.065     1253
   24.080     1210
   24.095     1181
   24.110     1206
   24.125     1199
   24.140     1184
   24.155     1170
   24.170     1228
   24.185     1225
   24.200     1230
   24.215     1208
   24.230     1274
   24.245     1270
   24.260     1149
   24.275     1150
   24.290     1161
   24.305     1198
   24.320     1173
   24.335     1198
   24.350     1215
   24.365     1248
   24.380     1270
   24.395     1256
   24.410     1183
   24.425     1159
   24.440     1159
   24.455     1268
   24.470     1229
   24.485     1205
   24.500     1199
   24.515     1311
   24.530     1258
   24.545     1228
   24.560     1246
   24.575     1261
   24.590     1284
   24.605     1225
   24.620     1249
   24.635     1244
   24.650     1209
   24.665     1179
   24.680     1211
   24.695     1254
   24.710     1186
   24.725     1242
   24.740     1217
   24.755     1224
   24.770     1220
   24.785     1231
   24.800     1242
   24.815     1254
   24.830     1200
   24.845     1218
   24.860     1156
   24.875     1192
   24.890     1188
   24.905     1200
   24.920     1224
   24.935     1144
   24.950     1206
   24.965     1241
   24.980     1251
   24.995     1213
   25.010     1177
   25.025     1187
   25.040     1230
   25.055     1213
   25.070     1236
   25.085     1103
   25.100     1297
   25.115     1201
   25.130     1212
   25.145     1213
   25.160     1193
   25.175     1278
   25.190     1210
   25.205     1183
   25.220     1124
   25.235     1183
   25.250     1169
   25.265     1114
   25.280     1194
   25.295     1230
   25.310     1137
   25.325     1159
   25.340     1146
   25.355     1118
   25.370     1135
   25.385     1151
   25.400     1131
   25.415     1118
   25.430     1152
   25.445     1111
   25.460     1209
   25.475     1135
   25.490     1184
   25.505     1156
   25.520     1162
   25.535     1181
   25.550     1139
   25.565     1133
   25.580     1129
   25.595     1123
   25.610     1189
   25.625     1222
   25.640     1141
   25.655     1181
   25.670     1218
   25.685     1289
   25.700     1260
   25.715     1382
   25.730     1336
   25.745     1327
   25.760     1405
   25.775     1280
   25.790     1205
   25.805     1238
   25.820     1242
   25.835     1213
   25.850     1219
   25.865     1231
   25.880     1104
   25.895     1145
   25.910     1286
   25.925     1259
   25.940     1302
   25.955     1336
   25.970     1337
   25.985     1305
   26.000     1281
   26.015     1291
   26.030     1287
   26.045     1230
   26.060     1159
   26.075     1199
   26.090     1138
   26.105     1117
   26.120     1073
   26.135     1149
   26.150     1182
   26.165     1167
   26.180     1102
   26.195     1035
   26.210     1083
   26.225     1144
   26.240     1094
   26.255     1136
   26.270     1119
   26.285     1161
   26.300     1188
   26.315     1084
   26.330     1086
   26.345     1132
   26.360     1155
   26.375     1167
   26.390     1112
   26.405     1096
   26.420     1114
   26.435     1161
   26.450     1144
   26.465     1164
   26.480     1131
   26.495     1078
   26.510     1099
   26.525     1107
   26.540     1062
   26.555     1077
   26.570     1076
   26.585     1066
   26.600     1071
   26.615     1105
   26.630     1064
   26.645     1092
   26.660     1091
   26.675     1094
   26.690     1076
   26.705     1091
   26.720     1096
   26.735     1050
   26.750     1019
   26.765     1011
   26.780      983
   26.795     1049
   26.810     1076
   26.825     1073
   26.840     1075
   26.855     1080
   26.870     1118
   26.885     1123
   26.900     1048
   26.915     1129
   26.930     1062
   26.945     1094
   26.960     1051
   26.975     1072
   26.990     1050
   27.005     1030
   27.020     1110
   27.035     1142
   27.050     1096
   27.065     1099
   27.080     1056
   27.095     1082
   27.110     1083
   27.125     1096
   27.140     1072
   27.155     1089
   27.170     1085
   27.185     1080
   27.200     1132
   27.215     1064
   27.230     1030
   27.245     1024
   27.260     1089
   27.275     1025
   27.290     1016
   27.305     1057
   27.320     1107
   27.335     1039
   27.350     1076
   27.365     1030
   27.380     1023
   27.395     1068
   27.410     1034
   27.425     1093
   27.440     1095
   27.455     1042
   27.470     1045
   27.485     1101
   27.500     1104
   27.515     1114
   27.530     1010
   27.545     1052
   27.560      944
   27.575      992
   27.590      991
   27.605     1030
   27.620     1000
   27.635     1083
   27.650     1047
   27.665     1031
   27.680     1045
   27.695     1028
   27.710     1035
   27.725     1068
   27.740     1048
   27.755     1045
   27.770      985
   27.785     1005
   27.800     1036
   27.815     1157
   27.830     1128
   27.845     1100
   27.860     1074
   27.875     1101
   27.890     1124
   27.905     1159
   27.920     1141
   27.935     1072
   27.950      962
   27.965      991
   27.980     1005
   27.995     1008
   28.010     1091
   28.025      954
   28.040     1027
   28.055     1038
   28.070     1052
   28.085     1035
   28.100     1112
   28.115     1108
   28.130     1096
   28.145     1178
   28.160     1273
   28.175     1314
   28.190     1211
   28.205     1306
   28.220     1264
   28.235     1160
   28.250     1112
   28.265     1026
   28.280     1049
   28.295     1018
   28.310      968
   28.325      990
   28.340     1072
   28.355     1007
   28.370     1045
   28.385     1060
   28.400     1000
   28.415     1002
   28.430     1008
   28.445     1030
   28.460     1054
   28.475     1050
   28.490     1006
   28.505     1012
   28.520     1003
   28.535      979
   28.550      964
   28.565      968
   28.580      956
   28.595      987
   28.610      985
   28.625      997
   28.640      953
   28.655      979
   28.670      960
   28.685      970
   28.700      970
   28.715      972
   28.730      977
   28.745      977
   28.760      962
   28.775      930
   28.790      965
   28.805     1012
   28.820     1012
   28.835      989
   28.850      971
   28.865     1002
   28.880     1013
   28.895      943
   28.910      971
   28.925      983
   28.940      994
   28.955      976
   28.970      993
   28.985     1010
   29.000      944
   29.015     1007
   29.030      983
   29.045      949
   29.060      989
   29.075      974
   29.090      958
   29.105      971
   29.120      959
   29.135      954
   29.150      981
   29.165      994
   29.180      937
   29.195      977
   29.210     1003
   29.225     1059
   29.240      941
   29.255      944
   29.270     1003
   29.285     1003
   29.300      977
   29.315      917
   29.330      906
   29.345      904
   29.360      992
   29.375      937
   29.390     1048
   29.405     1016
   29.420     1017
   29.435      958
   29.450     1039
   29.465     1029
   29.480      958
   29.495      949
   29.510      957
   29.525      963
   29.540     1031
   29.555     1071
   29.570      970
   29.585      905
   29.600      940
   29.615      906
   29.630      941
   29.645      994
   29.660      928
   29.675      969
   29.690      918
   29.705      964
   29.720      916
   29.735      916
   29.750      972
   29.765      951
   29.780      904
   29.795      972
   29.810      908
   29.825      928
   29.840      914
   29.855      972
   29.870      964
   29.885      879
   29.900      870
   29.915      851
   29.930      942
   29.945      939
   29.960      888
   29.975      935
   29.990      957
   30.005      932
   30.020      990
   30.035      885
   30.050      854
   30.065      889
   30.080      830
   30.095      852
   30.110      881
   30.125      893
   30.140      844
   30.155      888
   30.170      929
   30.185      915
   30.200      903
   30.215      885
   30.230      910
   30.245      895
   30.260      846
   30.275      855
   30.290      878
   30.305      897
   30.320      856
   30.335      854
   30.350      885
   30.365      905
   30.380      916
   30.395      890
   30.410      897
   30.425      847
   30.440      848
   30.455      903
   30.470      926
   30.485      912
   30.500      901
   30.515      906
   30.530      862
   30.545      841
   30.560      879
   30.575      911
   30.590      919
   30.605      936
   30.620      947
   30.635      922
   30.650      996
   30.665     1000
   30.680      962
   30.695      946
   30.710      937
   30.725      939
   30.740      875
   30.755      850
   30.770      921
   30.785      856
   30.800      897
   30.815      894
   30.830      882
   30.845      907
   30.860      927
   30.875      880
   30.890      922
   30.905      900
   30.920      877
   30.935      854
   30.950      907
   30.965      924
   30.980      924
   30.995      871
   31.010      868
   31.025      887
   31.040      865
   31.055      904
   31.070      921
   31.085      855
   31.100      889
   31.115      884
   31.130      897
   31.145      838
   31.160      803
   31.175      921
   31.190      840
   31.205      853
   31.220      866
   31.235      880
   31.250      855
   31.265      764
   31.280      865
   31.295      805
   31.310      794
   31.325      862
   31.340      809
   31.355      802
   31.370      873
   31.385      811
   31.400      824
   31.415      839
   31.430      807
   31.445      789
   31.460      790
   31.475      815
   31.490      798
   31.505      805
   31.520      860
   31.535      820
   31.550      879
   31.565      777
   31.580      839
   31.595      777
   31.610      856
   31.625      904
   31.640      793
   31.655      807
   31.670      813
   31.685      846
   31.700      836
   31.715      807
   31.730      826
   31.745      798
   31.760      819
   31.775      789
   31.790      816
   31.805      867
   31.820      885
   31.835      875
   31.850      817
   31.865      831
   31.880      793
   31.895      738
   31.910      763
   31.925      823
   31.940      794
   31.955      795
   31.970      809
   31.985      786
   32.000      792
   32.015      804
   32.030      821
   32.045      838
   32.060      795
   32.075      782
   32.090      778
   32.105      795
   32.120      772
   32.135      790
   32.150      867
   32.165      816
   32.180      815
   32.195      789
   32.210      806
   32.225      799
   32.240      833
   32.255      814
   32.270      770
   32.285      817
   32.300      851
   32.315      826
   32.330      889
   32.345      941
   32.360      935
   32.375      916
   32.390      909
   32.405      876
   32.420      906
   32.435      872
   32.450      800
   32.465      794
   32.480      773
   32.495      779
   32.510      808
   32.525      832
   32.540      818
   32.555      837
   32.570      862
   32.585      835
   32.600      810
   32.615      826
   32.630      820
   32.645      842
   32.660      781
   32.675      730
   32.690      751
   32.705      774
   32.720      751
   32.735      711
   32.750      702
   32.765      705
   32.780      716
   32.795      736
   32.810      746
   32.825      775
   32.840      749
   32.855      743
   32.870      755
   32.885      758
   32.900      714
   32.915      772
   32.930      749
   32.945      742
   32.960      729
   32.975      730
   32.990      714
   33.005      714
   33.020      738
   33.035      757
   33.050      765
   33.065      808
   33.080      792
   33.095      712
   33.110      748
   33.125      767
   33.140      728
   33.155      778
   33.170      750
   33.185      782
   33.200      774
   33.215      713
   33.230      734
   33.245      731
   33.260      777
   33.275      745
   33.290      769
   33.305      789
   33.320      797
   33.335      781
   33.350      827
   33.365      811
   33.380      811
   33.395      797
   33.410      748
   33.425      775
   33.440      815
   33.455      757
   33.470      757
   33.485      728
   33.500      756
   33.515      728
   33.530      671
   33.545      641
   33.560      688
   33.575      733
   33.590      704
   33.605      729
   33.620      714
   33.635      700
   33.650      699
   33.665      766
   33.680      756
   33.695      738
   33.710      736
   33.725      747
   33.740      754
   33.755      698
   33.770      686
   33.785      733
   33.800      739
   33.815      758
   33.830      759
   33.845      729
   33.860      687
   33.875      728
   33.890      737
   33.905      714
   33.920      718
   33.935      731
   33.950      675
   33.965      662
   33.980      690
   33.995      671
   34.010      730
   34.025      678
   34.040      693
   34.055      717
   34.070      748
   34.085      744
   34.100      837
   34.115      796
   34.130      741
   34.145      800
   34.160      786
   34.175      761
   34.190      700
   34.205      716
   34.220      693
   34.235      672
   34.250      660
   34.265      661
   34.280      714
   34.295      715
   34.310      663
   34.325      700
   34.340      733
   34.355      728
   34.370      733
   34.385      736
   34.400      730
   34.415      753
   34.430      747
   34.445      698
   34.460      720
   34.475      732
   34.490      701
   34.505      664
   34.520      675
   34.535      689
   34.550      700
   34.565      683
   34.580      653
   34.595      629
   34.610      659
   34.625      668
   34.640      676
   34.655      692
   34.670      649
   34.685      652
   34.700      648
   34.715      653
   34.730      678
   34.745      669
   34.760      662
   34.775      641
   34.790      632
   34.805      647
   34.820      658
   34.835      621
   34.850      627
   34.865      686
   34.880      709
   34.895      689
   34.910      675
   34.925      658
   34.940      673
   34.955      661
   34.970      675
   34.985      674
   35.000      675
   35.015      668
   35.030      648
   35.045      644
   35.060      664
   35.075      699
   35.090      679
   35.105      654
   35.120      649
   35.135      657
   35.150      682
   35.165      739
   35.180      675
   35.195      671
   35.210      662
   35.225      651
   35.240      654
   35.255      649
   35.270      663
   35.285      673
   35.300      655
   35.315      633
   35.330      663
   35.345      614
   35.360      662
   35.375      633
   35.390      647
   35.405      618
   35.420      657
   35.435      627
   35.450      621
   35.465      619
   35.480      622
   35.495      571
   35.510      619
   35.525      620
   35.540      648
   35.555      681
   35.570      635
   35.585      635
   35.600      678
   35.615      626
   35.630      646
   35.645      673
   35.660      641
   35.675      674
   35.690      646
   35.705      634
   35.720      648
   35.735      622
   35.750      664
   35.765      647
   35.780      611
   35.795      637
   35.810      609
   35.825      645
   35.840      595
   35.855      619
   35.870      651
   35.885      590
   35.900      600
   35.915      557
   35.930      599
   35.945      620
   35.960      614
   35.975      625
   35.990      594
   36.005      620
   36.020      666
   36.035      606
   36.050      576
   36.065      632
   36.080      579
   36.095      548
   36.110      567
   36.125      589
   36.140      578
   36.155      592
   36.170      579
   36.185      582
   36.200      580
   36.215      603
   36.230      583
   36.245      572
   36.260      572
   36.275      567
   36.290      598
   36.305      592
   36.320      593
   36.335      600
   36.350      565
   36.365      604
   36.380      623
   36.395      613
   36.410      623
   36.425      574
   36.440      561
   36.455      584
   36.470      605
   36.485      626
   36.500      611
   36.515      605
   36.530      568
   36.545      588
   36.560      586
   36.575      593
   36.590      625
   36.605      629
   36.620      643
   36.635      646
   36.650      639
   36.665      639
   36.680      663
   36.695      669
   36.710      660
   36.725      628
   36.740      636
   36.755      636
   36.770      562
   36.785      591
   36.800      596
   36.815      603
   36.830      582
   36.845      593
   36.860      565
   36.875      540
   36.890      616
   36.905      638
   36.920      609
   36.935      568
   36.950      647
   36.965      600
   36.980      653
   36.995      600
   37.010      607
   37.025      602
   37.040      614
   37.055      614
   37.070      584
   37.085      534
   37.100      641
   37.115      587
   37.130      630
   37.145      590
   37.160      583
   37.175      590
   37.190      593
   37.205      579
   37.220      637
   37.235      596
   37.250      529
   37.265      590
   37.280      601
   37.295      631
   37.310      566
   37.325      575
   37.340      561
   37.355      535
   37.370      594
   37.385      598
   37.400      551
   37.415      552
   37.430      538
   37.445      556
   37.460      581
   37.475      641
   37.490      611
   37.505      672
   37.520      673
   37.535      670
   37.550      642
   37.565      609
   37.580      632
   37.595      595
   37.610      626
   37.625      593
   37.640      571
   37.655      556
   37.670      544
   37.685      540
   37.700      540
   37.715      570
   37.730      571
   37.745      587
   37.760      580
   37.775      574
   37.790      565
   37.805      556
   37.820      598
   37.835      621
   37.850      618
   37.865      651
   37.880      620
   37.895      636
   37.910      642
   37.925      638
   37.940      629
   37.955      596
   37.970      619
   37.985      559
   38.000      585
   38.015      590
   38.030      572
   38.045      585
   38.060      572
   38.075      576
   38.090      558
   38.105      591
   38.120      569
   38.135      565
   38.150      602
   38.165      599
   38.180      543
   38.195      588
   38.210      544
   38.225      580
   38.240      600
   38.255      595
   38.270      576
   38.285      572
   38.300      571
   38.315      569
   38.330      595
   38.345      596
   38.360      581
   38.375      573
   38.390      548
   38.405      579
   38.420      585
   38.435      575
   38.450      559
   38.465      590
   38.480      558
   38.495      520
   38.510      554
   38.525      564
   38.540      540
   38.555      562
   38.570      582
   38.585      546
   38.600      526
   38.615      526
   38.630      563
   38.645      602
   38.660      570
   38.675      534
   38.690      546
   38.705      563
   38.720      556
   38.735      551
   38.750      544
   38.765      522
   38.780      532
   38.795      533
   38.810      524
   38.825      595
   38.840      590
   38.855      582
   38.870      548
   38.885      576
   38.900      575
   38.915      573
   38.930      567
   38.945      570
   38.960      570
   38.975      543
   38.990      527
   39.005      536
   39.020      576
   39.035      562
   39.050      570
   39.065      575
   39.080      580
   39.095      518
   39.110      577
   39.125      592
   39.140      550
   39.155      606
   39.170      579
   39.185      560
   39.200      557
   39.215      535
   39.230      544
   39.245      550
   39.260      542
   39.275      539
   39.290      532
   39.305      563
   39.320      544
   39.335      593
   39.350      570
   39.365      527
   39.380      532
   39.395      524
   39.410      548
   39.425      518
   39.440      580
   39.455      529
   39.470      516
   39.485      563
   39.500      565
   39.515      555
   39.530      524
   39.545      488
   39.560      526
   39.575      524
   39.590      532
   39.605      537
   39.620      521
   39.635      533
   39.650      508
   39.665      543
   39.680      549
   39.695      548
   39.710      565
   39.725      579
   39.740      536
   39.755      545
   39.770      521
   39.785      537
   39.800      540
   39.815      498
   39.830      551
   39.845      551
   39.860      545
   39.875      550
   39.890      569
   39.905      527
   39.920      491
   39.935      532
   39.950      546
   39.965      538
   39.980      519
   39.995      516
   40.010      537
   40.025      538
   40.040      571
   40.055      557
   40.070      541
   40.085      576
   40.100      585
   40.115      584
   40.130      591
   40.145      538
   40.160      539
   40.175      539
   40.190      539
   40.205      552
   40.220      560
   40.235      545
   40.250      529
   40.265      533
   40.280      531
   40.295      518
   40.310      500
   40.325      493
   40.340      521
   40.355      555
   40.370      566
   40.385      594
   40.400      553
   40.415      531
   40.430      519
   40.445      550
   40.460      592
   40.475      627
   40.490      599
   40.505      580
   40.520      589
   40.535      623
   40.550      628
   40.565      626
   40.580      598
   40.595      569
   40.610      550
   40.625      558
   40.640      546
   40.655      535
   40.670      520
   40.685      511
   40.700      545
   40.715      554
   40.730      538
   40.745      530
   40.760      534
   40.775      555
   40.790      541
   40.805      558
   40.820      564
   40.835      510
   40.850      494
   40.865      521
   40.880      549
   40.895      567
   40.910      569
   40.925      536
   40.940      568
   40.955      544
   40.970      532
   40.985      520
   41.000      552
   41.015      550
   41.030      511
   41.045      516
   41.060      515
   41.075      517
   41.090      533
   41.105      500
   41.120      510
   41.135      510
   41.150      530
   41.165      518
   41.180      507
   41.195      532
   41.210      519
   41.225      533
   41.240      510
   41.255      527
   41.270      554
   41.285      539
   41.300      557
   41.315      497
   41.330      520
   41.345      524
   41.360      524
   41.375      514
   41.390      503
   41.405      521
   41.420      481
   41.435      533
   41.450      563
   41.465      559
   41.480      525
   41.495      526
   41.510      549
   41.525      536
   41.540      607
   41.555      607
   41.570      603
   41.585      593
   41.600      638
   41.615      594
   41.630      622
   41.645      650
   41.660      642
   41.675      638
   41.690      564
   41.705      549
   41.720      597
   41.735      580
   41.750      563
   41.765      574
   41.780      577
   41.795      599
   41.810      580
   41.825      554
   41.840      554
   41.855      545
   41.870      578
   41.885      514
   41.900      550
   41.915      530
   41.930      590
   41.945      575
   41.960      570
   41.975      594
   41.990      600
   42.005      565
   42.020      596
   42.035      532
   42.050      494
   42.065      560
   42.080      555
   42.095      535
   42.110      551
   42.125      537
   42.140      544
   42.155      555
   42.170      520
   42.185      523
   42.200      586
   42.215      545
   42.230      529
   42.245      521
   42.260      540
   42.275      530
   42.290      568
   42.305      549
   42.320      518
   42.335      543
   42.350      536
   42.365      538
   42.380      569
   42.395      587
   42.410      576
   42.425      530
   42.440      524
   42.455      537
   42.470      524
   42.485      505
   42.500      537
   42.515      565
   42.530      531
   42.545      528
   42.560      527
   42.575      549
   42.590      550
   42.605      547
   42.620      519
   42.635      510
   42.650      515
   42.665      549
   42.680      555
   42.695      540
   42.710      547
   42.725      514
   42.740      525
   42.755      523
   42.770      551
   42.785      530
   42.800      534
   42.815      522
   42.830      512
   42.845      508
   42.860      501
   42.875      512
   42.890      513
   42.905      542
   42.920      556
   42.935      546
   42.950      553
   42.965      570
   42.980      458
   42.995      496
   43.010      506
   43.025      541
   43.040      507
   43.055      549
   43.070      525
   43.085      446
   43.100      529
   43.115      515
   43.130      567
   43.145      540
   43.160      528
   43.175      560
   43.190      506
   43.205      505
   43.220      491
   43.235      540
   43.250      502
   43.265      504
   43.280      573
   43.295      585
   43.310      559
   43.325      515
   43.340      543
   43.355      510
   43.370      547
   43.385      491
   43.400      485
   43.415      470
   43.430      514
   43.445      518
   43.460      508
   43.475      523
   43.490      513
   43.505      517
   43.520      562
   43.535      527
   43.550      547
   43.565      512
   43.580      533
   43.595      512
   43.610      522
   43.625      521
   43.640      519
   43.655      529
   43.670      523
   43.685      526
   43.700      486
   43.715      528
   43.730      476
   43.745      504
   43.760      572
   43.775      516
   43.790      475
   43.805      504
   43.820      542
   43.835      541
   43.850      499
   43.865      488
   43.880      481
   43.895      474
   43.910      487
   43.925      482
   43.940      508
   43.955      489
   43.970      485
   43.985      516
