    2.000     1566
    2.015     1601
    2.030     1685
    2.045     1766
    2.060     1585
    2.075     1730
    2.090     1611
    2.105     1576
    2.120     1590
    2.135     1547
    2.150     1578
    2.165     1607
    2.180     1551
    2.195     1462
    2.210     1547
    2.225     1570
    2.240     1502
    2.255     1547
    2.270     1467
    2.285     1469
    2.300     1437
    2.315     1403
    2.330     1385
    2.345     1416
    2.360     1444
    2.375     1466
    2.390     1399
    2.405     1387
    2.420     1460
    2.435     1477
    2.450     1440
    2.465     1416
    2.480     1309
    2.495     1267
    2.510     1350
    2.525     1412
    2.540     1366
    2.555     1421
    2.570     1407
    2.585     1348
    2.600     1370
    2.615     1334
    2.630     1291
    2.645     1375
    2.660     1324
    2.675     1298
    2.690     1330
    2.705     1367
    2.720     1359
    2.735     1263
    2.750     1229
    2.765     1205
    2.780     1269
    2.795     1334
    2.810     1341
    2.825     1281
    2.840     1271
    2.855     1346
    2.870     1294
    2.885     1276
    2.900     1311
    2.915     1333
    2.930     1269
    2.945     1303
    2.960     1306
    2.975     1317
    2.990     1299
    3.005     1238
    3.020     1277
    3.035     1313
    3.050     1285
    3.065     1356
    3.080     1300
    3.095     1188
    3.110     1235
    3.125     1289
    3.140     1229
    3.155     1285
    3.170     1246
    3.185     1310
    3.200     1294
    3.215     1245
    3.230     1227
    3.245     1236
    3.260     1313
    3.275     1258
    3.290     1287
    3.305     1290
    3.320     1252
    3.335     1297
    3.350     1278
    3.365     1234
    3.380     1274
    3.395     1215
    3.410     1222
    3.425     1222
    3.440     1318
    3.455     1269
    3.470     1276
    3.485     1239
    3.500     1318
    3.515     1258
    3.530     1150
    3.545     1201
    3.560     1204
    3.575     1254
    3.590     1220
    3.605     1268
    3.620     1280
    3.635     1237
    3.650     1207
    3.665     1286
    3.680     1257
    3.695     1239
    3.710     1214
    3.725     1307
    3.740     1185
    3.755     1198
    3.770     1173
    3.785     1202
    3.800     1236
    3.815     1304
    3.830     1246
    3.845     1266
    3.860     1195
    3.875     1284
    3.890     1244
    3.905     1190
    3.920     1238
    3.935     1196
    3.950     1175
    3.965     1183
    3.980     1202
    3.995     1229
    4.010     1270
    4.025     1172
    4.040     1204
    4.055     1213
    4.070     1272
    4.085     1320
    4.100     1282
    4.115     1250
    4.130     1204
    4.145     1226
    4.160     1191
    4.175     1248
    4.190     1186
    4.205     1231
    4.220     1279
    4.235     1248
    4.250     1168
    4.265     1182
    4.280     1299
    4.295     1270
    4.310     1159
    4.325     1156
    4.340     1249
    4.355     1279
    4.370     1313
    4.385     1270
    4.400     1180
    4.415     1191
    4.430     1262
    4.445     1302
    4.460     1220
    4.475     1206
    4.490     1264
    4.505     1270
    4.520     1217
    4.535     1169
    4.550     1198
    4.565     1226
    4.580     1187
    4.595     1175
    4.610     1215
    4.625     1224
    4.640     1204
    4.655     1168
    4.670     1202
    4.685     1229
    4.700     1176
    4.715     1207
    4.730     1226
    4.745     1215
    4.760     1200
    4.775     1206
    4.790     1231
    4.805     1216
    4.820     1240
    4.835     1222
    4.850     1147
    4.865     1222
    4.880     1201
    4.895     1187
    4.910     1204
    4.925     1212
    4.940     1286
    4.955     1244
    4.970     1207
    4.985     1265
    5.000     1258
    5.015     1259
    5.030     1173
    5.045     1140
    5.060     1185
    5.075     1176
    5.090     1203
    5.105     1153
    5.120     1178
    5.135     1152
    5.150     1244
    5.165     1198
    5.180     1206
    5.195     1195
    5.210     1311
    5.225     1271
    5.240     1186
    5.255     1133
    5.270     1211
    5.285     1205
    5.300     1223
    5.315     1191
    5.330     1190
    5.345     1184
    5.360     1210
    5.375     1198
    5.390     1227
    5.405     1136
    5.420     1229
    5.435     1242
    5.450     1255
    5.465     1239
    5.480     1157
    5.495     1144
    5.510     1186
    5.525     1184
    5.540     1235
    5.555     1208
    5.570     1214
    5.585     1141
    5.600     1195
    5.615     1135
    5.630     1198
    5.645     1246
    5.660     1144
    5.675     1218
    5.690     1230
    5.705     1240
    5.720     1236
    5.735     1259
    5.750     1334
    5.765     1297
    5.780     1170
    5.795     1263
    5.810     1138
    5.825     1178
    5.840     1239
    5.855     1217
    5.870     1258
    5.885     1177
    5.900     1167
    5.915     1156
    5.930     1202
    5.945     1182
    5.960     1177
    5.975     1209
    5.990     1212
    6.005     1233
    6.020     1224
    6.035     1199
    6.050     1182
    6.065     1169
    6.080     1120
    6.095     1132
    6.110     1182
    6.125     1187
    6.140     1161
    6.155     1180
    6.170     1193
    6.185     1267
    6.200     1196
    6.215     1227
    6.230     1205
    6.245     1183
    6.260     1124
    6.275     1157
    6.290     1201
    6.305     1197
    6.320     1158
    6.335     1156
    6.350     1135
    6.365     1220
    6.380     1263
    6.395     1219
    6.410     1216
    6.425     1169
    6.440     1151
    6.455     1193
    6.470     1227
    6.485     1185
    6.500     1172
    6.515     1250
    6.530     1209
    6.545     1205
    6.560     1198
    6.575     1213
    6.590     1200
    6.605     1227
    6.620     1237
    6.635     1165
    6.650     1172
    6.665     1206
    6.680     1198
    6.695     1172
    6.710     1167
    6.725     1189
    6.740     1233
    6.755     1192
    6.770     1198
    6.785     1232
    6.800     1258
    6.815     1221
    6.830     1235
    6.845     1203
    6.860     1169
    6.875     1198
    6.890     1269
    6.905     1171
    6.920     1219
    6.935     1181
    6.950     1270
    6.965     1293
    6.980     1210
    6.995     1275
    7.010     1216
    7.025     1304
    7.040     1227
    7.055     1216
    7.070     1235
    7.085     1171
    7.100     1255
    7.115     1291
    7.130     1289
    7.145     1206
    7.160     1161
    7.175     1277
    7.190     1269
    7.205     1244
    7.220     1153
    7.235     1251
    7.250     1269
    7.265     1125
    7.280     1139
    7.295     1194
    7.310     1148
    7.325     1206
    7.340     1196
    7.355     1190
    7.370     1200
    7.385     1210
    7.400     1173
    7.415     1264
    7.430     1262
    7.445     1199
    7.460     1258
    7.475     1207
    7.490     1214
    7.505     1231
    7.520     1215
    7.535     1262
    7.550     1227
    7.565     1221
    7.580     1183
    7.595     1235
    7.610     1320
    7.625     1264
    7.640     1218
    7.655     1289
    7.670     1256
    7.685     1230
    7.700     1242
    7.715     1206
    7.730     1195
    7.745     1175
    7.760     1314
    7.775     1195
    7.790     1171
    7.805     1277
    7.820     1270
    7.835     1317
    7.850     1290
    7.865     1270
    7.880     1226
    7.895     1191
    7.910     1233
    7.925     1260
    7.940     1265
    7.955     1278
    7.970     1259
    7.985     1189
    8.000     1214
    8.015     1268
    8.030     1277
    8.045     1263
    8.060     1240
    8.075     1258
    8.090     1249
    8.105     1243
    8.120     1225
    8.135     1245
    8.150     1248
    8.165     1239
    8.180     1187
    8.195     1193
    8.210     1228
    8.225     1232
    8.240     1225
    8.255     1263
    8.270     1266
    8.285     1266
    8.300     1231
    8.315     1219
    8.330     1320
    8.345     1341
    8.360     1290
    8.375     1258
    8.390     1275
    8.405     1275
    8.420     1336
    8.435     1270
    8.450     1217
    8.465     1303
    8.480     1284
    8.495     1197
    8.510     1236
    8.525     1261
    8.540     1245
    8.555     1269
    8.570     1274
    8.585     1203
    8.600     1177
    8.615     1258
    8.630     1231
    8.645     1249
    8.660     1246
    8.675     1251
    8.690     1271
    8.705     1323
    8.720     1280
    8.735     1202
    8.750     1192
    8.765     1159
    8.780     1189
    8.795     1208
    8.810     1259
    8.825     1297
    8.840     1281
    8.855     1345
    8.870     1270
    8.885     1302
    8.900     1297
    8.915     1282
    8.930     1277
    8.945     1319
    8.960     1285
    8.975     1252
    8.990     1244
    9.005     1314
    9.020     1344
    9.035     1337
    9.050     1425
    9.065     1490
    9.080     1480
    9.095     1481
    9.110     1547
    9.125     1620
    9.140     1609
    9.155     1754
    9.170     1908
    9.185     2105
    9.200     2321
    9.215     2482
    9.230     2758
    9.245     3050
    9.260     3385
    9.275     3119
    9.290     2967
    9.305     2532
    9.320     2064
    9.335     1693
    9.350     1530
    9.365     1352
    9.380     1312
    9.395     1352
    9.410     1369
    9.425     1429
    9.440     1451
    9.455     1381
    9.470     1444
    9.485     1537
    9.500     1538
    9.515     1601
    9.530     1614
    9.545     1690
    9.560     1610
    9.575     1597
    9.590     1579
    9.605     1462
    9.620     1458
    9.635     1358
    9.650     1305
    9.665     1327
    9.680     1342
    9.695     1343
    9.710     1282
    9.725     1345
    9.740     1330
    9.755     1256
    9.770     1255
    9.785     1335
    9.800     1315
    9.815     1326
    9.830     1300
    9.845     1273
    9.860     1247
    9.875     1308
    9.890     1305
    9.905     1283
    9.920     1336
    9.935     1344
    9.950     1243
    9.965     1246
    9.980     1287
    9.995     1277
   10.010     1271
   10.025     1260
   10.040     1295
   10.055     1259
   10.070     1329
   10.085     1322
   10.100     1353
   10.115     1359
   10.130     1239
   10.145     1288
   10.160     1279
   10.175     1309
   10.190     1304
   10.205     1330
   10.220     1374
   10.235     1373
   10.250     1293
   10.265     1308
   10.280     1376
   10.295     1350
   10.310     1274
   10.325     1310
   10.340     1324
   10.355     1315
   10.370     1391
   10.385     1425
   10.400     1349
   10.415     1356
   10.430     1353
   10.445     1359
   10.460     1343
   10.475     1334
   10.490     1290
   10.505     1317
   10.520     1320
   10.535     1342
   10.550     1329
   10.565     1363
   10.580     1363
   10.595     1345
   10.610     1341
   10.625     1356
   10.640     1349
   10.655     1333
   10.670     1268
   10.685     1284
   10.700     1296
   10.715     1401
   10.730     1391
   10.745     1368
   10.760     1355
   10.775     1306
   10.790     1314
   10.805     1334
   10.820     1319
   10.835     1311
   10.850     1320
   10.865     1346
   10.880     1341
   10.895     1340
   10.910     1352
   10.925     1352
   10.940     1350
   10.955     1349
   10.970     1398
   10.985     1421
   11.000     1358
   11.015     1434
   11.030     1426
   11.045     1281
   11.060     1331
   11.075     1364
   11.090     1355
   11.105     1332
   11.120     1386
   11.135     1364
   11.150     1342
   11.165     1308
   11.180     1302
   11.195     1337
   11.210     1360
   11.225     1417
   11.240     1331
   11.255     1278
   11.270     1372
   11.285     1404
   11.300     1340
   11.315     1347
   11.330     1357
   11.345     1396
   11.360     1428
   11.375     1363
   11.390     1431
   11.405     1423
   11.420     1373
   11.435     1388
   11.450     1395
   11.465     1373
   11.480     1308
   11.495     1268
   11.510     1392
   11.525     1365
   11.540     1400
   11.555     1416
   11.570     1344
   11.585     1231
   11.600     1396
   11.615     1357
   11.630     1397
   11.645     1402
   11.660     1329
   11.675     1439
   11.690     1380
   11.705     1413
   11.720     1501
   11.735     1385
   11.750     1457
   11.765     1483
   11.780     1390
   11.795     1448
   11.810     1380
   11.825     1433
   11.840     1404
   11.855     1411
   11.870     1457
   11.885     1381
   11.900     1381
   11.915     1297
   11.930     1376
   11.945     1398
   11.960     1384
   11.975     1408
   11.990     1446
   12.005     1397
   12.020     1436
   12.035     1408
   12.050     1370
   12.065     1383
   12.080     1354
   12.095     1355
   12.110     1435
   12.125     1373
   12.140     1319
   12.155     1332
   12.170     1384
   12.185     1429
   12.200     1440
   12.215     1431
   12.230     1440
   12.245     1444
   12.260     1356
   12.275     1348
   12.290     1415
   12.305     1485
   12.320     1445
   12.335     1492
   12.350     1469
   12.365     1619
   12.380     1652
   12.395     1686
   12.410     1773
   12.425     1814
   12.440     1845
   12.455     1978
   12.470     1967
   12.485     1801
   12.500     1760
   12.515     1687
   12.530     1531
   12.545     1423
   12.560     1442
   12.575     1496
   12.590     1434
   12.605     1454
   12.620     1519
   12.635     1476
   12.650     1499
   12.665     1529
   12.680     1460
   12.695     1435
   12.710     1502
   12.725     1457
   12.740     1478
   12.755     1416
   12.770     1525
   12.785     1437
   12.800     1593
   12.815     1513
   12.830     1530
   12.845     1499
   12.860     1495
   12.875     1479
   12.890     1582
   12.905     1480
   12.920     1574
   12.935     1488
   12.950     1527
   12.965     1622
   12.980     1543
   12.995     1494
   13.010     1538
   13.025     1507
   13.040     1546
   13.055     1553
   13.070     1556
   13.085     1479
   13.100     1569
   13.115     1564
   13.130     1650
   13.145     1488
   13.160     1515
   13.175     1565
   13.190     1647
   13.205     1531
   13.220     1499
   13.235     1496
   13.250     1515
   13.265     1566
   13.280     1634
   13.295     1527
   13.310     1407
   13.325     1485
   13.340     1510
   13.355     1510
   13.370     1528
   13.385     1500
   13.400     1465
   13.415     1517
   13.430     1577
   13.445     1562
   13.460     1612
   13.475     1561
   13.490     1486
   13.505     1580
   13.520     1535
   13.535     1544
   13.550     1593
   13.565     1523
   13.580     1589
   13.595     1602
   13.610     1575
   13.625     1669
   13.640     1599
   13.655     1609
   13.670     1640
   13.685     1596
   13.700     1649
   13.715     1626
   13.730     1678
   13.745     1713
   13.760     1861
   13.775     1801
   13.790     1720
   13.805     1883
   13.820     1873
   13.835     1802
   13.850     1829
   13.865     1722
   13.880     1582
   13.895     1614
   13.910     1629
   13.925     1608
   13.940     1624
   13.955     1649
   13.970     1612
   13.985     1560
   14.000     1601
   14.015     1621
   14.030     1722
   14.045     1712
   14.060     1706
   14.075     1725
   14.090     1637
   14.105     1685
   14.120     1678
   14.135     1674
   14.150     1683
   14.165     1668
   14.180     1634
   14.195     1721
   14.210     1688
   14.225     1724
   14.240     1689
   14.255     1699
   14.270     1664
   14.285     1704
   14.300     1717
   14.315     1642
   14.330     1703
   14.345     1797
   14.360     1816
   14.375     1782
   14.390     1787
   14.405     1743
   14.420     1773
   14.435     1748
   14.450     1700
   14.465     1749
   14.480     1689
   14.495     1689
   14.510     1718
   14.525     1731
   14.540     1697
   14.555     1760
   14.570     1802
   14.585     1791
   14.600     1707
   14.615     1750
   14.630     1715
   14.645     1737
   14.660     1785
   14.675     1829
   14.690     1814
   14.705     1820
   14.720     1839
   14.735     1764
   14.750     1721
   14.765     1674
   14.780     1658
   14.795     1739
   14.810     1791
   14.825     1808
   14.840     1788
   14.855     1863
   14.870     1804
   14.885     1909
   14.900     1868
   14.915     1896
   14.930     1781
   14.945     1831
   14.960     1840
   14.975     1830
   14.990     1759
   15.005     1744
   15.020     1836
   15.035     1841
   15.050     1817
   15.065     1971
   15.080     1926
   15.095     1825
   15.110     1921
   15.125     1913
   15.140     1771
   15.155     1835
   15.170     1842
   15.185     1969
   15.200     1928
   15.215     1895
   15.230     1828
   15.245     1876
   15.260     1944
   15.275     1879
   15.290     1914
   15.305     1907
   15.320     1900
   15.335     1972
   15.350     1975
   15.365     1886
   15.380     1849
   15.395     1886
   15.410     1839
   15.425     1948
   15.440     1991
   15.455     1931
   15.470     1863
   15.485     2060
   15.500     2052
   15.515     1964
   15.530     1889
   15.545     1937
   15.560     1870
   15.575     1910
   15.590     1958
   15.605     2025
   15.620     2055
   15.635     2033
   15.650     1939
   15.665     2089
   15.680     2178
   15.695     2101
   15.710     2036
   15.725     2097
   15.740     2045
   15.755     2054
   15.770     1971
   15.785     1997
   15.800     2196
   15.815     2272
   15.830     2198
   15.845     2063
   15.860     2086
   15.875     2197
   15.890     2272
   15.905     2183
   15.920     2318
   15.935     2354
   15.950     2241
   15.965     2232
   15.980     2313
   15.995     2302
   16.010     2278
   16.025     2162
   16.040     2199
   16.055     2108
   16.070     2160
   16.085     2213
   16.100     2297
   16.115     2247
   16.130     2132
   16.145     2156
   16.160     2140
   16.175     2252
   16.190     2135
   16.205     2163
   16.220     2225
   16.235     2276
   16.250     2223
   16.265     2201
   16.280     2317
   16.295     2259
   16.310     2241
   16.325     2195
   16.340     2299
   16.355     2295
   16.370     2376
   16.385     2475
   16.400     2349
   16.415     2386
   16.430     2542
   16.445     2625
   16.460     2650
   16.475     2740
   16.490     2642
   16.505     2621
   16.520     2543
   16.535     2426
   16.550     2398
   16.565     2407
   16.580     2402
   16.595     2380
   16.610     2308
   16.625     2329
   16.640     2438
   16.655     2342
   16.670     2236
   16.685     2289
   16.700     2316
   16.715     2457
   16.730     2455
   16.745     2418
   16.760     2516
   16.775     2456
   16.790     2465
   16.805     2487
   16.820     2529
   16.835     2509
   16.850     2526
   16.865     2597
   16.880     2564
   16.895     2470
   16.910     2565
   16.925     2570
   16.940     2562
   16.955     2470
   16.970     2519
   16.985     2587
   17.000     2511
   17.015     2608
   17.030     2495
   17.045     2466
   17.060     2574
   17.075     2526
   17.090     2462
   17.105     2387
   17.120     2437
   17.135     2483
   17.150     2608
   17.165     2697
   17.180     2530
   17.195     2604
   17.210     2636
   17.225     2715
   17.240     2493
   17.255     2444
   17.270     2612
   17.285     2666
   17.300     2667
   17.315     2608
   17.330     2661
   17.345     2648
   17.360     2772
   17.375     2701
   17.390     2769
   17.405     2753
   17.420     2627
   17.435     2839
   17.450     2872
   17.465     2829
   17.480     2583
   17.495     2635
   17.510     2775
   17.525     2731
   17.540     2719
   17.555     2835
   17.570     2661
   17.585     2621
   17.600     2695
   17.615     2715
   17.630     2679
   17.645     2847
   17.660     2800
   17.675     2888
   17.690     2795
   17.705     2845
   17.720     2941
   17.735     2769
   17.750     2875
   17.765     3007
   17.780     2759
   17.795     2898
   17.810     2824
   17.825     2835
   17.840     2852
   17.855     2833
   17.870     2901
   17.885     2721
   17.900     2849
   17.915     2659
   17.930     2823
   17.945     2826
   17.960     2824
   17.975     2921
   17.990     2911
   18.005     2867
   18.020     2950
   18.035     2905
   18.050     2892
   18.065     2960
   18.080     2850
   18.095     2738
   18.110     2826
   18.125     2866
   18.140     2830
   18.155     2870
   18.170     2933
   18.185     2991
   18.200     2921
   18.215     2929
   18.230     2998
   18.245     2966
   18.260     2920
   18.275     2866
   18.290     2956
   18.305     3026
   18.320     2932
   18.335     2853
   18.350     2807
   18.365     3028
   18.380     3177
   18.395     3098
   18.410     3037
   18.425     2883
   18.440     2889
   18.455     3074
   18.470     3087
   18.485     3001
   18.500     3075
   18.515     3137
   18.530     3157
   18.545     3079
   18.560     3089
   18.575     3329
   18.590     3445
   18.605     3505
   18.620     3818
   18.635     3895
   18.650     4078
   18.665     4338
   18.680     4266
   18.695     4016
   18.710     3740
   18.725     3578
   18.740     3366
   18.755     3245
   18.770     3203
   18.785     3106
   18.800     3167
   18.815     3142
   18.830     3272
   18.845     3326
   18.860     3236
   18.875     3189
   18.890     3297
   18.905     3250
   18.920     3346
   18.935     3210
   18.950     3202
   18.965     3417
   18.980     3203
   18.995     3280
   19.010     3126
   19.025     3196
   19.040     3301
   19.055     3291
   19.070     3266
   19.085     3129
   19.100     3334
   19.115     3177
   19.130     3484
   19.145     3175
   19.160     3075
   19.175     3265
   19.190     3380
   19.205     3354
   19.220     3442
   19.235     3479
   19.250     3371
   19.265     3344
   19.280     3413
   19.295     3357
   19.310     3097
   19.325     3181
   19.340     3259
   19.355     3281
   19.370     3148
   19.385     3157
   19.400     3165
   19.415     3188
   19.430     3436
   19.445     3126
   19.460     3319
   19.475     3137
   19.490     3043
   19.505     3205
   19.520     3178
   19.535     3129
   19.550     3207
   19.565     3087
   19.580     3181
   19.595     3176
   19.610     3275
   19.625     3429
   19.640     3160
   19.655     3225
   19.670     3265
   19.685     3257
   19.700     3208
   19.715     3229
   19.730     3097
   19.745     3174
   19.760     3495
   19.775     3291
   19.790     3147
   19.805     3285
   19.820     3405
   19.835     3455
   19.850     3341
   19.865     3282
   19.880     3101
   19.895     3151
   19.910     3201
   19.925     3139
   19.940     3144
   19.955     3111
   19.970     3122
   19.985     3081
   20.000     3176
   20.015     3204
   20.030     3312
   20.045     3314
   20.060     3201
   20.075     3377
   20.090     3192
   20.105     3148
   20.120     3091
   20.135     3068
   20.150     3155
   20.165     3230
   20.180     3117
   20.195     3076
   20.210     3194
   20.225     3151
   20.240     3087
   20.255     3282
   20.270     3172
   20.285     3231
   20.300     3142
   20.315     2982
   20.330     3079
   20.345     3195
   20.360     3165
   20.375     3121
   20.390     3160
   20.405     3173
   20.420     3207
   20.435     3251
   20.450     3106
   20.465     3141
   20.480     3102
   20.495     2981
   20.510     3030
   20.525     3085
   20.540     3057
   20.555     3173
   20.570     3299
   20.585     3148
   20.600     2980
   20.615     3026
   20.630     2991
   20.645     3099
   20.660     3003
   20.675     2971
   20.690     3026
   20.705     3194
   20.720     3204
   20.735     3019
   20.750     2929
   20.765     2856
   20.780     2860
   20.795     2995
   20.810     3080
   20.825     3091
   20.840     3057
   20.855     3275
   20.870     3226
   20.885     3246
   20.900     3149
   20.915     3137
   20.930     3041
   20.945     3106
   20.960     3102
   20.975     3015
   20.990     2880
   21.005     2833
   21.020     2991
   21.035     2984
   21.050     2987
   21.065     3192
   21.080     3121
   21.095     2940
   21.110     3035
   21.125     3144
   21.140     2948
   21.155     3030
   21.170     3088
   21.185     3087
   21.200     3201
   21.215     3068
   21.230     3018
   21.245     3008
   21.260     3169
   21.275     2957
   21.290     2958
   21.305     2973
   21.320     2955
   21.335     2961
   21.350     2925
   21.365     2801
   21.380     2824
   21.395     2939
   21.410     2802
   21.425     2919
   21.440     2954
   21.455     2788
   21.470     2891
   21.485     3088
   21.500     3075
   21.515     2950
   21.530     2919
   21.545     2786
   21.560     2712
   21.575     2926
   21.590     2810
   21.605     2993
   21.620     3011
   21.635     3041
   21.650     2943
   21.665     3031
   21.680     3269
   21.695     3217
   21.710     3252
   21.725     3530
   21.740     3448
   21.755     3483
   21.770     3232
   21.785     3085
   21.800     3183
   21.815     3143
   21.830     3024
   21.845     2813
   21.860     2705
   21.875     2946
   21.890     2920
   21.905     2697
   21.920     2786
   21.935     3003
   21.950     2783
   21.965     2671
   21.980     2694
   21.995     2737
   22.010     2816
   22.025     2669
   22.040     2686
   22.055     2666
   22.070     2796
   22.085     2820
   22.100     2971
   22.115     2828
   22.130     2601
   22.145     2749
   22.160     2799
   22.175     2754
   22.190     2672
   22.205     2753
   22.220     2816
   22.235     2776
   22.250     2680
   22.265     2610
   22.280     2891
   22.295     2784
   22.310     2677
   22.325     2571
   22.340     2711
   22.355     2689
   22.370     2766
   22.385     2768
   22.400     2560
   22.415     2570
   22.430     2685
   22.445     2776
   22.460     2683
   22.475     2697
   22.490     2667
   22.505     2634
   22.520     2665
   22.535     2584
   22.550     2599
   22.565     2638
   22.580     2582
   22.595     2518
   22.610     2532
   22.625     2688
   22.640     2736
   22.655     2589
   22.670     2488
   22.685     2585
   22.700     2549
   22.715     2614
   22.730     2572
   22.745     2504
   22.760     2573
   22.775     2571
   22.790     2574
   22.805     2543
   22.820     2555
   22.835     2552
   22.850     2481
   22.865     2564
   22.880     2569
   22.895     2477
   22.910     2563
   22.925     2542
   22.940     2645
   22.955     2569
   22.970     2532
   22.985     2570
   23.000     2499
   23.015     2541
   23.030     2483
   23.045     2425
   23.060     2515
   23.075     2441
   23.090     2451
   23.105     2332
   23.120     2416
   23.135     2474
   23.150     2527
   23.165     2577
   23.180     2463
   23.195     2499
   23.210     2512
   23.225     2548
   23.240     2365
   23.255     2380
   23.270     2465
   23.285     2592
   23.300     2456
   23.315     2439
   23.330     2450
   23.345     2447
   23.360     2389
   23.375     2369
   23.390     2569
   23.405     2457
   23.420     2422
   23.435     2541
   23.450     2474
   23.465     2410
   23.480     2309
   23.495     2321
   23.510     2382
   23.525     2314
   23.540     2414
   23.555     2531
   23.570     2372
   23.585     2235
   23.600     2319
   23.615     2313
   23.630     2334
   23.645     2477
   23.660     2352
   23.675     2366
   23.690     2342
   23.705     2396
   23.720     2462
   23.735     2305
   23.750     2379
   23.765     2494
   23.780     2380
   23.795     2502
   23.810     2459
   23.825     2452
   23.840     2412
   23.855     2365
   23.870     2351
   23.885     2166
   23.900     2263
   23.915     2190
   23.930     2331
   23.945     2244
   23.960     2286
   23.975     2322
   23.990     2268
   24.005     2241
   24.020     2350
   24.035     2212
   24.050     2128
   24.065     2167
   24.080     2152
   24.095     2125
   24.110     2233
   24.125     2191
   24.140     2125
   24.155     2155
   24.170     2218
   24.185     2219
   24.200     2141
   24.215     2154
   24.230     2169
   24.245     2038
   24.260     2064
   24.275     2109
   24.290     2161
   24.305     2220
   24.320     2160
   24.335     2166
   24.350     2144
   24.365     2236
   24.380     2281
   24.395     2233
   24.410     2209
   24.425     2089
   24.440     2077
   24.455     2126
   24.470     2131
   24.485     2155
   24.500     2123
   24.515     2183
   24.530     2160
   24.545     2114
   24.560     2131
   24.575     2214
   24.590     2188
   24.605     2147
   24.620     2272
   24.635     2131
   24.650     2135
   24.665     2204
   24.680     2155
   24.695     2135
   24.710     2171
   24.725     2174
   24.740     2093
   24.755     2062
   24.770     2076
   24.785     2144
   24.800     2213
   24.815     2155
   24.830     2168
   24.845     2202
   24.860     2135
   24.875     2160
   24.890     2141
   24.905     2176
   24.920     2209
   24.935     2005
   24.950     2181
   24.965     2212
   24.980     2139
   24.995     2211
   25.010     2072
   25.025     2141
   25.040     2068
   25.055     2050
   25.070     2223
   25.085     2021
   25.100     2183
   25.115     2265
   25.130     2288
   25.145     2184
   25.160     2084
   25.175     2109
   25.190     2099
   25.205     2054
   25.220     2010
   25.235     2027
   25.250     2103
   25.265     1980
   25.280     2071
   25.295     2114
   25.310     1927
   25.325     1951
   25.340     1971
   25.355     1970
   25.370     2084
   25.385     2051
   25.400     2012
   25.415     1991
   25.430     2050
   25.445     2047
   25.460     2150
   25.475     2005
   25.490     2006
   25.505     2016
   25.520     2104
   25.535     1996
   25.550     2038
   25.565     1957
   25.580     1937
   25.595     1961
   25.610     2037
   25.625     2038
   25.640     1923
   25.655     2021
   25.670     2057
   25.685     2068
   25.700     2073
   25.715     2119
   25.730     2061
   25.745     2187
   25.760     2328
   25.775     2096
   25.790     1934
   25.805     2065
   25.820     2081
   25.835     2168
   25.850     2032
   25.865     1964
   25.880     1905
   25.895     1946
   25.910     2009
   25.925     1992
   25.940     2055
   25.955     1997
   25.970     2083
   25.985     2084
   26.000     2101
   26.015     2019
   26.030     2123
   26.045     2079
   26.060     1994
   26.075     2120
   26.090     2017
   26.105     1949
   26.120     1868
   26.135     1928
   26.150     1924
   26.165     1921
   26.180     1882
   26.195     1931
   26.210     1955
   26.225     1909
   26.240     1900
   26.255     1918
   26.270     1960
   26.285     2008
   26.300     1959
   26.315     1841
   26.330     1878
   26.345     1972
   26.360     1957
   26.375     1891
   26.390     1888
   26.405     1871
   26.420     1866
   26.435     1956
   26.450     1911
   26.465     1886
   26.480     1880
   26.495     1859
   26.510     1876
   26.525     1838
   26.540     1845
   26.555     1890
   26.570     1910
   26.585     1900
   26.600     1839
   26.615     1869
   26.630     1783
   26.645     1852
   26.660     1832
   26.675     1852
   26.690     1875
   26.705     1891
   26.720     1852
   26.735     1781
   26.750     1750
   26.765     1708
   26.780     1763
   26.795     1800
   26.810     1820
   26.825     1815
   26.840     1857
   26.855     1992
   26.870     1856
   26.885     1852
   26.900     1800
   26.915     1865
   26.930     1771
   26.945     1827
   26.960     1865
   26.975     1809
   26.990     1768
   27.005     1685
   27.020     1777
   27.035     1855
   27.050     1824
   27.065     1893
   27.080     1853
   27.095     1758
   27.110     1782
   27.125     1848
   27.140     1767
   27.155     1815
   27.170     1851
   27.185     1869
   27.200     1820
   27.215     1781
   27.230     1651
   27.245     1729
   27.260     1868
   27.275     1727
   27.290     1764
   27.305     1775
   27.320     1768
   27.335     1752
   27.350     1805
   27.365     1711
   27.380     1730
   27.395     1750
   27.410     1769
   27.425     1830
   27.440     1839
   27.455     1737
   27.470     1723
   27.485     1740
   27.500     1752
   27.515     1794
   27.530     1776
   27.545     1686
   27.560     1597
   27.575     1673
   27.590     1684
   27.605     1723
   27.620     1767
   27.635     1727
   27.650     1667
   27.665     1783
   27.680     1849
   27.695     1784
   27.710     1643
   27.725     1779
   27.740     1722
   27.755     1704
   27.770     1664
   27.785     1652
   27.800     1788
   27.815     1856
   27.830     1806
   27.845     1742
   27.860     1712
   27.875     1811
   27.890     1835
   27.905     1767
   27.920     1786
   27.935     1766
   27.950     1680
   27.965     1665
   27.980     1697
   27.995     1678
   28.010     1702
   28.025     1626
   28.040     1730
   28.055     1651
   28.070     1678
   28.085     1705
   28.100     1820
   28.115     1722
   28.130     1691
   28.145     1738
   28.160     1731
   28.175     1807
   28.190     1758
   28.205     1829
   28.220     1879
   28.235     1897
   28.250     1783
   28.265     1692
   28.280     1742
   28.295     1700
   28.310     1605
   28.325     1598
   28.340     1656
   28.355     1709
   28.370     1706
   28.385     1716
   28.400     1654
   28.415     1666
   28.430     1704
   28.445     1707
   28.460     1638
   28.475     1629
   28.490     1633
   28.505     1644
   28.520     1622
   28.535     1642
   28.550     1650
   28.565     1665
   28.580     1652
   28.595     1661
   28.610     1615
   28.625     1654
   28.640     1617
   28.655     1553
   28.670     1596
   28.685     1632
   28.700     1578
   28.715     1679
   28.730     1666
   28.745     1559
   28.760     1620
   28.775     1540
   28.790     1545
   28.805     1591
   28.820     1591
   28.835     1587
   28.850     1593
   28.865     1595
   28.880     1634
   28.895     1646
   28.910     1604
   28.925     1547
   28.940     1593
   28.955     1637
   28.970     1622
   28.985     1593
   29.000     1550
   29.015     1594
   29.030     1544
   29.045     1496
   29.060     1590
   29.075     1553
   29.090     1540
   29.105     1539
   29.120     1519
   29.135     1549
   29.150     1625
   29.165     1617
   29.180     1565
   29.195     1568
   29.210     1573
   29.225     1610
   29.240     1482
   29.255     1501
   29.270     1551
   29.285     1587
   29.300     1527
   29.315     1547
   29.330     1564
   29.345     1483
   29.360     1538
   29.375     1497
   29.390     1563
   29.405     1610
   29.420     1532
   29.435     1596
   29.450     1594
   29.465     1552
   29.480     1473
   29.495     1440
   29.510     1529
   29.525     1506
   29.540     1545
   29.555     1703
   29.570     1555
   29.585     1437
   29.600     1554
   29.615     1476
   29.630     1526
   29.645     1544
   29.660     1502
   29.675     1562
   29.690     1428
   29.705     1542
   29.720     1556
   29.735     1487
   29.750     1573
   29.765     1580
   29.780     1509
   29.795     1610
   29.810     1499
   29.825     1476
   29.840     1500
   29.855     1497
   29.870     1496
   29.885     1426
   29.900     1468
   29.915     1393
   29.930     1543
   29.945     1409
   29.960     1354
   29.975     1444
   29.990     1508
   30.005     1462
   30.020     1473
   30.035     1426
   30.050     1371
   30.065     1420
   30.080     1388
   30.095     1392
   30.110     1411
   30.125     1394
   30.140     1354
   30.155     1356
   30.170     1410
   30.185     1443
   30.200     1412
   30.215     1423
   30.230     1442
   30.245     1437
   30.260     1405
   30.275     1348
   30.290     1409
   30.305     1466
   30.320     1391
   30.335     1361
   30.350     1364
   30.365     1428
   30.380     1469
   30.395     1487
   30.410     1397
   30.425     1354
   30.440     1391
   30.455     1439
   30.470     1411
   30.485     1393
   30.500     1353
   30.515     1452
   30.530     1416
   30.545     1338
   30.560     1331
   30.575     1403
   30.590     1464
   30.605     1487
   30.620     1507
   30.635     1512
   30.650     1504
   30.665     1584
   30.680     1557
   30.695     1539
   30.710     1504
   30.725     1558
   30.740     1477
   30.755     1460
   30.770     1505
   30.785     1479
   30.800     1496
   30.815     1436
   30.830     1436
   30.845     1382
   30.860     1413
   30.875     1407
   30.890     1453
   30.905     1335
   30.920     1385
   30.935     1320
   30.950     1444
   30.965     1386
   30.980     1407
   30.995     1364
   31.010     1314
   31.025     1419
   31.040     1434
   31.055     1388
   31.070     1379
   31.085     1312
   31.100     1409
   31.115     1399
   31.130     1406
   31.145     1345
   31.160     1306
   31.175     1323
   31.190     1369
   31.205     1398
   31.220     1307
   31.235     1329
   31.250     1316
   31.265     1301
   31.280     1346
   31.295     1299
   31.310     1225
   31.325     1221
   31.340     1332
   31.355     1304
   31.370     1375
   31.385     1328
   31.400     1285
   31.415     1295
   31.430     1271
   31.445     1220
   31.460     1343
   31.475     1315
   31.490     1300
   31.505     1288
   31.520     1320
   31.535     1276
   31.550     1210
   31.565     1281
   31.580     1336
   31.595     1324
   31.610     1427
   31.625     1392
   31.640     1272
   31.655     1276
   31.670     1312
   31.685     1304
   31.700     1260
   31.715     1246
   31.730     1217
   31.745     1262
   31.760     1341
   31.775     1274
   31.790     1242
   31.805     1306
   31.820     1317
   31.835     1362
   31.850     1278
   31.865     1256
   31.880     1212
   31.895     1224
   31.910     1291
   31.925     1252
   31.940     1244
   31.955     1182
   31.970     1183
   31.985     1258
   32.000     1237
   32.015     1255
   32.030     1325
   32.045     1283
   32.060     1239
   32.075     1323
   32.090     1245
   32.105     1228
   32.120     1208
   32.135     1227
   32.150     1260
   32.165     1266
   32.180     1219
   32.195     1230
   32.210     1226
   32.225     1260
   32.240     1230
   32.255     1312
   32.270     1317
   32.285     1308
   32.300     1268
   32.315     1234
   32.330     1344
   32.345     1368
   32.360     1351
   32.375     1346
   32.390     1353
   32.405     1367
   32.420     1381
   32.435     1358
   32.450     1270
   32.465     1230
   32.480     1184
   32.495     1143
   32.510     1181
   32.525     1208
   32.540     1235
   32.555     1308
   32.570     1313
   32.585     1200
   32.600     1209
   32.615     1265
   32.630     1232
   32.645     1238
   32.660     1186
   32.675     1186
   32.690     1238
   32.705     1270
   32.720     1268
   32.735     1169
   32.750     1107
   32.765     1103
   32.780     1117
   32.795     1146
   32.810     1197
   32.825     1170
   32.840     1129
   32.855     1196
   32.870     1200
   32.885     1246
   32.900     1203
   32.915     1196
   32.930     1156
   32.945     1166
   32.960     1198
   32.975     1199
   32.990     1123
   33.005     1104
   33.020     1162
   33.035     1152
   33.050     1156
   33.065     1215
   33.080     1175
   33.095     1087
   33.110     1150
   33.125     1160
   33.140     1100
   33.155     1190
   33.170     1144
   33.185     1148
   33.200     1184
   33.215     1146
   33.230     1150
   33.245     1104
   33.260     1147
   33.275     1089
   33.290     1171
   33.305     1166
   33.320     1116
   33.335     1136
   33.350     1271
   33.365     1219
   33.380     1207
   33.395     1172
   33.410     1159
   33.425     1173
   33.440     1223
   33.455     1225
   33.470     1203
   33.485     1194
   33.500     1169
   33.515     1157
   33.530     1098
   33.545     1100
   33.560     1110
   33.575     1078
   33.590     1116
   33.605     1147
   33.620     1108
   33.635     1116
   33.650     1057
   33.665     1175
   33.680     1171
   33.695     1081
   33.710     1043
   33.725     1158
   33.740     1125
   33.755     1143
   33.770     1095
   33.785     1084
   33.800     1126
   33.815     1172
   33.830     1130
   33.845     1073
   33.860     1071
   33.875     1116
   33.890     1156
   33.905     1076
   33.920     1091
   33.935     1098
   33.950     1070
   33.965     1074
   33.980     1079
   33.995     1083
   34.010     1168
   34.025     1043
   34.040     1057
   34.055     1074
   34.070     1101
   34.085     1130
   34.100     1174
   34.115     1160
   34.130     1143
   34.145     1130
   34.160     1149
   34.175     1166
   34.190     1130
   34.205     1168
   34.220     1149
   34.235     1074
   34.250     1090
   34.265     1034
   34.280     1095
   34.295     1048
   34.310     1028
   34.325     1055
   34.340     1094
   34.355     1142
   34.370     1159
   34.385     1125
   34.400     1130
   34.415     1113
   34.430     1136
   34.445     1149
   34.460     1065
   34.475     1030
   34.490     1036
   34.505     1065
   34.520     1102
   34.535     1058
   34.550     1090
   34.565     1082
   34.580     1076
   34.595     1064
   34.610     1026
   34.625     1012
   34.640     1031
   34.655     1062
   34.670     1052
   34.685     1087
   34.700     1034
   34.715     1038
   34.730     1048
   34.745     1001
   34.760     1040
   34.775     1023
   34.790     1050
   34.805     1043
   34.820     1006
   34.835     1026
   34.850      997
   34.865     1045
   34.880     1059
   34.895     1018
   34.910     1043
   34.925     1046
   34.940     1043
   34.955     1032
   34.970     1079
   34.985     1102
   35.000     1018
   35.015     1068
   35.030     1043
   35.045     1000
   35.060     1013
   35.075     1013
   35.090     1000
   35.105      986
   35.120     1016
   35.135     1027
   35.150     1042
   35.165     1018
   35.180      974
   35.195      982
   35.210     1061
   35.225     1049
   35.240      955
   35.255     1005
   35.270     1030
   35.285     1023
   35.300     1003
   35.315     1017
   35.330     1026
   35.345     1047
   35.360     1057
   35.375     1002
   35.390     1073
   35.405      978
   35.420     1001
   35.435     1039
   35.450      998
   35.465     1001
   35.480      963
   35.495      931
   35.510      983
   35.525      958
   35.540     1044
   35.555     1043
   35.570     1029
   35.585      946
   35.600      943
   35.615      933
   35.630      972
   35.645     1021
   35.660     1044
   35.675     1088
   35.690     1022
   35.705      983
   35.720     1017
   35.735     1014
   35.750     1066
   35.765     1038
   35.780      932
   35.795      988
   35.810      955
   35.825      965
   35.840      981
   35.855      955
   35.870      983
   35.885      929
   35.900      942
   35.915      946
   35.930      984
   35.945      970
   35.960      972
   35.975      999
   35.990      995
   36.005     1002
   36.020      999
   36.035      972
   36.050      897
   36.065      906
   36.080      912
   36.095      938
   36.110      985
   36.125      972
   36.140      919
   36.155      937
   36.170      946
   36.185      957
   36.200      938
   36.215      922
   36.230      930
   36.245      908
   36.260      934
   36.275      900
   36.290      939
   36.305      975
   36.320      923
   36.335      942
   36.350      887
   36.365      935
   36.380      952
   36.395      962
   36.410      953
   36.425      928
   36.440      897
   36.455      932
   36.470      932
   36.485      892
   36.500      857
   36.515      932
   36.530      877
   36.545      909
   36.560      925
   36.575      939
   36.590      936
   36.605      950
   36.620      992
   36.635      972
   36.650      914
   36.665      923
   36.680      946
   36.695      969
   36.710      990
   36.725     1023
   36.740      984
   36.755      925
   36.770      971
   36.785      954
   36.800     1011
   36.815      954
   36.830      954
   36.845      881
   36.860      925
   36.875      916
   36.890      960
   36.905      959
   36.920      943
   36.935      875
   36.950      932
   36.965     1043
   36.980      930
   36.995      896
   37.010      918
   37.025      955
   37.040      911
   37.055      936
   37.070      971
   37.085      907
   37.100      986
   37.115      921
   37.130      998
   37.145      934
   37.160      881
   37.175      927
   37.190      939
   37.205      907
   37.220      931
   37.235      957
   37.250      919
   37.265      914
   37.280      940
   37.295      887
   37.310      908
   37.325      923
   37.340      894
   37.355      926
   37.370      923
   37.385      893
   37.400      847
   37.415      853
   37.430      921
   37.445      925
   37.460      958
   37.475      922
   37.490      929
   37.505      957
   37.520      906
   37.535      945
   37.550      948
   37.565      922
   37.580      971
   37.595      897
   37.610      909
   37.625      965
   37.640      870
   37.655      934
   37.670      931
   37.685      888
   37.700      843
   37.715      891
   37.730      859
   37.745      895
   37.760      963
   37.775      907
   37.790      847
   37.805      925
   37.820      975
   37.835     1030
   37.850      970
   37.865      944
   37.880      892
   37.895      939
   37.910      957
   37.925      987
   37.940      956
   37.955      931
   37.970      957
   37.985      946
   38.000      939
   38.015      915
   38.030      911
   38.045      905
   38.060      862
   38.075      940
   38.090      924
   38.105      871
   38.120      847
   38.135      844
   38.150      942
   38.165      961
   38.180      917
   38.195      914
   38.210      914
   38.225      957
   38.240      901
   38.255      889
   38.270      864
   38.285      883
   38.300      875
   38.315      873
   38.330      914
   38.345      916
   38.360      947
   38.375      925
   38.390      894
   38.405      927
   38.420      903
   38.435      904
   38.450      870
   38.465      874
   38.480      862
   38.495      855
   38.510      883
   38.525      898
   38.540      867
   38.555      908
   38.570      936
   38.585      886
   38.600      829
   38.615      875
   38.630      867
   38.645      902
   38.660      902
   38.675      877
   38.690      885
   38.705      917
   38.720      897
   38.735      857
   38.750      852
   38.765      838
   38.780      839
   38.795      867
   38.810      889
   38.825      893
   38.840      847
   38.855      868
   38.870      886
   38.885      905
   38.900      874
   38.915      908
   38.930      833
   38.945      874
   38.960      861
   38.975      875
   38.990      861
   39.005      810
   39.020      838
   39.035      880
   39.050      848
   39.065      911
   39.080      910
   39.095      887
   39.110      886
   39.125      898
   39.140      852
   39.155      861
   39.170      899
   39.185      885
   39.200      881
   39.215      891
   39.230      826
   39.245      814
   39.260      898
   39.275      813
   39.290      853
   39.305      840
   39.320      852
   39.335      893
   39.350      864
   39.365      833
   39.380      825
   39.395      832
   39.410      871
   39.425      885
   39.440      890
   39.455      896
   39.470      890
   39.485      901
   39.500      865
   39.515      873
   39.530      842
   39.545      845
   39.560      841
   39.575      855
   39.590      869
   39.605      886
   39.620      902
   39.635      864
   39.650      800
   39.665      877
   39.680      923
   39.695      860
   39.710      829
   39.725      918
   39.740      833
   39.755      839
   39.770      858
   39.785      868
   39.800      904
   39.815      893
   39.830      845
   39.845      876
   39.860      813
   39.875      900
   39.890      914
   39.905      856
   39.920      879
   39.935      886
   39.950      856
   39.965      828
   39.980      829
   39.995      917
   40.010      918
   40.025      812
   40.040      834
   40.055      822
   40.070      863
   40.085      844
   40.100      905
   40.115      890
   40.130      819
   40.145      849
   40.160      852
   40.175      867
   40.190      841
   40.205      845
   40.220      889
   40.235      847
   40.250      816
   40.265      829
   40.280      874
   40.295      850
   40.310      824
   40.325      826
   40.340      831
   40.355      836
   40.370      865
   40.385      876
   40.400      833
   40.415      854
   40.430      879
   40.445      900
   40.460      890
   40.475      914
   40.490      917
   40.505      951
   40.520      921
   40.535      912
   40.550      891
   40.565      920
   40.580      901
   40.595      866
   40.610      919
   40.625      897
   40.640      864
   40.655      856
   40.670      828
   40.685      886
   40.700      852
   40.715      860
   40.730      866
   40.745      834
   40.760      833
   40.775      839
   40.790      842
   40.805      812
   40.820      828
   40.835      840
   40.850      816
   40.865      763
   40.880      819
   40.895      850
   40.910      848
   40.925      836
   40.940      870
   40.955      858
   40.970      857
   40.985      871
   41.000      819
   41.015      831
   41.030      828
   41.045      845
   41.060      867
   41.075      818
   41.090      827
   41.105      770
   41.120      791
   41.135      808
   41.150      815
   41.165      835
   41.180      858
   41.195      847
   41.210      890
   41.225      908
   41.240      835
   41.255      781
   41.270      836
   41.285      791
   41.300      813
   41.315      833
   41.330      795
   41.345      830
   41.360      835
   41.375      812
   41.390      824
   41.405      837
   41.420      830
   41.435      859
   41.450      861
   41.465      806
   41.480      753
   41.495      806
   41.510      840
   41.525      851
   41.540      893
   41.555      890
   41.570      850
   41.585      856
   41.600      896
   41.615      886
   41.630      896
   41.645      948
   41.660      923
   41.675      952
   41.690      859
   41.705      863
   41.720      864
   41.735      874
   41.750      923
   41.765      906
   41.780      804
   41.795      850
   41.810      807
   41.825      827
   41.840      843
   41.855      858
   41.870      869
   41.885      828
   41.900      820
   41.915      793
   41.930      837
   41.945      866
   41.960      845
   41.975      856
   41.990      887
   42.005      868
   42.020      861
   42.035      830
   42.050      837
   42.065      820
   42.080      811
   42.095      775
   42.110      772
   42.125      770
   42.140      778
   42.155      807
   42.170      866
   42.185      882
   42.200      880
   42.215      825
   42.230      815
   42.245      801
   42.260      817
   42.275      812
   42.290      830
   42.305      847
   42.320      829
   42.335      814
   42.350      790
   42.365      834
   42.380      882
   42.395      845
   42.410      846
   42.425      797
   42.440      786
   42.455      825
   42.470      856
   42.485      814
   42.500      813
   42.515      864
   42.530      809
   42.545      824
   42.560      810
   42.575      845
   42.590      824
   42.605      806
   42.620      871
   42.635      837
   42.650      810
   42.665      822
   42.680      806
   42.695      826
   42.710      813
   42.725      805
   42.740      803
   42.755      810
   42.770      810
   42.785      758
   42.800      867
   42.815      780
   42.830      820
   42.845      804
   42.860      822
   42.875      793
   42.890      848
   42.905      819
   42.920      852
   42.935      819
   42.950      837
   42.965      872
   42.980      801
   42.995      772
   43.010      785
   43.025      820
   43.040      781
   43.055      806
   43.070      854
   43.085      744
   43.100      855
   43.115      860
   43.130      812
   43.145      765
   43.160      809
   43.175      777
   43.190      830
   43.205      801
   43.220      781
   43.235      833
   43.250      824
   43.265      804
   43.280      854
   43.295      826
   43.310      772
   43.325      802
   43.340      798
   43.355      779
   43.370      815
   43.385      813
   43.400      782
   43.415      783
   43.430      818
   43.445      789
   43.460      825
   43.475      789
   43.490      791
   43.505      841
   43.520      794
   43.535      775
   43.550      824
   43.565      828
   43.580      790
   43.595      849
   43.610      820
   43.625      809
   43.640      779
   43.655      816
   43.670      859
   43.685      853
   43.700      800
   43.715      794
   43.730      749
   43.745      775
   43.760      854
   43.775      795
   43.790      759
   43.805      807
   43.820      811
   43.835      825
   43.850      813
   43.865      844
   43.880      765
   43.895      755
   43.910      793
   43.925      797
   43.940      774
   43.955      794
   43.970      819
   43.985      751
