    2.000      647
    2.015      696
    2.030      662
    2.045      676
    2.060      653
    2.075      680
    2.090      669
    2.105      703
    2.120      652
    2.135      675
    2.150      721
    2.165      715
    2.180      672
    2.195      690
    2.210      653
    2.225      699
    2.240      778
    2.255      748
    2.270      713
    2.285      718
    2.300      734
    2.315      699
    2.330      752
    2.345      806
    2.360      791
    2.375      766
    2.390      789
    2.405      797
    2.420      852
    2.435      954
    2.450      888
    2.465      883
    2.480      890
    2.495      919
    2.510      964
    2.525      978
    2.540      992
    2.555     1058
    2.570     1083
    2.585     1115
    2.600     1181
    2.615     1288
    2.630     1354
    2.645     1460
    2.660     1569
    2.675     1783
    2.690     1888
    2.705     1917
    2.720     1788
    2.735     1471
    2.750     1153
    2.765      931
    2.780      856
    2.795      850
    2.810      912
    2.825      920
    2.840      912
    2.855      959
    2.870     1051
    2.885     1063
    2.900     1066
    2.915     1102
    2.930     1070
    2.945     1162
    2.960     1211
    2.975     1185
    2.990     1197
    3.005     1309
    3.020     1395
    3.035     1489
    3.050     1556
    3.065     1696
    3.080     1846
    3.095     1869
    3.110     2063
    3.125     2369
    3.140     2573
    3.155     3260
    3.170     3514
    3.185     3439
    3.200     3019
    3.215     2450
    3.230     1865
    3.245     1483
    3.260     1452
    3.275     1387
    3.290     1519
    3.305     1791
    3.320     1780
    3.335     1636
    3.350     1471
    3.365     1181
    3.380      886
    3.395      734
    3.410      649
    3.425      653
    3.440      652
    3.455      696
    3.470      650
    3.485      598
    3.500      642
    3.515      662
    3.530      654
    3.545      674
    3.560      650
    3.575      652
    3.590      658
    3.605      680
    3.620      695
    3.635      709
    3.650      679
    3.665      690
    3.680      731
    3.695      678
    3.710      703
    3.725      751
    3.740      806
    3.755      780
    3.770      769
    3.785      794
    3.800      945
    3.815      972
    3.830     1007
    3.845     1018
    3.860      933
    3.875      938
    3.890      895
    3.905      705
    3.920      679
    3.935      716
    3.950      641
    3.965      656
    3.980      636
    3.995      643
    4.010      677
    4.025      676
    4.040      689
    4.055      662
    4.070      684
    4.085      728
    4.100      787
    4.115      792
    4.130      726
    4.145      782
    4.160      762
    4.175      834
    4.190      823
    4.205      903
    4.220      822
    4.235      744
    4.250      718
    4.265      676
    4.280      680
    4.295      660
    4.310      612
    4.325      575
    4.340      661
    4.355      672
    4.370      660
    4.385      663
    4.400      650
    4.415      654
    4.430      661
    4.445      673
    4.460      660
    4.475      656
    4.490      640
    4.505      661
    4.520      685
    4.535      689
    4.550      698
    4.565      719
    4.580      714
    4.595      745
    4.610      753
    4.625      771
    4.640      788
    4.655      862
    4.670      861
    4.685      905
    4.700      952
    4.715     1057
    4.730     1067
    4.745     1041
    4.760     1035
    4.775      961
    4.790      872
    4.805      803
    4.820      809
    4.835      823
    4.850      801
    4.865      833
    4.880      854
    4.895      909
    4.910      970
    4.925      991
    4.940     1026
    4.955     1066
    4.970     1186
    4.985     1321
    5.000     1523
    5.015     1787
    5.030     1652
    5.045     1450
    5.060     1331
    5.075     1079
    5.090      844
    5.105      658
    5.120      602
    5.135      653
    5.150      676
    5.165      667
    5.180      647
    5.195      666
    5.210      667
    5.225      676
    5.240      664
    5.255      632
    5.270      653
    5.285      661
    5.300      690
    5.315      704
    5.330      729
    5.345      735
    5.360      699
    5.375      733
    5.390      801
    5.405      791
    5.420      860
    5.435      873
    5.450      928
    5.465      942
    5.480      956
    5.495      981
    5.510      964
    5.525      867
    5.540      860
    5.555      810
    5.570      766
    5.585      744
    5.600      788
    5.615      722
    5.630      852
    5.645      912
    5.660      897
    5.675     1054
    5.690     1061
    5.705     1193
    5.720     1404
    5.735     1393
    5.750     1329
    5.765     1264
    5.780      995
    5.795      894
    5.810      787
    5.825      716
    5.840      704
    5.855      639
    5.870      632
    5.885      598
    5.900      647
    5.915      607
    5.930      621
    5.945      618
    5.960      605
    5.975      658
    5.990      644
    6.005      644
    6.020      639
    6.035      650
    6.050      606
    6.065      655
    6.080      609
    6.095      618
    6.110      620
    6.125      652
    6.140      638
    6.155      661
    6.170      682
    6.185      660
    6.200      640
    6.215      648
    6.230      624
    6.245      612
    6.260      617
    6.275      608
    6.290      638
    6.305      630
    6.320      615
    6.335      637
    6.350      627
    6.365      635
    6.380      654
    6.395      660
    6.410      664
    6.425      641
    6.440      602
    6.455      629
    6.470      642
    6.485      584
    6.500      619
    6.515      654
    6.530      593
    6.545      606
    6.560      596
    6.575      634
    6.590      665
    6.605      657
    6.620      628
    6.635      619
    6.650      585
    6.665      594
    6.680      652
    6.695      645
    6.710      609
    6.725      652
    6.740      653
    6.755      649
    6.770      587
    6.785      601
    6.800      635
    6.815      659
    6.830      611
    6.845      627
    6.860      623
    6.875      616
    6.890      586
    6.905      600
    6.920      647
    6.935      626
    6.950      642
    6.965      665
    6.980      703
    6.995      659
    7.010      656
    7.025      684
    7.040      692
    7.055      627
    7.070      619
    7.085      595
    7.100      641
    7.115      614
    7.130      644
    7.145      594
    7.160      603
    7.175      691
    7.190      669
    7.205      617
    7.220      648
    7.235      655
    7.250      689
    7.265      648
    7.280      707
    7.295      700
    7.310      672
    7.325      613
    7.340      624
    7.355      619
    7.370      664
    7.385      646
    7.400      613
    7.415      587
    7.430      631
    7.445      602
    7.460      627
    7.475      622
    7.490      619
    7.505      651
    7.520      600
    7.535      611
    7.550      639
    7.565      623
    7.580      645
    7.595      635
    7.610      608
    7.625      669
    7.640      615
    7.655      632
    7.670      652
    7.685      635
    7.700      647
    7.715      660
    7.730      588
    7.745      653
    7.760      654
    7.775      670
    7.790      629
    7.805      670
    7.820      659
    7.835      645
    7.850      666
    7.865      672
    7.880      650
    7.895      663
    7.910      647
    7.925      709
    7.940      745
    7.955      770
    7.970      795
    7.985      796
    8.000      762
    8.015      767
    8.030      781
    8.045      753
    8.060      696
    8.075      667
    8.090      726
    8.105      806
    8.120      774
    8.135      767
    8.150      912
    8.165      918
    8.180      921
    8.195      955
    8.210     1083
    8.225     1243
    8.240     1475
    8.255     1631
    8.270     1684
    8.285     1687
    8.300     1489
    8.315     1252
    8.330     1071
    8.345      958
    8.360      901
    8.375      920
    8.390      946
    8.405     1022
    8.420     1202
    8.435     1332
    8.450     1311
    8.465     1254
    8.480     1095
    8.495      964
    8.510      871
    8.525      797
    8.540      790
    8.555      845
    8.570      879
    8.585      855
    8.600      896
    8.615     1003
    8.630     1049
    8.645     1200
    8.660     1279
    8.675     1448
    8.690     1705
    8.705     2065
    8.720     2241
    8.735     2095
    8.750     1900
    8.765     1738
    8.780     1563
    8.795     1519
    8.810     1634
    8.825     1924
    8.840     2178
    8.855     2778
    8.870     3228
    8.885     3682
    8.900     3484
    8.915     3324
    8.930     2871
    8.945     2404
    8.960     1816
    8.975     1300
    8.990     1057
    9.005      892
    9.020      758
    9.035      709
    9.050      669
    9.065      679
    9.080      698
    9.095      638
    9.110      630
    9.125      662
    9.140      666
    9.155      717
    9.170      698
    9.185      635
    9.200      646
    9.215      665
    9.230      685
    9.245      713
    9.260      765
    9.275      757
    9.290      716
    9.305      750
    9.320      728
    9.335      746
    9.350      766
    9.365      686
    9.380      661
    9.395      634
    9.410      628
    9.425      726
    9.440      685
    9.455      697
    9.470      695
    9.485      751
    9.500      744
    9.515      794
    9.530      792
    9.545      861
    9.560      896
    9.575      893
    9.590      897
    9.605      860
    9.620      846
    9.635      833
    9.650      786
    9.665      805
    9.680      880
    9.695      830
    9.710      892
    9.725     1066
    9.740      925
    9.755      859
    9.770      794
    9.785      719
    9.800      667
    9.815      714
    9.830      687
    9.845      724
    9.860      736
    9.875      770
    9.890      817
    9.905      788
    9.920      827
    9.935      964
    9.950      990
    9.965      966
    9.980      971
    9.995      969
   10.010      929
   10.025      836
   10.040      820
   10.055      863
   10.070      912
   10.085      983
   10.100     1118
   10.115     1258
   10.130     1310
   10.145     1532
   10.160     1523
   10.175     1470
   10.190     1243
   10.205     1085
   10.220      898
   10.235      797
   10.250      715
   10.265      648
   10.280      674
   10.295      688
   10.310      659
   10.325      638
   10.340      702
   10.355      708
   10.370      698
   10.385      681
   10.400      687
   10.415      694
   10.430      758
   10.445      794
   10.460      764
   10.475      766
   10.490      773
   10.505      767
   10.520      735
   10.535      689
   10.550      690
   10.565      721
   10.580      705
   10.595      696
   10.610      714
   10.625      724
   10.640      717
   10.655      762
   10.670      742
   10.685      771
   10.700      797
   10.715      796
   10.730      789
   10.745      772
   10.760      771
   10.775      687
   10.790      668
   10.805      697
   10.820      691
   10.835      647
   10.850      671
   10.865      691
   10.880      694
   10.895      721
   10.910      725
   10.925      670
   10.940      738
   10.955      762
   10.970      767
   10.985      739
   11.000      756
   11.015      819
   11.030      853
   11.045      884
   11.060      948
   11.075      894
   11.090      859
   11.105      836
   11.120      779
   11.135      760
   11.150      768
   11.165      788
   11.180      818
   11.195      901
   11.210      911
   11.225      891
   11.240      795
   11.255      749
   11.270      806
   11.285      811
   11.300      720
   11.315      666
   11.330      657
   11.345      688
   11.360      710
   11.375      685
   11.390      672
   11.405      725
   11.420      692
   11.435      715
   11.450      712
   11.465      787
   11.480      729
   11.495      697
   11.510      766
   11.525      811
   11.540      856
   11.555      815
   11.570      811
   11.585      732
   11.600      810
   11.615      700
   11.630      687
   11.645      709
   11.660      706
   11.675      732
   11.690      683
   11.705      706
   11.720      719
   11.735      726
   11.750      756
   11.765      744
   11.780      703
   11.795      753
   11.810      685
   11.825      688
   11.840      703
   11.855      736
   11.870      745
   11.885      665
   11.900      685
   11.915      679
   11.930      681
   11.945      670
   11.960      654
   11.975      731
   11.990      705
   12.005      688
   12.020      708
   12.035      695
   12.050      713
   12.065      738
   12.080      715
   12.095      669
   12.110      675
   12.125      660
   12.140      642
   12.155      673
   12.170      710
   12.185      682
   12.200      666
   12.215      690
   12.230      695
   12.245      700
   12.260      697
   12.275      686
   12.290      686
   12.305      717
   12.320      704
   12.335      729
   12.350      721
   12.365      698
   12.380      727
   12.395      736
   12.410      743
   12.425      702
   12.440      706
   12.455      723
   12.470      736
   12.485      765
   12.500      717
   12.515      741
   12.530      708
   12.545      728
   12.560      722
   12.575      719
   12.590      698
   12.605      663
   12.620      676
   12.635      678
   12.650      697
   12.665      718
   12.680      732
   12.695      749
   12.710      744
   12.725      722
   12.740      773
   12.755      742
   12.770      702
   12.785      692
   12.800      754
   12.815      729
   12.830      781
   12.845      715
   12.860      718
   12.875      709
   12.890      770
   12.905      742
   12.920      762
   12.935      734
   12.950      766
   12.965      838
   12.980      799
   12.995      798
   13.010      795
   13.025      825
   13.040      748
   13.055      780
   13.070      750
   13.085      710
   13.100      825
   13.115      773
   13.130      783
   13.145      771
   13.160      765
   13.175      767
   13.190      741
   13.205      752
   13.220      690
   13.235      747
   13.250      735
   13.265      673
   13.280      744
   13.295      784
   13.310      732
   13.325      764
   13.340      821
   13.355      815
   13.370      817
   13.385      717
   13.400      786
   13.415      768
   13.430      725
   13.445      767
   13.460      802
   13.475      743
   13.490      758
   13.505      773
   13.520      770
   13.535      731
   13.550      725
   13.565      746
   13.580      788
   13.595      768
   13.610      747
   13.625      777
   13.640      742
   13.655      822
   13.670      789
   13.685      768
   13.700      792
   13.715      788
   13.730      793
   13.745      769
   13.760      821
   13.775      773
   13.790      736
   13.805      775
   13.820      765
   13.835      775
   13.850      801
   13.865      776
   13.880      777
   13.895      799
   13.910      781
   13.925      810
   13.940      802
   13.955      804
   13.970      821
   13.985      799
   14.000      795
   14.015      803
   14.030      836
   14.045      860
   14.060      805
   14.075      790
   14.090      761
   14.105      799
   14.120      770
   14.135      753
   14.150      801
   14.165      824
   14.180      774
   14.195      790
   14.210      820
   14.225      821
   14.240      835
   14.255      838
   14.270      825
   14.285      806
   14.300      796
   14.315      795
   14.330      802
   14.345      840
   14.360      842
   14.375      830
   14.390      797
   14.405      821
   14.420      864
   14.435      863
   14.450      799
   14.465      792
   14.480      827
   14.495      821
   14.510      826
   14.525      842
   14.540      853
   14.555      820
   14.570      821
   14.585      810
   14.600      822
   14.615      869
   14.630      836
   14.645      849
   14.660      847
   14.675      861
   14.690      867
   14.705      890
   14.720      864
   14.735      847
   14.750      794
   14.765      810
   14.780      845
   14.795      863
   14.810      891
   14.825      883
   14.840      858
   14.855      906
   14.870      869
   14.885      896
   14.900      908
   14.915      925
   14.930      840
   14.945      837
   14.960      884
   14.975      819
   14.990      816
   15.005      867
   15.020      865
   15.035      889
   15.050      917
   15.065      916
   15.080      895
   15.095      874
   15.110      918
   15.125      913
   15.140      866
   15.155      895
   15.170      911
   15.185      873
   15.200      890
   15.215      897
   15.230      881
   15.245      906
   15.260     1002
   15.275      960
   15.290      946
   15.305      988
   15.320      998
   15.335      925
   15.350      955
   15.365      930
   15.380      904
   15.395      899
   15.410      870
   15.425      926
   15.440     1003
   15.455      892
   15.470      886
   15.485      962
   15.500      990
   15.515      963
   15.530      903
   15.545      927
   15.560      919
   15.575      896
   15.590      863
   15.605      876
   15.620      908
   15.635      932
   15.650      899
   15.665      963
   15.680     1005
   15.695      926
   15.710      935
   15.725     1046
   15.740     1030
   15.755      967
   15.770      960
   15.785      997
   15.800     1044
   15.815     1031
   15.830     1043
   15.845      983
   15.860      964
   15.875     1037
   15.890     1003
   15.905      982
   15.920     1024
   15.935     1065
   15.950     1048
   15.965     1100
   15.980     1105
   15.995     1087
   16.010     1134
   16.025     1075
   16.040     1069
   16.055     1068
   16.070     1053
   16.085     1116
   16.100     1122
   16.115     1102
   16.130     1021
   16.145     1042
   16.160     1065
   16.175     1180
   16.190     1130
   16.205     1216
   16.220     1273
   16.235     1329
   16.250     1332
   16.265     1398
   16.280     1547
   16.295     1581
   16.310     1506
   16.325     1449
   16.340     1363
   16.355     1241
   16.370     1161
   16.385     1153
   16.400     1080
   16.415     1077
   16.430     1084
   16.445     1143
   16.460     1111
   16.475     1114
   16.490     1118
   16.505     1103
   16.520     1099
   16.535     1112
   16.550     1062
   16.565     1094
   16.580     1086
   16.595     1113
   16.610     1133
   16.625     1153
   16.640     1179
   16.655     1225
   16.670     1247
   16.685     1229
   16.700     1163
   16.715     1208
   16.730     1189
   16.745     1106
   16.760     1135
   16.775     1106
   16.790     1125
   16.805     1119
   16.820     1099
   16.835     1091
   16.850     1093
   16.865     1169
   16.880     1172
   16.895     1174
   16.910     1197
   16.925     1170
   16.940     1175
   16.955     1202
   16.970     1243
   16.985     1244
   17.000     1291
   17.015     1245
   17.030     1231
   17.045     1217
   17.060     1235
   17.075     1141
   17.090     1190
   17.105     1127
   17.120     1138
   17.135     1204
   17.150     1213
   17.165     1199
   17.180     1172
   17.195     1319
   17.210     1367
   17.225     1342
   17.240     1277
   17.255     1233
   17.270     1336
   17.285     1284
   17.300     1169
   17.315     1134
   17.330     1150
   17.345     1162
   17.360     1183
   17.375     1180
   17.390     1256
   17.405     1357
   17.420     1340
   17.435     1401
   17.450     1405
   17.465     1325
   17.480     1299
   17.495     1288
   17.510     1250
   17.525     1243
   17.540     1266
   17.555     1408
   17.570     1277
   17.585     1264
   17.600     1313
   17.615     1293
   17.630     1397
   17.645     1502
   17.660     1485
   17.675     1592
   17.690     1585
   17.705     1572
   17.720     1567
   17.735     1457
   17.750     1471
   17.765     1414
   17.780     1311
   17.795     1410
   17.810     1376
   17.825     1315
   17.840     1354
   17.855     1389
   17.870     1382
   17.885     1326
   17.900     1370
   17.915     1323
   17.930     1363
   17.945     1312
   17.960     1298
   17.975     1276
   17.990     1242
   18.005     1282
   18.020     1282
   18.035     1297
   18.050     1221
   18.065     1288
   18.080     1299
   18.095     1265
   18.110     1310
   18.125     1322
   18.140     1271
   18.155     1274
   18.170     1276
   18.185     1276
   18.200     1277
   18.215     1289
   18.230     1319
   18.245     1307
   18.260     1306
   18.275     1307
   18.290     1343
   18.305     1372
   18.320     1416
   18.335     1336
   18.350     1333
   18.365     1380
   18.380     1378
   18.395     1348
   18.410     1355
   18.425     1363
   18.440     1385
   18.455     1433
   18.470     1402
   18.485     1467
   18.500     1471
   18.515     1564
   18.530     1562
   18.545     1595
   18.560     1614
   18.575     1635
   18.590     1573
   18.605     1511
   18.620     1586
   18.635     1510
   18.650     1442
   18.665     1547
   18.680     1607
   18.695     1572
   18.710     1615
   18.725     1644
   18.740     1621
   18.755     1645
   18.770     1657
   18.785     1478
   18.800     1464
   18.815     1439
   18.830     1399
   18.845     1383
   18.860     1290
   18.875     1261
   18.890     1374
   18.905     1393
   18.920     1340
   18.935     1366
   18.950     1342
   18.965     1403
   18.980     1432
   18.995     1393
   19.010     1334
   19.025     1368
   19.040     1346
   19.055     1339
   19.070     1323
   19.085     1228
   19.100     1448
   19.115     1386
   19.130     1417
   19.145     1293
   19.160     1283
   19.175     1436
   19.190     1401
   19.205     1331
   19.220     1341
   19.235     1362
   19.250     1345
   19.265     1327
   19.280     1329
   19.295     1364
   19.310     1350
   19.325     1416
   19.340     1432
   19.355     1456
   19.370     1477
   19.385     1391
   19.400     1402
   19.415     1413
   19.430     1372
   19.445     1288
   19.460     1424
   19.475     1322
   19.490     1363
   19.505     1458
   19.520     1386
   19.535     1302
   19.550     1363
   19.565     1371
   19.580     1459
   19.595     1366
   19.610     1385
   19.625     1432
   19.640     1319
   19.655     1365
   19.670     1404
   19.685     1312
   19.700     1400
   19.715     1385
   19.730     1299
   19.745     1378
   19.760     1450
   19.775     1402
   19.790     1424
   19.805     1464
   19.820     1489
   19.835     1509
   19.850     1404
   19.865     1368
   19.880     1311
   19.895     1304
   19.910     1374
   19.925     1352
   19.940     1351
   19.955     1382
   19.970     1393
   19.985     1383
   20.000     1406
   20.015     1366
   20.030     1445
   20.045     1409
   20.060     1333
   20.075     1363
   20.090     1382
   20.105     1406
   20.120     1322
   20.135     1331
   20.150     1412
   20.165     1367
   20.180     1292
   20.195     1318
   20.210     1312
   20.225     1359
   20.240     1366
   20.255     1354
   20.270     1304
   20.285     1361
   20.300     1286
   20.315     1263
   20.330     1339
   20.345     1364
   20.360     1365
   20.375     1344
   20.390     1320
   20.405     1317
   20.420     1384
   20.435     1427
   20.450     1373
   20.465     1370
   20.480     1379
   20.495     1317
   20.510     1283
   20.525     1351
   20.540     1319
   20.555     1331
   20.570     1336
   20.585     1289
   20.600     1241
   20.615     1310
   20.630     1303
   20.645     1338
   20.660     1285
   20.675     1301
   20.690     1324
   20.705     1346
   20.720     1346
   20.735     1266
   20.750     1247
   20.765     1252
   20.780     1306
   20.795     1272
   20.810     1280
   20.825     1315
   20.840     1257
   20.855     1361
   20.870     1303
   20.885     1284
   20.900     1296
   20.915     1334
   20.930     1305
   20.945     1337
   20.960     1352
   20.975     1308
   20.990     1221
   21.005     1248
   21.020     1309
   21.035     1321
   21.050     1345
   21.065     1407
   21.080     1340
   21.095     1281
   21.110     1264
   21.125     1342
   21.140     1294
   21.155     1373
   21.170     1335
   21.185     1336
   21.200     1364
   21.215     1312
   21.230     1264
   21.245     1297
   21.260     1464
   21.275     1360
   21.290     1304
   21.305     1370
   21.320     1360
   21.335     1297
   21.350     1390
   21.365     1260
   21.380     1256
   21.395     1333
   21.410     1224
   21.425     1290
   21.440     1361
   21.455     1357
   21.470     1344
   21.485     1364
   21.500     1381
   21.515     1368
   21.530     1268
   21.545     1281
   21.560     1198
   21.575     1231
   21.590     1202
   21.605     1228
   21.620     1256
   21.635     1228
   21.650     1155
   21.665     1298
   21.680     1313
   21.695     1233
   21.710     1242
   21.725     1344
   21.740     1361
   21.755     1283
   21.770     1209
   21.785     1197
   21.800     1300
   21.815     1293
   21.830     1316
   21.845     1299
   21.860     1211
   21.875     1225
   21.890     1259
   21.905     1178
   21.920     1203
   21.935     1202
   21.950     1190
   21.965     1192
   21.980     1219
   21.995     1216
   22.010     1282
   22.025     1239
   22.040     1237
   22.055     1231
   22.070     1234
   22.085     1238
   22.100     1339
   22.115     1282
   22.130     1204
   22.145     1240
   22.160     1206
   22.175     1200
   22.190     1165
   22.205     1261
   22.220     1238
   22.235     1238
   22.250     1193
   22.265     1150
   22.280     1288
   22.295     1228
   22.310     1157
   22.325     1154
   22.340     1212
   22.355     1192
   22.370     1238
   22.385     1267
   22.400     1200
   22.415     1243
   22.430     1294
   22.445     1271
   22.460     1252
   22.475     1239
   22.490     1189
   22.505     1247
   22.520     1262
   22.535     1254
   22.550     1300
   22.565     1271
   22.580     1248
   22.595     1216
   22.610     1231
   22.625     1253
   22.640     1221
   22.655     1208
   22.670     1153
   22.685     1135
   22.700     1173
   22.715     1242
   22.730     1233
   22.745     1161
   22.760     1121
   22.775     1115
   22.790     1158
   22.805     1216
   22.820     1181
   22.835     1162
   22.850     1211
   22.865     1168
   22.880     1168
   22.895     1197
   22.910     1214
   22.925     1192
   22.940     1191
   22.955     1150
   22.970     1165
   22.985     1131
   23.000     1160
   23.015     1180
   23.030     1132
   23.045     1186
   23.060     1182
   23.075     1110
   23.090     1101
   23.105     1131
   23.120     1134
   23.135     1133
   23.150     1158
   23.165     1118
   23.180     1083
   23.195     1130
   23.210     1166
   23.225     1172
   23.240     1110
   23.255     1055
   23.270     1122
   23.285     1116
   23.300     1172
   23.315     1137
   23.330     1139
   23.345     1099
   23.360     1127
   23.375     1176
   23.390     1306
   23.405     1288
   23.420     1256
   23.435     1313
   23.450     1359
   23.465     1204
   23.480     1224
   23.495     1118
   23.510     1194
   23.525     1115
   23.540     1219
   23.555     1191
   23.570     1148
   23.585     1131
   23.600     1148
   23.615     1075
   23.630     1153
   23.645     1152
   23.660     1108
   23.675     1166
   23.690     1011
   23.705     1058
   23.720     1110
   23.735     1147
   23.750     1181
   23.765     1232
   23.780     1142
   23.795     1139
   23.810     1128
   23.825     1130
   23.840     1148
   23.855     1181
   23.870     1152
   23.885     1143
   23.900     1188
   23.915     1202
   23.930     1212
   23.945     1167
   23.960     1125
   23.975     1134
   23.990     1113
   24.005     1156
   24.020     1122
   24.035     1129
   24.050     1035
   24.065     1105
   24.080     1121
   24.095     1108
   24.110     1128
   24.125     1156
   24.140     1116
   24.155     1161
   24.170     1163
   24.185     1116
   24.200     1116
   24.215     1145
   24.230     1157
   24.245     1116
   24.260     1118
   24.275     1046
   24.290     1097
   24.305     1094
   24.320     1025
   24.335     1080
   24.350     1063
   24.365     1105
   24.380     1225
   24.395     1227
   24.410     1241
   24.425     1205
   24.440     1222
   24.455     1274
   24.470     1267
   24.485     1258
   24.500     1141
   24.515     1170
   24.530     1140
   24.545     1131
   24.560     1169
   24.575     1239
   24.590     1167
   24.605     1110
   24.620     1056
   24.635     1112
   24.650     1050
   24.665     1082
   24.680     1087
   24.695     1081
   24.710     1111
   24.725     1152
   24.740     1103
   24.755     1097
   24.770     1095
   24.785     1050
   24.800     1117
   24.815     1071
   24.830     1060
   24.845     1027
   24.860     1059
   24.875     1014
   24.890     1089
   24.905     1080
   24.920     1049
   24.935      981
   24.950      987
   24.965     1054
   24.980     1018
   24.995      981
   25.010      999
   25.025     1077
   25.040     1047
   25.055     1080
   25.070     1154
   25.085     1008
   25.100     1205
   25.115     1111
   25.130     1188
   25.145     1145
   25.160     1020
   25.175     1058
   25.190     1077
   25.205     1093
   25.220     1061
   25.235     1102
   25.250     1049
   25.265     1061
   25.280     1136
   25.295     1051
   25.310      998
   25.325     1030
   25.340     1112
   25.355     1087
   25.370     1163
   25.385     1134
   25.400     1087
   25.415     1116
   25.430     1074
   25.445     1001
   25.460     1048
   25.475      969
   25.490      976
   25.505      975
   25.520      938
   25.535      986
   25.550      964
   25.565      983
   25.580     1042
   25.595      984
   25.610     1032
   25.625     1018
   25.640      996
   25.655      972
   25.670      963
   25.685     1021
   25.700     1055
   25.715      948
   25.730      942
   25.745      975
   25.760     1053
   25.775      980
   25.790      948
   25.805      998
   25.820      985
   25.835     1058
   25.850     1010
   25.865      978
   25.880      962
   25.895      967
   25.910      940
   25.925      969
   25.940      950
   25.955      998
   25.970      994
   25.985      967
   26.000      982
   26.015      977
   26.030     1004
   26.045     1056
   26.060     1043
   26.075     1042
   26.090      990
   26.105     1004
   26.120      992
   26.135      973
   26.150     1020
   26.165     1002
   26.180      942
   26.195      943
   26.210      990
   26.225      975
   26.240      974
   26.255      982
   26.270      996
   26.285      997
   26.300      958
   26.315      957
   26.330      964
   26.345      960
   26.360      946
   26.375      957
   26.390      943
   26.405      963
   26.420     1026
   26.435      994
   26.450      942
   26.465      981
   26.480      960
   26.495      911
   26.510      937
   26.525      990
   26.540      981
   26.555      978
   26.570      972
   26.585     1018
   26.600      996
   26.615     1039
   26.630     1034
   26.645     1048
   26.660     1015
   26.675      975
   26.690      948
   26.705      979
   26.720      964
   26.735      929
   26.750      930
   26.765      907
   26.780      916
   26.795      937
   26.810      946
   26.825      958
   26.840      944
   26.855      990
   26.870      956
   26.885      959
   26.900      958
   26.915     1010
   26.930      959
   26.945      929
   26.960      955
   26.975      962
   26.990      937
   27.005      952
   27.020      969
   27.035      996
   27.050      968
   27.065      970
   27.080      943
   27.095      910
   27.110      895
   27.125      908
   27.140      881
   27.155      991
   27.170      995
   27.185      969
   27.200     1046
   27.215      979
   27.230      974
   27.245      955
   27.260     1010
   27.275      959
   27.290      922
   27.305      978
   27.320      938
   27.335      960
   27.350      938
   27.365      924
   27.380      933
   27.395      995
   27.410      897
   27.425      951
   27.440      914
   27.455      905
   27.470      927
   27.485      941
   27.500      977
   27.515      975
   27.530      936
   27.545      955
   27.560      889
   27.575      868
   27.590      896
   27.605      962
   27.620      962
   27.635      962
   27.650      925
   27.665      944
   27.680     1038
   27.695      944
   27.710      901
   27.725      988
   27.740     1022
   27.755      990
   27.770      956
   27.785      924
   27.800      993
   27.815     1043
   27.830      992
   27.845      972
   27.860      973
   27.875      994
   27.890      964
   27.905      891
   27.920      924
   27.935      925
   27.950      917
   27.965      829
   27.980      867
   27.995      872
   28.010      904
   28.025      890
   28.040      886
   28.055      868
   28.070      912
   28.085      961
   28.100      971
   28.115      926
   28.130      888
   28.145      959
   28.160      927
   28.175      918
   28.190      892
   28.205      927
   28.220      933
   28.235      910
   28.250      903
   28.265      832
   28.280      942
   28.295      923
   28.310      834
   28.325      831
   28.340      931
   28.355      909
   28.370      943
   28.385     1003
   28.400      985
   28.415      952
   28.430      928
   28.445      975
   28.460      910
   28.475      934
   28.490      917
   28.505      878
   28.520      870
   28.535      888
   28.550      869
   28.565      932
   28.580      894
   28.595      861
   28.610      910
   28.625      905
   28.640      924
   28.655      926
   28.670      919
   28.685      893
   28.700      878
   28.715      945
   28.730      918
   28.745      904
   28.760      909
   28.775      888
   28.790      903
   28.805      936
   28.820      905
   28.835      869
   28.850      834
   28.865      860
   28.880      930
   28.895      926
   28.910      882
   28.925      872
   28.940      872
   28.955      898
   28.970      863
   28.985      903
   29.000      923
   29.015      911
   29.030      834
   29.045      838
   29.060      861
   29.075      897
   29.090      867
   29.105      856
   29.120      796
   29.135      848
   29.150      817
   29.165      910
   29.180      866
   29.195      879
   29.210      863
   29.225      954
   29.240      864
   29.255      854
   29.270      884
   29.285      843
   29.300      843
   29.315      839
   29.330      860
   29.345      853
   29.360      857
   29.375      828
   29.390      854
   29.405      858
   29.420      862
   29.435      853
   29.450      846
   29.465      852
   29.480      839
   29.495      867
   29.510      841
   29.525      827
   29.540      855
   29.555      853
   29.570      817
   29.585      773
   29.600      819
   29.615      813
   29.630      845
   29.645      862
   29.660      832
   29.675      841
   29.690      818
   29.705      830
   29.720      836
   29.735      857
   29.750      873
   29.765      888
   29.780      788
   29.795      879
   29.810      860
   29.825      838
   29.840      805
   29.855      827
   29.870      825
   29.885      801
   29.900      840
   29.915      785
   29.930      868
   29.945      834
   29.960      846
   29.975      841
   29.990      864
   30.005      869
   30.020      868
   30.035      787
   30.050      782
   30.065      789
   30.080      821
   30.095      788
   30.110      755
   30.125      815
   30.140      813
   30.155      789
   30.170      811
   30.185      834
   30.200      833
   30.215      813
   30.230      800
   30.245      793
   30.260      777
   30.275      791
   30.290      813
   30.305      809
   30.320      829
   30.335      797
   30.350      791
   30.365      806
   30.380      856
   30.395      801
   30.410      828
   30.425      826
   30.440      825
   30.455      864
   30.470      841
   30.485      801
   30.500      795
   30.515      809
   30.530      737
   30.545      722
   30.560      777
   30.575      781
   30.590      764
   30.605      774
   30.620      788
   30.635      763
   30.650      767
   30.665      785
   30.680      770
   30.695      817
   30.710      801
   30.725      768
   30.740      802
   30.755      800
   30.770      802
   30.785      745
   30.800      816
   30.815      802
   30.830      801
   30.845      793
   30.860      792
   30.875      788
   30.890      841
   30.905      816
   30.920      794
   30.935      791
   30.950      816
   30.965      838
   30.980      803
   30.995      805
   31.010      772
   31.025      808
   31.040      787
   31.055      793
   31.070      831
   31.085      761
   31.100      822
   31.115      760
   31.130      834
   31.145      823
   31.160      783
   31.175      784
   31.190      740
   31.205      754
   31.220      724
   31.235      824
   31.250      753
   31.265      708
   31.280      774
   31.295      804
   31.310      756
   31.325      751
   31.340      733
   31.355      758
   31.370      819
   31.385      782
   31.400      769
   31.415      763
   31.430      748
   31.445      756
   31.460      782
   31.475      759
   31.490      768
   31.505      787
   31.520      756
   31.535      782
   31.550      783
   31.565      793
   31.580      786
   31.595      788
   31.610      800
   31.625      828
   31.640      710
   31.655      762
   31.670      780
   31.685      762
   31.700      774
   31.715      714
   31.730      690
   31.745      763
   31.760      768
   31.775      722
   31.790      698
   31.805      746
   31.820      772
   31.835      742
   31.850      730
   31.865      739
   31.880      726
   31.895      727
   31.910      753
   31.925      773
   31.940      730
   31.955      750
   31.970      764
   31.985      763
   32.000      688
   32.015      728
   32.030      793
   32.045      781
   32.060      753
   32.075      778
   32.090      733
   32.105      765
   32.120      782
   32.135      743
   32.150      771
   32.165      801
   32.180      732
   32.195      718
   32.210      752
   32.225      750
   32.240      757
   32.255      771
   32.270      719
   32.285      716
   32.300      759
   32.315      692
   32.330      690
   32.345      748
   32.360      791
   32.375      789
   32.390      766
   32.405      757
   32.420      761
   32.435      800
   32.450      818
   32.465      845
   32.480      830
   32.495      799
   32.510      782
   32.525      798
   32.540      805
   32.555      822
   32.570      791
   32.585      780
   32.600      765
   32.615      809
   32.630      783
   32.645      803
   32.660      800
   32.675      751
   32.690      791
   32.705      777
   32.720      737
   32.735      745
   32.750      717
   32.765      676
   32.780      660
   32.795      710
   32.810      729
   32.825      763
   32.840      752
   32.855      773
   32.870      747
   32.885      777
   32.900      777
   32.915      766
   32.930      683
   32.945      715
   32.960      790
   32.975      748
   32.990      742
   33.005      767
   33.020      745
   33.035      764
   33.050      753
   33.065      740
   33.080      713
   33.095      680
   33.110      742
   33.125      721
   33.140      693
   33.155      743
   33.170      651
   33.185      728
   33.200      743
   33.215      685
   33.230      678
   33.245      721
   33.260      721
   33.275      707
   33.290      714
   33.305      721
   33.320      699
   33.335      721
   33.350      734
   33.365      741
   33.380      730
   33.395      711
   33.410      704
   33.425      704
   33.440      698
   33.455      688
   33.470      701
   33.485      733
   33.500      780
   33.515      732
   33.530      723
   33.545      716
   33.560      700
   33.575      710
   33.590      720
   33.605      691
   33.620      709
   33.635      767
   33.650      696
   33.665      728
   33.680      752
   33.695      702
   33.710      705
   33.725      758
   33.740      755
   33.755      711
   33.770      693
   33.785      688
   33.800      737
   33.815      756
   33.830      713
   33.845      732
   33.860      692
   33.875      736
   33.890      723
   33.905      686
   33.920      735
   33.935      741
   33.950      720
   33.965      750
   33.980      728
   33.995      732
   34.010      731
   34.025      663
   34.040      676
   34.055      670
   34.070      667
   34.085      686
   34.100      712
   34.115      688
   34.130      678
   34.145      670
   34.160      673
   34.175      655
   34.190      631
   34.205      695
   34.220      674
   34.235      659
   34.250      655
   34.265      662
   34.280      714
   34.295      681
   34.310      656
   34.325      640
   34.340      706
   34.355      675
   34.370      693
   34.385      739
   34.400      686
   34.415      702
   34.430      729
   34.445      709
   34.460      684
   34.475      696
   34.490      677
   34.505      669
   34.520      681
   34.535      686
   34.550      678
   34.565      672
   34.580      646
   34.595      658
   34.610      654
   34.625      666
   34.640      690
   34.655      651
   34.670      612
   34.685      606
   34.700      616
   34.715      651
   34.730      643
   34.745      640
   34.760      666
   34.775      651
   34.790      628
   34.805      641
   34.820      659
   34.835      642
   34.850      630
   34.865      645
   34.880      668
   34.895      650
   34.910      637
   34.925      659
   34.940      673
   34.955      656
   34.970      688
   34.985      646
   35.000      657
   35.015      646
   35.030      610
   35.045      607
   35.060      630
   35.075      617
   35.090      648
   35.105      636
   35.120      611
   35.135      658
   35.150      674
   35.165      660
   35.180      608
   35.195      658
   35.210      647
   35.225      596
   35.240      598
   35.255      629
   35.270      663
   35.285      676
   35.300      662
   35.315      613
   35.330      618
   35.345      670
   35.360      666
   35.375      604
   35.390      642
   35.405      664
   35.420      621
   35.435      592
   35.450      643
   35.465      649
   35.480      590
   35.495      618
   35.510      574
   35.525      605
   35.540      689
   35.555      669
   35.570      645
   35.585      624
   35.600      640
   35.615      598
   35.630      629
   35.645      683
   35.660      601
   35.675      644
   35.690      617
   35.705      625
   35.720      651
   35.735      577
   35.750      585
   35.765      602
   35.780      622
   35.795      621
   35.810      620
   35.825      584
   35.840      608
   35.855      607
   35.870      619
   35.885      596
   35.900      604
   35.915      578
   35.930      615
   35.945      604
   35.960      587
   35.975      608
   35.990      655
   36.005      607
   36.020      617
   36.035      628
   36.050      601
   36.065      601
   36.080      601
   36.095      609
   36.110      600
   36.125      599
   36.140      580
   36.155      581
   36.170      581
   36.185      583
   36.200      587
   36.215      601
   36.230      614
   36.245      611
   36.260      574
   36.275      590
   36.290      589
   36.305      585
   36.320      592
   36.335      576
   36.350      596
   36.365      621
   36.380      608
   36.395      592
   36.410      617
   36.425      610
   36.440      595
   36.455      607
   36.470      637
   36.485      618
   36.500      606
   36.515      615
   36.530      590
   36.545      567
   36.560      616
   36.575      625
   36.590      590
   36.605      592
   36.620      597
   36.635      537
   36.650      515
   36.665      591
   36.680      583
   36.695      598
   36.710      603
   36.725      560
   36.740      629
   36.755      647
   36.770      630
   36.785      579
   36.800      581
   36.815      604
   36.830      622
   36.845      554
   36.860      566
   36.875      588
   36.890      645
   36.905      635
   36.920      570
   36.935      607
   36.950      605
   36.965      598
   36.980      641
   36.995      576
   37.010      615
   37.025      611
   37.040      611
   37.055      599
   37.070      590
   37.085      548
   37.100      613
   37.115      582
   37.130      584
   37.145      590
   37.160      585
   37.175      603
   37.190      593
   37.205      545
   37.220      569
   37.235      564
   37.250      587
   37.265      594
   37.280      598
   37.295      601
   37.310      555
   37.325      570
   37.340      600
   37.355      566
   37.370      608
   37.385      568
   37.400      599
   37.415      600
   37.430      572
   37.445      541
   37.460      595
   37.475      580
   37.490      552
   37.505      582
   37.520      599
   37.535      544
   37.550      587
   37.565      579
   37.580      604
   37.595      600
   37.610      580
   37.625      589
   37.640      557
   37.655      536
   37.670      589
   37.685      577
   37.700      599
   37.715      592
   37.730      569
   37.745      611
   37.760      618
   37.775      583
   37.790      553
   37.805      643
   37.820      629
   37.835      581
   37.850      562
   37.865      584
   37.880      559
   37.895      593
   37.910      562
   37.925      550
   37.940      554
   37.955      536
   37.970      556
   37.985      536
   38.000      545
   38.015      559
   38.030      602
   38.045      580
   38.060      599
   38.075      600
   38.090      572
   38.105      642
   38.120      590
   38.135      541
   38.150      616
   38.165      604
   38.180      578
   38.195      582
   38.210      582
   38.225      600
   38.240      597
   38.255      597
   38.270      557
   38.285      576
   38.300      587
   38.315      574
   38.330      583
   38.345      627
   38.360      608
   38.375      574
   38.390      589
   38.405      553
   38.420      590
   38.435      614
   38.450      570
   38.465      564
   38.480      581
   38.495      563
   38.510      562
   38.525      570
   38.540      566
   38.555      583
   38.570      580
   38.585      563
   38.600      555
   38.615      582
   38.630      580
   38.645      556
   38.660      554
   38.675      551
   38.690      517
   38.705      560
   38.720      578
   38.735      555
   38.750      534
   38.765      579
   38.780      559
   38.795      564
   38.810      578
   38.825      569
   38.840      542
   38.855      576
   38.870      598
   38.885      597
   38.900      590
   38.915      600
   38.930      556
   38.945      583
   38.960      606
   38.975      557
   38.990      525
   39.005      543
   39.020      555
   39.035      552
   39.050      595
   39.065      590
   39.080      569
   39.095      552
   39.110      564
   39.125      586
   39.140      567
   39.155      585
   39.170      559
   39.185      561
   39.200      586
   39.215      553
   39.230      564
   39.245      569
   39.260      613
   39.275      617
   39.290      571
   39.305      560
   39.320      589
   39.335      547
   39.350      560
   39.365      556
   39.380      552
   39.395      615
   39.410      531
   39.425      556
   39.440      552
   39.455      567
   39.470      521
   39.485      572
   39.500      597
   39.515      553
   39.530      543
   39.545      542
   39.560      551
   39.575      508
   39.590      567
   39.605      577
   39.620      554
   39.635      571
   39.650      578
   39.665      620
   39.680      588
   39.695      539
   39.710      580
   39.725      559
   39.740      597
   39.755      608
   39.770      568
   39.785      558
   39.800      570
   39.815      564
   39.830      561
   39.845      582
   39.860      564
   39.875      576
   39.890      587
   39.905      610
   39.920      638
   39.935      558
   39.950      579
   39.965      562
   39.980      571
   39.995      549
   40.010      602
   40.025      571
   40.040      601
   40.055      549
   40.070      539
   40.085      577
   40.100      606
   40.115      588
   40.130      546
   40.145      563
   40.160      561
   40.175      602
   40.190      586
   40.205      602
   40.220      586
   40.235      599
   40.250      585
   40.265      578
   40.280      618
   40.295      614
   40.310      546
   40.325      566
   40.340      599
   40.355      591
   40.370      581
   40.385      591
   40.400      570
   40.415      577
   40.430      559
   40.445      570
   40.460      571
   40.475      574
   40.490      570
   40.505      587
   40.520      582
   40.535      569
   40.550      587
   40.565      605
   40.580      614
   40.595      626
   40.610      613
   40.625      599
   40.640      592
   40.655      582
   40.670      600
   40.685      584
   40.700      579
   40.715      624
   40.730      607
   40.745      568
   40.760      541
   40.775      544
   40.790      546
   40.805      579
   40.820      578
   40.835      555
   40.850      543
   40.865      566
   40.880      593
   40.895      565
   40.910      555
   40.925      570
   40.940      613
   40.955      590
   40.970      608
   40.985      578
   41.000      629
   41.015      623
   41.030      568
   41.045      577
   41.060      580
   41.075      568
   41.090      622
   41.105      614
   41.120      616
   41.135      602
   41.150      623
   41.165      637
   41.180      558
   41.195      605
   41.210      616
   41.225      610
   41.240      567
   41.255      552
   41.270      610
   41.285      599
   41.300      559
   41.315      591
   41.330      584
   41.345      589
   41.360      557
   41.375      595
   41.390      617
   41.405      614
   41.420      646
   41.435      590
   41.450      610
   41.465      527
   41.480      532
   41.495      560
   41.510      611
   41.525      546
   41.540      617
   41.555      604
   41.570      525
   41.585      562
   41.600      607
   41.615      559
   41.630      555
   41.645      582
   41.660      580
   41.675      558
   41.690      505
   41.705      562
   41.720      536
   41.735      546
   41.750      525
   41.765      576
   41.780      526
   41.795      541
   41.810      561
   41.825      543
   41.840      555
   41.855      589
   41.870      569
   41.885      555
   41.900      571
   41.915      538
   41.930      530
   41.945      565
   41.960      562
   41.975      565
   41.990      555
   42.005      557
   42.020      571
   42.035      546
   42.050      544
   42.065      560
   42.080      567
   42.095      572
   42.110      574
   42.125      560
   42.140      565
   42.155      566
   42.170      570
   42.185      580
   42.200      594
   42.215      578
   42.230      559
   42.245      575
   42.260      598
   42.275      547
   42.290      555
   42.305      579
   42.320      552
   42.335      550
   42.350      541
   42.365      524
   42.380      560
   42.395      574
   42.410      594
   42.425      532
   42.440      543
   42.455      563
   42.470      587
   42.485      581
   42.500      558
   42.515      591
   42.530      583
   42.545      576
   42.560      596
   42.575      544
   42.590      516
   42.605      558
   42.620      561
   42.635      555
   42.650      556
   42.665      587
   42.680      554
   42.695      523
   42.710      530
   42.725      562
   42.740      556
   42.755      533
   42.770      564
   42.785      529
   42.800      592
   42.815      539
   42.830      567
   42.845      540
   42.860      537
   42.875      538
   42.890      536
   42.905      558
   42.920      596
   42.935      521
   42.950      551
   42.965      534
   42.980      557
   42.995      573
   43.010      534
   43.025      608
   43.040      610
   43.055      566
   43.070      574
   43.085      557
   43.100      586
   43.115      625
   43.130      590
   43.145      567
   43.160      572
   43.175      535
   43.190      571
   43.205      543
   43.220      523
   43.235      534
   43.250      524
   43.265      536
   43.280      565
   43.295      589
   43.310      533
   43.325      538
   43.340      554
   43.355      537
   43.370      569
   43.385      581
   43.400      569
   43.415      528
   43.430      533
   43.445      531
   43.460      568
   43.475      568
   43.490      539
   43.505      606
   43.520      570
   43.535      548
   43.550      588
   43.565      559
   43.580      573
   43.595      587
   43.610      566
   43.625      628
   43.640      549
   43.655      566
   43.670      550
   43.685      508
   43.700      535
   43.715      591
   43.730      544
   43.745      548
   43.760      546
   43.775      539
   43.790      522
   43.805      558
   43.820      537
   43.835      525
   43.850      503
   43.865      499
   43.880      527
   43.895      487
   43.910      497
   43.925      515
   43.940      481
   43.955      521
   43.970      528
   43.985      526
