    2.000     7150
    2.015     7186
    2.030     7119
    2.045     6883
    2.060     6609
    2.075     6519
    2.090     6310
    2.105     6155
    2.120     5774
    2.135     5849
    2.150     5857
    2.165     5617
    2.180     5275
    2.195     5207
    2.210     5228
    2.225     5309
    2.240     5103
    2.255     5138
    2.270     4871
    2.285     4799
    2.300     4675
    2.315     4467
    2.330     4637
    2.345     4640
    2.360     4520
    2.375     4539
    2.390     4453
    2.405     4326
    2.420     4320
    2.435     4363
    2.450     4137
    2.465     4101
    2.480     4102
    2.495     3930
    2.510     4060
    2.525     3968
    2.540     3822
    2.555     3931
    2.570     3939
    2.585     3767
    2.600     3636
    2.615     3796
    2.630     3765
    2.645     3711
    2.660     3738
    2.675     3801
    2.690     3668
    2.705     3749
    2.720     3674
    2.735     3590
    2.750     3599
    2.765     3593
    2.780     3645
    2.795     3620
    2.810     3475
    2.825     3394
    2.840     3383
    2.855     3553
    2.870     3607
    2.885     3622
    2.900     3581
    2.915     3538
    2.930     3345
    2.945     3372
    2.960     3476
    2.975     3329
    2.990     3290
    3.005     3438
    3.020     3432
    3.035     3419
    3.050     3462
    3.065     3264
    3.080     3325
    3.095     3183
    3.110     3270
    3.125     3188
    3.140     3147
    3.155     3389
    3.170     3312
    3.185     3336
    3.200     3286
    3.215     3211
    3.230     3235
    3.245     3256
    3.260     3331
    3.275     3324
    3.290     3260
    3.305     3229
    3.320     3141
    3.335     3213
    3.350     3050
    3.365     3118
    3.380     3148
    3.395     3073
    3.410     3014
    3.425     3141
    3.440     3196
    3.455     3211
    3.470     2967
    3.485     3164
    3.500     3271
    3.515     3074
    3.530     3008
    3.545     3212
    3.560     3138
    3.575     3110
    3.590     3001
    3.605     3063
    3.620     3000
    3.635     3148
    3.650     3010
    3.665     3181
    3.680     3069
    3.695     2979
    3.710     2965
    3.725     3123
    3.740     3073
    3.755     2974
    3.770     2948
    3.785     3083
    3.800     2994
    3.815     3086
    3.830     3141
    3.845     3157
    3.860     3033
    3.875     3087
    3.890     3004
    3.905     2980
    3.920     3016
    3.935     3126
    3.950     3055
    3.965     2923
    3.980     2968
    3.995     3040
    4.010     3106
    4.025     3002
    4.040     2943
    4.055     2963
    4.070     2998
    4.085     3069
    4.100     3111
    4.115     3004
    4.130     2978
    4.145     2939
    4.160     3009
    4.175     3125
    4.190     2869
    4.205     2889
    4.220     2843
    4.235     2952
    4.250     2958
    4.265     2924
    4.280     2881
    4.295     2915
    4.310     2821
    4.325     2846
    4.340     2916
    4.355     2959
    4.370     2898
    4.385     2947
    4.400     2908
    4.415     2877
    4.430     2864
    4.445     2906
    4.460     2955
    4.475     3108
    4.490     3010
    4.505     2904
    4.520     2918
    4.535     2812
    4.550     2953
    4.565     3016
    4.580     2979
    4.595     2975
    4.610     3090
    4.625     2935
    4.640     2849
    4.655     2866
    4.670     2922
    4.685     2963
    4.700     2928
    4.715     3070
    4.730     3027
    4.745     2951
    4.760     2900
    4.775     2962
    4.790     2980
    4.805     2929
    4.820     2831
    4.835     2873
    4.850     2821
    4.865     2910
    4.880     2915
    4.895     2951
    4.910     2956
    4.925     3043
    4.940     3092
    4.955     2908
    4.970     2993
    4.985     2912
    5.000     2874
    5.015     2868
    5.030     2850
    5.045     2964
    5.060     2967
    5.075     3024
    5.090     2981
    5.105     2867
    5.120     2787
    5.135     2870
    5.150     2887
    5.165     2888
    5.180     2726
    5.195     2903
    5.210     2873
    5.225     2771
    5.240     2851
    5.255     2892
    5.270     2879
    5.285     2908
    5.300     2897
    5.315     2851
    5.330     2765
    5.345     2907
    5.360     3006
    5.375     2828
    5.390     2838
    5.405     2979
    5.420     2908
    5.435     2792
    5.450     2921
    5.465     2853
    5.480     2875
    5.495     2881
    5.510     2876
    5.525     2834
    5.540     2901
    5.555     2914
    5.570     2838
    5.585     2703
    5.600     2900
    5.615     2753
    5.630     2742
    5.645     2916
    5.660     2895
    5.675     2901
    5.690     2879
    5.705     2844
    5.720     2850
    5.735     2789
    5.750     2875
    5.765     2925
    5.780     2754
    5.795     2797
    5.810     2808
    5.825     2897
    5.840     2736
    5.855     2860
    5.870     2882
    5.885     2819
    5.900     2786
    5.915     2744
    5.930     2782
    5.945     2853
    5.960     2745
    5.975     2834
    5.990     2870
    6.005     2750
    6.020     2842
    6.035     2896
    6.050     2834
    6.065     2880
    6.080     2832
    6.095     2802
    6.110     2758
    6.125     2727
    6.140     2718
    6.155     2764
    6.170     2850
    6.185     2823
    6.200     2870
    6.215     2901
    6.230     2797
    6.245     2788
    6.260     2819
    6.275     2785
    6.290     2662
    6.305     2759
    6.320     2792
    6.335     2808
    6.350     2769
    6.365     2783
    6.380     2865
    6.395     2921
    6.410     2926
    6.425     2810
    6.440     2878
    6.455     2829
    6.470     2923
    6.485     2860
    6.500     2820
    6.515     2812
    6.530     2682
    6.545     2837
    6.560     2891
    6.575     2858
    6.590     2854
    6.605     2877
    6.620     2831
    6.635     2837
    6.650     2757
    6.665     2750
    6.680     2683
    6.695     2795
    6.710     2784
    6.725     2844
    6.740     2813
    6.755     2793
    6.770     2827
    6.785     2941
    6.800     2872
    6.815     2715
    6.830     2799
    6.845     2776
    6.860     2889
    6.875     2809
    6.890     2865
    6.905     2743
    6.920     2822
    6.935     2796
    6.950     2773
    6.965     2848
    6.980     2816
    6.995     2782
    7.010     2741
    7.025     2904
    7.040     2844
    7.055     2714
    7.070     2759
    7.085     2676
    7.100     2837
    7.115     2829
    7.130     2792
    7.145     2696
    7.160     2729
    7.175     2796
    7.190     2799
    7.205     2728
    7.220     2861
    7.235     2854
    7.250     2755
    7.265     2866
    7.280     2813
    7.295     2745
    7.310     2635
    7.325     2667
    7.340     2689
    7.355     2748
    7.370     2870
    7.385     2754
    7.400     2884
    7.415     2764
    7.430     2749
    7.445     2758
    7.460     2734
    7.475     2783
    7.490     2793
    7.505     2863
    7.520     2779
    7.535     2875
    7.550     2851
    7.565     2782
    7.580     2755
    7.595     2694
    7.610     2805
    7.625     2887
    7.640     2698
    7.655     2795
    7.670     2742
    7.685     2717
    7.700     2781
    7.715     2718
    7.730     2754
    7.745     2757
    7.760     2794
    7.775     2763
    7.790     2631
    7.805     2778
    7.820     2821
    7.835     2739
    7.850     2772
    7.865     2744
    7.880     2695
    7.895     2741
    7.910     2783
    7.925     2722
    7.940     2783
    7.955     2813
    7.970     2959
    7.985     2885
    8.000     2792
    8.015     2893
    8.030     2892
    8.045     2825
    8.060     2869
    8.075     2740
    8.090     2733
    8.105     2868
    8.120     2704
    8.135     2760
    8.150     2765
    8.165     2722
    8.180     2601
    8.195     2678
    8.210     2762
    8.225     2873
    8.240     2863
    8.255     2930
    8.270     2734
    8.285     2689
    8.300     2771
    8.315     2719
    8.330     2833
    8.345     2797
    8.360     2835
    8.375     2841
    8.390     2851
    8.405     2833
    8.420     2844
    8.435     2840
    8.450     2788
    8.465     2834
    8.480     2868
    8.495     2760
    8.510     2827
    8.525     2919
    8.540     2972
    8.555     2957
    8.570     2922
    8.585     2840
    8.600     2835
    8.615     2960
    8.630     2940
    8.645     2944
    8.660     2988
    8.675     3122
    8.690     3106
    8.705     3163
    8.720     3264
    8.735     3215
    8.750     3292
    8.765     3278
    8.780     3344
    8.795     3414
    8.810     3574
    8.825     3507
    8.840     3669
    8.855     4020
    8.870     4094
    8.885     4263
    8.900     4316
    8.915     4487
    8.930     4433
    8.945     4599
    8.960     4992
    8.975     5009
    8.990     5042
    9.005     5448
    9.020     5781
    9.035     6274
    9.050     6702
    9.065     7063
    9.080     7545
    9.095     7587
    9.110     8612
    9.125     9322
    9.140     9690
    9.155    11057
    9.170    12074
    9.185    13357
    9.200    14793
    9.215    15895
    9.230    17352
    9.245    20143
    9.260    25048
    9.275    28342
    9.290    33671
    9.305    38154
    9.320    38540
    9.335    35489
    9.350    29018
    9.365    21062
    9.380    14294
    9.395     9679
    9.410     7082
    9.425     6465
    9.440     6262
    9.455     6104
    9.470     6373
    9.485     6958
    9.500     7724
    9.515     8234
    9.530     8018
    9.545     7643
    9.560     6609
    9.575     5615
    9.590     4474
    9.605     3722
    9.620     3323
    9.635     3286
    9.650     3097
    9.665     3099
    9.680     3016
    9.695     2916
    9.710     2917
    9.725     3053
    9.740     3017
    9.755     2948
    9.770     2811
    9.785     2914
    9.800     2876
    9.815     2935
    9.830     2898
    9.845     2888
    9.860     2941
    9.875     3027
    9.890     2831
    9.905     2843
    9.920     2853
    9.935     2860
    9.950     2774
    9.965     2752
    9.980     2805
    9.995     2864
   10.010     2914
   10.025     2827
   10.040     2742
   10.055     2699
   10.070     2812
   10.085     2820
   10.100     2839
   10.115     2806
   10.130     2748
   10.145     2855
   10.160     2916
   10.175     2887
   10.190     2697
   10.205     2790
   10.220     2712
   10.235     2795
   10.250     2744
   10.265     2679
   10.280     2757
   10.295     2739
   10.310     2656
   10.325     2655
   10.340     2785
   10.355     2820
   10.370     2798
   10.385     2789
   10.400     2710
   10.415     2794
   10.430     2822
   10.445     2746
   10.460     2787
   10.475     2895
   10.490     2750
   10.505     2726
   10.520     2774
   10.535     2684
   10.550     2729
   10.565     2858
   10.580     2792
   10.595     2799
   10.610     2838
   10.625     2732
   10.640     2663
   10.655     2709
   10.670     2763
   10.685     2858
   10.700     2829
   10.715     2866
   10.730     2918
   10.745     2757
   10.760     2735
   10.775     2839
   10.790     2825
   10.805     2799
   10.820     2685
   10.835     2698
   10.850     2717
   10.865     2740
   10.880     2745
   10.895     2847
   10.910     2778
   10.925     2863
   10.940     2918
   10.955     2809
   10.970     2824
   10.985     2743
   11.000     2805
   11.015     2755
   11.030     2676
   11.045     2726
   11.060     2754
   11.075     2803
   11.090     2799
   11.105     2706
   11.120     2709
   11.135     2688
   11.150     2658
   11.165     2669
   11.180     2731
   11.195     2818
   11.210     2702
   11.225     2576
   11.240     2613
   11.255     2710
   11.270     2701
   11.285     2869
   11.300     2858
   11.315     2642
   11.330     2723
   11.345     2763
   11.360     2757
   11.375     2687
   11.390     2731
   11.405     2860
   11.420     2698
   11.435     2590
   11.450     2657
   11.465     2703
   11.480     2731
   11.495     2756
   11.510     2716
   11.525     2666
   11.540     2804
   11.555     2858
   11.570     2763
   11.585     2621
   11.600     2802
   11.615     2697
   11.630     2611
   11.645     2663
   11.660     2784
   11.675     2768
   11.690     2694
   11.705     2744
   11.720     2675
   11.735     2750
   11.750     2807
   11.765     2777
   11.780     2665
   11.795     2789
   11.810     2697
   11.825     2708
   11.840     2619
   11.855     2640
   11.870     2820
   11.885     2673
   11.900     2631
   11.915     2578
   11.930     2706
   11.945     2696
   11.960     2627
   11.975     2723
   11.990     2688
   12.005     2620
   12.020     2749
   12.035     2857
   12.050     2769
   12.065     2842
   12.080     2758
   12.095     2748
   12.110     2720
   12.125     2715
   12.140     2709
   12.155     2857
   12.170     3025
   12.185     3074
   12.200     3167
   12.215     3248
   12.230     3153
   12.245     3155
   12.260     3320
   12.275     3389
   12.290     3484
   12.305     3587
   12.320     3876
   12.335     3974
   12.350     4138
   12.365     4565
   12.380     4985
   12.395     5347
   12.410     5867
   12.425     6351
   12.440     7244
   12.455     8453
   12.470     9373
   12.485     9335
   12.500     8593
   12.515     7717
   12.530     5980
   12.545     4534
   12.560     3740
   12.575     3247
   12.590     3048
   12.605     2947
   12.620     2926
   12.635     2800
   12.650     2714
   12.665     2740
   12.680     2695
   12.695     2647
   12.710     2631
   12.725     2701
   12.740     2739
   12.755     2743
   12.770     2699
   12.785     2764
   12.800     2764
   12.815     2588
   12.830     2641
   12.845     2713
   12.860     2758
   12.875     2712
   12.890     2743
   12.905     2659
   12.920     2751
   12.935     2642
   12.950     2532
   12.965     2687
   12.980     2649
   12.995     2800
   13.010     2734
   13.025     2794
   13.040     2742
   13.055     2630
   13.070     2737
   13.085     2576
   13.100     2666
   13.115     2637
   13.130     2707
   13.145     2768
   13.160     2586
   13.175     2637
   13.190     2596
   13.205     2654
   13.220     2670
   13.235     2676
   13.250     2559
   13.265     2743
   13.280     2809
   13.295     2688
   13.310     2649
   13.325     2530
   13.340     2672
   13.355     2572
   13.370     2700
   13.385     2584
   13.400     2728
   13.415     2601
   13.430     2705
   13.445     2612
   13.460     2527
   13.475     2650
   13.490     2648
   13.505     2752
   13.520     2552
   13.535     2683
   13.550     2732
   13.565     2579
   13.580     2664
   13.595     2598
   13.610     2616
   13.625     2707
   13.640     2591
   13.655     2666
   13.670     2623
   13.685     2673
   13.700     2743
   13.715     2763
   13.730     2692
   13.745     2716
   13.760     2806
   13.775     2676
   13.790     2633
   13.805     2751
   13.820     2793
   13.835     2897
   13.850     2835
   13.865     2935
   13.880     2874
   13.895     3082
   13.910     3160
   13.925     3071
   13.940     3116
   13.955     3024
   13.970     3040
   13.985     2882
   14.000     2650
   14.015     2826
   14.030     2722
   14.045     2650
   14.060     2690
   14.075     2603
   14.090     2578
   14.105     2681
   14.120     2561
   14.135     2655
   14.150     2674
   14.165     2544
   14.180     2478
   14.195     2527
   14.210     2545
   14.225     2649
   14.240     2655
   14.255     2731
   14.270     2562
   14.285     2497
   14.300     2552
   14.315     2566
   14.330     2650
   14.345     2669
   14.360     2713
   14.375     2741
   14.390     2660
   14.405     2640
   14.420     2685
   14.435     2753
   14.450     2635
   14.465     2620
   14.480     2658
   14.495     2602
   14.510     2661
   14.525     2706
   14.540     2691
   14.555     2673
   14.570     2670
   14.585     2654
   14.600     2681
   14.615     2802
   14.630     2701
   14.645     2647
   14.660     2676
   14.675     2710
   14.690     2656
   14.705     2785
   14.720     2747
   14.735     2638
   14.750     2687
   14.765     2672
   14.780     2796
   14.795     2672
   14.810     2762
   14.825     2707
   14.840     2644
   14.855     2717
   14.870     2750
   14.885     2860
   14.900     2858
   14.915     2855
   14.930     2681
   14.945     2677
   14.960     2732
   14.975     2607
   14.990     2637
   15.005     2810
   15.020     2782
   15.035     2741
   15.050     2800
   15.065     2694
   15.080     2707
   15.095     2603
   15.110     2629
   15.125     2589
   15.140     2725
   15.155     2839
   15.170     2753
   15.185     2777
   15.200     2674
   15.215     2655
   15.230     2752
   15.245     2708
   15.260     2785
   15.275     2745
   15.290     2693
   15.305     2754
   15.320     2717
   15.335     2623
   15.350     2599
   15.365     2718
   15.380     2735
   15.395     2677
   15.410     2600
   15.425     2700
   15.440     2678
   15.455     2672
   15.470     2599
   15.485     2701
   15.500     2782
   15.515     2573
   15.530     2699
   15.545     2742
   15.560     2682
   15.575     2744
   15.590     2697
   15.605     2743
   15.620     2624
   15.635     2695
   15.650     2665
   15.665     2830
   15.680     2661
   15.695     2584
   15.710     2693
   15.725     2759
   15.740     2767
   15.755     2710
   15.770     2594
   15.785     2662
   15.800     2755
   15.815     2745
   15.830     2761
   15.845     2936
   15.860     2934
   15.875     2933
   15.890     2966
   15.905     2959
   15.920     2949
   15.935     3087
   15.950     3098
   15.965     3188
   15.980     3312
   15.995     3444
   16.010     3799
   16.025     3747
   16.040     4105
   16.055     4381
   16.070     5048
   16.085     5684
   16.100     6119
   16.115     5856
   16.130     5297
   16.145     4981
   16.160     4393
   16.175     3923
   16.190     3297
   16.205     3171
   16.220     3007
   16.235     2931
   16.250     2934
   16.265     2908
   16.280     3043
   16.295     2980
   16.310     2891
   16.325     2962
   16.340     3183
   16.355     3299
   16.370     3279
   16.385     3491
   16.400     3604
   16.415     3940
   16.430     4243
   16.445     4583
   16.460     5033
   16.475     5312
   16.490     5204
   16.505     5081
   16.520     4558
   16.535     3882
   16.550     3409
   16.565     3170
   16.580     2975
   16.595     2817
   16.610     2843
   16.625     2780
   16.640     2797
   16.655     2829
   16.670     2875
   16.685     2868
   16.700     2857
   16.715     2921
   16.730     2969
   16.745     2923
   16.760     2902
   16.775     3019
   16.790     3109
   16.805     3115
   16.820     3107
   16.835     3205
   16.850     3185
   16.865     3418
   16.880     3665
   16.895     3875
   16.910     4155
   16.925     4409
   16.940     4456
   16.955     4174
   16.970     3985
   16.985     3475
   17.000     3266
   17.015     2994
   17.030     2777
   17.045     2809
   17.060     2792
   17.075     2816
   17.090     2793
   17.105     2705
   17.120     2746
   17.135     2742
   17.150     2679
   17.165     2703
   17.180     2792
   17.195     2840
   17.210     2764
   17.225     2726
   17.240     2696
   17.255     2722
   17.270     2687
   17.285     2815
   17.300     2778
   17.315     2730
   17.330     2667
   17.345     2667
   17.360     2793
   17.375     2611
   17.390     2782
   17.405     2911
   17.420     2826
   17.435     2699
   17.450     2757
   17.465     2689
   17.480     2644
   17.495     2624
   17.510     2631
   17.525     2652
   17.540     2771
   17.555     2796
   17.570     2661
   17.585     2545
   17.600     2739
   17.615     2639
   17.630     2648
   17.645     2747
   17.660     2817
   17.675     2776
   17.690     2768
   17.705     2733
   17.720     2649
   17.735     2686
   17.750     2697
   17.765     2815
   17.780     2813
   17.795     2814
   17.810     2729
   17.825     2614
   17.840     2708
   17.855     2743
   17.870     2774
   17.885     2719
   17.900     2689
   17.915     2621
   17.930     2652
   17.945     2679
   17.960     2591
   17.975     2685
   17.990     2769
   18.005     2698
   18.020     2660
   18.035     2735
   18.050     2581
   18.065     2706
   18.080     2733
   18.095     2758
   18.110     2658
   18.125     2683
   18.140     2649
   18.155     2659
   18.170     2718
   18.185     2754
   18.200     2842
   18.215     2886
   18.230     2643
   18.245     2667
   18.260     2682
   18.275     2707
   18.290     2722
   18.305     2693
   18.320     2791
   18.335     2755
   18.350     2708
   18.365     2720
   18.380     2813
   18.395     2842
   18.410     2928
   18.425     2842
   18.440     2917
   18.455     2937
   18.470     3039
   18.485     3044
   18.500     3027
   18.515     3099
   18.530     3052
   18.545     3282
   18.560     3477
   18.575     3690
   18.590     3911
   18.605     4173
   18.620     4462
   18.635     4726
   18.650     5142
   18.665     5830
   18.680     6438
   18.695     7414
   18.710     8743
   18.725    10510
   18.740    12849
   18.755    15016
   18.770    16797
   18.785    16703
   18.800    16310
   18.815    13275
   18.830    10707
   18.845     7704
   18.860     5586
   18.875     4276
   18.890     3754
   18.905     3294
   18.920     3265
   18.935     3000
   18.950     3092
   18.965     3174
   18.980     3111
   18.995     3110
   19.010     3118
   19.025     3204
   19.040     3177
   19.055     3175
   19.070     3436
   19.085     3299
   19.100     3605
   19.115     3844
   19.130     4058
   19.145     4247
   19.160     4709
   19.175     5422
   19.190     6012
   19.205     6314
   19.220     6062
   19.235     5685
   19.250     4900
   19.265     4266
   19.280     3758
   19.295     3235
   19.310     2959
   19.325     2838
   19.340     2812
   19.355     2728
   19.370     2885
   19.385     2719
   19.400     2819
   19.415     2650
   19.430     2734
   19.445     2727
   19.460     2660
   19.475     2660
   19.490     2698
   19.505     2762
   19.520     2704
   19.535     2843
   19.550     2788
   19.565     2728
   19.580     2675
   19.595     2652
   19.610     2787
   19.625     2740
   19.640     2692
   19.655     2628
   19.670     2658
   19.685     2699
   19.700     2680
   19.715     2577
   19.730     2622
   19.745     2713
   19.760     2706
   19.775     2638
   19.790     2562
   19.805     2681
   19.820     2692
   19.835     2712
   19.850     2739
   19.865     2771
   19.880     2610
   19.895     2650
   19.910     2657
   19.925     2763
   19.940     2644
   19.955     2708
   19.970     2768
   19.985     2734
   20.000     2654
   20.015     2737
   20.030     2721
   20.045     2712
   20.060     2747
   20.075     2796
   20.090     2674
   20.105     2756
   20.120     2615
   20.135     2725
   20.150     2787
   20.165     2673
   20.180     2552
   20.195     2590
   20.210     2653
   20.225     2717
   20.240     2750
   20.255     2804
   20.270     2742
   20.285     2669
   20.300     2658
   20.315     2653
   20.330     2757
   20.345     2805
   20.360     2851
   20.375     2822
   20.390     2682
   20.405     2714
   20.420     2808
   20.435     2851
   20.450     2752
   20.465     2716
   20.480     2749
   20.495     2687
   20.510     2763
   20.525     2766
   20.540     2756
   20.555     2834
   20.570     2804
   20.585     2750
   20.600     2676
   20.615     2741
   20.630     2796
   20.645     2758
   20.660     2794
   20.675     2837
   20.690     2790
   20.705     2974
   20.720     2958
   20.735     2870
   20.750     2961
   20.765     2975
   20.780     3083
   20.795     3183
   20.810     3267
   20.825     3229
   20.840     3374
   20.855     3728
   20.870     3777
   20.885     3775
   20.900     3495
   20.915     3333
   20.930     2999
   20.945     2881
   20.960     2980
   20.975     2844
   20.990     2875
   21.005     2973
   21.020     2839
   21.035     2880
   21.050     2924
   21.065     2784
   21.080     2898
   21.095     2822
   21.110     2880
   21.125     2808
   21.140     2809
   21.155     2999
   21.170     2903
   21.185     2898
   21.200     2851
   21.215     2910
   21.230     3015
   21.245     3123
   21.260     3215
   21.275     3163
   21.290     3320
   21.305     3368
   21.320     3457
   21.335     3668
   21.350     3995
   21.365     4279
   21.380     4461
   21.395     4529
   21.410     4270
   21.425     4098
   21.440     3967
   21.455     3509
   21.470     3123
   21.485     3059
   21.500     3063
   21.515     2845
   21.530     2826
   21.545     2951
   21.560     2893
   21.575     2925
   21.590     2735
   21.605     2936
   21.620     2926
   21.635     3014
   21.650     3019
   21.665     3278
   21.680     3138
   21.695     3069
   21.710     3078
   21.725     3268
   21.740     3351
   21.755     3349
   21.770     3403
   21.785     3499
   21.800     3717
   21.815     3980
   21.830     4383
   21.845     4769
   21.860     5202
   21.875     6238
   21.890     7008
   21.905     7862
   21.920     8908
   21.935     9330
   21.950     8850
   21.965     7778
   21.980     6694
   21.995     5500
   22.010     4605
   22.025     3684
   22.040     3382
   22.055     3099
   22.070     2979
   22.085     3006
   22.100     3071
   22.115     2942
   22.130     2839
   22.145     2901
   22.160     2947
   22.175     2946
   22.190     2765
   22.205     2820
   22.220     2781
   22.235     2884
   22.250     2856
   22.265     2771
   22.280     2846
   22.295     2867
   22.310     2770
   22.325     2672
   22.340     2735
   22.355     2875
   22.370     2874
   22.385     2815
   22.400     2695
   22.415     2798
   22.430     2833
   22.445     2778
   22.460     2823
   22.475     2951
   22.490     2841
   22.505     2862
   22.520     2809
   22.535     2743
   22.550     2784
   22.565     2848
   22.580     2858
   22.595     2803
   22.610     2870
   22.625     2841
   22.640     2751
   22.655     2818
   22.670     2887
   22.685     2866
   22.700     2765
   22.715     2873
   22.730     2951
   22.745     2839
   22.760     2852
   22.775     2837
   22.790     2853
   22.805     2832
   22.820     2799
   22.835     2842
   22.850     2789
   22.865     2779
   22.880     2802
   22.895     2833
   22.910     2825
   22.925     2911
   22.940     2939
   22.955     2804
   22.970     2938
   22.985     2883
   23.000     2953
   23.015     2825
   23.030     2711
   23.045     2843
   23.060     2852
   23.075     2829
   23.090     2793
   23.105     2766
   23.120     2779
   23.135     2790
   23.150     2792
   23.165     2734
   23.180     2784
   23.195     2889
   23.210     2864
   23.225     2703
   23.240     2782
   23.255     2827
   23.270     2833
   23.285     2955
   23.300     2895
   23.315     2827
   23.330     2832
   23.345     2916
   23.360     3016
   23.375     2857
   23.390     2984
   23.405     3269
   23.420     3061
   23.435     3112
   23.450     3362
   23.465     3342
   23.480     3454
   23.495     3463
   23.510     3415
   23.525     3283
   23.540     3318
   23.555     3082
   23.570     3018
   23.585     2792
   23.600     2870
   23.615     2797
   23.630     2773
   23.645     2777
   23.660     2929
   23.675     2950
   23.690     2825
   23.705     2953
   23.720     2970
   23.735     2986
   23.750     3093
   23.765     3076
   23.780     3128
   23.795     3430
   23.810     3590
   23.825     3684
   23.840     3691
   23.855     3728
   23.870     3681
   23.885     3282
   23.900     3095
   23.915     2950
   23.930     2934
   23.945     2871
   23.960     2772
   23.975     2821
   23.990     2785
   24.005     2702
   24.020     2770
   24.035     2831
   24.050     2709
   24.065     2802
   24.080     2754
   24.095     2786
   24.110     2745
   24.125     2674
   24.140     2694
   24.155     2695
   24.170     2799
   24.185     2843
   24.200     2938
   24.215     2861
   24.230     2722
   24.245     2790
   24.260     2889
   24.275     2907
   24.290     2894
   24.305     2899
   24.320     2954
   24.335     2950
   24.350     2865
   24.365     2917
   24.380     2875
   24.395     2848
   24.410     2902
   24.425     2923
   24.440     2832
   24.455     2810
   24.470     2865
   24.485     2834
   24.500     2763
   24.515     2785
   24.530     2705
   24.545     2797
   24.560     2842
   24.575     2847
   24.590     2901
   24.605     2812
   24.620     2847
   24.635     2936
   24.650     2824
   24.665     2827
   24.680     2776
   24.695     2887
   24.710     2919
   24.725     2988
   24.740     3067
   24.755     3136
   24.770     3215
   24.785     3285
   24.800     3324
   24.815     3173
   24.830     3086
   24.845     2994
   24.860     2936
   24.875     2862
   24.890     2887
   24.905     2729
   24.920     2729
   24.935     2652
   24.950     2616
   24.965     2833
   24.980     2700
   24.995     2726
   25.010     2813
   25.025     2906
   25.040     2916
   25.055     2866
   25.070     2974
   25.085     2704
   25.100     2976
   25.115     2983
   25.130     3048
   25.145     2982
   25.160     3143
   25.175     3239
   25.190     3457
   25.205     3463
   25.220     3516
   25.235     3357
   25.250     3017
   25.265     3132
   25.280     3065
   25.295     2977
   25.310     2700
   25.325     2711
   25.340     2876
   25.355     2886
   25.370     2936
   25.385     2832
   25.400     2898
   25.415     2927
   25.430     2910
   25.445     3037
   25.460     2999
   25.475     3021
   25.490     2983
   25.505     3072
   25.520     2827
   25.535     2850
   25.550     2798
   25.565     2689
   25.580     2719
   25.595     2718
   25.610     2734
   25.625     2792
   25.640     2760
   25.655     2683
   25.670     2698
   25.685     2697
   25.700     2779
   25.715     2916
   25.730     2769
   25.745     2796
   25.760     2940
   25.775     2959
   25.790     2942
   25.805     3300
   25.820     3445
   25.835     3654
   25.850     3951
   25.865     4425
   25.880     4432
   25.895     4446
   25.910     4390
   25.925     4096
   25.940     3801
   25.955     3441
   25.970     3300
   25.985     3043
   26.000     2900
   26.015     3066
   26.030     2988
   26.045     2932
   26.060     2996
   26.075     3128
   26.090     2996
   26.105     3360
   26.120     3449
   26.135     3761
   26.150     4177
   26.165     4533
   26.180     4562
   26.195     4631
   26.210     4614
   26.225     4478
   26.240     4041
   26.255     3735
   26.270     3348
   26.285     2973
   26.300     2906
   26.315     2891
   26.330     2909
   26.345     2919
   26.360     2841
   26.375     2867
   26.390     2870
   26.405     2813
   26.420     2855
   26.435     2822
   26.450     2728
   26.465     2793
   26.480     2766
   26.495     2671
   26.510     2823
   26.525     2847
   26.540     2727
   26.555     2762
   26.570     2794
   26.585     2775
   26.600     2775
   26.615     2815
   26.630     2708
   26.645     2752
   26.660     2756
   26.675     2815
   26.690     2721
   26.705     2751
   26.720     2850
   26.735     2844
   26.750     2817
   26.765     2759
   26.780     2943
   26.795     2794
   26.810     2775
   26.825     2753
   26.840     2762
   26.855     2912
   26.870     2853
   26.885     2932
   26.900     2935
   26.915     2912
   26.930     2707
   26.945     2681
   26.960     2776
   26.975     2743
   26.990     2760
   27.005     2882
   27.020     2785
   27.035     2706
   27.050     2837
   27.065     2720
   27.080     2811
   27.095     2781
   27.110     2935
   27.125     2728
   27.140     2725
   27.155     2963
   27.170     2862
   27.185     2867
   27.200     2881
   27.215     2776
   27.230     2815
   27.245     2826
   27.260     2769
   27.275     2841
   27.290     2821
   27.305     2735
   27.320     2712
   27.335     2710
   27.350     2698
   27.365     2745
   27.380     2790
   27.395     2589
   27.410     2568
   27.425     2750
   27.440     2695
   27.455     2791
   27.470     2641
   27.485     2704
   27.500     2873
   27.515     2645
   27.530     2667
   27.545     2862
   27.560     2812
   27.575     2857
   27.590     2648
   27.605     2769
   27.620     2823
   27.635     2897
   27.650     2677
   27.665     2890
   27.680     2701
   27.695     2715
   27.710     2758
   27.725     2741
   27.740     2778
   27.755     2702
   27.770     2637
   27.785     2796
   27.800     2773
   27.815     2785
   27.830     2801
   27.845     2816
   27.860     2801
   27.875     2863
   27.890     2906
   27.905     2805
   27.920     2776
   27.935     2850
   27.950     2807
   27.965     2782
   27.980     2874
   27.995     2923
   28.010     2970
   28.025     2837
   28.040     2871
   28.055     2875
   28.070     2981
   28.085     3137
   28.100     3364
   28.115     3399
   28.130     3527
   28.145     3684
   28.160     3760
   28.175     3709
   28.190     3364
   28.205     3357
   28.220     3213
   28.235     3247
   28.250     3143
   28.265     3127
   28.280     3274
   28.295     3412
   28.310     3526
   28.325     3770
   28.340     4308
   28.355     4785
   28.370     4973
   28.385     5106
   28.400     4688
   28.415     4343
   28.430     4035
   28.445     3584
   28.460     3262
   28.475     3129
   28.490     2876
   28.505     2864
   28.520     2894
   28.535     2813
   28.550     2831
   28.565     2809
   28.580     2747
   28.595     2804
   28.610     2856
   28.625     2786
   28.640     2739
   28.655     2747
   28.670     2791
   28.685     2783
   28.700     2754
   28.715     2870
   28.730     2885
   28.745     2836
   28.760     2747
   28.775     2845
   28.790     2863
   28.805     2842
   28.820     2804
   28.835     2810
   28.850     2815
   28.865     2890
   28.880     2948
   28.895     2988
   28.910     3040
   28.925     3243
   28.940     3271
   28.955     3066
   28.970     3136
   28.985     2908
   29.000     2907
   29.015     2873
   29.030     2811
   29.045     2927
   29.060     2831
   29.075     2868
   29.090     2764
   29.105     2737
   29.120     2678
   29.135     2805
   29.150     2754
   29.165     2708
   29.180     2707
   29.195     2815
   29.210     2782
   29.225     2692
   29.240     2781
   29.255     2802
   29.270     2851
   29.285     2971
   29.300     2937
   29.315     2942
   29.330     2909
   29.345     2878
   29.360     2975
   29.375     2816
   29.390     3014
   29.405     3043
   29.420     2841
   29.435     2658
   29.450     2825
   29.465     2644
   29.480     2750
   29.495     2747
   29.510     2745
   29.525     2777
   29.540     2795
   29.555     2722
   29.570     2739
   29.585     2726
   29.600     2806
   29.615     2749
   29.630     2845
   29.645     2849
   29.660     2967
   29.675     3028
   29.690     3087
   29.705     3124
   29.720     3467
   29.735     3351
   29.750     3527
   29.765     3538
   29.780     3431
   29.795     3526
   29.810     3348
   29.825     3302
   29.840     3133
   29.855     3081
   29.870     3073
   29.885     2859
   29.900     2838
   29.915     2691
   29.930     2758
   29.945     2655
   29.960     2587
   29.975     2686
   29.990     2745
   30.005     2648
   30.020     2714
   30.035     2803
   30.050     2648
   30.065     2724
   30.080     2659
   30.095     2688
   30.110     2650
   30.125     2744
   30.140     2818
   30.155     2855
   30.170     2936
   30.185     3006
   30.200     3037
   30.215     2965
   30.230     2729
   30.245     2636
   30.260     2671
   30.275     2622
   30.290     2643
   30.305     2702
   30.320     2725
   30.335     2724
   30.350     2647
   30.365     2647
   30.380     2736
   30.395     2741
   30.410     2773
   30.425     2783
   30.440     2812
   30.455     2781
   30.470     2818
   30.485     2829
   30.500     2738
   30.515     2715
   30.530     2636
   30.545     2700
   30.560     2782
   30.575     2747
   30.590     2834
   30.605     2958
   30.620     2865
   30.635     2794
   30.650     2733
   30.665     2799
   30.680     2786
   30.695     2849
   30.710     2892
   30.725     2901
   30.740     2860
   30.755     2846
   30.770     2836
   30.785     2888
   30.800     2993
   30.815     2822
   30.830     2845
   30.845     2956
   30.860     3048
   30.875     3143
   30.890     3388
   30.905     3449
   30.920     3554
   30.935     3437
   30.950     3286
   30.965     3467
   30.980     3305
   30.995     3135
   31.010     2862
   31.025     2929
   31.040     2815
   31.055     2695
   31.070     2738
   31.085     2576
   31.100     2813
   31.115     2669
   31.130     2767
   31.145     2750
   31.160     2721
   31.175     2761
   31.190     2942
   31.205     2852
   31.220     2860
   31.235     2722
   31.250     2717
   31.265     2793
   31.280     2851
   31.295     2724
   31.310     2553
   31.325     2632
   31.340     2543
   31.355     2644
   31.370     2853
   31.385     2641
   31.400     2767
   31.415     2641
   31.430     2651
   31.445     2509
   31.460     2539
   31.475     2621
   31.490     2653
   31.505     2734
   31.520     2599
   31.535     2709
   31.550     2654
   31.565     2632
   31.580     2706
   31.595     2611
   31.610     2760
   31.625     2803
   31.640     2606
   31.655     2568
   31.670     2597
   31.685     2678
   31.700     2618
   31.715     2581
   31.730     2565
   31.745     2587
   31.760     2670
   31.775     2528
   31.790     2533
   31.805     2633
   31.820     2600
   31.835     2549
   31.850     2591
   31.865     2571
   31.880     2559
   31.895     2595
   31.910     2633
   31.925     2544
   31.940     2553
   31.955     2506
   31.970     2660
   31.985     2657
   32.000     2531
   32.015     2650
   32.030     2596
   32.045     2549
   32.060     2649
   32.075     2628
   32.090     2535
   32.105     2602
   32.120     2496
   32.135     2637
   32.150     2620
   32.165     2546
   32.180     2519
   32.195     2504
   32.210     2556
   32.225     2661
   32.240     2643
   32.255     2683
   32.270     2554
   32.285     2571
   32.300     2738
   32.315     2714
   32.330     2847
   32.345     2931
   32.360     2932
   32.375     3030
   32.390     2957
   32.405     3054
   32.420     3362
   32.435     3451
   32.450     3370
   32.465     3493
   32.480     3558
   32.495     3475
   32.510     3454
   32.525     3389
   32.540     3257
   32.555     3132
   32.570     3041
   32.585     2995
   32.600     2992
   32.615     3120
   32.630     3103
   32.645     3148
   32.660     3178
   32.675     3121
   32.690     3012
   32.705     3030
   32.720     2912
   32.735     2859
   32.750     2985
   32.765     3087
   32.780     3321
   32.795     3480
   32.810     3567
   32.825     3606
   32.840     3645
   32.855     3755
   32.870     3623
   32.885     3480
   32.900     3225
   32.915     3102
   32.930     2784
   32.945     2710
   32.960     2772
   32.975     2643
   32.990     2623
   33.005     2770
   33.020     2665
   33.035     2718
   33.050     2692
   33.065     2576
   33.080     2653
   33.095     2581
   33.110     2619
   33.125     2563
   33.140     2560
   33.155     2828
   33.170     2695
   33.185     2713
   33.200     2657
   33.215     2621
   33.230     2701
   33.245     2736
   33.260     2716
   33.275     2759
   33.290     2744
   33.305     2682
   33.320     2797
   33.335     2909
   33.350     2938
   33.365     3184
   33.380     3410
   33.395     3481
   33.410     3440
   33.425     3652
   33.440     3549
   33.455     3315
   33.470     2972
   33.485     2912
   33.500     2977
   33.515     2668
   33.530     2553
   33.545     2703
   33.560     2672
   33.575     2661
   33.590     2525
   33.605     2530
   33.620     2589
   33.635     2723
   33.650     2503
   33.665     2714
   33.680     2509
   33.695     2465
   33.710     2523
   33.725     2629
   33.740     2597
   33.755     2513
   33.770     2499
   33.785     2604
   33.800     2610
   33.815     2648
   33.830     2608
   33.845     2633
   33.860     2575
   33.875     2725
   33.890     2635
   33.905     2539
   33.920     2578
   33.935     2631
   33.950     2627
   33.965     2572
   33.980     2527
   33.995     2609
   34.010     2703
   34.025     2680
   34.040     2730
   34.055     2655
   34.070     2706
   34.085     2815
   34.100     2932
   34.115     2856
   34.130     2805
   34.145     2755
   34.160     2780
   34.175     2823
   34.190     2613
   34.205     2699
   34.220     2662
   34.235     2756
   34.250     2724
   34.265     2819
   34.280     3000
   34.295     3112
   34.310     3266
   34.325     3427
   34.340     3707
   34.355     3758
   34.370     3639
   34.385     3499
   34.400     3152
   34.415     3018
   34.430     3034
   34.445     2992
   34.460     2976
   34.475     3019
   34.490     3138
   34.505     3248
   34.520     3283
   34.535     3250
   34.550     3276
   34.565     3155
   34.580     3027
   34.595     2940
   34.610     2828
   34.625     2701
   34.640     2578
   34.655     2522
   34.670     2570
   34.685     2532
   34.700     2549
   34.715     2644
   34.730     2652
   34.745     2546
   34.760     2604
   34.775     2625
   34.790     2580
   34.805     2574
   34.820     2510
   34.835     2483
   34.850     2538
   34.865     2449
   34.880     2476
   34.895     2543
   34.910     2593
   34.925     2640
   34.940     2639
   34.955     2576
   34.970     2650
   34.985     2640
   35.000     2640
   35.015     2561
   35.030     2446
   35.045     2624
   35.060     2578
   35.075     2573
   35.090     2571
   35.105     2539
   35.120     2425
   35.135     2470
   35.150     2464
   35.165     2464
   35.180     2480
   35.195     2499
   35.210     2548
   35.225     2520
   35.240     2571
   35.255     2625
   35.270     2695
   35.285     2690
   35.300     2794
   35.315     2763
   35.330     2756
   35.345     2839
   35.360     2874
   35.375     2717
   35.390     2805
   35.405     2770
   35.420     2623
   35.435     2370
   35.450     2517
   35.465     2498
   35.480     2504
   35.495     2505
   35.510     2529
   35.525     2457
   35.540     2613
   35.555     2526
   35.570     2529
   35.585     2500
   35.600     2679
   35.615     2502
   35.630     2644
   35.645     2531
   35.660     2707
   35.675     2785
   35.690     2746
   35.705     2649
   35.720     2572
   35.735     2595
   35.750     2558
   35.765     2576
   35.780     2572
   35.795     2582
   35.810     2480
   35.825     2511
   35.840     2424
   35.855     2436
   35.870     2602
   35.885     2543
   35.900     2536
   35.915     2502
   35.930     2572
   35.945     2628
   35.960     2563
   35.975     2797
   35.990     2893
   36.005     2882
   36.020     2877
   36.035     2824
   36.050     2704
   36.065     2755
   36.080     2614
   36.095     2569
   36.110     2439
   36.125     2452
   36.140     2406
   36.155     2453
   36.170     2451
   36.185     2460
   36.200     2588
   36.215     2582
   36.230     2360
   36.245     2385
   36.260     2455
   36.275     2467
   36.290     2379
   36.305     2395
   36.320     2450
   36.335     2443
   36.350     2451
   36.365     2471
   36.380     2496
   36.395     2496
   36.410     2484
   36.425     2482
   36.440     2421
   36.455     2497
   36.470     2551
   36.485     2517
   36.500     2419
   36.515     2464
   36.530     2375
   36.545     2460
   36.560     2511
   36.575     2463
   36.590     2508
   36.605     2531
   36.620     2489
   36.635     2451
   36.650     2428
   36.665     2444
   36.680     2365
   36.695     2465
   36.710     2438
   36.725     2433
   36.740     2419
   36.755     2408
   36.770     2519
   36.785     2549
   36.800     2581
   36.815     2371
   36.830     2443
   36.845     2444
   36.860     2481
   36.875     2532
   36.890     2519
   36.905     2527
   36.920     2575
   36.935     2597
   36.950     2551
   36.965     2874
   36.980     2891
   36.995     3079
   37.010     3173
   37.025     3164
   37.040     3196
   37.055     3094
   37.070     2898
   37.085     2716
   37.100     2695
   37.115     2667
   37.130     2519
   37.145     2461
   37.160     2344
   37.175     2464
   37.190     2527
   37.205     2374
   37.220     2482
   37.235     2405
   37.250     2296
   37.265     2423
   37.280     2449
   37.295     2424
   37.310     2358
   37.325     2388
   37.340     2388
   37.355     2351
   37.370     2449
   37.385     2434
   37.400     2465
   37.415     2402
   37.430     2380
   37.445     2348
   37.460     2353
   37.475     2437
   37.490     2481
   37.505     2610
   37.520     2423
   37.535     2630
   37.550     2625
   37.565     2420
   37.580     2584
   37.595     2563
   37.610     2527
   37.625     2558
   37.640     2440
   37.655     2382
   37.670     2408
   37.685     2360
   37.700     2346
   37.715     2464
   37.730     2416
   37.745     2389
   37.760     2439
   37.775     2381
   37.790     2425
   37.805     2673
   37.820     2736
   37.835     2752
   37.850     2848
   37.865     3070
   37.880     3097
   37.895     3094
   37.910     3144
   37.925     3017
   37.940     2964
   37.955     2815
   37.970     2758
   37.985     2602
   38.000     2521
   38.015     2576
   38.030     2601
   38.045     2497
   38.060     2567
   38.075     2513
   38.090     2524
   38.105     2754
   38.120     2785
   38.135     3029
   38.150     3317
   38.165     3408
   38.180     3325
   38.195     3412
   38.210     3402
   38.225     3369
   38.240     3193
   38.255     3017
   38.270     2733
   38.285     2574
   38.300     2505
   38.315     2501
   38.330     2635
   38.345     2671
   38.360     2597
   38.375     2614
   38.390     2554
   38.405     2512
   38.420     2495
   38.435     2540
   38.450     2441
   38.465     2405
   38.480     2406
   38.495     2348
   38.510     2479
   38.525     2503
   38.540     2487
   38.555     2494
   38.570     2458
   38.585     2502
   38.600     2531
   38.615     2616
   38.630     2560
   38.645     2536
   38.660     2647
   38.675     2694
   38.690     2612
   38.705     2621
   38.720     2590
   38.735     2512
   38.750     2483
   38.765     2453
   38.780     2533
   38.795     2495
   38.810     2528
   38.825     2415
   38.840     2403
   38.855     2533
   38.870     2571
   38.885     2582
   38.900     2622
   38.915     2542
   38.930     2449
   38.945     2475
   38.960     2497
   38.975     2390
   38.990     2366
   39.005     2542
   39.020     2526
   39.035     2510
   39.050     2530
   39.065     2519
   39.080     2567
   39.095     2323
   39.110     2511
   39.125     2433
   39.140     2420
   39.155     2574
   39.170     2499
   39.185     2493
   39.200     2371
   39.215     2380
   39.230     2482
   39.245     2451
   39.260     2465
   39.275     2528
   39.290     2480
   39.305     2303
   39.320     2361
   39.335     2393
   39.350     2316
   39.365     2386
   39.380     2375
   39.395     2345
   39.410     2256
   39.425     2428
   39.440     2419
   39.455     2482
   39.470     2304
   39.485     2415
   39.500     2558
   39.515     2462
   39.530     2424
   39.545     2521
   39.560     2473
   39.575     2420
   39.590     2384
   39.605     2499
   39.620     2411
   39.635     2508
   39.650     2392
   39.665     2483
   39.680     2442
   39.695     2361
   39.710     2352
   39.725     2376
   39.740     2417
   39.755     2408
   39.770     2345
   39.785     2451
   39.800     2339
   39.815     2398
   39.830     2465
   39.845     2540
   39.860     2449
   39.875     2500
   39.890     2500
   39.905     2380
   39.920     2471
   39.935     2453
   39.950     2458
   39.965     2407
   39.980     2438
   39.995     2397
   40.010     2490
   40.025     2434
   40.040     2416
   40.055     2398
   40.070     2367
   40.085     2410
   40.100     2517
   40.115     2414
   40.130     2345
   40.145     2413
   40.160     2496
   40.175     2480
   40.190     2344
   40.205     2432
   40.220     2337
   40.235     2337
   40.250     2305
   40.265     2355
   40.280     2474
   40.295     2379
   40.310     2359
   40.325     2315
   40.340     2421
   40.355     2507
   40.370     2499
   40.385     2542
   40.400     2515
   40.415     2576
   40.430     2630
   40.445     2619
   40.460     2685
   40.475     2783
   40.490     2718
   40.505     2743
   40.520     2983
   40.535     3031
   40.550     3135
   40.565     3261
   40.580     3314
   40.595     3310
   40.610     3225
   40.625     3008
   40.640     2829
   40.655     2762
   40.670     2612
   40.685     2527
   40.700     2484
   40.715     2579
   40.730     2699
   40.745     2668
   40.760     2612
   40.775     2608
   40.790     2627
   40.805     2694
   40.820     2779
   40.835     2800
   40.850     2845
   40.865     2929
   40.880     3009
   40.895     2940
   40.910     2869
   40.925     2872
   40.940     2763
   40.955     2723
   40.970     2762
   40.985     2583
   41.000     2601
   41.015     2590
   41.030     2461
   41.045     2560
   41.060     2546
   41.075     2537
   41.090     2451
   41.105     2440
   41.120     2522
   41.135     2489
   41.150     2491
   41.165     2428
   41.180     2429
   41.195     2575
   41.210     2478
   41.225     2365
   41.240     2362
   41.255     2439
   41.270     2427
   41.285     2474
   41.300     2476
   41.315     2394
   41.330     2370
   41.345     2368
   41.360     2530
   41.375     2360
   41.390     2426
   41.405     2624
   41.420     2489
   41.435     2376
   41.450     2449
   41.465     2415
   41.480     2464
   41.495     2407
   41.510     2392
   41.525     2408
   41.540     2581
   41.555     2508
   41.570     2497
   41.585     2422
   41.600     2526
   41.615     2413
   41.630     2615
   41.645     2678
   41.660     2911
   41.675     2967
   41.690     3093
   41.705     3311
   41.720     3423
   41.735     3537
   41.750     3778
   41.765     3966
   41.780     3630
   41.795     3844
   41.810     3537
   41.825     3367
   41.840     3071
   41.855     3033
   41.870     2879
   41.885     2624
   41.900     2533
   41.915     2430
   41.930     2372
   41.945     2439
   41.960     2357
   41.975     2439
   41.990     2371
   42.005     2352
   42.020     2390
   42.035     2480
   42.050     2377
   42.065     2449
   42.080     2370
   42.095     2419
   42.110     2416
   42.125     2499
   42.140     2468
   42.155     2445
   42.170     2496
   42.185     2542
   42.200     2706
   42.215     2742
   42.230     2701
   42.245     2760
   42.260     3012
   42.275     3095
   42.290     3192
   42.305     3460
   42.320     3605
   42.335     3661
   42.350     3648
   42.365     3569
   42.380     3454
   42.395     3309
   42.410     3139
   42.425     2905
   42.440     2808
   42.455     2639
   42.470     2750
   42.485     2732
   42.500     2684
   42.515     2710
   42.530     2659
   42.545     2846
   42.560     2914
   42.575     2919
   42.590     2820
   42.605     2718
   42.620     2675
   42.635     2601
   42.650     2418
   42.665     2385
   42.680     2459
   42.695     2455
   42.710     2408
   42.725     2416
   42.740     2456
   42.755     2538
   42.770     2633
   42.785     2631
   42.800     2682
   42.815     2650
   42.830     2695
   42.845     2736
   42.860     2807
   42.875     2740
   42.890     2670
   42.905     2605
   42.920     2512
   42.935     2421
   42.950     2331
   42.965     2428
   42.980     2335
   42.995     2434
   43.010     2449
   43.025     2444
   43.040     2521
   43.055     2414
   43.070     2479
   43.085     2229
   43.100     2433
   43.115     2369
   43.130     2341
   43.145     2329
   43.160     2357
   43.175     2341
   43.190     2432
   43.205     2336
   43.220     2361
   43.235     2425
   43.250     2321
   43.265     2424
   43.280     2540
   43.295     2454
   43.310     2370
   43.325     2290
   43.340     2452
   43.355     2368
   43.370     2484
   43.385     2397
   43.400     2399
   43.415     2395
   43.430     2382
   43.445     2455
   43.460     2560
   43.475     2556
   43.490     2588
   43.505     2674
   43.520     2597
   43.535     2814
   43.550     2797
   43.565     2537
   43.580     2751
   43.595     2580
   43.610     2708
   43.625     2601
   43.640     2509
   43.655     2451
   43.670     2388
   43.685     2332
   43.700     2336
   43.715     2430
   43.730     2372
   43.745     2378
   43.760     2419
   43.775     2417
   43.790     2350
   43.805     2440
   43.820     2336
   43.835     2307
   43.850     2407
   43.865     2399
   43.880     2397
   43.895     2452
   43.910     2459
   43.925     2443
   43.940     2496
   43.955     2599
   43.970     2660
   43.985     2612
