    2.000     1220
    2.015     1330
    2.030     1325
    2.045     1317
    2.060     1264
    2.075     1329
    2.090     1268
    2.105     1252
    2.120     1264
    2.135     1299
    2.150     1340
    2.165     1298
    2.180     1265
    2.195     1301
    2.210     1316
    2.225     1419
    2.240     1350
    2.255     1387
    2.270     1305
    2.285     1263
    2.300     1299
    2.315     1275
    2.330     1388
    2.345     1425
    2.360     1371
    2.375     1378
    2.390     1427
    2.405     1452
    2.420     1450
    2.435     1483
    2.450     1479
    2.465     1439
    2.480     1402
    2.495     1420
    2.510     1421
    2.525     1488
    2.540     1499
    2.555     1490
    2.570     1531
    2.585     1568
    2.600     1574
    2.615     1674
    2.630     1644
    2.645     1747
    2.660     1795
    2.675     1835
    2.690     1941
    2.705     1958
    2.720     1935
    2.735     1760
    2.750     1609
    2.765     1456
    2.780     1454
    2.795     1458
    2.810     1489
    2.825     1469
    2.840     1416
    2.855     1526
    2.870     1493
    2.885     1549
    2.900     1554
    2.915     1583
    2.930     1542
    2.945     1595
    2.960     1611
    2.975     1631
    2.990     1662
    3.005     1707
    3.020     1765
    3.035     1773
    3.050     1844
    3.065     1892
    3.080     1931
    3.095     1898
    3.110     2152
    3.125     2279
    3.140     2340
    3.155     2675
    3.170     2655
    3.185     2706
    3.200     2557
    3.215     2213
    3.230     1931
    3.245     1638
    3.260     1689
    3.275     1580
    3.290     1700
    3.305     1711
    3.320     1791
    3.335     1796
    3.350     1631
    3.365     1478
    3.380     1331
    3.395     1256
    3.410     1139
    3.425     1165
    3.440     1258
    3.455     1186
    3.470     1190
    3.485     1260
    3.500     1267
    3.515     1191
    3.530     1244
    3.545     1211
    3.560     1206
    3.575     1254
    3.590     1169
    3.605     1194
    3.620     1188
    3.635     1267
    3.650     1210
    3.665     1267
    3.680     1289
    3.695     1242
    3.710     1192
    3.725     1303
    3.740     1283
    3.755     1306
    3.770     1200
    3.785     1325
    3.800     1385
    3.815     1408
    3.830     1410
    3.845     1421
    3.860     1359
    3.875     1394
    3.890     1360
    3.905     1177
    3.920     1218
    3.935     1186
    3.950     1170
    3.965     1157
    3.980     1229
    3.995     1226
    4.010     1292
    4.025     1217
    4.040     1207
    4.055     1135
    4.070     1204
    4.085     1247
    4.100     1265
    4.115     1260
    4.130     1214
    4.145     1266
    4.160     1272
    4.175     1288
    4.190     1280
    4.205     1343
    4.220     1328
    4.235     1291
    4.250     1275
    4.265     1234
    4.280     1211
    4.295     1143
    4.310     1126
    4.325     1157
    4.340     1240
    4.355     1246
    4.370     1201
    4.385     1193
    4.400     1182
    4.415     1226
    4.430     1217
    4.445     1215
    4.460     1222
    4.475     1263
    4.490     1245
    4.505     1274
    4.520     1254
    4.535     1238
    4.550     1226
    4.565     1245
    4.580     1280
    4.595     1262
    4.610     1268
    4.625     1306
    4.640     1319
    4.655     1283
    4.670     1319
    4.685     1351
    4.700     1345
    4.715     1461
    4.730     1478
    4.745     1457
    4.760     1444
    4.775     1378
    4.790     1306
    4.805     1277
    4.820     1272
    4.835     1284
    4.850     1322
    4.865     1350
    4.880     1345
    4.895     1366
    4.910     1444
    4.925     1461
    4.940     1507
    4.955     1524
    4.970     1576
    4.985     1643
    5.000     1678
    5.015     1761
    5.030     1738
    5.045     1651
    5.060     1568
    5.075     1393
    5.090     1272
    5.105     1195
    5.120     1141
    5.135     1203
    5.150     1226
    5.165     1208
    5.180     1245
    5.195     1243
    5.210     1288
    5.225     1244
    5.240     1191
    5.255     1224
    5.270     1251
    5.285     1254
    5.300     1280
    5.315     1193
    5.330     1208
    5.345     1303
    5.360     1271
    5.375     1253
    5.390     1345
    5.405     1381
    5.420     1312
    5.435     1322
    5.450     1382
    5.465     1399
    5.480     1308
    5.495     1329
    5.510     1389
    5.525     1373
    5.540     1377
    5.555     1345
    5.570     1250
    5.585     1244
    5.600     1269
    5.615     1262
    5.630     1309
    5.645     1297
    5.660     1337
    5.675     1412
    5.690     1361
    5.705     1531
    5.720     1596
    5.735     1578
    5.750     1539
    5.765     1495
    5.780     1326
    5.795     1304
    5.810     1215
    5.825     1221
    5.840     1238
    5.855     1180
    5.870     1201
    5.885     1135
    5.900     1137
    5.915     1078
    5.930     1143
    5.945     1163
    5.960     1126
    5.975     1192
    5.990     1159
    6.005     1143
    6.020     1238
    6.035     1193
    6.050     1137
    6.065     1150
    6.080     1168
    6.095     1143
    6.110     1135
    6.125     1123
    6.140     1139
    6.155     1121
    6.170     1122
    6.185     1141
    6.200     1204
    6.215     1219
    6.230     1169
    6.245     1142
    6.260     1169
    6.275     1180
    6.290     1220
    6.305     1207
    6.320     1164
    6.335     1165
    6.350     1158
    6.365     1160
    6.380     1207
    6.395     1186
    6.410     1239
    6.425     1185
    6.440     1195
    6.455     1224
    6.470     1235
    6.485     1205
    6.500     1163
    6.515     1198
    6.530     1153
    6.545     1172
    6.560     1184
    6.575     1205
    6.590     1184
    6.605     1217
    6.620     1192
    6.635     1182
    6.650     1151
    6.665     1178
    6.680     1161
    6.695     1171
    6.710     1141
    6.725     1143
    6.740     1160
    6.755     1184
    6.770     1220
    6.785     1190
    6.800     1213
    6.815     1153
    6.830     1196
    6.845     1216
    6.860     1216
    6.875     1267
    6.890     1211
    6.905     1178
    6.920     1128
    6.935     1120
    6.950     1130
    6.965     1317
    6.980     1193
    6.995     1209
    7.010     1178
    7.025     1217
    7.040     1210
    7.055     1217
    7.070     1164
    7.085     1161
    7.100     1219
    7.115     1228
    7.130     1251
    7.145     1165
    7.160     1135
    7.175     1256
    7.190     1283
    7.205     1194
    7.220     1183
    7.235     1248
    7.250     1173
    7.265     1194
    7.280     1257
    7.295     1182
    7.310     1182
    7.325     1200
    7.340     1219
    7.355     1289
    7.370     1246
    7.385     1215
    7.400     1221
    7.415     1158
    7.430     1196
    7.445     1170
    7.460     1191
    7.475     1215
    7.490     1184
    7.505     1257
    7.520     1194
    7.535     1266
    7.550     1245
    7.565     1203
    7.580     1216
    7.595     1155
    7.610     1162
    7.625     1276
    7.640     1229
    7.655     1200
    7.670     1238
    7.685     1252
    7.700     1274
    7.715     1234
    7.730     1181
    7.745     1211
    7.760     1275
    7.775     1272
    7.790     1242
    7.805     1329
    7.820     1354
    7.835     1372
    7.850     1352
    7.865     1309
    7.880     1272
    7.895     1363
    7.910     1444
    7.925     1365
    7.940     1360
    7.955     1434
    7.970     1456
    7.985     1306
    8.000     1348
    8.015     1357
    8.030     1416
    8.045     1361
    8.060     1283
    8.075     1261
    8.090     1312
    8.105     1373
    8.120     1357
    8.135     1375
    8.150     1442
    8.165     1384
    8.180     1425
    8.195     1483
    8.210     1590
    8.225     1678
    8.240     1708
    8.255     1851
    8.270     1861
    8.285     1831
    8.300     1818
    8.315     1659
    8.330     1609
    8.345     1531
    8.360     1431
    8.375     1457
    8.390     1486
    8.405     1590
    8.420     1687
    8.435     1705
    8.450     1644
    8.465     1587
    8.480     1568
    8.495     1550
    8.510     1518
    8.525     1471
    8.540     1481
    8.555     1584
    8.570     1555
    8.585     1501
    8.600     1556
    8.615     1647
    8.630     1647
    8.645     1790
    8.660     1854
    8.675     2006
    8.690     2118
    8.705     2259
    8.720     2323
    8.735     2233
    8.750     2198
    8.765     2113
    8.780     2073
    8.795     2080
    8.810     2193
    8.825     2341
    8.840     2501
    8.855     2800
    8.870     3057
    8.885     3285
    8.900     3214
    8.915     3169
    8.930     2791
    8.945     2612
    8.960     2449
    8.975     2273
    8.990     2125
    9.005     2097
    9.020     2140
    9.035     2176
    9.050     2313
    9.065     2507
    9.080     2716
    9.095     2784
    9.110     3153
    9.125     3358
    9.140     3528
    9.155     4051
    9.170     4493
    9.185     4927
    9.200     5418
    9.215     5975
    9.230     6868
    9.245     7497
    9.260     8162
    9.275     7038
    9.290     6102
    9.305     4650
    9.320     3217
    9.335     2232
    9.350     1722
    9.365     1546
    9.380     1605
    9.395     1604
    9.410     1606
    9.425     1787
    9.440     1864
    9.455     1809
    9.470     1904
    9.485     2221
    9.500     2396
    9.515     2638
    9.530     2787
    9.545     3020
    9.560     3000
    9.575     2726
    9.590     2407
    9.605     2148
    9.620     1824
    9.635     1623
    9.650     1558
    9.665     1733
    9.680     1807
    9.695     1735
    9.710     1708
    9.725     1788
    9.740     1688
    9.755     1515
    9.770     1387
    9.785     1387
    9.800     1392
    9.815     1411
    9.830     1428
    9.845     1379
    9.860     1397
    9.875     1385
    9.890     1465
    9.905     1409
    9.920     1469
    9.935     1500
    9.950     1484
    9.965     1479
    9.980     1506
    9.995     1464
   10.010     1533
   10.025     1470
   10.040     1497
   10.055     1438
   10.070     1491
   10.085     1543
   10.100     1690
   10.115     1678
   10.130     1704
   10.145     1749
   10.160     1758
   10.175     1710
   10.190     1584
   10.205     1508
   10.220     1345
   10.235     1321
   10.250     1300
   10.265     1329
   10.280     1325
   10.295     1306
   10.310     1280
   10.325     1244
   10.340     1301
   10.355     1360
   10.370     1389
   10.385     1416
   10.400     1388
   10.415     1437
   10.430     1412
   10.445     1370
   10.460     1366
   10.475     1351
   10.490     1376
   10.505     1431
   10.520     1356
   10.535     1352
   10.550     1358
   10.565     1361
   10.580     1362
   10.595     1359
   10.610     1360
   10.625     1384
   10.640     1362
   10.655     1335
   10.670     1372
   10.685     1400
   10.700     1441
   10.715     1479
   10.730     1411
   10.745     1397
   10.760     1365
   10.775     1345
   10.790     1357
   10.805     1332
   10.820     1343
   10.835     1339
   10.850     1317
   10.865     1376
   10.880     1416
   10.895     1364
   10.910     1406
   10.925     1431
   10.940     1424
   10.955     1357
   10.970     1401
   10.985     1376
   11.000     1367
   11.015     1435
   11.030     1479
   11.045     1482
   11.060     1483
   11.075     1454
   11.090     1470
   11.105     1354
   11.120     1439
   11.135     1430
   11.150     1422
   11.165     1445
   11.180     1422
   11.195     1475
   11.210     1504
   11.225     1498
   11.240     1473
   11.255     1363
   11.270     1421
   11.285     1394
   11.300     1386
   11.315     1314
   11.330     1306
   11.345     1350
   11.360     1327
   11.375     1323
   11.390     1404
   11.405     1450
   11.420     1383
   11.435     1355
   11.450     1443
   11.465     1449
   11.480     1400
   11.495     1417
   11.510     1460
   11.525     1428
   11.540     1547
   11.555     1496
   11.570     1477
   11.585     1406
   11.600     1388
   11.615     1391
   11.630     1380
   11.645     1434
   11.660     1357
   11.675     1440
   11.690     1344
   11.705     1376
   11.720     1442
   11.735     1443
   11.750     1443
   11.765     1499
   11.780     1466
   11.795     1452
   11.810     1419
   11.825     1455
   11.840     1458
   11.855     1409
   11.870     1462
   11.885     1407
   11.900     1411
   11.915     1284
   11.930     1423
   11.945     1441
   11.960     1419
   11.975     1415
   11.990     1386
   12.005     1443
   12.020     1514
   12.035     1449
   12.050     1450
   12.065     1453
   12.080     1418
   12.095     1414
   12.110     1439
   12.125     1427
   12.140     1381
   12.155     1432
   12.170     1470
   12.185     1469
   12.200     1482
   12.215     1595
   12.230     1568
   12.245     1540
   12.260     1508
   12.275     1527
   12.290     1682
   12.305     1692
   12.320     1742
   12.335     1806
   12.350     1828
   12.365     1972
   12.380     2180
   12.395     2349
   12.410     2610
   12.425     2801
   12.440     2954
   12.455     3062
   12.470     2906
   12.485     2568
   12.500     2214
   12.515     2010
   12.530     1668
   12.545     1548
   12.560     1530
   12.575     1510
   12.590     1491
   12.605     1442
   12.620     1416
   12.635     1479
   12.650     1368
   12.665     1441
   12.680     1419
   12.695     1477
   12.710     1502
   12.725     1507
   12.740     1513
   12.755     1555
   12.770     1514
   12.785     1479
   12.800     1550
   12.815     1421
   12.830     1474
   12.845     1484
   12.860     1565
   12.875     1484
   12.890     1526
   12.905     1488
   12.920     1505
   12.935     1488
   12.950     1478
   12.965     1559
   12.980     1550
   12.995     1536
   13.010     1553
   13.025     1559
   13.040     1601
   13.055     1587
   13.070     1598
   13.085     1481
   13.100     1543
   13.115     1492
   13.130     1621
   13.145     1519
   13.160     1410
   13.175     1478
   13.190     1572
   13.205     1550
   13.220     1498
   13.235     1523
   13.250     1520
   13.265     1488
   13.280     1496
   13.295     1554
   13.310     1500
   13.325     1517
   13.340     1542
   13.355     1581
   13.370     1560
   13.385     1561
   13.400     1530
   13.415     1493
   13.430     1544
   13.445     1564
   13.460     1559
   13.475     1523
   13.490     1584
   13.505     1568
   13.520     1581
   13.535     1557
   13.550     1599
   13.565     1548
   13.580     1590
   13.595     1653
   13.610     1648
   13.625     1744
   13.640     1679
   13.655     1694
   13.670     1739
   13.685     1769
   13.700     1900
   13.715     1904
   13.730     1918
   13.745     2066
   13.760     2288
   13.775     2137
   13.790     2151
   13.805     2323
   13.820     2172
   13.835     2107
   13.850     1926
   13.865     1772
   13.880     1656
   13.895     1602
   13.910     1654
   13.925     1626
   13.940     1665
   13.955     1635
   13.970     1715
   13.985     1591
   14.000     1599
   14.015     1679
   14.030     1725
   14.045     1666
   14.060     1668
   14.075     1703
   14.090     1606
   14.105     1661
   14.120     1612
   14.135     1600
   14.150     1670
   14.165     1673
   14.180     1540
   14.195     1585
   14.210     1706
   14.225     1739
   14.240     1657
   14.255     1732
   14.270     1689
   14.285     1686
   14.300     1693
   14.315     1616
   14.330     1691
   14.345     1729
   14.360     1690
   14.375     1761
   14.390     1735
   14.405     1704
   14.420     1761
   14.435     1787
   14.450     1737
   14.465     1767
   14.480     1695
   14.495     1699
   14.510     1657
   14.525     1654
   14.540     1692
   14.555     1770
   14.570     1868
   14.585     1786
   14.600     1665
   14.615     1740
   14.630     1716
   14.645     1758
   14.660     1753
   14.675     1841
   14.690     1789
   14.705     1810
   14.720     1848
   14.735     1778
   14.750     1770
   14.765     1674
   14.780     1705
   14.795     1745
   14.810     1778
   14.825     1772
   14.840     1786
   14.855     1828
   14.870     1788
   14.885     1832
   14.900     1853
   14.915     1842
   14.930     1782
   14.945     1879
   14.960     1943
   14.975     1873
   14.990     1806
   15.005     1903
   15.020     1913
   15.035     1964
   15.050     1932
   15.065     1921
   15.080     1931
   15.095     1835
   15.110     1857
   15.125     1881
   15.140     1766
   15.155     1873
   15.170     1939
   15.185     1919
   15.200     1874
   15.215     1877
   15.230     1828
   15.245     1829
   15.260     1983
   15.275     1912
   15.290     1906
   15.305     1892
   15.320     1938
   15.335     1922
   15.350     2008
   15.365     1893
   15.380     1935
   15.395     1800
   15.410     1824
   15.425     1875
   15.440     1941
   15.455     1981
   15.470     1892
   15.485     2048
   15.500     2068
   15.515     1929
   15.530     1901
   15.545     1875
   15.560     1953
   15.575     1981
   15.590     1965
   15.605     1905
   15.620     2003
   15.635     1967
   15.650     1932
   15.665     2018
   15.680     2078
   15.695     2035
   15.710     1977
   15.725     2076
   15.740     2064
   15.755     2062
   15.770     1998
   15.785     2095
   15.800     2218
   15.815     2181
   15.830     2152
   15.845     2181
   15.860     2151
   15.875     2250
   15.890     2420
   15.905     2398
   15.920     2577
   15.935     2638
   15.950     2682
   15.965     2661
   15.980     2642
   15.995     2601
   16.010     2616
   16.025     2387
   16.040     2359
   16.055     2171
   16.070     2229
   16.085     2257
   16.100     2215
   16.115     2227
   16.130     2184
   16.145     2207
   16.160     2225
   16.175     2247
   16.190     2251
   16.205     2327
   16.220     2372
   16.235     2449
   16.250     2444
   16.265     2437
   16.280     2614
   16.295     2557
   16.310     2483
   16.325     2397
   16.340     2523
   16.355     2534
   16.370     2606
   16.385     2633
   16.400     2637
   16.415     2907
   16.430     3089
   16.445     3261
   16.460     3374
   16.475     3391
   16.490     3288
   16.505     3241
   16.520     2971
   16.535     2716
   16.550     2609
   16.565     2502
   16.580     2419
   16.595     2384
   16.610     2370
   16.625     2381
   16.640     2413
   16.655     2448
   16.670     2394
   16.685     2449
   16.700     2467
   16.715     2558
   16.730     2476
   16.745     2485
   16.760     2587
   16.775     2596
   16.790     2675
   16.805     2708
   16.820     2705
   16.835     2771
   16.850     2789
   16.865     2745
   16.880     2644
   16.895     2675
   16.910     2602
   16.925     2544
   16.940     2508
   16.955     2420
   16.970     2401
   16.985     2498
   17.000     2503
   17.015     2547
   17.030     2526
   17.045     2538
   17.060     2458
   17.075     2398
   17.090     2430
   17.105     2355
   17.120     2385
   17.135     2500
   17.150     2576
   17.165     2579
   17.180     2456
   17.195     2604
   17.210     2693
   17.225     2652
   17.240     2550
   17.255     2413
   17.270     2582
   17.285     2573
   17.300     2553
   17.315     2561
   17.330     2571
   17.345     2593
   17.360     2570
   17.375     2517
   17.390     2626
   17.405     2679
   17.420     2623
   17.435     2735
   17.450     2700
   17.465     2717
   17.480     2549
   17.495     2641
   17.510     2715
   17.525     2626
   17.540     2832
   17.555     2757
   17.570     2741
   17.585     2558
   17.600     2687
   17.615     2651
   17.630     2676
   17.645     2790
   17.660     2809
   17.675     2897
   17.690     2798
   17.705     2924
   17.720     3003
   17.735     2737
   17.750     2939
   17.765     2995
   17.780     2608
   17.795     2925
   17.810     2831
   17.825     2904
   17.840     2773
   17.855     2802
   17.870     2788
   17.885     2690
   17.900     2689
   17.915     2597
   17.930     2827
   17.945     2743
   17.960     2743
   17.975     2740
   17.990     2768
   18.005     2804
   18.020     2952
   18.035     2748
   18.050     2653
   18.065     2841
   18.080     2809
   18.095     2739
   18.110     2788
   18.125     2695
   18.140     2696
   18.155     2729
   18.170     2817
   18.185     2830
   18.200     2757
   18.215     2822
   18.230     2864
   18.245     2876
   18.260     2836
   18.275     2838
   18.290     2942
   18.305     2929
   18.320     2872
   18.335     2888
   18.350     2833
   18.365     2961
   18.380     3168
   18.395     3115
   18.410     3163
   18.425     3174
   18.440     3150
   18.455     3400
   18.470     3482
   18.485     3530
   18.500     3515
   18.515     3770
   18.530     3735
   18.545     3804
   18.560     4022
   18.575     4370
   18.590     4713
   18.605     5079
   18.620     5750
   18.635     6003
   18.650     6164
   18.665     6522
   18.680     6104
   18.695     5680
   18.710     5147
   18.725     4702
   18.740     4099
   18.755     3621
   18.770     3317
   18.785     3100
   18.800     3204
   18.815     2977
   18.830     3026
   18.845     3031
   18.860     3023
   18.875     2978
   18.890     3080
   18.905     3024
   18.920     3082
   18.935     2872
   18.950     2936
   18.965     3308
   18.980     3139
   18.995     3084
   19.010     2918
   19.025     3055
   19.040     3068
   19.055     3033
   19.070     3120
   19.085     3020
   19.100     3144
   19.115     3094
   19.130     3196
   19.145     3045
   19.160     3111
   19.175     3248
   19.190     3450
   19.205     3515
   19.220     3508
   19.235     3594
   19.250     3744
   19.265     3640
   19.280     3618
   19.295     3593
   19.310     3268
   19.325     3260
   19.340     3219
   19.355     3034
   19.370     3155
   19.385     3034
   19.400     3028
   19.415     2888
   19.430     3042
   19.445     2943
   19.460     3104
   19.475     2949
   19.490     2962
   19.505     3054
   19.520     3022
   19.535     3104
   19.550     3055
   19.565     2935
   19.580     2958
   19.595     2902
   19.610     3068
   19.625     3188
   19.640     2893
   19.655     3014
   19.670     2998
   19.685     3028
   19.700     3012
   19.715     2911
   19.730     2859
   19.745     2991
   19.760     3098
   19.775     2932
   19.790     2803
   19.805     3061
   19.820     3063
   19.835     3078
   19.850     3030
   19.865     3062
   19.880     2873
   19.895     2891
   19.910     2997
   19.925     2914
   19.940     2866
   19.955     2945
   19.970     3014
   19.985     2909
   20.000     2889
   20.015     2975
   20.030     3077
   20.045     3116
   20.060     2948
   20.075     3057
   20.090     3022
   20.105     3033
   20.120     2963
   20.135     2894
   20.150     2950
   20.165     2979
   20.180     2800
   20.195     2862
   20.210     2986
   20.225     2975
   20.240     2889
   20.255     2986
   20.270     2829
   20.285     2904
   20.300     2952
   20.315     2842
   20.330     2965
   20.345     3066
   20.360     2992
   20.375     2916
   20.390     2931
   20.405     2993
   20.420     3040
   20.435     3108
   20.450     3007
   20.465     2950
   20.480     2877
   20.495     2799
   20.510     2785
   20.525     2804
   20.540     2898
   20.555     2961
   20.570     2933
   20.585     2860
   20.600     2795
   20.615     2914
   20.630     2818
   20.645     2955
   20.660     2857
   20.675     2949
   20.690     2968
   20.705     3063
   20.720     2972
   20.735     2851
   20.750     2850
   20.765     2795
   20.780     2814
   20.795     2815
   20.810     2938
   20.825     3027
   20.840     3067
   20.855     3279
   20.870     3175
   20.885     3200
   20.900     3230
   20.915     3204
   20.930     2948
   20.945     2985
   20.960     2905
   20.975     2883
   20.990     2810
   21.005     2816
   21.020     2903
   21.035     2919
   21.050     3015
   21.065     2957
   21.080     3004
   21.095     2902
   21.110     2996
   21.125     3117
   21.140     2950
   21.155     3128
   21.170     3126
   21.185     3194
   21.200     3210
   21.215     3136
   21.230     3053
   21.245     2979
   21.260     3110
   21.275     2896
   21.290     2909
   21.305     2734
   21.320     2733
   21.335     2804
   21.350     2837
   21.365     2715
   21.380     2702
   21.395     2775
   21.410     2625
   21.425     2890
   21.440     2931
   21.455     2778
   21.470     2744
   21.485     2975
   21.500     3023
   21.515     2993
   21.530     2916
   21.545     2909
   21.560     2753
   21.575     2897
   21.590     2940
   21.605     3126
   21.620     3252
   21.635     3329
   21.650     3438
   21.665     3742
   21.680     4017
   21.695     4103
   21.710     4151
   21.725     4502
   21.740     4384
   21.755     4433
   21.770     4003
   21.785     3731
   21.800     3682
   21.815     3475
   21.830     3301
   21.845     3025
   21.860     2730
   21.875     2791
   21.890     2770
   21.905     2627
   21.920     2696
   21.935     2714
   21.950     2663
   21.965     2615
   21.980     2628
   21.995     2559
   22.010     2690
   22.025     2584
   22.040     2644
   22.055     2570
   22.070     2699
   22.085     2671
   22.100     2811
   22.115     2715
   22.130     2571
   22.145     2654
   22.160     2682
   22.175     2655
   22.190     2520
   22.205     2642
   22.220     2626
   22.235     2584
   22.250     2625
   22.265     2582
   22.280     2631
   22.295     2524
   22.310     2388
   22.325     2506
   22.340     2688
   22.355     2636
   22.370     2684
   22.385     2683
   22.400     2501
   22.415     2602
   22.430     2684
   22.445     2640
   22.460     2571
   22.475     2634
   22.490     2614
   22.505     2631
   22.520     2604
   22.535     2580
   22.550     2573
   22.565     2635
   22.580     2591
   22.595     2527
   22.610     2514
   22.625     2601
   22.640     2534
   22.655     2484
   22.670     2374
   22.685     2434
   22.700     2463
   22.715     2546
   22.730     2570
   22.745     2522
   22.760     2603
   22.775     2524
   22.790     2502
   22.805     2489
   22.820     2399
   22.835     2431
   22.850     2415
   22.865     2414
   22.880     2506
   22.895     2476
   22.910     2576
   22.925     2511
   22.940     2554
   22.955     2436
   22.970     2501
   22.985     2458
   23.000     2356
   23.015     2500
   23.030     2426
   23.045     2487
   23.060     2482
   23.075     2420
   23.090     2406
   23.105     2358
   23.120     2357
   23.135     2332
   23.150     2457
   23.165     2496
   23.180     2381
   23.195     2524
   23.210     2589
   23.225     2527
   23.240     2419
   23.255     2415
   23.270     2570
   23.285     2615
   23.300     2607
   23.315     2522
   23.330     2571
   23.345     2556
   23.360     2593
   23.375     2514
   23.390     2587
   23.405     2554
   23.420     2543
   23.435     2517
   23.450     2441
   23.465     2385
   23.480     2407
   23.495     2389
   23.510     2459
   23.525     2393
   23.540     2463
   23.555     2499
   23.570     2433
   23.585     2237
   23.600     2382
   23.615     2301
   23.630     2378
   23.645     2397
   23.660     2350
   23.675     2469
   23.690     2299
   23.705     2449
   23.720     2469
   23.735     2569
   23.750     2592
   23.765     2662
   23.780     2527
   23.795     2542
   23.810     2636
   23.825     2583
   23.840     2502
   23.855     2561
   23.870     2468
   23.885     2356
   23.900     2392
   23.915     2245
   23.930     2305
   23.945     2262
   23.960     2355
   23.975     2381
   23.990     2324
   24.005     2353
   24.020     2479
   24.035     2262
   24.050     2225
   24.065     2432
   24.080     2304
   24.095     2221
   24.110     2291
   24.125     2256
   24.140     2288
   24.155     2254
   24.170     2229
   24.185     2247
   24.200     2261
   24.215     2346
   24.230     2322
   24.245     2227
   24.260     2205
   24.275     2232
   24.290     2302
   24.305     2259
   24.320     2209
   24.335     2328
   24.350     2264
   24.365     2244
   24.380     2357
   24.395     2418
   24.410     2437
   24.425     2374
   24.440     2383
   24.455     2378
   24.470     2382
   24.485     2354
   24.500     2355
   24.515     2506
   24.530     2392
   24.545     2380
   24.560     2346
   24.575     2409
   24.590     2533
   24.605     2429
   24.620     2452
   24.635     2314
   24.650     2295
   24.665     2260
   24.680     2208
   24.695     2270
   24.710     2184
   24.725     2235
   24.740     2272
   24.755     2241
   24.770     2268
   24.785     2177
   24.800     2309
   24.815     2260
   24.830     2251
   24.845     2231
   24.860     2223
   24.875     2196
   24.890     2293
   24.905     2266
   24.920     2213
   24.935     2119
   24.950     2251
   24.965     2348
   24.980     2200
   24.995     2227
   25.010     2238
   25.025     2216
   25.040     2274
   25.055     2225
   25.070     2327
   25.085     2272
   25.100     2427
   25.115     2327
   25.130     2342
   25.145     2334
   25.160     2231
   25.175     2329
   25.190     2413
   25.205     2224
   25.220     2230
   25.235     2192
   25.250     2170
   25.265     2198
   25.280     2164
   25.295     2246
   25.310     2066
   25.325     2101
   25.340     2274
   25.355     2252
   25.370     2272
   25.385     2203
   25.400     2238
   25.415     2131
   25.430     2241
   25.445     2196
   25.460     2330
   25.475     2228
   25.490     2164
   25.505     2197
   25.520     2146
   25.535     2194
   25.550     2271
   25.565     2139
   25.580     2102
   25.595     2177
   25.610     2270
   25.625     2419
   25.640     2243
   25.655     2282
   25.670     2347
   25.685     2451
   25.700     2544
   25.715     2621
   25.730     2596
   25.745     2614
   25.760     2801
   25.775     2602
   25.790     2394
   25.805     2501
   25.820     2472
   25.835     2433
   25.850     2311
   25.865     2302
   25.880     2192
   25.895     2280
   25.910     2364
   25.925     2351
   25.940     2453
   25.955     2598
   25.970     2646
   25.985     2585
   26.000     2559
   26.015     2561
   26.030     2607
   26.045     2560
   26.060     2388
   26.075     2300
   26.090     2209
   26.105     2211
   26.120     2103
   26.135     2078
   26.150     2106
   26.165     2119
   26.180     1988
   26.195     1996
   26.210     2047
   26.225     2154
   26.240     2088
   26.255     2135
   26.270     2033
   26.285     2051
   26.300     2089
   26.315     2033
   26.330     2053
   26.345     2140
   26.360     2124
   26.375     2073
   26.390     2015
   26.405     2051
   26.420     2165
   26.435     2118
   26.450     2017
   26.465     1969
   26.480     1956
   26.495     1977
   26.510     1991
   26.525     2005
   26.540     2026
   26.555     2131
   26.570     2106
   26.585     2066
   26.600     2008
   26.615     2064
   26.630     2000
   26.645     2032
   26.660     2060
   26.675     2037
   26.690     2010
   26.705     2089
   26.720     2084
   26.735     1980
   26.750     2003
   26.765     1932
   26.780     1967
   26.795     2042
   26.810     2053
   26.825     2064
   26.840     1996
   26.855     2058
   26.870     2039
   26.885     2079
   26.900     2043
   26.915     2099
   26.930     1957
   26.945     2056
   26.960     2027
   26.975     1940
   26.990     1929
   27.005     1894
   27.020     2001
   27.035     1933
   27.050     2064
   27.065     2151
   27.080     2075
   27.095     1988
   27.110     2021
   27.125     2042
   27.140     1935
   27.155     2061
   27.170     2107
   27.185     2078
   27.200     2089
   27.215     2040
   27.230     2006
   27.245     2021
   27.260     2118
   27.275     2008
   27.290     2088
   27.305     1999
   27.320     1981
   27.335     2080
   27.350     2052
   27.365     1962
   27.380     2029
   27.395     1975
   27.410     1902
   27.425     1990
   27.440     2025
   27.455     1926
   27.470     1884
   27.485     2055
   27.500     2072
   27.515     2009
   27.530     1964
   27.545     1939
   27.560     1984
   27.575     1977
   27.590     1974
   27.605     1994
   27.620     2001
   27.635     2072
   27.650     1928
   27.665     2085
   27.680     2116
   27.695     2046
   27.710     1974
   27.725     2035
   27.740     2053
   27.755     2059
   27.770     1999
   27.785     1999
   27.800     2205
   27.815     2342
   27.830     2196
   27.845     2163
   27.860     2134
   27.875     2254
   27.890     2249
   27.905     2078
   27.920     2167
   27.935     2175
   27.950     2028
   27.965     2054
   27.980     2034
   27.995     2096
   28.010     2097
   28.025     2031
   28.040     2089
   28.055     2090
   28.070     2072
   28.085     2110
   28.100     2295
   28.115     2310
   28.130     2290
   28.145     2363
   28.160     2475
   28.175     2566
   28.190     2422
   28.205     2503
   28.220     2488
   28.235     2432
   28.250     2303
   28.265     2270
   28.280     2326
   28.295     2168
   28.310     1982
   28.325     1951
   28.340     1962
   28.355     1992
   28.370     2045
   28.385     2011
   28.400     1911
   28.415     1973
   28.430     1985
   28.445     2015
   28.460     1973
   28.475     1933
   28.490     1917
   28.505     1932
   28.520     1946
   28.535     1875
   28.550     1902
   28.565     1984
   28.580     1916
   28.595     1913
   28.610     1902
   28.625     1877
   28.640     1887
   28.655     1858
   28.670     1856
   28.685     1875
   28.700     1892
   28.715     1977
   28.730     1962
   28.745     1991
   28.760     1979
   28.775     1879
   28.790     1878
   28.805     1968
   28.820     1931
   28.835     1876
   28.850     1894
   28.865     1907
   28.880     1947
   28.895     1951
   28.910     1957
   28.925     1881
   28.940     1944
   28.955     1852
   28.970     1900
   28.985     1911
   29.000     1848
   29.015     1933
   29.030     1896
   29.045     1847
   29.060     1937
   29.075     1877
   29.090     1821
   29.105     1760
   29.120     1771
   29.135     1818
   29.150     1932
   29.165     1919
   29.180     1844
   29.195     1954
   29.210     1890
   29.225     1936
   29.240     1795
   29.255     1756
   29.270     1922
   29.285     1933
   29.300     1894
   29.315     1830
   29.330     1789
   29.345     1790
   29.360     1865
   29.375     1807
   29.390     1985
   29.405     1980
   29.420     1919
   29.435     1864
   29.450     1870
   29.465     1787
   29.480     1916
   29.495     1947
   29.510     1992
   29.525     1950
   29.540     2021
   29.555     2009
   29.570     1952
   29.585     1849
   29.600     1906
   29.615     1882
   29.630     1859
   29.645     1888
   29.660     1889
   29.675     1886
   29.690     1757
   29.705     1830
   29.720     1866
   29.735     1836
   29.750     1833
   29.765     1938
   29.780     1780
   29.795     1845
   29.810     1750
   29.825     1820
   29.840     1790
   29.855     1768
   29.870     1786
   29.885     1693
   29.900     1741
   29.915     1694
   29.930     1819
   29.945     1762
   29.960     1702
   29.975     1793
   29.990     1755
   30.005     1782
   30.020     1847
   30.035     1832
   30.050     1786
   30.065     1772
   30.080     1777
   30.095     1713
   30.110     1739
   30.125     1777
   30.140     1733
   30.155     1710
   30.170     1695
   30.185     1764
   30.200     1757
   30.215     1806
   30.230     1789
   30.245     1744
   30.260     1717
   30.275     1731
   30.290     1834
   30.305     1809
   30.320     1753
   30.335     1749
   30.350     1705
   30.365     1738
   30.380     1825
   30.395     1879
   30.410     1844
   30.425     1695
   30.440     1621
   30.455     1739
   30.470     1805
   30.485     1771
   30.500     1700
   30.515     1750
   30.530     1747
   30.545     1793
   30.560     1773
   30.575     1793
   30.590     1786
   30.605     1799
   30.620     1859
   30.635     1848
   30.650     1842
   30.665     1923
   30.680     1855
   30.695     1868
   30.710     1808
   30.725     1821
   30.740     1836
   30.755     1791
   30.770     1764
   30.785     1755
   30.800     1763
   30.815     1691
   30.830     1680
   30.845     1741
   30.860     1686
   30.875     1632
   30.890     1660
   30.905     1649
   30.920     1722
   30.935     1664
   30.950     1667
   30.965     1856
   30.980     1748
   30.995     1707
   31.010     1752
   31.025     1727
   31.040     1712
   31.055     1734
   31.070     1723
   31.085     1672
   31.100     1714
   31.115     1739
   31.130     1690
   31.145     1682
   31.160     1593
   31.175     1675
   31.190     1756
   31.205     1687
   31.220     1650
   31.235     1649
   31.250     1545
   31.265     1668
   31.280     1625
   31.295     1672
   31.310     1580
   31.325     1610
   31.340     1721
   31.355     1671
   31.370     1681
   31.385     1661
   31.400     1691
   31.415     1647
   31.430     1728
   31.445     1663
   31.460     1692
   31.475     1610
   31.490     1648
   31.505     1663
   31.520     1660
   31.535     1621
   31.550     1682
   31.565     1622
   31.580     1617
   31.595     1609
   31.610     1766
   31.625     1773
   31.640     1650
   31.655     1550
   31.670     1645
   31.685     1656
   31.700     1632
   31.715     1623
   31.730     1570
   31.745     1586
   31.760     1603
   31.775     1587
   31.790     1484
   31.805     1644
   31.820     1657
   31.835     1693
   31.850     1631
   31.865     1581
   31.880     1529
   31.895     1549
   31.910     1552
   31.925     1539
   31.940     1612
   31.955     1567
   31.970     1632
   31.985     1558
   32.000     1560
   32.015     1626
   32.030     1711
   32.045     1619
   32.060     1525
   32.075     1587
   32.090     1542
   32.105     1594
   32.120     1561
   32.135     1573
   32.150     1606
   32.165     1602
   32.180     1602
   32.195     1662
   32.210     1672
   32.225     1670
   32.240     1640
   32.255     1710
   32.270     1679
   32.285     1705
   32.300     1763
   32.315     1783
   32.330     1893
   32.345     1972
   32.360     1969
   32.375     2006
   32.390     1948
   32.405     1928
   32.420     1956
   32.435     1946
   32.450     1865
   32.465     1814
   32.480     1720
   32.495     1686
   32.510     1680
   32.525     1722
   32.540     1791
   32.555     1790
   32.570     1856
   32.585     1810
   32.600     1737
   32.615     1795
   32.630     1690
   32.645     1693
   32.660     1680
   32.675     1695
   32.690     1688
   32.705     1660
   32.720     1666
   32.735     1553
   32.750     1531
   32.765     1500
   32.780     1522
   32.795     1557
   32.810     1615
   32.825     1605
   32.840     1517
   32.855     1608
   32.870     1596
   32.885     1600
   32.900     1523
   32.915     1538
   32.930     1512
   32.945     1570
   32.960     1663
   32.975     1524
   32.990     1463
   33.005     1543
   33.020     1534
   33.035     1531
   33.050     1552
   33.065     1523
   33.080     1568
   33.095     1541
   33.110     1606
   33.125     1582
   33.140     1520
   33.155     1596
   33.170     1542
   33.185     1546
   33.200     1573
   33.215     1468
   33.230     1514
   33.245     1584
   33.260     1640
   33.275     1594
   33.290     1553
   33.305     1540
   33.320     1609
   33.335     1658
   33.350     1812
   33.365     1636
   33.380     1661
   33.395     1723
   33.410     1615
   33.425     1713
   33.440     1701
   33.455     1659
   33.470     1638
   33.485     1622
   33.500     1572
   33.515     1515
   33.530     1529
   33.545     1487
   33.560     1487
   33.575     1442
   33.590     1558
   33.605     1444
   33.620     1466
   33.635     1424
   33.650     1441
   33.665     1565
   33.680     1593
   33.695     1443
   33.710     1445
   33.725     1585
   33.740     1502
   33.755     1538
   33.770     1484
   33.785     1567
   33.800     1654
   33.815     1645
   33.830     1615
   33.845     1583
   33.860     1540
   33.875     1546
   33.890     1556
   33.905     1473
   33.920     1481
   33.935     1600
   33.950     1450
   33.965     1415
   33.980     1476
   33.995     1499
   34.010     1539
   34.025     1501
   34.040     1499
   34.055     1501
   34.070     1604
   34.085     1606
   34.100     1695
   34.115     1678
   34.130     1617
   34.145     1664
   34.160     1662
   34.175     1661
   34.190     1595
   34.205     1656
   34.220     1608
   34.235     1596
   34.250     1535
   34.265     1500
   34.280     1560
   34.295     1547
   34.310     1499
   34.325     1419
   34.340     1505
   34.355     1635
   34.370     1657
   34.385     1675
   34.400     1614
   34.415     1598
   34.430     1599
   34.445     1594
   34.460     1602
   34.475     1612
   34.490     1512
   34.505     1502
   34.520     1514
   34.535     1442
   34.550     1386
   34.565     1405
   34.580     1425
   34.595     1398
   34.610     1355
   34.625     1385
   34.640     1390
   34.655     1340
   34.670     1369
   34.685     1401
   34.700     1409
   34.715     1465
   34.730     1416
   34.745     1358
   34.760     1337
   34.775     1393
   34.790     1460
   34.805     1411
   34.820     1377
   34.835     1335
   34.850     1316
   34.865     1386
   34.880     1382
   34.895     1431
   34.910     1454
   34.925     1475
   34.940     1454
   34.955     1435
   34.970     1431
   34.985     1437
   35.000     1418
   35.015     1425
   35.030     1401
   35.045     1473
   35.060     1480
   35.075     1437
   35.090     1449
   35.105     1416
   35.120     1436
   35.135     1430
   35.150     1470
   35.165     1502
   35.180     1400
   35.195     1442
   35.210     1497
   35.225     1438
   35.240     1387
   35.255     1418
   35.270     1452
   35.285     1428
   35.300     1462
   35.315     1456
   35.330     1392
   35.345     1364
   35.360     1440
   35.375     1363
   35.390     1428
   35.405     1442
   35.420     1422
   35.435     1354
   35.450     1460
   35.465     1366
   35.480     1350
   35.495     1332
   35.510     1354
   35.525     1323
   35.540     1374
   35.555     1443
   35.570     1461
   35.585     1381
   35.600     1314
   35.615     1347
   35.630     1361
   35.645     1320
   35.660     1311
   35.675     1399
   35.690     1401
   35.705     1466
   35.720     1431
   35.735     1391
   35.750     1385
   35.765     1511
   35.780     1355
   35.795     1458
   35.810     1386
   35.825     1334
   35.840     1339
   35.855     1336
   35.870     1414
   35.885     1317
   35.900     1310
   35.915     1259
   35.930     1353
   35.945     1290
   35.960     1315
   35.975     1386
   35.990     1333
   36.005     1300
   36.020     1388
   36.035     1317
   36.050     1336
   36.065     1369
   36.080     1321
   36.095     1304
   36.110     1283
   36.125     1271
   36.140     1258
   36.155     1302
   36.170     1317
   36.185     1284
   36.200     1325
   36.215     1350
   36.230     1263
   36.245     1298
   36.260     1298
   36.275     1323
   36.290     1321
   36.305     1310
   36.320     1323
   36.335     1295
   36.350     1305
   36.365     1280
   36.380     1322
   36.395     1285
   36.410     1332
   36.425     1319
   36.440     1271
   36.455     1296
   36.470     1316
   36.485     1336
   36.500     1274
   36.515     1315
   36.530     1331
   36.545     1341
   36.560     1414
   36.575     1371
   36.590     1357
   36.605     1408
   36.620     1401
   36.635     1455
   36.650     1461
   36.665     1400
   36.680     1424
   36.695     1438
   36.710     1385
   36.725     1448
   36.740     1438
   36.755     1427
   36.770     1365
   36.785     1347
   36.800     1412
   36.815     1287
   36.830     1306
   36.845     1322
   36.860     1325
   36.875     1278
   36.890     1370
   36.905     1362
   36.920     1290
   36.935     1260
   36.950     1236
   36.965     1379
   36.980     1299
   36.995     1276
   37.010     1289
   37.025     1353
   37.040     1333
   37.055     1230
   37.070     1309
   37.085     1216
   37.100     1292
   37.115     1375
   37.130     1369
   37.145     1285
   37.160     1305
   37.175     1345
   37.190     1370
   37.205     1268
   37.220     1266
   37.235     1350
   37.250     1305
   37.265     1266
   37.280     1324
   37.295     1344
   37.310     1232
   37.325     1256
   37.340     1282
   37.355     1334
   37.370     1346
   37.385     1347
   37.400     1389
   37.415     1304
   37.430     1344
   37.445     1334
   37.460     1383
   37.475     1343
   37.490     1380
   37.505     1437
   37.520     1344
   37.535     1440
   37.550     1389
   37.565     1363
   37.580     1430
   37.595     1400
   37.610     1400
   37.625     1458
   37.640     1352
   37.655     1330
   37.670     1366
   37.685     1324
   37.700     1319
   37.715     1314
   37.730     1310
   37.745     1280
   37.760     1324
   37.775     1279
   37.790     1194
   37.805     1362
   37.820     1359
   37.835     1372
   37.850     1329
   37.865     1347
   37.880     1399
   37.895     1453
   37.910     1432
   37.925     1469
   37.940     1477
   37.955     1473
   37.970     1525
   37.985     1401
   38.000     1421
   38.015     1374
   38.030     1409
   38.045     1450
   38.060     1401
   38.075     1412
   38.090     1319
   38.105     1368
   38.120     1324
   38.135     1290
   38.150     1299
   38.165     1326
   38.180     1243
   38.195     1266
   38.210     1314
   38.225     1364
   38.240     1296
   38.255     1334
   38.270     1279
   38.285     1246
   38.300     1295
   38.315     1225
   38.330     1306
   38.345     1367
   38.360     1329
   38.375     1317
   38.390     1312
   38.405     1351
   38.420     1381
   38.435     1341
   38.450     1285
   38.465     1302
   38.480     1314
   38.495     1278
   38.510     1254
   38.525     1193
   38.540     1257
   38.555     1327
   38.570     1303
   38.585     1277
   38.600     1240
   38.615     1304
   38.630     1246
   38.645     1246
   38.660     1258
   38.675     1249
   38.690     1271
   38.705     1268
   38.720     1317
   38.735     1279
   38.750     1265
   38.765     1180
   38.780     1229
   38.795     1272
   38.810     1281
   38.825     1247
   38.840     1246
   38.855     1262
   38.870     1290
   38.885     1315
   38.900     1288
   38.915     1280
   38.930     1210
   38.945     1287
   38.960     1258
   38.975     1293
   38.990     1260
   39.005     1271
   39.020     1314
   39.035     1309
   39.050     1301
   39.065     1281
   39.080     1306
   39.095     1217
   39.110     1289
   39.125     1294
   39.140     1213
   39.155     1295
   39.170     1267
   39.185     1245
   39.200     1296
   39.215     1269
   39.230     1283
   39.245     1269
   39.260     1338
   39.275     1218
   39.290     1241
   39.305     1293
   39.320     1256
   39.335     1232
   39.350     1275
   39.365     1223
   39.380     1279
   39.395     1169
   39.410     1186
   39.425     1236
   39.440     1281
   39.455     1223
   39.470     1201
   39.485     1329
   39.500     1277
   39.515     1237
   39.530     1225
   39.545     1175
   39.560     1237
   39.575     1173
   39.590     1146
   39.605     1245
   39.620     1208
   39.635     1252
   39.650     1204
   39.665     1307
   39.680     1297
   39.695     1277
   39.710     1226
   39.725     1270
   39.740     1201
   39.755     1264
   39.770     1200
   39.785     1236
   39.800     1303
   39.815     1338
   39.830     1269
   39.845     1243
   39.860     1281
   39.875     1327
   39.890     1308
   39.905     1231
   39.920     1242
   39.935     1307
   39.950     1275
   39.965     1231
   39.980     1316
   39.995     1278
   40.010     1318
   40.025     1267
   40.040     1334
   40.055     1302
   40.070     1340
   40.085     1283
   40.100     1301
   40.115     1312
   40.130     1292
   40.145     1287
   40.160     1314
   40.175     1314
   40.190     1242
   40.205     1259
   40.220     1251
   40.235     1242
   40.250     1234
   40.265     1233
   40.280     1290
   40.295     1291
   40.310     1195
   40.325     1163
   40.340     1242
   40.355     1253
   40.370     1287
   40.385     1280
   40.400     1248
   40.415     1248
   40.430     1285
   40.445     1374
   40.460     1374
   40.475     1464
   40.490     1459
   40.505     1484
   40.520     1493
   40.535     1485
   40.550     1526
   40.565     1533
   40.580     1507
   40.595     1506
   40.610     1470
   40.625     1410
   40.640     1392
   40.655     1354
   40.670     1388
   40.685     1359
   40.700     1339
   40.715     1405
   40.730     1328
   40.745     1263
   40.760     1282
   40.775     1271
   40.790     1303
   40.805     1324
   40.820     1306
   40.835     1270
   40.850     1198
   40.865     1233
   40.880     1284
   40.895     1262
   40.910     1260
   40.925     1294
   40.940     1344
   40.955     1281
   40.970     1267
   40.985     1297
   41.000     1255
   41.015     1259
   41.030     1253
   41.045     1245
   41.060     1296
   41.075     1273
   41.090     1268
   41.105     1240
   41.120     1195
   41.135     1227
   41.150     1296
   41.165     1301
   41.180     1257
   41.195     1338
   41.210     1347
   41.225     1271
   41.240     1275
   41.255     1284
   41.270     1306
   41.285     1282
   41.300     1236
   41.315     1274
   41.330     1310
   41.345     1317
   41.360     1289
   41.375     1300
   41.390     1370
   41.405     1334
   41.420     1278
   41.435     1249
   41.450     1325
   41.465     1215
   41.480     1280
   41.495     1319
   41.510     1284
   41.525     1325
   41.540     1401
   41.555     1446
   41.570     1415
   41.585     1376
   41.600     1448
   41.615     1460
   41.630     1448
   41.645     1529
   41.660     1474
   41.675     1516
   41.690     1523
   41.705     1482
   41.720     1528
   41.735     1465
   41.750     1448
   41.765     1443
   41.780     1378
   41.795     1418
   41.810     1345
   41.825     1344
   41.840     1304
   41.855     1355
   41.870     1375
   41.885     1338
   41.900     1342
   41.915     1243
   41.930     1346
   41.945     1409
   41.960     1327
   41.975     1397
   41.990     1420
   42.005     1423
   42.020     1453
   42.035     1389
   42.050     1328
   42.065     1393
   42.080     1321
   42.095     1274
   42.110     1277
   42.125     1345
   42.140     1314
   42.155     1252
   42.170     1288
   42.185     1312
   42.200     1345
   42.215     1383
   42.230     1332
   42.245     1331
   42.260     1320
   42.275     1330
   42.290     1367
   42.305     1287
   42.320     1273
   42.335     1305
   42.350     1323
   42.365     1305
   42.380     1290
   42.395     1350
   42.410     1331
   42.425     1316
   42.440     1304
   42.455     1274
   42.470     1295
   42.485     1321
   42.500     1288
   42.515     1351
   42.530     1240
   42.545     1266
   42.560     1319
   42.575     1305
   42.590     1308
   42.605     1308
   42.620     1350
   42.635     1298
   42.650     1236
   42.665     1270
   42.680     1199
   42.695     1228
   42.710     1245
   42.725     1240
   42.740     1324
   42.755     1212
   42.770     1232
   42.785     1273
   42.800     1256
   42.815     1245
   42.830     1233
   42.845     1215
   42.860     1260
   42.875     1178
   42.890     1236
   42.905     1180
   42.920     1238
   42.935     1178
   42.950     1267
   42.965     1244
   42.980     1257
   42.995     1262
   43.010     1266
   43.025     1314
   43.040     1294
   43.055     1248
   43.070     1300
   43.085     1219
   43.100     1261
   43.115     1339
   43.130     1313
   43.145     1260
   43.160     1223
   43.175     1254
   43.190     1302
   43.205     1287
   43.220     1217
   43.235     1319
   43.250     1280
   43.265     1262
   43.280     1311
   43.295     1337
   43.310     1209
   43.325     1243
   43.340     1266
   43.355     1338
   43.370     1374
   43.385     1305
   43.400     1291
   43.415     1246
   43.430     1201
   43.445     1178
   43.460     1286
   43.475     1244
   43.490     1238
   43.505     1309
   43.520     1192
   43.535     1265
   43.550     1303
   43.565     1230
   43.580     1281
   43.595     1233
   43.610     1259
   43.625     1311
   43.640     1237
   43.655     1246
   43.670     1212
   43.685     1181
   43.700     1228
   43.715     1203
   43.730     1206
   43.745     1218
   43.760     1275
   43.775     1227
   43.790     1171
   43.805     1195
   43.820     1257
   43.835     1249
   43.850     1238
   43.865     1196
   43.880     1160
   43.895     1232
   43.910     1183
   43.925     1121
   43.940     1213
   43.955     1277
   43.970     1290
   43.985     1211
