    2.000     1844
    2.015     1869
    2.030     1908
    2.045     1880
    2.060     1835
    2.075     1948
    2.090     1905
    2.105     1829
    2.120     1795
    2.135     1769
    2.150     1859
    2.165     1857
    2.180     1754
    2.195     1809
    2.210     1796
    2.225     1853
    2.240     1862
    2.255     1818
    2.270     1762
    2.285     1817
    2.300     1756
    2.315     1669
    2.330     1738
    2.345     1804
    2.360     1817
    2.375     1789
    2.390     1815
    2.405     1817
    2.420     1849
    2.435     1880
    2.450     1836
    2.465     1831
    2.480     1802
    2.495     1790
    2.510     1794
    2.525     1810
    2.540     1888
    2.555     1936
    2.570     1989
    2.585     1983
    2.600     1904
    2.615     2032
    2.630     2029
    2.645     2180
    2.660     2225
    2.675     2362
    2.690     2462
    2.705     2487
    2.720     2413
    2.735     2126
    2.750     1857
    2.765     1698
    2.780     1701
    2.795     1728
    2.810     1668
    2.825     1668
    2.840     1723
    2.855     1797
    2.870     1789
    2.885     1792
    2.900     1747
    2.915     1893
    2.930     1835
    2.945     1895
    2.960     1977
    2.975     1935
    2.990     1895
    3.005     1848
    3.020     2078
    3.035     2154
    3.050     2100
    3.065     2307
    3.080     2312
    3.095     2282
    3.110     2495
    3.125     2697
    3.140     2785
    3.155     3138
    3.170     3373
    3.185     3330
    3.200     3138
    3.215     2656
    3.230     2274
    3.245     1963
    3.260     2011
    3.275     1882
    3.290     1895
    3.305     2128
    3.320     2149
    3.335     2035
    3.350     1928
    3.365     1666
    3.380     1556
    3.395     1415
    3.410     1319
    3.425     1382
    3.440     1386
    3.455     1383
    3.470     1340
    3.485     1405
    3.500     1365
    3.515     1371
    3.530     1295
    3.545     1306
    3.560     1264
    3.575     1270
    3.590     1377
    3.605     1342
    3.620     1388
    3.635     1377
    3.650     1377
    3.665     1386
    3.680     1452
    3.695     1413
    3.710     1366
    3.725     1444
    3.740     1463
    3.755     1411
    3.770     1439
    3.785     1417
    3.800     1473
    3.815     1583
    3.830     1634
    3.845     1568
    3.860     1521
    3.875     1547
    3.890     1517
    3.905     1398
    3.920     1369
    3.935     1404
    3.950     1355
    3.965     1300
    3.980     1334
    3.995     1340
    4.010     1413
    4.025     1332
    4.040     1364
    4.055     1257
    4.070     1328
    4.085     1360
    4.100     1453
    4.115     1397
    4.130     1346
    4.145     1350
    4.160     1418
    4.175     1484
    4.190     1388
    4.205     1468
    4.220     1452
    4.235     1418
    4.250     1384
    4.265     1302
    4.280     1369
    4.295     1336
    4.310     1284
    4.325     1294
    4.340     1368
    4.355     1355
    4.370     1366
    4.385     1388
    4.400     1282
    4.415     1363
    4.430     1367
    4.445     1410
    4.460     1378
    4.475     1354
    4.490     1383
    4.505     1401
    4.520     1382
    4.535     1380
    4.550     1375
    4.565     1416
    4.580     1435
    4.595     1411
    4.610     1430
    4.625     1442
    4.640     1428
    4.655     1464
    4.670     1453
    4.685     1508
    4.700     1540
    4.715     1609
    4.730     1630
    4.745     1661
    4.760     1583
    4.775     1465
    4.790     1426
    4.805     1435
    4.820     1481
    4.835     1451
    4.850     1426
    4.865     1518
    4.880     1581
    4.895     1623
    4.910     1573
    4.925     1586
    4.940     1628
    4.955     1619
    4.970     1668
    4.985     1784
    5.000     1847
    5.015     2035
    5.030     1931
    5.045     1844
    5.060     1786
    5.075     1609
    5.090     1437
    5.105     1322
    5.120     1240
    5.135     1255
    5.150     1365
    5.165     1372
    5.180     1306
    5.195     1394
    5.210     1371
    5.225     1357
    5.240     1295
    5.255     1290
    5.270     1339
    5.285     1356
    5.300     1360
    5.315     1350
    5.330     1348
    5.345     1387
    5.360     1386
    5.375     1323
    5.390     1441
    5.405     1444
    5.420     1414
    5.435     1498
    5.450     1510
    5.465     1554
    5.480     1521
    5.495     1484
    5.510     1486
    5.525     1388
    5.540     1469
    5.555     1484
    5.570     1397
    5.585     1312
    5.600     1393
    5.615     1374
    5.630     1394
    5.645     1476
    5.660     1483
    5.675     1587
    5.690     1606
    5.705     1693
    5.720     1779
    5.735     1719
    5.750     1767
    5.765     1743
    5.780     1553
    5.795     1528
    5.810     1388
    5.825     1391
    5.840     1308
    5.855     1308
    5.870     1350
    5.885     1261
    5.900     1239
    5.915     1196
    5.930     1315
    5.945     1325
    5.960     1263
    5.975     1237
    5.990     1283
    6.005     1346
    6.020     1333
    6.035     1310
    6.050     1247
    6.065     1337
    6.080     1287
    6.095     1267
    6.110     1290
    6.125     1303
    6.140     1269
    6.155     1253
    6.170     1257
    6.185     1292
    6.200     1311
    6.215     1291
    6.230     1319
    6.245     1273
    6.260     1216
    6.275     1233
    6.290     1259
    6.305     1240
    6.320     1274
    6.335     1322
    6.350     1290
    6.365     1285
    6.380     1293
    6.395     1276
    6.410     1309
    6.425     1311
    6.440     1268
    6.455     1320
    6.470     1300
    6.485     1287
    6.500     1299
    6.515     1353
    6.530     1228
    6.545     1248
    6.560     1301
    6.575     1308
    6.590     1256
    6.605     1256
    6.620     1250
    6.635     1235
    6.650     1246
    6.665     1272
    6.680     1285
    6.695     1329
    6.710     1296
    6.725     1306
    6.740     1348
    6.755     1305
    6.770     1328
    6.785     1274
    6.800     1349
    6.815     1304
    6.830     1342
    6.845     1325
    6.860     1324
    6.875     1299
    6.890     1390
    6.905     1383
    6.920     1346
    6.935     1313
    6.950     1351
    6.965     1350
    6.980     1294
    6.995     1321
    7.010     1287
    7.025     1314
    7.040     1337
    7.055     1268
    7.070     1363
    7.085     1307
    7.100     1313
    7.115     1312
    7.130     1326
    7.145     1338
    7.160     1307
    7.175     1284
    7.190     1326
    7.205     1323
    7.220     1363
    7.235     1305
    7.250     1335
    7.265     1321
    7.280     1348
    7.295     1337
    7.310     1263
    7.325     1251
    7.340     1318
    7.355     1376
    7.370     1398
    7.385     1262
    7.400     1379
    7.415     1332
    7.430     1260
    7.445     1230
    7.460     1314
    7.475     1333
    7.490     1331
    7.505     1316
    7.520     1276
    7.535     1284
    7.550     1357
    7.565     1263
    7.580     1302
    7.595     1322
    7.610     1353
    7.625     1363
    7.640     1305
    7.655     1310
    7.670     1393
    7.685     1426
    7.700     1389
    7.715     1338
    7.730     1338
    7.745     1404
    7.760     1439
    7.775     1403
    7.790     1282
    7.805     1385
    7.820     1381
    7.835     1408
    7.850     1485
    7.865     1406
    7.880     1336
    7.895     1399
    7.910     1471
    7.925     1415
    7.940     1481
    7.955     1485
    7.970     1551
    7.985     1511
    8.000     1494
    8.015     1549
    8.030     1550
    8.045     1561
    8.060     1472
    8.075     1554
    8.090     1535
    8.105     1557
    8.120     1530
    8.135     1518
    8.150     1629
    8.165     1661
    8.180     1656
    8.195     1732
    8.210     1832
    8.225     1914
    8.240     2022
    8.255     2245
    8.270     2267
    8.285     2230
    8.300     2146
    8.315     1863
    8.330     1750
    8.345     1726
    8.360     1631
    8.375     1632
    8.390     1683
    8.405     1726
    8.420     1903
    8.435     1997
    8.450     1942
    8.465     1949
    8.480     1856
    8.495     1699
    8.510     1639
    8.525     1601
    8.540     1652
    8.555     1750
    8.570     1805
    8.585     1730
    8.600     1679
    8.615     1819
    8.630     1830
    8.645     1926
    8.660     2001
    8.675     2164
    8.690     2270
    8.705     2551
    8.720     2728
    8.735     2595
    8.750     2490
    8.765     2343
    8.780     2243
    8.795     2304
    8.810     2371
    8.825     2475
    8.840     2613
    8.855     3026
    8.870     3367
    8.885     3670
    8.900     3566
    8.915     3497
    8.930     3076
    8.945     2659
    8.960     2333
    8.975     1944
    8.990     1712
    9.005     1571
    9.020     1522
    9.035     1498
    9.050     1479
    9.065     1507
    9.080     1494
    9.095     1429
    9.110     1473
    9.125     1516
    9.140     1476
    9.155     1527
    9.170     1615
    9.185     1561
    9.200     1650
    9.215     1611
    9.230     1674
    9.245     1781
    9.260     1881
    9.275     1782
    9.290     1761
    9.305     1681
    9.320     1524
    9.335     1520
    9.350     1468
    9.365     1470
    9.380     1381
    9.395     1441
    9.410     1405
    9.425     1527
    9.440     1561
    9.455     1410
    9.470     1480
    9.485     1569
    9.500     1522
    9.515     1581
    9.530     1636
    9.545     1745
    9.560     1680
    9.575     1652
    9.590     1672
    9.605     1679
    9.620     1553
    9.635     1550
    9.650     1477
    9.665     1529
    9.680     1656
    9.695     1654
    9.710     1557
    9.725     1640
    9.740     1693
    9.755     1572
    9.770     1497
    9.785     1467
    9.800     1537
    9.815     1607
    9.830     1544
    9.845     1506
    9.860     1552
    9.875     1618
    9.890     1609
    9.905     1594
    9.920     1614
    9.935     1664
    9.950     1721
    9.965     1701
    9.980     1731
    9.995     1740
   10.010     1748
   10.025     1595
   10.040     1647
   10.055     1596
   10.070     1721
   10.085     1774
   10.100     1989
   10.115     1967
   10.130     1895
   10.145     2071
   10.160     2014
   10.175     1981
   10.190     1807
   10.205     1750
   10.220     1698
   10.235     1563
   10.250     1484
   10.265     1455
   10.280     1476
   10.295     1513
   10.310     1455
   10.325     1436
   10.340     1459
   10.355     1525
   10.370     1564
   10.385     1563
   10.400     1460
   10.415     1520
   10.430     1555
   10.445     1600
   10.460     1576
   10.475     1578
   10.490     1596
   10.505     1599
   10.520     1590
   10.535     1562
   10.550     1520
   10.565     1558
   10.580     1565
   10.595     1506
   10.610     1474
   10.625     1490
   10.640     1533
   10.655     1543
   10.670     1540
   10.685     1550
   10.700     1565
   10.715     1660
   10.730     1638
   10.745     1573
   10.760     1576
   10.775     1482
   10.790     1520
   10.805     1560
   10.820     1590
   10.835     1557
   10.850     1493
   10.865     1545
   10.880     1582
   10.895     1602
   10.910     1609
   10.925     1562
   10.940     1577
   10.955     1586
   10.970     1631
   10.985     1574
   11.000     1555
   11.015     1692
   11.030     1674
   11.045     1713
   11.060     1743
   11.075     1731
   11.090     1654
   11.105     1631
   11.120     1621
   11.135     1636
   11.150     1642
   11.165     1623
   11.180     1595
   11.195     1634
   11.210     1751
   11.225     1714
   11.240     1587
   11.255     1593
   11.270     1660
   11.285     1599
   11.300     1557
   11.315     1588
   11.330     1598
   11.345     1576
   11.360     1557
   11.375     1513
   11.390     1520
   11.405     1636
   11.420     1634
   11.435     1722
   11.450     1591
   11.465     1562
   11.480     1587
   11.495     1556
   11.510     1599
   11.525     1566
   11.540     1645
   11.555     1683
   11.570     1632
   11.585     1577
   11.600     1587
   11.615     1555
   11.630     1513
   11.645     1633
   11.660     1543
   11.675     1614
   11.690     1582
   11.705     1529
   11.720     1628
   11.735     1575
   11.750     1594
   11.765     1646
   11.780     1547
   11.795     1645
   11.810     1542
   11.825     1642
   11.840     1609
   11.855     1636
   11.870     1619
   11.885     1473
   11.900     1493
   11.915     1458
   11.930     1623
   11.945     1596
   11.960     1485
   11.975     1594
   11.990     1613
   12.005     1659
   12.020     1692
   12.035     1592
   12.050     1563
   12.065     1663
   12.080     1526
   12.095     1539
   12.110     1570
   12.125     1565
   12.140     1567
   12.155     1575
   12.170     1581
   12.185     1528
   12.200     1606
   12.215     1611
   12.230     1587
   12.245     1496
   12.260     1524
   12.275     1597
   12.290     1581
   12.305     1605
   12.320     1524
   12.335     1595
   12.350     1556
   12.365     1626
   12.380     1727
   12.395     1695
   12.410     1679
   12.425     1629
   12.440     1698
   12.455     1714
   12.470     1716
   12.485     1713
   12.500     1565
   12.515     1705
   12.530     1625
   12.545     1562
   12.560     1631
   12.575     1658
   12.590     1657
   12.605     1630
   12.620     1654
   12.635     1614
   12.650     1546
   12.665     1655
   12.680     1648
   12.695     1641
   12.710     1661
   12.725     1703
   12.740     1673
   12.755     1633
   12.770     1693
   12.785     1621
   12.800     1699
   12.815     1656
   12.830     1677
   12.845     1670
   12.860     1709
   12.875     1664
   12.890     1721
   12.905     1740
   12.920     1814
   12.935     1649
   12.950     1781
   12.965     1873
   12.980     1806
   12.995     1745
   13.010     1727
   13.025     1709
   13.040     1754
   13.055     1735
   13.070     1793
   13.085     1718
   13.100     1798
   13.115     1732
   13.130     1825
   13.145     1669
   13.160     1642
   13.175     1771
   13.190     1765
   13.205     1610
   13.220     1749
   13.235     1754
   13.250     1722
   13.265     1748
   13.280     1697
   13.295     1777
   13.310     1568
   13.325     1691
   13.340     1783
   13.355     1839
   13.370     1773
   13.385     1765
   13.400     1739
   13.415     1658
   13.430     1751
   13.445     1719
   13.460     1770
   13.475     1681
   13.490     1746
   13.505     1805
   13.520     1737
   13.535     1720
   13.550     1756
   13.565     1734
   13.580     1770
   13.595     1774
   13.610     1889
   13.625     1891
   13.640     1765
   13.655     1772
   13.670     1773
   13.685     1815
   13.700     1847
   13.715     1866
   13.730     1838
   13.745     1834
   13.760     1959
   13.775     1787
   13.790     1763
   13.805     1908
   13.820     1864
   13.835     1919
   13.850     1888
   13.865     1882
   13.880     1791
   13.895     1743
   13.910     1837
   13.925     1810
   13.940     1789
   13.955     1778
   13.970     1894
   13.985     1801
   14.000     1825
   14.015     1901
   14.030     1922
   14.045     1932
   14.060     1857
   14.075     1927
   14.090     1923
   14.105     1917
   14.120     1807
   14.135     1791
   14.150     1849
   14.165     1906
   14.180     1825
   14.195     1777
   14.210     1803
   14.225     1917
   14.240     1864
   14.255     1910
   14.270     1876
   14.285     1932
   14.300     1864
   14.315     1811
   14.330     1884
   14.345     1982
   14.360     1989
   14.375     1929
   14.390     1936
   14.405     1938
   14.420     1982
   14.435     1984
   14.450     1909
   14.465     1894
   14.480     1841
   14.495     1817
   14.510     1876
   14.525     1912
   14.540     1931
   14.555     2018
   14.570     2018
   14.585     1945
   14.600     1894
   14.615     2031
   14.630     1976
   14.645     1925
   14.660     1929
   14.675     1946
   14.690     1976
   14.705     2047
   14.720     1984
   14.735     1954
   14.750     1902
   14.765     1875
   14.780     1906
   14.795     2012
   14.810     2038
   14.825     2089
   14.840     2049
   14.855     2094
   14.870     2038
   14.885     2038
   14.900     2010
   14.915     2157
   14.930     2046
   14.945     2040
   14.960     2073
   14.975     2028
   14.990     1955
   15.005     1948
   15.020     2006
   15.035     2061
   15.050     2120
   15.065     2136
   15.080     2152
   15.095     1991
   15.110     2050
   15.125     2129
   15.140     2021
   15.155     2200
   15.170     2237
   15.185     2198
   15.200     2149
   15.215     2093
   15.230     2066
   15.245     2090
   15.260     2253
   15.275     2192
   15.290     2162
   15.305     2196
   15.320     2170
   15.335     2182
   15.350     2280
   15.365     2173
   15.380     2072
   15.395     2134
   15.410     2144
   15.425     2198
   15.440     2223
   15.455     2180
   15.470     2125
   15.485     2221
   15.500     2299
   15.515     2236
   15.530     2175
   15.545     2263
   15.560     2187
   15.575     2155
   15.590     2234
   15.605     2239
   15.620     2234
   15.635     2250
   15.650     2200
   15.665     2319
   15.680     2400
   15.695     2292
   15.710     2214
   15.725     2367
   15.740     2337
   15.755     2325
   15.770     2302
   15.785     2261
   15.800     2340
   15.815     2457
   15.830     2434
   15.845     2302
   15.860     2356
   15.875     2437
   15.890     2449
   15.905     2386
   15.920     2472
   15.935     2513
   15.950     2457
   15.965     2385
   15.980     2377
   15.995     2404
   16.010     2522
   16.025     2414
   16.040     2470
   16.055     2457
   16.070     2542
   16.085     2513
   16.100     2590
   16.115     2491
   16.130     2367
   16.145     2468
   16.160     2476
   16.175     2536
   16.190     2440
   16.205     2666
   16.220     2714
   16.235     2645
   16.250     2690
   16.265     2761
   16.280     2926
   16.295     2901
   16.310     2799
   16.325     2711
   16.340     2759
   16.355     2692
   16.370     2663
   16.385     2671
   16.400     2466
   16.415     2584
   16.430     2601
   16.445     2691
   16.460     2674
   16.475     2681
   16.490     2650
   16.505     2670
   16.520     2697
   16.535     2613
   16.550     2644
   16.565     2623
   16.580     2642
   16.595     2647
   16.610     2659
   16.625     2711
   16.640     2743
   16.655     2670
   16.670     2611
   16.685     2655
   16.700     2688
   16.715     2753
   16.730     2687
   16.745     2658
   16.760     2751
   16.775     2703
   16.790     2674
   16.805     2775
   16.820     2749
   16.835     2673
   16.850     2668
   16.865     2801
   16.880     2828
   16.895     2820
   16.910     2894
   16.925     2908
   16.940     2883
   16.955     2820
   16.970     2858
   16.985     2864
   17.000     2822
   17.015     2961
   17.030     2916
   17.045     2850
   17.060     2839
   17.075     2796
   17.090     2797
   17.105     2798
   17.120     2818
   17.135     2844
   17.150     2986
   17.165     3014
   17.180     2825
   17.195     2913
   17.210     3015
   17.225     3049
   17.240     2892
   17.255     2768
   17.270     3014
   17.285     2982
   17.300     2975
   17.315     2861
   17.330     2879
   17.345     2976
   17.360     3027
   17.375     2951
   17.390     3082
   17.405     3112
   17.420     3027
   17.435     3105
   17.450     3197
   17.465     3101
   17.480     2988
   17.495     2921
   17.510     3096
   17.525     2951
   17.540     3107
   17.555     3268
   17.570     3061
   17.585     3036
   17.600     3088
   17.615     3037
   17.630     3186
   17.645     3407
   17.660     3208
   17.675     3458
   17.690     3356
   17.705     3498
   17.720     3534
   17.735     3228
   17.750     3357
   17.765     3332
   17.780     3144
   17.795     3364
   17.810     3134
   17.825     3209
   17.840     3250
   17.855     3315
   17.870     3288
   17.885     3067
   17.900     3054
   17.915     3006
   17.930     3206
   17.945     3191
   17.960     3190
   17.975     3262
   17.990     3226
   18.005     3172
   18.020     3331
   18.035     3256
   18.050     3095
   18.065     3153
   18.080     3149
   18.095     3146
   18.110     3197
   18.125     3259
   18.140     3146
   18.155     3180
   18.170     3258
   18.185     3238
   18.200     3211
   18.215     3279
   18.230     3360
   18.245     3248
   18.260     3144
   18.275     3252
   18.290     3288
   18.305     3390
   18.320     3279
   18.335     3283
   18.350     3222
   18.365     3294
   18.380     3429
   18.395     3356
   18.410     3406
   18.425     3284
   18.440     3317
   18.455     3415
   18.470     3441
   18.485     3453
   18.500     3434
   18.515     3575
   18.530     3629
   18.545     3537
   18.560     3531
   18.575     3737
   18.590     3643
   18.605     3656
   18.620     3769
   18.635     3769
   18.650     3740
   18.665     3945
   18.680     3764
   18.695     3745
   18.710     3770
   18.725     3749
   18.740     3698
   18.755     3691
   18.770     3728
   18.785     3606
   18.800     3696
   18.815     3544
   18.830     3588
   18.845     3529
   18.860     3448
   18.875     3434
   18.890     3579
   18.905     3596
   18.920     3638
   18.935     3531
   18.950     3592
   18.965     3813
   18.980     3638
   18.995     3573
   19.010     3505
   19.025     3594
   19.040     3473
   19.055     3546
   19.070     3561
   19.085     3342
   19.100     3592
   19.115     3460
   19.130     3792
   19.145     3516
   19.160     3397
   19.175     3621
   19.190     3604
   19.205     3428
   19.220     3492
   19.235     3398
   19.250     3455
   19.265     3461
   19.280     3600
   19.295     3647
   19.310     3436
   19.325     3548
   19.340     3593
   19.355     3594
   19.370     3669
   19.385     3565
   19.400     3546
   19.415     3544
   19.430     3595
   19.445     3352
   19.460     3624
   19.475     3605
   19.490     3496
   19.505     3722
   19.520     3631
   19.535     3476
   19.550     3565
   19.565     3398
   19.580     3533
   19.595     3619
   19.610     3615
   19.625     3769
   19.640     3592
   19.655     3590
   19.670     3519
   19.685     3527
   19.700     3553
   19.715     3579
   19.730     3492
   19.745     3495
   19.760     3714
   19.775     3458
   19.790     3415
   19.805     3687
   19.820     3749
   19.835     3708
   19.850     3592
   19.865     3688
   19.880     3459
   19.895     3469
   19.910     3586
   19.925     3601
   19.940     3542
   19.955     3502
   19.970     3609
   19.985     3469
   20.000     3557
   20.015     3549
   20.030     3720
   20.045     3746
   20.060     3585
   20.075     3728
   20.090     3538
   20.105     3621
   20.120     3395
   20.135     3469
   20.150     3579
   20.165     3658
   20.180     3507
   20.195     3559
   20.210     3600
   20.225     3608
   20.240     3644
   20.255     3637
   20.270     3454
   20.285     3571
   20.300     3550
   20.315     3347
   20.330     3474
   20.345     3605
   20.360     3584
   20.375     3525
   20.390     3551
   20.405     3642
   20.420     3618
   20.435     3628
   20.450     3534
   20.465     3567
   20.480     3543
   20.495     3399
   20.510     3388
   20.525     3491
   20.540     3490
   20.555     3557
   20.570     3572
   20.585     3446
   20.600     3394
   20.615     3529
   20.630     3444
   20.645     3551
   20.660     3512
   20.675     3423
   20.690     3463
   20.705     3632
   20.720     3604
   20.735     3399
   20.750     3359
   20.765     3245
   20.780     3334
   20.795     3538
   20.810     3481
   20.825     3509
   20.840     3485
   20.855     3603
   20.870     3509
   20.885     3547
   20.900     3445
   20.915     3591
   20.930     3443
   20.945     3499
   20.960     3492
   20.975     3268
   20.990     3266
   21.005     3261
   21.020     3445
   21.035     3527
   21.050     3516
   21.065     3603
   21.080     3511
   21.095     3466
   21.110     3574
   21.125     3651
   21.140     3398
   21.155     3631
   21.170     3554
   21.185     3504
   21.200     3497
   21.215     3423
   21.230     3366
   21.245     3375
   21.260     3649
   21.275     3493
   21.290     3508
   21.305     3489
   21.320     3463
   21.335     3499
   21.350     3449
   21.365     3262
   21.380     3298
   21.395     3278
   21.410     3288
   21.425     3431
   21.440     3573
   21.455     3358
   21.470     3439
   21.485     3520
   21.500     3466
   21.515     3397
   21.530     3331
   21.545     3316
   21.560     3197
   21.575     3158
   21.590     3237
   21.605     3301
   21.620     3344
   21.635     3259
   21.650     3206
   21.665     3496
   21.680     3569
   21.695     3386
   21.710     3300
   21.725     3512
   21.740     3327
   21.755     3281
   21.770     3187
   21.785     3154
   21.800     3348
   21.815     3440
   21.830     3321
   21.845     3164
   21.860     3118
   21.875     3289
   21.890     3299
   21.905     3155
   21.920     3241
   21.935     3299
   21.950     3273
   21.965     3132
   21.980     3154
   21.995     3181
   22.010     3280
   22.025     3075
   22.040     3252
   22.055     3069
   22.070     3331
   22.085     3306
   22.100     3358
   22.115     3346
   22.130     3099
   22.145     3173
   22.160     3191
   22.175     3168
   22.190     3046
   22.205     3100
   22.220     3158
   22.235     3144
   22.250     3052
   22.265     3029
   22.280     3236
   22.295     3259
   22.310     3037
   22.325     3074
   22.340     3223
   22.355     3178
   22.370     3211
   22.385     3228
   22.400     3085
   22.415     3182
   22.430     3171
   22.445     3240
   22.460     3101
   22.475     3188
   22.490     3207
   22.505     3170
   22.520     3135
   22.535     3093
   22.550     3142
   22.565     3171
   22.580     3143
   22.595     3098
   22.610     3086
   22.625     3137
   22.640     3080
   22.655     2966
   22.670     2928
   22.685     3008
   22.700     2969
   22.715     3139
   22.730     3030
   22.745     2987
   22.760     3065
   22.775     2882
   22.790     2943
   22.805     3000
   22.820     2934
   22.835     2850
   22.850     2778
   22.865     2943
   22.880     2974
   22.895     2997
   22.910     3038
   22.925     2962
   22.940     3050
   22.955     2932
   22.970     2956
   22.985     2921
   23.000     2856
   23.015     3066
   23.030     2928
   23.045     2785
   23.060     2897
   23.075     2812
   23.090     2904
   23.105     2799
   23.120     2847
   23.135     2842
   23.150     2981
   23.165     3042
   23.180     2783
   23.195     2879
   23.210     2966
   23.225     2995
   23.240     2842
   23.255     2739
   23.270     2885
   23.285     2929
   23.300     2900
   23.315     2857
   23.330     2808
   23.345     2865
   23.360     2906
   23.375     2806
   23.390     3100
   23.405     2947
   23.420     2954
   23.435     3016
   23.450     2877
   23.465     2878
   23.480     2789
   23.495     2709
   23.510     2749
   23.525     2747
   23.540     2870
   23.555     2964
   23.570     2775
   23.585     2690
   23.600     2695
   23.615     2679
   23.630     2695
   23.645     2863
   23.660     2671
   23.675     2815
   23.690     2658
   23.705     2770
   23.720     2871
   23.735     2742
   23.750     2842
   23.765     2865
   23.780     2722
   23.795     2854
   23.810     2716
   23.825     2813
   23.840     2827
   23.855     2841
   23.870     2756
   23.885     2642
   23.900     2696
   23.915     2651
   23.930     2856
   23.945     2719
   23.960     2641
   23.975     2780
   23.990     2732
   24.005     2644
   24.020     2773
   24.035     2672
   24.050     2644
   24.065     2704
   24.080     2581
   24.095     2519
   24.110     2638
   24.125     2543
   24.140     2501
   24.155     2573
   24.170     2591
   24.185     2614
   24.200     2635
   24.215     2634
   24.230     2612
   24.245     2591
   24.260     2573
   24.275     2475
   24.290     2522
   24.305     2532
   24.320     2515
   24.335     2534
   24.350     2535
   24.365     2650
   24.380     2660
   24.395     2650
   24.410     2668
   24.425     2586
   24.440     2619
   24.455     2729
   24.470     2719
   24.485     2617
   24.500     2526
   24.515     2668
   24.530     2582
   24.545     2543
   24.560     2540
   24.575     2633
   24.590     2625
   24.605     2560
   24.620     2637
   24.635     2475
   24.650     2431
   24.665     2554
   24.680     2491
   24.695     2407
   24.710     2430
   24.725     2490
   24.740     2452
   24.755     2502
   24.770     2501
   24.785     2435
   24.800     2530
   24.815     2557
   24.830     2527
   24.845     2514
   24.860     2427
   24.875     2400
   24.890     2523
   24.905     2653
   24.920     2531
   24.935     2388
   24.950     2528
   24.965     2599
   24.980     2408
   24.995     2461
   25.010     2425
   25.025     2473
   25.040     2522
   25.055     2454
   25.070     2536
   25.085     2390
   25.100     2568
   25.115     2534
   25.130     2642
   25.145     2366
   25.160     2313
   25.175     2449
   25.190     2422
   25.205     2487
   25.220     2438
   25.235     2366
   25.250     2405
   25.265     2377
   25.280     2481
   25.295     2395
   25.310     2265
   25.325     2284
   25.340     2398
   25.355     2443
   25.370     2398
   25.385     2431
   25.400     2420
   25.415     2346
   25.430     2431
   25.445     2302
   25.460     2334
   25.475     2298
   25.490     2293
   25.505     2291
   25.520     2330
   25.535     2260
   25.550     2248
   25.565     2227
   25.580     2261
   25.595     2251
   25.610     2350
   25.625     2339
   25.640     2214
   25.655     2246
   25.670     2208
   25.685     2247
   25.700     2316
   25.715     2256
   25.730     2164
   25.745     2232
   25.760     2368
   25.775     2255
   25.790     2121
   25.805     2319
   25.820     2349
   25.835     2337
   25.850     2240
   25.865     2204
   25.880     2152
   25.895     2173
   25.910     2177
   25.925     2179
   25.940     2165
   25.955     2172
   25.970     2262
   25.985     2219
   26.000     2242
   26.015     2324
   26.030     2353
   26.045     2357
   26.060     2312
   26.075     2350
   26.090     2315
   26.105     2291
   26.120     2241
   26.135     2235
   26.150     2212
   26.165     2279
   26.180     2146
   26.195     2170
   26.210     2171
   26.225     2281
   26.240     2243
   26.255     2252
   26.270     2172
   26.285     2202
   26.300     2155
   26.315     2033
   26.330     2099
   26.345     2232
   26.360     2152
   26.375     2105
   26.390     2183
   26.405     2185
   26.420     2161
   26.435     2229
   26.450     2138
   26.465     2129
   26.480     2105
   26.495     2055
   26.510     2067
   26.525     2111
   26.540     2108
   26.555     2216
   26.570     2203
   26.585     2124
   26.600     2085
   26.615     2173
   26.630     2126
   26.645     2219
   26.660     2071
   26.675     2059
   26.690     2141
   26.705     2225
   26.720     2123
   26.735     2063
   26.750     2013
   26.765     1936
   26.780     1989
   26.795     2082
   26.810     2090
   26.825     2085
   26.840     2100
   26.855     2182
   26.870     2149
   26.885     2132
   26.900     2045
   26.915     2119
   26.930     2050
   26.945     2091
   26.960     2084
   26.975     2031
   26.990     1970
   27.005     1987
   27.020     2041
   27.035     2113
   27.050     2111
   27.065     2143
   27.080     2012
   27.095     1918
   27.110     2005
   27.125     2095
   27.140     2048
   27.155     2114
   27.170     2171
   27.185     2130
   27.200     2148
   27.215     1999
   27.230     1993
   27.245     2059
   27.260     2124
   27.275     2083
   27.290     1986
   27.305     2142
   27.320     2045
   27.335     2038
   27.350     2007
   27.365     1951
   27.380     1958
   27.395     1967
   27.410     1934
   27.425     1919
   27.440     2055
   27.455     1996
   27.470     1889
   27.485     2090
   27.500     2035
   27.515     2114
   27.530     2014
   27.545     2053
   27.560     1910
   27.575     1941
   27.590     1975
   27.605     2013
   27.620     2102
   27.635     2063
   27.650     1952
   27.665     2061
   27.680     2139
   27.695     2041
   27.710     1908
   27.725     2075
   27.740     1973
   27.755     1978
   27.770     1889
   27.785     1859
   27.800     1964
   27.815     2097
   27.830     2019
   27.845     1907
   27.860     1926
   27.875     1958
   27.890     2030
   27.905     1911
   27.920     2027
   27.935     1986
   27.950     1845
   27.965     1851
   27.980     1840
   27.995     1881
   28.010     1972
   28.025     1874
   28.040     1926
   28.055     1874
   28.070     2073
   28.085     2041
   28.100     2080
   28.115     1944
   28.130     1863
   28.145     1913
   28.160     1929
   28.175     1950
   28.190     1796
   28.205     1919
   28.220     1999
   28.235     1941
   28.250     1837
   28.265     1803
   28.280     1931
   28.295     1955
   28.310     1848
   28.325     1858
   28.340     1973
   28.355     1963
   28.370     1993
   28.385     2003
   28.400     1854
   28.415     1931
   28.430     1921
   28.445     1930
   28.460     1914
   28.475     1939
   28.490     1912
   28.505     1892
   28.520     1846
   28.535     1846
   28.550     1928
   28.565     1868
   28.580     1824
   28.595     1817
   28.610     1775
   28.625     1840
   28.640     1835
   28.655     1806
   28.670     1796
   28.685     1808
   28.700     1844
   28.715     1920
   28.730     1838
   28.745     1804
   28.760     1858
   28.775     1793
   28.790     1745
   28.805     1786
   28.820     1841
   28.835     1747
   28.850     1749
   28.865     1853
   28.880     1884
   28.895     1888
   28.910     1858
   28.925     1829
   28.940     1802
   28.955     1758
   28.970     1779
   28.985     1786
   29.000     1788
   29.015     1820
   29.030     1735
   29.045     1669
   29.060     1797
   29.075     1781
   29.090     1729
   29.105     1687
   29.120     1752
   29.135     1776
   29.150     1817
   29.165     1776
   29.180     1721
   29.195     1815
   29.210     1739
   29.225     1771
   29.240     1677
   29.255     1699
   29.270     1722
   29.285     1782
   29.300     1753
   29.315     1649
   29.330     1700
   29.345     1668
   29.360     1799
   29.375     1711
   29.390     1855
   29.405     1752
   29.420     1704
   29.435     1794
   29.450     1690
   29.465     1732
   29.480     1695
   29.495     1638
   29.510     1717
   29.525     1684
   29.540     1796
   29.555     1884
   29.570     1662
   29.585     1681
   29.600     1668
   29.615     1686
   29.630     1623
   29.645     1689
   29.660     1637
   29.675     1807
   29.690     1697
   29.705     1677
   29.720     1752
   29.735     1650
   29.750     1793
   29.765     1749
   29.780     1697
   29.795     1771
   29.810     1673
   29.825     1757
   29.840     1753
   29.855     1678
   29.870     1676
   29.885     1617
   29.900     1619
   29.915     1598
   29.930     1683
   29.945     1678
   29.960     1589
   29.975     1688
   29.990     1728
   30.005     1657
   30.020     1764
   30.035     1718
   30.050     1613
   30.065     1650
   30.080     1631
   30.095     1620
   30.110     1628
   30.125     1555
   30.140     1582
   30.155     1587
   30.170     1624
   30.185     1610
   30.200     1640
   30.215     1623
   30.230     1630
   30.245     1589
   30.260     1533
   30.275     1541
   30.290     1592
   30.305     1573
   30.320     1571
   30.335     1589
   30.350     1595
   30.365     1608
   30.380     1661
   30.395     1656
   30.410     1649
   30.425     1588
   30.440     1619
   30.455     1602
   30.470     1606
   30.485     1619
   30.500     1535
   30.515     1666
   30.530     1649
   30.545     1583
   30.560     1620
   30.575     1704
   30.590     1622
   30.605     1604
   30.620     1616
   30.635     1592
   30.650     1644
   30.665     1725
   30.680     1686
   30.695     1689
   30.710     1666
   30.725     1708
   30.740     1720
   30.755     1675
   30.770     1691
   30.785     1635
   30.800     1754
   30.815     1682
   30.830     1569
   30.845     1613
   30.860     1643
   30.875     1508
   30.890     1661
   30.905     1655
   30.920     1661
   30.935     1582
   30.950     1597
   30.965     1703
   30.980     1620
   30.995     1620
   31.010     1570
   31.025     1628
   31.040     1553
   31.055     1557
   31.070     1601
   31.085     1488
   31.100     1668
   31.115     1563
   31.130     1619
   31.145     1524
   31.160     1529
   31.175     1494
   31.190     1610
   31.205     1575
   31.220     1425
   31.235     1485
   31.250     1527
   31.265     1515
   31.280     1550
   31.295     1547
   31.310     1469
   31.325     1465
   31.340     1446
   31.355     1492
   31.370     1623
   31.385     1512
   31.400     1494
   31.415     1566
   31.430     1525
   31.445     1419
   31.460     1517
   31.475     1474
   31.490     1489
   31.505     1535
   31.520     1530
   31.535     1485
   31.550     1516
   31.565     1435
   31.580     1488
   31.595     1505
   31.610     1571
   31.625     1590
   31.640     1457
   31.655     1459
   31.670     1458
   31.685     1520
   31.700     1491
   31.715     1504
   31.730     1470
   31.745     1441
   31.760     1611
   31.775     1488
   31.790     1411
   31.805     1490
   31.820     1462
   31.835     1539
   31.850     1525
   31.865     1451
   31.880     1385
   31.895     1430
   31.910     1423
   31.925     1428
   31.940     1419
   31.955     1360
   31.970     1418
   31.985     1422
   32.000     1479
   32.015     1483
   32.030     1482
   32.045     1572
   32.060     1482
   32.075     1508
   32.090     1425
   32.105     1487
   32.120     1429
   32.135     1390
   32.150     1468
   32.165     1472
   32.180     1398
   32.195     1466
   32.210     1462
   32.225     1476
   32.240     1415
   32.255     1474
   32.270     1424
   32.285     1463
   32.300     1473
   32.315     1415
   32.330     1418
   32.345     1514
   32.360     1458
   32.375     1473
   32.390     1494
   32.405     1517
   32.420     1535
   32.435     1540
   32.450     1512
   32.465     1510
   32.480     1489
   32.495     1450
   32.510     1429
   32.525     1391
   32.540     1420
   32.555     1492
   32.570     1531
   32.585     1494
   32.600     1469
   32.615     1500
   32.630     1428
   32.645     1460
   32.660     1438
   32.675     1416
   32.690     1429
   32.705     1483
   32.720     1494
   32.735     1404
   32.750     1368
   32.765     1320
   32.780     1376
   32.795     1459
   32.810     1445
   32.825     1399
   32.840     1401
   32.855     1520
   32.870     1440
   32.885     1458
   32.900     1371
   32.915     1364
   32.930     1352
   32.945     1439
   32.960     1455
   32.975     1384
   32.990     1319
   33.005     1324
   33.020     1419
   33.035     1439
   33.050     1400
   33.065     1418
   33.080     1453
   33.095     1312
   33.110     1385
   33.125     1447
   33.140     1319
   33.155     1393
   33.170     1411
   33.185     1438
   33.200     1385
   33.215     1382
   33.230     1418
   33.245     1335
   33.260     1395
   33.275     1319
   33.290     1319
   33.305     1364
   33.320     1376
   33.335     1425
   33.350     1462
   33.365     1333
   33.380     1301
   33.395     1334
   33.410     1326
   33.425     1375
   33.440     1433
   33.455     1318
   33.470     1350
   33.485     1451
   33.500     1363
   33.515     1406
   33.530     1324
   33.545     1361
   33.560     1306
   33.575     1243
   33.590     1328
   33.605     1360
   33.620     1409
   33.635     1384
   33.650     1278
   33.665     1384
   33.680     1405
   33.695     1351
   33.710     1335
   33.725     1403
   33.740     1386
   33.755     1317
   33.770     1309
   33.785     1313
   33.800     1342
   33.815     1429
   33.830     1378
   33.845     1303
   33.860     1317
   33.875     1352
   33.890     1354
   33.905     1311
   33.920     1342
   33.935     1341
   33.950     1332
   33.965     1331
   33.980     1285
   33.995     1283
   34.010     1324
   34.025     1293
   34.040     1329
   34.055     1303
   34.070     1305
   34.085     1262
   34.100     1377
   34.115     1373
   34.130     1281
   34.145     1300
   34.160     1294
   34.175     1304
   34.190     1257
   34.205     1251
   34.220     1289
   34.235     1286
   34.250     1222
   34.265     1206
   34.280     1318
   34.295     1296
   34.310     1263
   34.325     1234
   34.340     1284
   34.355     1279
   34.370     1325
   34.385     1381
   34.400     1293
   34.415     1295
   34.430     1346
   34.445     1400
   34.460     1327
   34.475     1331
   34.490     1335
   34.505     1339
   34.520     1268
   34.535     1254
   34.550     1330
   34.565     1292
   34.580     1274
   34.595     1238
   34.610     1224
   34.625     1278
   34.640     1267
   34.655     1210
   34.670     1201
   34.685     1281
   34.700     1220
   34.715     1232
   34.730     1242
   34.745     1202
   34.760     1258
   34.775     1223
   34.790     1241
   34.805     1259
   34.820     1208
   34.835     1230
   34.850     1242
   34.865     1243
   34.880     1239
   34.895     1253
   34.910     1259
   34.925     1242
   34.940     1317
   34.955     1246
   34.970     1245
   34.985     1290
   35.000     1254
   35.015     1243
   35.030     1216
   35.045     1203
   35.060     1220
   35.075     1233
   35.090     1230
   35.105     1199
   35.120     1238
   35.135     1204
   35.150     1254
   35.165     1227
   35.180     1181
   35.195     1255
   35.210     1216
   35.225     1267
   35.240     1217
   35.255     1123
   35.270     1201
   35.285     1209
   35.300     1200
   35.315     1163
   35.330     1208
   35.345     1230
   35.360     1157
   35.375     1248
   35.390     1231
   35.405     1240
   35.420     1198
   35.435     1197
   35.450     1212
   35.465     1164
   35.480     1108
   35.495     1121
   35.510     1133
   35.525     1195
   35.540     1281
   35.555     1294
   35.570     1215
   35.585     1158
   35.600     1217
   35.615     1144
   35.630     1203
   35.645     1226
   35.660     1228
   35.675     1220
   35.690     1100
   35.705     1192
   35.720     1207
   35.735     1190
   35.750     1181
   35.765     1249
   35.780     1183
   35.795     1252
   35.810     1139
   35.825     1194
   35.840     1174
   35.855     1159
   35.870     1183
   35.885     1154
   35.900     1090
   35.915     1065
   35.930     1202
   35.945     1168
   35.960     1146
   35.975     1147
   35.990     1152
   36.005     1120
   36.020     1180
   36.035     1204
   36.050     1121
   36.065     1135
   36.080     1141
   36.095     1094
   36.110     1144
   36.125     1157
   36.140     1121
   36.155     1092
   36.170     1088
   36.185     1095
   36.200     1145
   36.215     1172
   36.230     1198
   36.245     1148
   36.260     1092
   36.275     1078
   36.290     1124
   36.305     1095
   36.320     1109
   36.335     1126
   36.350     1069
   36.365     1103
   36.380     1176
   36.395     1207
   36.410     1183
   36.425     1142
   36.440     1132
   36.455     1149
   36.470     1150
   36.485     1080
   36.500     1092
   36.515     1148
   36.530     1088
   36.545     1073
   36.560     1144
   36.575     1164
   36.590     1138
   36.605     1133
   36.620     1158
   36.635     1132
   36.650     1098
   36.665     1157
   36.680     1094
   36.695     1143
   36.710     1106
   36.725     1139
   36.740     1173
   36.755     1129
   36.770     1141
   36.785     1104
   36.800     1163
   36.815     1095
   36.830     1182
   36.845     1139
   36.860     1107
   36.875     1079
   36.890     1118
   36.905     1164
   36.920     1152
   36.935     1062
   36.950     1174
   36.965     1200
   36.980     1137
   36.995     1143
   37.010     1073
   37.025     1117
   37.040     1042
   37.055     1092
   37.070     1129
   37.085     1083
   37.100     1164
   37.115     1102
   37.130     1211
   37.145     1144
   37.160     1081
   37.175     1136
   37.190     1128
   37.205     1135
   37.220     1116
   37.235     1162
   37.250     1102
   37.265     1143
   37.280     1131
   37.295     1168
   37.310     1044
   37.325     1069
   37.340     1154
   37.355     1128
   37.370     1160
   37.385     1152
   37.400     1077
   37.415     1093
   37.430     1055
   37.445     1037
   37.460     1098
   37.475     1053
   37.490     1092
   37.505     1093
   37.520     1045
   37.535     1072
   37.550     1111
   37.565     1051
   37.580     1118
   37.595     1097
   37.610     1065
   37.625     1055
   37.640     1055
   37.655     1077
   37.670     1089
   37.685     1079
   37.700     1165
   37.715     1073
   37.730     1011
   37.745     1044
   37.760     1175
   37.775     1108
   37.790     1044
   37.805     1134
   37.820     1119
   37.835     1127
   37.850     1117
   37.865     1087
   37.880     1040
   37.895     1059
   37.910     1070
   37.925     1021
   37.940     1020
   37.955     1038
   37.970     1050
   37.985     1057
   38.000     1090
   38.015     1140
   38.030     1157
   38.045     1138
   38.060     1097
   38.075     1127
   38.090     1051
   38.105     1124
   38.120     1097
   38.135     1058
   38.150     1144
   38.165     1127
   38.180     1025
   38.195     1056
   38.210     1086
   38.225     1108
   38.240     1127
   38.255     1108
   38.270     1040
   38.285     1046
   38.300     1058
   38.315     1033
   38.330     1013
   38.345     1129
   38.360     1106
   38.375     1072
   38.390     1088
   38.405     1105
   38.420     1140
   38.435     1153
   38.450     1095
   38.465     1099
   38.480     1056
   38.495      997
   38.510     1007
   38.525     1040
   38.540     1040
   38.555     1078
   38.570     1076
   38.585     1052
   38.600     1025
   38.615     1094
   38.630     1063
   38.645     1035
   38.660      998
   38.675     1016
   38.690     1053
   38.705     1107
   38.720     1102
   38.735     1055
   38.750      975
   38.765     1015
   38.780     1022
   38.795     1047
   38.810     1072
   38.825     1045
   38.840     1034
   38.855     1091
   38.870     1046
   38.885     1081
   38.900     1107
   38.915     1123
   38.930     1069
   38.945     1029
   38.960     1074
   38.975     1033
   38.990     1005
   39.005     1018
   39.020     1060
   39.035     1076
   39.050     1067
   39.065     1080
   39.080     1099
   39.095     1030
   39.110     1042
   39.125     1104
   39.140     1056
   39.155     1111
   39.170     1026
   39.185     1030
   39.200     1036
   39.215     1052
   39.230     1044
   39.245     1048
   39.260     1080
   39.275     1023
   39.290     1021
   39.305     1059
   39.320     1072
   39.335     1095
   39.350     1076
   39.365     1034
   39.380      991
   39.395      972
   39.410      995
   39.425     1019
   39.440     1074
   39.455     1042
   39.470     1013
   39.485     1081
   39.500     1046
   39.515     1019
   39.530      999
   39.545     1018
   39.560     1041
   39.575      990
   39.590     1039
   39.605     1016
   39.620     1019
   39.635     1037
   39.650      950
   39.665     1082
   39.680     1085
   39.695     1086
   39.710     1032
   39.725     1079
   39.740     1056
   39.755     1011
   39.770     1006
   39.785     1001
   39.800     1019
   39.815     1097
   39.830     1072
   39.845      996
   39.860     1031
   39.875     1072
   39.890     1083
   39.905     1096
   39.920     1116
   39.935     1055
   39.950     1016
   39.965      999
   39.980     1006
   39.995      999
   40.010     1008
   40.025     1048
   40.040     1051
   40.055     1024
   40.070     1076
   40.085     1062
   40.100     1135
   40.115     1119
   40.130     1049
   40.145     1061
   40.160     1069
   40.175     1047
   40.190     1022
   40.205     1037
   40.220     1005
   40.235     1046
   40.250     1002
   40.265     1045
   40.280     1074
   40.295     1039
   40.310     1001
   40.325     1012
   40.340     1023
   40.355     1026
   40.370     1043
   40.385     1074
   40.400     1020
   40.415     1002
   40.430     1010
   40.445     1074
   40.460     1062
   40.475     1030
   40.490     1043
   40.505     1055
   40.520     1042
   40.535     1082
   40.550     1105
   40.565     1063
   40.580     1041
   40.595     1057
   40.610     1066
   40.625     1109
   40.640     1072
   40.655     1020
   40.670     1028
   40.685     1036
   40.700     1013
   40.715     1056
   40.730     1064
   40.745     1006
   40.760     1044
   40.775      989
   40.790      959
   40.805      996
   40.820     1012
   40.835      990
   40.850      960
   40.865     1044
   40.880     1036
   40.895     1021
   40.910     1038
   40.925     1022
   40.940     1047
   40.955     1046
   40.970     1062
   40.985     1027
   41.000     1011
   41.015     1075
   41.030     1033
   41.045     1034
   41.060     1055
   41.075     1037
   41.090     1016
   41.105     1035
   41.120     1020
   41.135     1049
   41.150     1075
   41.165     1048
   41.180      988
   41.195     1033
   41.210     1054
   41.225     1137
   41.240     1052
   41.255      930
   41.270      968
   41.285     1081
   41.300     1021
   41.315     1022
   41.330     1006
   41.345     1077
   41.360     1029
   41.375     1010
   41.390     1070
   41.405     1039
   41.420     1021
   41.435     1081
   41.450     1104
   41.465     1067
   41.480     1018
   41.495      961
   41.510     1009
   41.525     1057
   41.540     1057
   41.555     1104
   41.570     1026
   41.585     1004
   41.600     1025
   41.615      993
   41.630      989
   41.645     1046
   41.660      977
   41.675     1049
   41.690      999
   41.705      997
   41.720     1037
   41.735     1043
   41.750     1013
   41.765     1093
   41.780      981
   41.795     1072
   41.810     1002
   41.825      939
   41.840      988
   41.855     1022
   41.870     1047
   41.885      995
   41.900     1014
   41.915      993
   41.930     1045
   41.945     1061
   41.960     1026
   41.975     1046
   41.990     1028
   42.005     1092
   42.020     1102
   42.035     1017
   42.050      946
   42.065     1014
   42.080     1033
   42.095     1008
   42.110      989
   42.125      974
   42.140      961
   42.155      986
   42.170     1013
   42.185     1000
   42.200      987
   42.215     1002
   42.230      964
   42.245      953
   42.260      981
   42.275      979
   42.290      980
   42.305      967
   42.320      936
   42.335      972
   42.350      958
   42.365     1031
   42.380     1008
   42.395      975
   42.410     1025
   42.425     1016
   42.440     1006
   42.455      996
   42.470     1030
   42.485     1041
   42.500     1011
   42.515      999
   42.530     1000
   42.545      938
   42.560      945
   42.575     1038
   42.590     1031
   42.605      965
   42.620     1018
   42.635     1020
   42.650      988
   42.665     1059
   42.680      955
   42.695     1004
   42.710      977
   42.725      994
   42.740      998
   42.755      999
   42.770     1024
   42.785      985
   42.800     1016
   42.815     1009
   42.830     1024
   42.845     1000
   42.860     1019
   42.875      959
   42.890      975
   42.905     1021
   42.920      989
   42.935      982
   42.950      980
   42.965     1073
   42.980      992
   42.995     1014
   43.010      930
   43.025      960
   43.040      986
   43.055     1054
   43.070     1058
   43.085      956
   43.100     1046
   43.115     1030
   43.130     1036
   43.145     1031
   43.160      943
   43.175     1046
   43.190     1011
   43.205      977
   43.220      981
   43.235      976
   43.250      998
   43.265      944
   43.280      950
   43.295      980
   43.310      935
   43.325      964
   43.340      986
   43.355     1036
   43.370     1024
   43.385      992
   43.400      969
   43.415      968
   43.430     1000
   43.445     1002
   43.460     1040
   43.475      937
   43.490     1018
   43.505     1000
   43.520      987
   43.535     1019
   43.550      980
   43.565      958
   43.580      986
   43.595     1012
   43.610     1044
   43.625     1071
   43.640      924
   43.655      987
   43.670      995
   43.685      972
   43.700     1003
   43.715     1030
   43.730      960
   43.745      997
   43.760     1051
   43.775      955
   43.790      907
   43.805      942
   43.820      966
   43.835      984
   43.850     1016
   43.865      992
   43.880      962
   43.895      974
   43.910      954
   43.925      942
   43.940      932
   43.955      942
   43.970      965
   43.985      994
