    2.000     1544
    2.015     1598
    2.030     1582
    2.045     1684
    2.060     1607
    2.075     1692
    2.090     1572
    2.105     1624
    2.120     1522
    2.135     1556
    2.150     1620
    2.165     1627
    2.180     1538
    2.195     1584
    2.210     1638
    2.225     1698
    2.240     1726
    2.255     1729
    2.270     1659
    2.285     1677
    2.300     1633
    2.315     1575
    2.330     1707
    2.345     1785
    2.360     1716
    2.375     1722
    2.390     1738
    2.405     1743
    2.420     1791
    2.435     1793
    2.450     1768
    2.465     1846
    2.480     1856
    2.495     1852
    2.510     1875
    2.525     1864
    2.540     1927
    2.555     2042
    2.570     2070
    2.585     2038
    2.600     2068
    2.615     2204
    2.630     2133
    2.645     2366
    2.660     2438
    2.675     2623
    2.690     2860
    2.705     2980
    2.720     2731
    2.735     2328
    2.750     1970
    2.765     1689
    2.780     1687
    2.795     1761
    2.810     1801
    2.825     1817
    2.840     1846
    2.855     1902
    2.870     1824
    2.885     1890
    2.900     1910
    2.915     1983
    2.930     1970
    2.945     1981
    2.960     2076
    2.975     2047
    2.990     2069
    3.005     2100
    3.020     2180
    3.035     2329
    3.050     2380
    3.065     2607
    3.080     2672
    3.095     2589
    3.110     2909
    3.125     3174
    3.140     3352
    3.155     3930
    3.170     4178
    3.185     4207
    3.200     3929
    3.215     3170
    3.230     2585
    3.245     2123
    3.260     2098
    3.275     2000
    3.290     2211
    3.305     2336
    3.320     2369
    3.335     2379
    3.350     2164
    3.365     1791
    3.380     1508
    3.395     1330
    3.410     1249
    3.425     1254
    3.440     1330
    3.455     1258
    3.470     1266
    3.485     1275
    3.500     1388
    3.515     1286
    3.530     1271
    3.545     1294
    3.560     1324
    3.575     1251
    3.590     1398
    3.605     1264
    3.620     1309
    3.635     1369
    3.650     1292
    3.665     1396
    3.680     1445
    3.695     1385
    3.710     1352
    3.725     1386
    3.740     1405
    3.755     1420
    3.770     1356
    3.785     1392
    3.800     1473
    3.815     1550
    3.830     1631
    3.845     1643
    3.860     1599
    3.875     1626
    3.890     1516
    3.905     1378
    3.920     1360
    3.935     1312
    3.950     1286
    3.965     1253
    3.980     1300
    3.995     1319
    4.010     1399
    4.025     1292
    4.040     1281
    4.055     1225
    4.070     1292
    4.085     1332
    4.100     1404
    4.115     1338
    4.130     1377
    4.145     1368
    4.160     1385
    4.175     1523
    4.190     1420
    4.205     1478
    4.220     1441
    4.235     1446
    4.250     1319
    4.265     1245
    4.280     1256
    4.295     1284
    4.310     1225
    4.325     1198
    4.340     1311
    4.355     1282
    4.370     1255
    4.385     1267
    4.400     1222
    4.415     1255
    4.430     1327
    4.445     1339
    4.460     1330
    4.475     1338
    4.490     1318
    4.505     1334
    4.520     1408
    4.535     1376
    4.550     1376
    4.565     1410
    4.580     1378
    4.595     1403
    4.610     1434
    4.625     1458
    4.640     1439
    4.655     1460
    4.670     1528
    4.685     1547
    4.700     1588
    4.715     1724
    4.730     1721
    4.745     1711
    4.760     1667
    4.775     1556
    4.790     1455
    4.805     1465
    4.820     1444
    4.835     1411
    4.850     1413
    4.865     1509
    4.880     1557
    4.895     1603
    4.910     1654
    4.925     1634
    4.940     1715
    4.955     1732
    4.970     1856
    4.985     1993
    5.000     2092
    5.015     2336
    5.030     2228
    5.045     2089
    5.060     1933
    5.075     1595
    5.090     1449
    5.105     1248
    5.120     1184
    5.135     1197
    5.150     1242
    5.165     1325
    5.180     1276
    5.195     1256
    5.210     1310
    5.225     1339
    5.240     1285
    5.255     1246
    5.270     1339
    5.285     1265
    5.300     1346
    5.315     1326
    5.330     1398
    5.345     1358
    5.360     1400
    5.375     1362
    5.390     1412
    5.405     1480
    5.420     1467
    5.435     1521
    5.450     1531
    5.465     1532
    5.480     1565
    5.495     1597
    5.510     1501
    5.525     1456
    5.540     1485
    5.555     1492
    5.570     1415
    5.585     1329
    5.600     1492
    5.615     1415
    5.630     1432
    5.645     1582
    5.660     1534
    5.675     1671
    5.690     1652
    5.705     1850
    5.720     2018
    5.735     1917
    5.750     2034
    5.765     1914
    5.780     1594
    5.795     1461
    5.810     1319
    5.825     1321
    5.840     1308
    5.855     1257
    5.870     1311
    5.885     1208
    5.900     1238
    5.915     1120
    5.930     1191
    5.945     1263
    5.960     1245
    5.975     1262
    5.990     1222
    6.005     1214
    6.020     1179
    6.035     1179
    6.050     1192
    6.065     1225
    6.080     1222
    6.095     1188
    6.110     1229
    6.125     1242
    6.140     1208
    6.155     1178
    6.170     1210
    6.185     1223
    6.200     1262
    6.215     1209
    6.230     1236
    6.245     1198
    6.260     1195
    6.275     1193
    6.290     1217
    6.305     1248
    6.320     1194
    6.335     1179
    6.350     1194
    6.365     1220
    6.380     1281
    6.395     1241
    6.410     1261
    6.425     1258
    6.440     1239
    6.455     1242
    6.470     1241
    6.485     1232
    6.500     1233
    6.515     1275
    6.530     1202
    6.545     1199
    6.560     1237
    6.575     1260
    6.590     1197
    6.605     1197
    6.620     1189
    6.635     1177
    6.650     1232
    6.665     1207
    6.680     1151
    6.695     1231
    6.710     1208
    6.725     1217
    6.740     1225
    6.755     1244
    6.770     1207
    6.785     1170
    6.800     1253
    6.815     1218
    6.830     1175
    6.845     1234
    6.860     1218
    6.875     1270
    6.890     1311
    6.905     1286
    6.920     1241
    6.935     1206
    6.950     1224
    6.965     1304
    6.980     1268
    6.995     1267
    7.010     1230
    7.025     1260
    7.040     1216
    7.055     1277
    7.070     1349
    7.085     1192
    7.100     1301
    7.115     1275
    7.130     1322
    7.145     1269
    7.160     1243
    7.175     1240
    7.190     1340
    7.205     1217
    7.220     1210
    7.235     1247
    7.250     1283
    7.265     1287
    7.280     1403
    7.295     1326
    7.310     1197
    7.325     1252
    7.340     1265
    7.355     1256
    7.370     1269
    7.385     1273
    7.400     1232
    7.415     1192
    7.430     1247
    7.445     1235
    7.460     1289
    7.475     1263
    7.490     1265
    7.505     1279
    7.520     1241
    7.535     1269
    7.550     1262
    7.565     1198
    7.580     1246
    7.595     1240
    7.610     1325
    7.625     1329
    7.640     1233
    7.655     1295
    7.670     1325
    7.685     1253
    7.700     1249
    7.715     1287
    7.730     1231
    7.745     1254
    7.760     1383
    7.775     1357
    7.790     1294
    7.805     1393
    7.820     1431
    7.835     1411
    7.850     1386
    7.865     1423
    7.880     1376
    7.895     1378
    7.910     1382
    7.925     1377
    7.940     1436
    7.955     1490
    7.970     1579
    7.985     1531
    8.000     1538
    8.015     1510
    8.030     1518
    8.045     1558
    8.060     1517
    8.075     1562
    8.090     1506
    8.105     1629
    8.120     1573
    8.135     1536
    8.150     1737
    8.165     1812
    8.180     1776
    8.195     1842
    8.210     1936
    8.225     2108
    8.240     2363
    8.255     2640
    8.270     2630
    8.285     2628
    8.300     2352
    8.315     2097
    8.330     2009
    8.345     1882
    8.360     1696
    8.375     1733
    8.390     1864
    8.405     1902
    8.420     2137
    8.435     2283
    8.450     2253
    8.465     2192
    8.480     2025
    8.495     1809
    8.510     1746
    8.525     1757
    8.540     1770
    8.555     1778
    8.570     1840
    8.585     1861
    8.600     1832
    8.615     2009
    8.630     2027
    8.645     2132
    8.660     2229
    8.675     2426
    8.690     2718
    8.705     3072
    8.720     3293
    8.735     3171
    8.750     2980
    8.765     2733
    8.780     2591
    8.795     2594
    8.810     2717
    8.825     2897
    8.840     3191
    8.855     3830
    8.870     4285
    8.885     4739
    8.900     4579
    8.915     4387
    8.930     3840
    8.945     3243
    8.960     2599
    8.975     2163
    8.990     1805
    9.005     1573
    9.020     1472
    9.035     1487
    9.050     1432
    9.065     1484
    9.080     1431
    9.095     1344
    9.110     1399
    9.125     1419
    9.140     1422
    9.155     1470
    9.170     1526
    9.185     1519
    9.200     1598
    9.215     1556
    9.230     1602
    9.245     1663
    9.260     1761
    9.275     1652
    9.290     1667
    9.305     1604
    9.320     1476
    9.335     1551
    9.350     1469
    9.365     1406
    9.380     1345
    9.395     1460
    9.410     1431
    9.425     1546
    9.440     1517
    9.455     1452
    9.470     1496
    9.485     1643
    9.500     1617
    9.515     1616
    9.530     1649
    9.545     1716
    9.560     1806
    9.575     1729
    9.590     1691
    9.605     1666
    9.620     1685
    9.635     1548
    9.650     1552
    9.665     1639
    9.680     1713
    9.695     1648
    9.710     1629
    9.725     1794
    9.740     1737
    9.755     1621
    9.770     1502
    9.785     1436
    9.800     1457
    9.815     1527
    9.830     1497
    9.845     1558
    9.860     1558
    9.875     1587
    9.890     1717
    9.905     1628
    9.920     1696
    9.935     1767
    9.950     1786
    9.965     1782
    9.980     1845
    9.995     1786
   10.010     1790
   10.025     1646
   10.040     1664
   10.055     1612
   10.070     1762
   10.085     1856
   10.100     2026
   10.115     2092
   10.130     2162
   10.145     2290
   10.160     2298
   10.175     2282
   10.190     1935
   10.205     1808
   10.220     1621
   10.235     1444
   10.250     1432
   10.265     1380
   10.280     1422
   10.295     1407
   10.310     1350
   10.325     1365
   10.340     1458
   10.355     1438
   10.370     1432
   10.385     1439
   10.400     1389
   10.415     1422
   10.430     1441
   10.445     1490
   10.460     1526
   10.475     1572
   10.490     1565
   10.505     1538
   10.520     1562
   10.535     1564
   10.550     1501
   10.565     1441
   10.580     1474
   10.595     1431
   10.610     1447
   10.625     1482
   10.640     1471
   10.655     1504
   10.670     1509
   10.685     1541
   10.700     1568
   10.715     1658
   10.730     1650
   10.745     1595
   10.760     1589
   10.775     1548
   10.790     1477
   10.805     1464
   10.820     1455
   10.835     1464
   10.850     1428
   10.865     1441
   10.880     1498
   10.895     1529
   10.910     1580
   10.925     1546
   10.940     1612
   10.955     1585
   10.970     1573
   10.985     1585
   11.000     1598
   11.015     1663
   11.030     1645
   11.045     1705
   11.060     1761
   11.075     1694
   11.090     1723
   11.105     1641
   11.120     1552
   11.135     1532
   11.150     1589
   11.165     1591
   11.180     1583
   11.195     1644
   11.210     1676
   11.225     1634
   11.240     1551
   11.255     1545
   11.270     1602
   11.285     1481
   11.300     1471
   11.315     1482
   11.330     1408
   11.345     1473
   11.360     1485
   11.375     1476
   11.390     1481
   11.405     1628
   11.420     1588
   11.435     1487
   11.450     1512
   11.465     1614
   11.480     1518
   11.495     1560
   11.510     1622
   11.525     1625
   11.540     1743
   11.555     1705
   11.570     1633
   11.585     1521
   11.600     1567
   11.615     1420
   11.630     1446
   11.645     1508
   11.660     1560
   11.675     1583
   11.690     1493
   11.705     1523
   11.720     1542
   11.735     1475
   11.750     1520
   11.765     1527
   11.780     1465
   11.795     1528
   11.810     1514
   11.825     1523
   11.840     1545
   11.855     1540
   11.870     1519
   11.885     1460
   11.900     1477
   11.915     1426
   11.930     1554
   11.945     1457
   11.960     1446
   11.975     1458
   11.990     1476
   12.005     1534
   12.020     1567
   12.035     1548
   12.050     1454
   12.065     1560
   12.080     1486
   12.095     1458
   12.110     1476
   12.125     1456
   12.140     1498
   12.155     1462
   12.170     1486
   12.185     1483
   12.200     1540
   12.215     1564
   12.230     1559
   12.245     1513
   12.260     1522
   12.275     1499
   12.290     1521
   12.305     1543
   12.320     1543
   12.335     1457
   12.350     1455
   12.365     1565
   12.380     1624
   12.395     1580
   12.410     1592
   12.425     1562
   12.440     1580
   12.455     1631
   12.470     1609
   12.485     1527
   12.500     1537
   12.515     1581
   12.530     1507
   12.545     1520
   12.560     1523
   12.575     1620
   12.590     1577
   12.605     1528
   12.620     1603
   12.635     1557
   12.650     1557
   12.665     1520
   12.680     1470
   12.695     1513
   12.710     1575
   12.725     1662
   12.740     1596
   12.755     1590
   12.770     1585
   12.785     1587
   12.800     1688
   12.815     1610
   12.830     1563
   12.845     1564
   12.860     1562
   12.875     1579
   12.890     1739
   12.905     1743
   12.920     1656
   12.935     1599
   12.950     1618
   12.965     1770
   12.980     1722
   12.995     1653
   13.010     1633
   13.025     1702
   13.040     1602
   13.055     1626
   13.070     1724
   13.085     1590
   13.100     1697
   13.115     1682
   13.130     1742
   13.145     1657
   13.160     1622
   13.175     1713
   13.190     1638
   13.205     1576
   13.220     1565
   13.235     1593
   13.250     1626
   13.265     1620
   13.280     1629
   13.295     1634
   13.310     1566
   13.325     1591
   13.340     1586
   13.355     1653
   13.370     1692
   13.385     1605
   13.400     1609
   13.415     1658
   13.430     1668
   13.445     1644
   13.460     1641
   13.475     1599
   13.490     1571
   13.505     1747
   13.520     1614
   13.535     1644
   13.550     1697
   13.565     1570
   13.580     1677
   13.595     1700
   13.610     1709
   13.625     1684
   13.640     1639
   13.655     1670
   13.670     1696
   13.685     1702
   13.700     1700
   13.715     1747
   13.730     1690
   13.745     1674
   13.760     1829
   13.775     1749
   13.790     1692
   13.805     1859
   13.820     1755
   13.835     1757
   13.850     1773
   13.865     1821
   13.880     1675
   13.895     1681
   13.910     1676
   13.925     1669
   13.940     1691
   13.955     1659
   13.970     1750
   13.985     1730
   14.000     1681
   14.015     1734
   14.030     1760
   14.045     1786
   14.060     1743
   14.075     1773
   14.090     1689
   14.105     1719
   14.120     1736
   14.135     1712
   14.150     1776
   14.165     1836
   14.180     1760
   14.195     1733
   14.210     1757
   14.225     1813
   14.240     1792
   14.255     1786
   14.270     1747
   14.285     1765
   14.300     1771
   14.315     1652
   14.330     1741
   14.345     1869
   14.360     1800
   14.375     1818
   14.390     1783
   14.405     1795
   14.420     1821
   14.435     1881
   14.450     1835
   14.465     1778
   14.480     1728
   14.495     1721
   14.510     1749
   14.525     1797
   14.540     1845
   14.555     1931
   14.570     1875
   14.585     1825
   14.600     1839
   14.615     1877
   14.630     1810
   14.645     1841
   14.660     1823
   14.675     1824
   14.690     1883
   14.705     1923
   14.720     1889
   14.735     1831
   14.750     1769
   14.765     1730
   14.780     1787
   14.795     1866
   14.810     1872
   14.825     1808
   14.840     1875
   14.855     1970
   14.870     1898
   14.885     1912
   14.900     1895
   14.915     1897
   14.930     1870
   14.945     1889
   14.960     1900
   14.975     1894
   14.990     1837
   15.005     1811
   15.020     1899
   15.035     1926
   15.050     1894
   15.065     1958
   15.080     1972
   15.095     1825
   15.110     1934
   15.125     1986
   15.140     1897
   15.155     2010
   15.170     1996
   15.185     1921
   15.200     2020
   15.215     1926
   15.230     1959
   15.245     1877
   15.260     2091
   15.275     2033
   15.290     2096
   15.305     2090
   15.320     2028
   15.335     2064
   15.350     2103
   15.365     1947
   15.380     1921
   15.395     1967
   15.410     1961
   15.425     1993
   15.440     2084
   15.455     1955
   15.470     2011
   15.485     2054
   15.500     2043
   15.515     2116
   15.530     2053
   15.545     2061
   15.560     2065
   15.575     1927
   15.590     2070
   15.605     2076
   15.620     2052
   15.635     2142
   15.650     2054
   15.665     2071
   15.680     2225
   15.695     2142
   15.710     1969
   15.725     2081
   15.740     2164
   15.755     2075
   15.770     2143
   15.785     2101
   15.800     2195
   15.815     2320
   15.830     2234
   15.845     2135
   15.860     2073
   15.875     2246
   15.890     2319
   15.905     2243
   15.920     2269
   15.935     2350
   15.950     2313
   15.965     2323
   15.980     2319
   15.995     2327
   16.010     2348
   16.025     2246
   16.040     2304
   16.055     2361
   16.070     2353
   16.085     2353
   16.100     2483
   16.115     2361
   16.130     2194
   16.145     2251
   16.160     2339
   16.175     2420
   16.190     2343
   16.205     2559
   16.220     2613
   16.235     2610
   16.250     2595
   16.265     2648
   16.280     2932
   16.295     2911
   16.310     2766
   16.325     2670
   16.340     2644
   16.355     2467
   16.370     2438
   16.385     2480
   16.400     2288
   16.415     2350
   16.430     2467
   16.445     2551
   16.460     2473
   16.475     2414
   16.490     2466
   16.505     2518
   16.520     2501
   16.535     2467
   16.550     2434
   16.565     2475
   16.580     2471
   16.595     2472
   16.610     2519
   16.625     2561
   16.640     2601
   16.655     2538
   16.670     2545
   16.685     2605
   16.700     2547
   16.715     2618
   16.730     2557
   16.745     2473
   16.760     2572
   16.775     2462
   16.790     2386
   16.805     2450
   16.820     2456
   16.835     2377
   16.850     2373
   16.865     2550
   16.880     2555
   16.895     2598
   16.910     2650
   16.925     2568
   16.940     2675
   16.955     2614
   16.970     2613
   16.985     2651
   17.000     2639
   17.015     2773
   17.030     2646
   17.045     2649
   17.060     2718
   17.075     2654
   17.090     2600
   17.105     2475
   17.120     2576
   17.135     2629
   17.150     2772
   17.165     2776
   17.180     2642
   17.195     2754
   17.210     2827
   17.225     2932
   17.240     2747
   17.255     2613
   17.270     2842
   17.285     2775
   17.300     2716
   17.315     2603
   17.330     2635
   17.345     2613
   17.360     2716
   17.375     2675
   17.390     2770
   17.405     2905
   17.420     2840
   17.435     2889
   17.450     2947
   17.465     2892
   17.480     2709
   17.495     2655
   17.510     2797
   17.525     2791
   17.540     2847
   17.555     3099
   17.570     2976
   17.585     2882
   17.600     2953
   17.615     2942
   17.630     3113
   17.645     3136
   17.660     3114
   17.675     3464
   17.690     3284
   17.705     3317
   17.720     3368
   17.735     3115
   17.750     3108
   17.765     3180
   17.780     2892
   17.795     3094
   17.810     2970
   17.825     2979
   17.840     2942
   17.855     3095
   17.870     3117
   17.885     2940
   17.900     2965
   17.915     2906
   17.930     3112
   17.945     2907
   17.960     2779
   17.975     2834
   17.990     2862
   18.005     2941
   18.020     3042
   18.035     2872
   18.050     2822
   18.065     2936
   18.080     2905
   18.095     2933
   18.110     2960
   18.125     2904
   18.140     2900
   18.155     2904
   18.170     2958
   18.185     2959
   18.200     2939
   18.215     2952
   18.230     2978
   18.245     3002
   18.260     2937
   18.275     2967
   18.290     3064
   18.305     3089
   18.320     2956
   18.335     2987
   18.350     2969
   18.365     3134
   18.380     3186
   18.395     3161
   18.410     3126
   18.425     3023
   18.440     3085
   18.455     3264
   18.470     3244
   18.485     3180
   18.500     3147
   18.515     3461
   18.530     3438
   18.545     3307
   18.560     3317
   18.575     3507
   18.590     3427
   18.605     3355
   18.620     3537
   18.635     3418
   18.650     3423
   18.665     3646
   18.680     3514
   18.695     3498
   18.710     3484
   18.725     3593
   18.740     3543
   18.755     3396
   18.770     3523
   18.785     3360
   18.800     3319
   18.815     3237
   18.830     3228
   18.845     3138
   18.860     3109
   18.875     2987
   18.890     3255
   18.905     3209
   18.920     3290
   18.935     3116
   18.950     3202
   18.965     3334
   18.980     3251
   18.995     3251
   19.010     3082
   19.025     3184
   19.040     3144
   19.055     3086
   19.070     3275
   19.085     2947
   19.100     3364
   19.115     3181
   19.130     3384
   19.145     3184
   19.160     2974
   19.175     3187
   19.190     3235
   19.205     3139
   19.220     3187
   19.235     3128
   19.250     3129
   19.265     3128
   19.280     3394
   19.295     3282
   19.310     3061
   19.325     3187
   19.340     3251
   19.355     3264
   19.370     3297
   19.385     3275
   19.400     3148
   19.415     3082
   19.430     3224
   19.445     3123
   19.460     3279
   19.475     3169
   19.490     3154
   19.505     3294
   19.520     3136
   19.535     3158
   19.550     3265
   19.565     3139
   19.580     3275
   19.595     3296
   19.610     3315
   19.625     3319
   19.640     3173
   19.655     3312
   19.670     3334
   19.685     3248
   19.700     3303
   19.715     3238
   19.730     3052
   19.745     3135
   19.760     3403
   19.775     3131
   19.790     3056
   19.805     3316
   19.820     3311
   19.835     3374
   19.850     3296
   19.865     3259
   19.880     3088
   19.895     3104
   19.910     3264
   19.925     3222
   19.940     3146
   19.955     3149
   19.970     3189
   19.985     3099
   20.000     3201
   20.015     3161
   20.030     3243
   20.045     3285
   20.060     3170
   20.075     3325
   20.090     3166
   20.105     3226
   20.120     3120
   20.135     3175
   20.150     3222
   20.165     3258
   20.180     3137
   20.195     3186
   20.210     3218
   20.225     3264
   20.240     3252
   20.255     3298
   20.270     3164
   20.285     3157
   20.300     3082
   20.315     2922
   20.330     3163
   20.345     3312
   20.360     3199
   20.375     3219
   20.390     3236
   20.405     3190
   20.420     3227
   20.435     3248
   20.450     3131
   20.465     3219
   20.480     3125
   20.495     3025
   20.510     3132
   20.525     3179
   20.540     3114
   20.555     3199
   20.570     3259
   20.585     3159
   20.600     3049
   20.615     3099
   20.630     3024
   20.645     3132
   20.660     3017
   20.675     3082
   20.690     3103
   20.705     3280
   20.720     3218
   20.735     3027
   20.750     2990
   20.765     2948
   20.780     2939
   20.795     3072
   20.810     3115
   20.825     3149
   20.840     3070
   20.855     3205
   20.870     3190
   20.885     3189
   20.900     3132
   20.915     3242
   20.930     3034
   20.945     3159
   20.960     3181
   20.975     3136
   20.990     3026
   21.005     2955
   21.020     3124
   21.035     3140
   21.050     3189
   21.065     3259
   21.080     3195
   21.095     3006
   21.110     3216
   21.125     3170
   21.140     2981
   21.155     3203
   21.170     3200
   21.185     3021
   21.200     3145
   21.215     3203
   21.230     3087
   21.245     3082
   21.260     3348
   21.275     3106
   21.290     3141
   21.305     3118
   21.320     3183
   21.335     3183
   21.350     3198
   21.365     3030
   21.380     2946
   21.395     2970
   21.410     2933
   21.425     3032
   21.440     3169
   21.455     3100
   21.470     3097
   21.485     3209
   21.500     3153
   21.515     3182
   21.530     2972
   21.545     2969
   21.560     2815
   21.575     2949
   21.590     2947
   21.605     2972
   21.620     2986
   21.635     3002
   21.650     2915
   21.665     2995
   21.680     3175
   21.695     3121
   21.710     3112
   21.725     3230
   21.740     3123
   21.755     2972
   21.770     2931
   21.785     2867
   21.800     3035
   21.815     3122
   21.830     3119
   21.845     2952
   21.860     2938
   21.875     2974
   21.890     3034
   21.905     2895
   21.920     2964
   21.935     2961
   21.950     2820
   21.965     2812
   21.980     2905
   21.995     2867
   22.010     2958
   22.025     2894
   22.040     2950
   22.055     2783
   22.070     2896
   22.085     2907
   22.100     3090
   22.115     3023
   22.130     2854
   22.145     2899
   22.160     2863
   22.175     2920
   22.190     2757
   22.205     2854
   22.220     2943
   22.235     2921
   22.250     2718
   22.265     2765
   22.280     2924
   22.295     2930
   22.310     2817
   22.325     2762
   22.340     2963
   22.355     2928
   22.370     2932
   22.385     2968
   22.400     2726
   22.415     2843
   22.430     2851
   22.445     2909
   22.460     2836
   22.475     2837
   22.490     2795
   22.505     2931
   22.520     2906
   22.535     2914
   22.550     2971
   22.565     2949
   22.580     2892
   22.595     2882
   22.610     2795
   22.625     2861
   22.640     2866
   22.655     2751
   22.670     2712
   22.685     2768
   22.700     2732
   22.715     2792
   22.730     2734
   22.745     2692
   22.760     2746
   22.775     2650
   22.790     2634
   22.805     2718
   22.820     2654
   22.835     2637
   22.850     2639
   22.865     2695
   22.880     2684
   22.895     2727
   22.910     2662
   22.925     2685
   22.940     2752
   22.955     2677
   22.970     2624
   22.985     2706
   23.000     2648
   23.015     2709
   23.030     2646
   23.045     2517
   23.060     2592
   23.075     2524
   23.090     2569
   23.105     2538
   23.120     2641
   23.135     2561
   23.150     2613
   23.165     2631
   23.180     2573
   23.195     2670
   23.210     2707
   23.225     2718
   23.240     2537
   23.255     2498
   23.270     2735
   23.285     2600
   23.300     2587
   23.315     2671
   23.330     2624
   23.345     2544
   23.360     2567
   23.375     2739
   23.390     2764
   23.405     2837
   23.420     2796
   23.435     2740
   23.450     2767
   23.465     2720
   23.480     2569
   23.495     2521
   23.510     2650
   23.525     2522
   23.540     2609
   23.555     2745
   23.570     2601
   23.585     2413
   23.600     2602
   23.615     2462
   23.630     2505
   23.645     2546
   23.660     2494
   23.675     2658
   23.690     2513
   23.705     2553
   23.720     2585
   23.735     2512
   23.750     2637
   23.765     2684
   23.780     2518
   23.795     2647
   23.810     2530
   23.825     2587
   23.840     2585
   23.855     2713
   23.870     2660
   23.885     2483
   23.900     2503
   23.915     2444
   23.930     2638
   23.945     2585
   23.960     2536
   23.975     2519
   23.990     2425
   24.005     2462
   24.020     2488
   24.035     2415
   24.050     2376
   24.065     2487
   24.080     2400
   24.095     2346
   24.110     2475
   24.125     2394
   24.140     2490
   24.155     2458
   24.170     2473
   24.185     2469
   24.200     2507
   24.215     2438
   24.230     2463
   24.245     2386
   24.260     2348
   24.275     2295
   24.290     2314
   24.305     2373
   24.320     2304
   24.335     2370
   24.350     2362
   24.365     2385
   24.380     2443
   24.395     2521
   24.410     2541
   24.425     2537
   24.440     2485
   24.455     2642
   24.470     2613
   24.485     2468
   24.500     2482
   24.515     2515
   24.530     2394
   24.545     2356
   24.560     2448
   24.575     2535
   24.590     2437
   24.605     2410
   24.620     2391
   24.635     2321
   24.650     2309
   24.665     2319
   24.680     2250
   24.695     2243
   24.710     2238
   24.725     2411
   24.740     2368
   24.755     2340
   24.770     2404
   24.785     2302
   24.800     2425
   24.815     2294
   24.830     2348
   24.845     2275
   24.860     2348
   24.875     2285
   24.890     2314
   24.905     2346
   24.920     2326
   24.935     2232
   24.950     2273
   24.965     2325
   24.980     2274
   24.995     2231
   25.010     2223
   25.025     2268
   25.040     2324
   25.055     2254
   25.070     2357
   25.085     2239
   25.100     2358
   25.115     2320
   25.130     2344
   25.145     2202
   25.160     2128
   25.175     2343
   25.190     2236
   25.205     2289
   25.220     2269
   25.235     2241
   25.250     2224
   25.265     2177
   25.280     2310
   25.295     2170
   25.310     2049
   25.325     2096
   25.340     2224
   25.355     2246
   25.370     2341
   25.385     2210
   25.400     2204
   25.415     2283
   25.430     2199
   25.445     2141
   25.460     2141
   25.475     2104
   25.490     2103
   25.505     2098
   25.520     2102
   25.535     1993
   25.550     2043
   25.565     1959
   25.580     2075
   25.595     2097
   25.610     2163
   25.625     2206
   25.640     2080
   25.655     2122
   25.670     2143
   25.685     2056
   25.700     2136
   25.715     2097
   25.730     2044
   25.745     2085
   25.760     2194
   25.775     2052
   25.790     2024
   25.805     2214
   25.820     2111
   25.835     2160
   25.850     2144
   25.865     2125
   25.880     1976
   25.895     2060
   25.910     2115
   25.925     2062
   25.940     2025
   25.955     2040
   25.970     2166
   25.985     2140
   26.000     2065
   26.015     2108
   26.030     2175
   26.045     2179
   26.060     2124
   26.075     2106
   26.090     2074
   26.105     2090
   26.120     2065
   26.135     2093
   26.150     2114
   26.165     2157
   26.180     2028
   26.195     2101
   26.210     2045
   26.225     2105
   26.240     2044
   26.255     2059
   26.270     1992
   26.285     2017
   26.300     1995
   26.315     1909
   26.330     1999
   26.345     2009
   26.360     2054
   26.375     2029
   26.390     1989
   26.405     2024
   26.420     2118
   26.435     2147
   26.450     2022
   26.465     2004
   26.480     1943
   26.495     1892
   26.510     1921
   26.525     1951
   26.540     1981
   26.555     2047
   26.570     2083
   26.585     2009
   26.600     2000
   26.615     2093
   26.630     1980
   26.645     1990
   26.660     1939
   26.675     1975
   26.690     1988
   26.705     2052
   26.720     2015
   26.735     1938
   26.750     1933
   26.765     1913
   26.780     1935
   26.795     1988
   26.810     1952
   26.825     1893
   26.840     1880
   26.855     1978
   26.870     1989
   26.885     2024
   26.900     1955
   26.915     1940
   26.930     1869
   26.945     1914
   26.960     1926
   26.975     1883
   26.990     1848
   27.005     1854
   27.020     1907
   27.035     1923
   27.050     1917
   27.065     2039
   27.080     1900
   27.095     1811
   27.110     1860
   27.125     1884
   27.140     1812
   27.155     1916
   27.170     1951
   27.185     2008
   27.200     1943
   27.215     1901
   27.230     1925
   27.245     1917
   27.260     2102
   27.275     1906
   27.290     1842
   27.305     1920
   27.320     1891
   27.335     1850
   27.350     1879
   27.365     1784
   27.380     1866
   27.395     1871
   27.410     1843
   27.425     1913
   27.440     1865
   27.455     1766
   27.470     1865
   27.485     1900
   27.500     1965
   27.515     2023
   27.530     1916
   27.545     1861
   27.560     1802
   27.575     1755
   27.590     1848
   27.605     1850
   27.620     1914
   27.635     1933
   27.650     1774
   27.665     1867
   27.680     1975
   27.695     1879
   27.710     1844
   27.725     1937
   27.740     1966
   27.755     1858
   27.770     1842
   27.785     1801
   27.800     1970
   27.815     2018
   27.830     1919
   27.845     1844
   27.860     1886
   27.875     1930
   27.890     1893
   27.905     1800
   27.920     1869
   27.935     1898
   27.950     1762
   27.965     1772
   27.980     1810
   27.995     1778
   28.010     1821
   28.025     1734
   28.040     1811
   28.055     1748
   28.070     1849
   28.085     1830
   28.100     1865
   28.115     1820
   28.130     1746
   28.145     1766
   28.160     1776
   28.175     1817
   28.190     1769
   28.205     1859
   28.220     1796
   28.235     1753
   28.250     1701
   28.265     1750
   28.280     1840
   28.295     1777
   28.310     1753
   28.325     1761
   28.340     1850
   28.355     1845
   28.370     1866
   28.385     1882
   28.400     1770
   28.415     1801
   28.430     1798
   28.445     1789
   28.460     1797
   28.475     1777
   28.490     1801
   28.505     1807
   28.520     1782
   28.535     1703
   28.550     1768
   28.565     1762
   28.580     1720
   28.595     1693
   28.610     1718
   28.625     1804
   28.640     1771
   28.655     1746
   28.670     1724
   28.685     1791
   28.700     1749
   28.715     1797
   28.730     1724
   28.745     1661
   28.760     1710
   28.775     1732
   28.790     1688
   28.805     1761
   28.820     1719
   28.835     1661
   28.850     1621
   28.865     1664
   28.880     1690
   28.895     1688
   28.910     1698
   28.925     1715
   28.940     1727
   28.955     1671
   28.970     1716
   28.985     1718
   29.000     1680
   29.015     1653
   29.030     1610
   29.045     1675
   29.060     1670
   29.075     1646
   29.090     1682
   29.105     1658
   29.120     1662
   29.135     1680
   29.150     1759
   29.165     1709
   29.180     1675
   29.195     1775
   29.210     1763
   29.225     1728
   29.240     1566
   29.255     1571
   29.270     1727
   29.285     1692
   29.300     1692
   29.315     1641
   29.330     1736
   29.345     1665
   29.360     1676
   29.375     1669
   29.390     1701
   29.405     1638
   29.420     1561
   29.435     1636
   29.450     1656
   29.465     1634
   29.480     1609
   29.495     1630
   29.510     1659
   29.525     1609
   29.540     1730
   29.555     1727
   29.570     1651
   29.585     1521
   29.600     1583
   29.615     1510
   29.630     1518
   29.645     1661
   29.660     1560
   29.675     1721
   29.690     1623
   29.705     1669
   29.720     1771
   29.735     1605
   29.750     1619
   29.765     1679
   29.780     1584
   29.795     1633
   29.810     1580
   29.825     1640
   29.840     1626
   29.855     1567
   29.870     1634
   29.885     1590
   29.900     1573
   29.915     1434
   29.930     1578
   29.945     1505
   29.960     1484
   29.975     1567
   29.990     1624
   30.005     1566
   30.020     1599
   30.035     1571
   30.050     1543
   30.065     1532
   30.080     1467
   30.095     1526
   30.110     1546
   30.125     1552
   30.140     1529
   30.155     1486
   30.170     1523
   30.185     1560
   30.200     1552
   30.215     1548
   30.230     1578
   30.245     1532
   30.260     1477
   30.275     1467
   30.290     1487
   30.305     1544
   30.320     1527
   30.335     1504
   30.350     1461
   30.365     1535
   30.380     1563
   30.395     1567
   30.410     1587
   30.425     1516
   30.440     1470
   30.455     1499
   30.470     1491
   30.485     1493
   30.500     1551
   30.515     1568
   30.530     1478
   30.545     1463
   30.560     1499
   30.575     1550
   30.590     1538
   30.605     1523
   30.620     1549
   30.635     1564
   30.650     1549
   30.665     1593
   30.680     1585
   30.695     1622
   30.710     1589
   30.725     1654
   30.740     1575
   30.755     1550
   30.770     1599
   30.785     1563
   30.800     1626
   30.815     1537
   30.830     1558
   30.845     1551
   30.860     1507
   30.875     1499
   30.890     1546
   30.905     1565
   30.920     1609
   30.935     1533
   30.950     1531
   30.965     1655
   30.980     1517
   30.995     1521
   31.010     1434
   31.025     1517
   31.040     1521
   31.055     1424
   31.070     1472
   31.085     1417
   31.100     1517
   31.115     1438
   31.130     1548
   31.145     1427
   31.160     1389
   31.175     1496
   31.190     1497
   31.205     1451
   31.220     1496
   31.235     1421
   31.250     1391
   31.265     1390
   31.280     1517
   31.295     1521
   31.310     1358
   31.325     1439
   31.340     1464
   31.355     1475
   31.370     1505
   31.385     1389
   31.400     1508
   31.415     1434
   31.430     1374
   31.445     1450
   31.460     1481
   31.475     1401
   31.490     1482
   31.505     1464
   31.520     1391
   31.535     1371
   31.550     1394
   31.565     1358
   31.580     1482
   31.595     1429
   31.610     1510
   31.625     1471
   31.640     1295
   31.655     1356
   31.670     1434
   31.685     1377
   31.700     1356
   31.715     1466
   31.730     1336
   31.745     1358
   31.760     1494
   31.775     1398
   31.790     1339
   31.805     1388
   31.820     1409
   31.835     1398
   31.850     1388
   31.865     1415
   31.880     1314
   31.895     1333
   31.910     1367
   31.925     1405
   31.940     1367
   31.955     1377
   31.970     1368
   31.985     1363
   32.000     1395
   32.015     1530
   32.030     1444
   32.045     1481
   32.060     1439
   32.075     1455
   32.090     1372
   32.105     1407
   32.120     1361
   32.135     1370
   32.150     1459
   32.165     1437
   32.180     1355
   32.195     1355
   32.210     1375
   32.225     1449
   32.240     1464
   32.255     1402
   32.270     1340
   32.285     1360
   32.300     1341
   32.315     1287
   32.330     1394
   32.345     1458
   32.360     1408
   32.375     1406
   32.390     1443
   32.405     1471
   32.420     1472
   32.435     1473
   32.450     1446
   32.465     1481
   32.480     1468
   32.495     1408
   32.510     1424
   32.525     1457
   32.540     1493
   32.555     1488
   32.570     1483
   32.585     1473
   32.600     1465
   32.615     1484
   32.630     1431
   32.645     1473
   32.660     1433
   32.675     1401
   32.690     1429
   32.705     1484
   32.720     1449
   32.735     1369
   32.750     1312
   32.765     1277
   32.780     1343
   32.795     1370
   32.810     1378
   32.825     1352
   32.840     1352
   32.855     1416
   32.870     1370
   32.885     1418
   32.900     1422
   32.915     1404
   32.930     1358
   32.945     1368
   32.960     1428
   32.975     1378
   32.990     1347
   33.005     1370
   33.020     1410
   33.035     1384
   33.050     1386
   33.065     1379
   33.080     1358
   33.095     1339
   33.110     1329
   33.125     1372
   33.140     1254
   33.155     1332
   33.170     1315
   33.185     1329
   33.200     1332
   33.215     1313
   33.230     1285
   33.245     1319
   33.260     1340
   33.275     1311
   33.290     1280
   33.305     1352
   33.320     1291
   33.335     1381
   33.350     1393
   33.365     1305
   33.380     1314
   33.395     1291
   33.410     1264
   33.425     1314
   33.440     1409
   33.455     1339
   33.470     1278
   33.485     1378
   33.500     1373
   33.515     1324
   33.530     1316
   33.545     1321
   33.560     1286
   33.575     1317
   33.590     1330
   33.605     1306
   33.620     1332
   33.635     1385
   33.650     1293
   33.665     1319
   33.680     1326
   33.695     1261
   33.710     1213
   33.725     1321
   33.740     1362
   33.755     1307
   33.770     1217
   33.785     1282
   33.800     1338
   33.815     1373
   33.830     1307
   33.845     1310
   33.860     1284
   33.875     1362
   33.890     1287
   33.905     1238
   33.920     1300
   33.935     1336
   33.950     1341
   33.965     1258
   33.980     1239
   33.995     1341
   34.010     1404
   34.025     1272
   34.040     1285
   34.055     1225
   34.070     1273
   34.085     1337
   34.100     1331
   34.115     1293
   34.130     1243
   34.145     1271
   34.160     1258
   34.175     1251
   34.190     1216
   34.205     1265
   34.220     1273
   34.235     1287
   34.250     1235
   34.265     1222
   34.280     1312
   34.295     1262
   34.310     1244
   34.325     1249
   34.340     1320
   34.355     1321
   34.370     1317
   34.385     1329
   34.400     1231
   34.415     1322
   34.430     1347
   34.445     1337
   34.460     1352
   34.475     1331
   34.490     1277
   34.505     1286
   34.520     1251
   34.535     1219
   34.550     1209
   34.565     1231
   34.580     1249
   34.595     1244
   34.610     1251
   34.625     1225
   34.640     1225
   34.655     1219
   34.670     1171
   34.685     1205
   34.700     1212
   34.715     1232
   34.730     1192
   34.745     1198
   34.760     1182
   34.775     1161
   34.790     1139
   34.805     1192
   34.820     1259
   34.835     1192
   34.850     1181
   34.865     1212
   34.880     1210
   34.895     1169
   34.910     1197
   34.925     1243
   34.940     1223
   34.955     1190
   34.970     1182
   34.985     1200
   35.000     1275
   35.015     1271
   35.030     1172
   35.045     1170
   35.060     1206
   35.075     1214
   35.090     1229
   35.105     1199
   35.120     1199
   35.135     1205
   35.150     1190
   35.165     1175
   35.180     1167
   35.195     1189
   35.210     1229
   35.225     1215
   35.240     1202
   35.255     1166
   35.270     1254
   35.285     1190
   35.300     1231
   35.315     1231
   35.330     1201
   35.345     1171
   35.360     1215
   35.375     1143
   35.390     1244
   35.405     1251
   35.420     1168
   35.435     1124
   35.450     1161
   35.465     1120
   35.480     1084
   35.495     1128
   35.510     1159
   35.525     1156
   35.540     1167
   35.555     1166
   35.570     1151
   35.585     1129
   35.600     1127
   35.615     1116
   35.630     1148
   35.645     1172
   35.660     1159
   35.675     1167
   35.690     1190
   35.705     1154
   35.720     1230
   35.735     1166
   35.750     1165
   35.765     1220
   35.780     1145
   35.795     1148
   35.810     1139
   35.825     1104
   35.840     1103
   35.855     1161
   35.870     1156
   35.885     1059
   35.900     1142
   35.915     1071
   35.930     1122
   35.945     1136
   35.960     1113
   35.975     1181
   35.990     1162
   36.005     1122
   36.020     1147
   36.035     1162
   36.050     1079
   36.065     1094
   36.080     1113
   36.095     1095
   36.110     1105
   36.125     1108
   36.140     1076
   36.155     1146
   36.170     1143
   36.185     1144
   36.200     1159
   36.215     1179
   36.230     1122
   36.245     1121
   36.260     1107
   36.275     1097
   36.290     1105
   36.305     1123
   36.320     1122
   36.335     1151
   36.350     1115
   36.365     1134
   36.380     1147
   36.395     1158
   36.410     1144
   36.425     1122
   36.440     1137
   36.455     1167
   36.470     1161
   36.485     1082
   36.500     1059
   36.515     1116
   36.530     1141
   36.545     1109
   36.560     1083
   36.575     1070
   36.590     1118
   36.605     1110
   36.620     1089
   36.635     1067
   36.650     1089
   36.665     1128
   36.680     1093
   36.695     1083
   36.710     1099
   36.725     1136
   36.740     1117
   36.755     1086
   36.770     1144
   36.785     1110
   36.800     1197
   36.815     1086
   36.830     1117
   36.845     1093
   36.860     1089
   36.875     1104
   36.890     1162
   36.905     1181
   36.920     1105
   36.935     1000
   36.950     1102
   36.965     1134
   36.980     1065
   36.995     1141
   37.010     1103
   37.025     1119
   37.040     1113
   37.055     1095
   37.070     1155
   37.085      981
   37.100     1155
   37.115     1139
   37.130     1141
   37.145     1163
   37.160     1105
   37.175     1137
   37.190     1110
   37.205     1087
   37.220     1115
   37.235     1137
   37.250     1103
   37.265     1081
   37.280     1112
   37.295     1068
   37.310     1044
   37.325     1113
   37.340     1060
   37.355     1151
   37.370     1135
   37.385     1095
   37.400     1088
   37.415     1098
   37.430     1135
   37.445     1083
   37.460     1074
   37.475     1116
   37.490     1096
   37.505     1147
   37.520     1037
   37.535     1061
   37.550     1067
   37.565     1073
   37.580     1114
   37.595     1080
   37.610     1101
   37.625     1112
   37.640     1065
   37.655     1066
   37.670     1099
   37.685     1065
   37.700     1115
   37.715     1051
   37.730     1066
   37.745     1067
   37.760     1148
   37.775     1096
   37.790     1009
   37.805     1097
   37.820     1088
   37.835     1093
   37.850     1058
   37.865     1115
   37.880     1058
   37.895     1018
   37.910     1070
   37.925     1076
   37.940     1034
   37.955     1066
   37.970     1138
   37.985     1077
   38.000     1058
   38.015     1109
   38.030     1083
   38.045     1090
   38.060     1068
   38.075     1084
   38.090     1043
   38.105     1082
   38.120     1059
   38.135     1064
   38.150     1084
   38.165     1041
   38.180     1059
   38.195     1047
   38.210     1077
   38.225     1114
   38.240     1105
   38.255     1093
   38.270     1079
   38.285     1107
   38.300     1082
   38.315     1017
   38.330     1023
   38.345     1029
   38.360     1054
   38.375     1074
   38.390     1059
   38.405     1101
   38.420     1111
   38.435     1083
   38.450     1057
   38.465     1078
   38.480     1043
   38.495     1020
   38.510     1077
   38.525     1060
   38.540     1029
   38.555     1049
   38.570     1075
   38.585     1084
   38.600     1026
   38.615     1058
   38.630      991
   38.645     1045
   38.660     1053
   38.675     1076
   38.690     1036
   38.705     1071
   38.720     1100
   38.735     1033
   38.750      999
   38.765      959
   38.780     1037
   38.795     1046
   38.810     1072
   38.825     1055
   38.840     1046
   38.855     1028
   38.870     1063
   38.885     1066
   38.900     1045
   38.915     1067
   38.930     1007
   38.945      991
   38.960     1001
   38.975     1058
   38.990      961
   39.005      976
   39.020      999
   39.035     1052
   39.050     1018
   39.065     1068
   39.080     1033
   39.095     1008
   39.110      978
   39.125      985
   39.140      997
   39.155     1007
   39.170     1058
   39.185     1063
   39.200     1121
   39.215     1032
   39.230     1040
   39.245     1011
   39.260     1078
   39.275     1088
   39.290     1098
   39.305     1046
   39.320     1023
   39.335     1052
   39.350     1044
   39.365     1025
   39.380      967
   39.395     1010
   39.410     1000
   39.425      984
   39.440     1019
   39.455     1022
   39.470     1028
   39.485     1017
   39.500      992
   39.515     1057
   39.530     1049
   39.545     1043
   39.560      960
   39.575     1033
   39.590      964
   39.605     1012
   39.620     1044
   39.635     1062
   39.650      974
   39.665     1045
   39.680     1031
   39.695     1036
   39.710      977
   39.725     1083
   39.740     1082
   39.755     1026
   39.770     1018
   39.785     1039
   39.800     1057
   39.815     1133
   39.830     1080
   39.845     1041
   39.860      990
   39.875     1076
   39.890     1095
   39.905     1068
   39.920     1047
   39.935     1072
   39.950     1042
   39.965     1010
   39.980     1055
   39.995     1038
   40.010     1086
   40.025     1030
   40.040     1032
   40.055     1004
   40.070     1019
   40.085     1030
   40.100     1088
   40.115     1088
   40.130     1023
   40.145     1022
   40.160     1042
   40.175     1089
   40.190     1069
   40.205     1081
   40.220     1058
   40.235     1011
   40.250     1027
   40.265     1031
   40.280     1067
   40.295     1025
   40.310     1014
   40.325      987
   40.340     1002
   40.355     1042
   40.370     1070
   40.385     1060
   40.400     1001
   40.415     1046
   40.430     1065
   40.445     1073
   40.460     1044
   40.475     1045
   40.490     1070
   40.505     1080
   40.520     1059
   40.535     1085
   40.550     1127
   40.565     1108
   40.580     1080
   40.595     1067
   40.610     1073
   40.625     1111
   40.640     1126
   40.655     1114
   40.670     1088
   40.685     1112
   40.700     1053
   40.715     1080
   40.730     1094
   40.745     1071
   40.760     1046
   40.775     1023
   40.790     1032
   40.805     1030
   40.820     1011
   40.835      985
   40.850      989
   40.865      990
   40.880     1010
   40.895      984
   40.910     1058
   40.925     1029
   40.940     1064
   40.955     1050
   40.970     1069
   40.985     1073
   41.000     1062
   41.015     1105
   41.030     1062
   41.045     1033
   41.060     1045
   41.075     1051
   41.090     1111
   41.105     1078
   41.120     1111
   41.135     1053
   41.150     1103
   41.165     1144
   41.180     1036
   41.195     1094
   41.210     1058
   41.225     1089
   41.240     1043
   41.255     1057
   41.270     1059
   41.285     1062
   41.300     1031
   41.315     1031
   41.330     1038
   41.345     1000
   41.360     1065
   41.375     1021
   41.390     1127
   41.405     1141
   41.420     1110
   41.435     1063
   41.450     1093
   41.465     1117
   41.480     1021
   41.495     1012
   41.510     1042
   41.525     1083
   41.540     1062
   41.555     1086
   41.570     1033
   41.585     1003
   41.600     1014
   41.615      974
   41.630      983
   41.645     1076
   41.660     1002
   41.675     1012
   41.690      967
   41.705     1042
   41.720     1065
   41.735      928
   41.750      999
   41.765     1051
   41.780     1024
   41.795     1025
   41.810      982
   41.825      987
   41.840     1004
   41.855     1031
   41.870     1066
   41.885     1032
   41.900     1007
   41.915      984
   41.930     1062
   41.945     1018
   41.960      977
   41.975     1011
   41.990     1003
   42.005     1005
   42.020     1028
   42.035     1030
   42.050      995
   42.065     1049
   42.080     1014
   42.095     1008
   42.110     1010
   42.125     1052
   42.140     1024
   42.155     1031
   42.170     1080
   42.185     1045
   42.200     1043
   42.215      990
   42.230      991
   42.245      997
   42.260      999
   42.275      973
   42.290     1019
   42.305     1045
   42.320     1021
   42.335      967
   42.350      994
   42.365      972
   42.380      983
   42.395     1034
   42.410     1029
   42.425     1058
   42.440     1057
   42.455     1045
   42.470     1034
   42.485     1051
   42.500      997
   42.515     1036
   42.530      972
   42.545     1022
   42.560     1039
   42.575     1023
   42.590     1036
   42.605      997
   42.620      984
   42.635      968
   42.650      970
   42.665     1034
   42.680      981
   42.695      942
   42.710      992
   42.725     1017
   42.740     1012
   42.755     1001
   42.770     1030
   42.785     1023
   42.800     1047
   42.815      975
   42.830     1026
   42.845     1010
   42.860      964
   42.875      983
   42.890     1049
   42.905     1041
   42.920      984
   42.935      915
   42.950      952
   42.965     1050
   42.980     1013
   42.995     1010
   43.010     1068
   43.025     1065
   43.040     1047
   43.055     1054
   43.070     1079
   43.085     1011
   43.100     1123
   43.115     1049
   43.130     1073
   43.145     1082
   43.160      901
   43.175     1034
   43.190      999
   43.205     1017
   43.220      940
   43.235      963
   43.250     1034
   43.265     1007
   43.280     1054
   43.295     1057
   43.310      981
   43.325      950
   43.340      956
   43.355      977
   43.370      983
   43.385      968
   43.400      967
   43.415      982
   43.430      966
   43.445      981
   43.460      958
   43.475      973
   43.490     1048
   43.505     1041
   43.520      999
   43.535     1015
   43.550     1058
   43.565     1004
   43.580     1043
   43.595     1053
   43.610     1022
   43.625     1046
   43.640      969
   43.655      982
   43.670     1024
   43.685     1027
   43.700     1054
   43.715      997
   43.730      957
   43.745      974
   43.760     1029
   43.775      979
   43.790      941
   43.805     1056
   43.820     1034
   43.835     1013
   43.850     1092
   43.865     1027
   43.880      951
   43.895      968
   43.910      980
   43.925      930
   43.940      943
   43.955      969
   43.970     1013
   43.985     1012
