    2.000      225
    2.015      235
    2.030      229
    2.045      278
    2.060      240
    2.075      240
    2.090      236
    2.105      271
    2.120      278
    2.135      248
    2.150      258
    2.165      223
    2.180      222
    2.195      226
    2.210      234
    2.225      233
    2.240      234
    2.255      227
    2.270      218
    2.285      222
    2.300      245
    2.315      217
    2.330      226
    2.345      235
    2.360      242
    2.375      241
    2.390      230
    2.405      215
    2.420      257
    2.435      248
    2.450      242
    2.465      233
    2.480      250
    2.495      243
    2.510      231
    2.525      245
    2.540      255
    2.555      234
    2.570      249
    2.585      232
    2.600      240
    2.615      256
    2.630      240
    2.645      215
    2.660      238
    2.675      239
    2.690      241
    2.705      232
    2.720      233
    2.735      235
    2.750      239
    2.765      257
    2.780      250
    2.795      262
    2.810      260
    2.825      251
    2.840      226
    2.855      238
    2.870      239
    2.885      256
    2.900      256
    2.915      254
    2.930      243
    2.945      226
    2.960      238
    2.975      236
    2.990      241
    3.005      249
    3.020      244
    3.035      249
    3.050      247
    3.065      235
    3.080      219
    3.095      226
    3.110      243
    3.125      232
    3.140      224
    3.155      245
    3.170      251
    3.185      242
    3.200      248
    3.215      253
    3.230      245
    3.245      247
    3.260      236
    3.275      242
    3.290      245
    3.305      241
    3.320      220
    3.335      233
    3.350      224
    3.365      224
    3.380      238
    3.395      234
    3.410      224
    3.425      208
    3.440      234
    3.455      247
    3.470      231
    3.485      222
    3.500      239
    3.515      226
    3.530      213
    3.545      230
    3.560      239
    3.575      236
    3.590      224
    3.605      247
    3.620      244
    3.635      255
    3.650      251
    3.665      229
    3.680      228
    3.695      215
    3.710      228
    3.725      241
    3.740      242
    3.755      226
    3.770      223
    3.785      249
    3.800      238
    3.815      212
    3.830      226
    3.845      258
    3.860      246
    3.875      242
    3.890      231
    3.905      221
    3.920      217
    3.935      222
    3.950      227
    3.965      235
    3.980      261
    3.995      229
    4.010      235
    4.025      227
    4.040      239
    4.055      252
    4.070      226
    4.085      235
    4.100      250
    4.115      243
    4.130      224
    4.145      247
    4.160      235
    4.175      225
    4.190      230
    4.205      257
    4.220      235
    4.235      237
    4.250      230
    4.265      234
    4.280      220
    4.295      229
    4.310      244
    4.325      238
    4.340      247
    4.355      222
    4.370      231
    4.385      245
    4.400      224
    4.415      207
    4.430      225
    4.445      245
    4.460      251
    4.475      254
    4.490      248
    4.505      226
    4.520      243
    4.535      234
    4.550      242
    4.565      250
    4.580      222
    4.595      239
    4.610      250
    4.625      221
    4.640      212
    4.655      246
    4.670      241
    4.685      227
    4.700      247
    4.715      244
    4.730      234
    4.745      236
    4.760      230
    4.775      235
    4.790      243
    4.805      261
    4.820      237
    4.835      236
    4.850      241
    4.865      231
    4.880      247
    4.895      253
    4.910      243
    4.925      243
    4.940      256
    4.955      235
    4.970      253
    4.985      252
    5.000      252
    5.015      243
    5.030      259
    5.045      265
    5.060      220
    5.075      247
    5.090      246
    5.105      232
    5.120      233
    5.135      225
    5.150      241
    5.165      227
    5.180      259
    5.195      249
    5.210      256
    5.225      242
    5.240      246
    5.255      244
    5.270      218
    5.285      254
    5.300      243
    5.315      243
    5.330      253
    5.345      274
    5.360      247
    5.375      231
    5.390      258
    5.405      229
    5.420      241
    5.435      214
    5.450      242
    5.465      243
    5.480      238
    5.495      232
    5.510      260
    5.525      237
    5.540      216
    5.555      236
    5.570      260
    5.585      224
    5.600      262
    5.615      238
    5.630      238
    5.645      219
    5.660      251
    5.675      277
    5.690      246
    5.705      233
    5.720      242
    5.735      223
    5.750      214
    5.765      218
    5.780      253
    5.795      239
    5.810      219
    5.825      241
    5.840      239
    5.855      233
    5.870      240
    5.885      226
    5.900      237
    5.915      221
    5.930      222
    5.945      249
    5.960      253
    5.975      242
    5.990      239
    6.005      241
    6.020      236
    6.035      241
    6.050      279
    6.065      258
    6.080      254
    6.095      242
    6.110      251
    6.125      242
    6.140      257
    6.155      269
    6.170      258
    6.185      243
    6.200      273
    6.215      259
    6.230      267
    6.245      277
    6.260      261
    6.275      261
    6.290      282
    6.305      273
    6.320      280
    6.335      278
    6.350      259
    6.365      284
    6.380      292
    6.395      299
    6.410      286
    6.425      276
    6.440      263
    6.455      302
    6.470      292
    6.485      293
    6.500      297
    6.515      318
    6.530      319
    6.545      294
    6.560      300
    6.575      315
    6.590      316
    6.605      325
    6.620      358
    6.635      329
    6.650      324
    6.665      354
    6.680      378
    6.695      372
    6.710      368
    6.725      376
    6.740      356
    6.755      368
    6.770      348
    6.785      350
    6.800      321
    6.815      320
    6.830      341
    6.845      313
    6.860      348
    6.875      303
    6.890      348
    6.905      318
    6.920      304
    6.935      278
    6.950      274
    6.965      264
    6.980      259
    6.995      243
    7.010      265
    7.025      262
    7.040      255
    7.055      263
    7.070      251
    7.085      239
    7.100      285
    7.115      248
    7.130      293
    7.145      282
    7.160      257
    7.175      260
    7.190      268
    7.205      260
    7.220      270
    7.235      265
    7.250      235
    7.265      269
    7.280      251
    7.295      254
    7.310      254
    7.325      255
    7.340      218
    7.355      273
    7.370      267
    7.385      242
    7.400      258
    7.415      261
    7.430      228
    7.445      221
    7.460      225
    7.475      250
    7.490      233
    7.505      229
    7.520      237
    7.535      221
    7.550      228
    7.565      238
    7.580      255
    7.595      256
    7.610      252
    7.625      269
    7.640      247
    7.655      257
    7.670      252
    7.685      223
    7.700      235
    7.715      246
    7.730      234
    7.745      241
    7.760      257
    7.775      246
    7.790      243
    7.805      260
    7.820      275
    7.835      259
    7.850      218
    7.865      215
    7.880      237
    7.895      230
    7.910      223
    7.925      238
    7.940      233
    7.955      253
    7.970      268
    7.985      237
    8.000      244
    8.015      249
    8.030      243
    8.045      257
    8.060      232
    8.075      236
    8.090      225
    8.105      295
    8.120      259
    8.135      226
    8.150      249
    8.165      224
    8.180      214
    8.195      224
    8.210      221
    8.225      246
    8.240      248
    8.255      244
    8.270      231
    8.285      234
    8.300      240
    8.315      243
    8.330      255
    8.345      237
    8.360      237
    8.375      242
    8.390      239
    8.405      232
    8.420      282
    8.435      277
    8.450      233
    8.465      230
    8.480      244
    8.495      233
    8.510      241
    8.525      245
    8.540      265
    8.555      255
    8.570      250
    8.585      243
    8.600      261
    8.615      279
    8.630      275
    8.645      262
    8.660      277
    8.675      276
    8.690      274
    8.705      288
    8.720      289
    8.735      287
    8.750      288
    8.765      298
    8.780      328
    8.795      313
    8.810      318
    8.825      306
    8.840      299
    8.855      346
    8.870      379
    8.885      397
    8.900      378
    8.915      392
    8.930      382
    8.945      411
    8.960      439
    8.975      454
    8.990      461
    9.005      498
    9.020      544
    9.035      643
    9.050      690
    9.065      737
    9.080      847
    9.095      940
    9.110     1146
    9.125     1314
    9.140     1154
    9.155      998
    9.170      754
    9.185      585
    9.200      449
    9.215      404
    9.230      359
    9.245      385
    9.260      335
    9.275      345
    9.290      351
    9.305      335
    9.320      330
    9.335      314
    9.350      309
    9.365      286
    9.380      278
    9.395      295
    9.410      250
    9.425      245
    9.440      266
    9.455      256
    9.470      258
    9.485      255
    9.500      260
    9.515      263
    9.530      241
    9.545      256
    9.560      276
    9.575      271
    9.590      243
    9.605      257
    9.620      288
    9.635      266
    9.650      247
    9.665      266
    9.680      247
    9.695      252
    9.710      266
    9.725      249
    9.740      262
    9.755      264
    9.770      229
    9.785      249
    9.800      246
    9.815      231
    9.830      251
    9.845      266
    9.860      285
    9.875      268
    9.890      251
    9.905      248
    9.920      239
    9.935      227
    9.950      204
    9.965      228
    9.980      253
    9.995      264
   10.010      291
   10.025      234
   10.040      252
   10.055      247
   10.070      226
   10.085      239
   10.100      242
   10.115      237
   10.130      224
   10.145      249
   10.160      260
   10.175      262
   10.190      230
   10.205      242
   10.220      225
   10.235      227
   10.250      252
   10.265      251
   10.280      230
   10.295      251
   10.310      238
   10.325      249
   10.340      258
   10.355      248
   10.370      235
   10.385      248
   10.400      239
   10.415      247
   10.430      245
   10.445      243
   10.460      247
   10.475      244
   10.490      250
   10.505      235
   10.520      234
   10.535      233
   10.550      239
   10.565      261
   10.580      251
   10.595      250
   10.610      246
   10.625      234
   10.640      235
   10.655      240
   10.670      231
   10.685      241
   10.700      227
   10.715      249
   10.730      255
   10.745      226
   10.760      234
   10.775      248
   10.790      227
   10.805      241
   10.820      240
   10.835      232
   10.850      236
   10.865      225
   10.880      242
   10.895      267
   10.910      249
   10.925      238
   10.940      239
   10.955      232
   10.970      226
   10.985      230
   11.000      246
   11.015      227
   11.030      252
   11.045      265
   11.060      267
   11.075      284
   11.090      267
   11.105      250
   11.120      225
   11.135      231
   11.150      220
   11.165      227
   11.180      239
   11.195      263
   11.210      246
   11.225      233
   11.240      240
   11.255      257
   11.270      258
   11.285      228
   11.300      250
   11.315      236
   11.330      253
   11.345      229
   11.360      227
   11.375      234
   11.390      233
   11.405      243
   11.420      245
   11.435      226
   11.450      239
   11.465      244
   11.480      265
   11.495      253
   11.510      254
   11.525      227
   11.540      235
   11.555      229
   11.570      236
   11.585      230
   11.600      221
   11.615      223
   11.630      254
   11.645      252
   11.660      245
   11.675      264
   11.690      246
   11.705      244
   11.720      254
   11.735      216
   11.750      222
   11.765      270
   11.780      266
   11.795      232
   11.810      239
   11.825      227
   11.840      218
   11.855      239
   11.870      258
   11.885      245
   11.900      231
   11.915      231
   11.930      222
   11.945      239
   11.960      247
   11.975      246
   11.990      268
   12.005      226
   12.020      244
   12.035      253
   12.050      263
   12.065      254
   12.080      233
   12.095      228
   12.110      212
   12.125      239
   12.140      254
   12.155      233
   12.170      229
   12.185      235
   12.200      224
   12.215      231
   12.230      220
   12.245      243
   12.260      267
   12.275      253
   12.290      233
   12.305      246
   12.320      257
   12.335      229
   12.350      241
   12.365      214
   12.380      217
   12.395      229
   12.410      233
   12.425      242
   12.440      250
   12.455      242
   12.470      239
   12.485      243
   12.500      243
   12.515      252
   12.530      241
   12.545      223
   12.560      247
   12.575      258
   12.590      234
   12.605      249
   12.620      261
   12.635      242
   12.650      219
   12.665      230
   12.680      224
   12.695      263
   12.710      254
   12.725      241
   12.740      254
   12.755      237
   12.770      230
   12.785      242
   12.800      240
   12.815      252
   12.830      260
   12.845      254
   12.860      281
   12.875      248
   12.890      281
   12.905      271
   12.920      270
   12.935      246
   12.950      250
   12.965      267
   12.980      259
   12.995      247
   13.010      254
   13.025      288
   13.040      255
   13.055      243
   13.070      270
   13.085      244
   13.100      313
   13.115      271
   13.130      279
   13.145      244
   13.160      271
   13.175      274
   13.190      280
   13.205      266
   13.220      238
   13.235      278
   13.250      272
   13.265      291
   13.280      272
   13.295      303
   13.310      287
   13.325      302
   13.340      357
   13.355      371
   13.370      385
   13.385      345
   13.400      369
   13.415      391
   13.430      438
   13.445      452
   13.460      461
   13.475      499
   13.490      492
   13.505      554
   13.520      601
   13.535      540
   13.550      569
   13.565      527
   13.580      551
   13.595      588
   13.610      614
   13.625      619
   13.640      533
   13.655      512
   13.670      530
   13.685      514
   13.700      465
   13.715      449
   13.730      406
   13.745      388
   13.760      406
   13.775      390
   13.790      337
   13.805      320
   13.820      348
   13.835      363
   13.850      334
   13.865      284
   13.880      298
   13.895      295
   13.910      284
   13.925      282
   13.940      282
   13.955      285
   13.970      281
   13.985      287
   14.000      280
   14.015      287
   14.030      285
   14.045      259
   14.060      280
   14.075      274
   14.090      244
   14.105      266
   14.120      256
   14.135      244
   14.150      241
   14.165      243
   14.180      234
   14.195      240
   14.210      248
   14.225      260
   14.240      241
   14.255      243
   14.270      262
   14.285      268
   14.300      265
   14.315      261
   14.330      265
   14.345      255
   14.360      248
   14.375      256
   14.390      245
   14.405      247
   14.420      267
   14.435      271
   14.450      274
   14.465      287
   14.480      271
   14.495      251
   14.510      249
   14.525      240
   14.540      252
   14.555      273
   14.570      238
   14.585      235
   14.600      259
   14.615      261
   14.630      243
   14.645      227
   14.660      249
   14.675      259
   14.690      261
   14.705      245
   14.720      253
   14.735      273
   14.750      251
   14.765      231
   14.780      239
   14.795      235
   14.810      264
   14.825      253
   14.840      233
   14.855      233
   14.870      246
   14.885      263
   14.900      249
   14.915      240
   14.930      247
   14.945      255
   14.960      250
   14.975      247
   14.990      247
   15.005      246
   15.020      255
   15.035      229
   15.050      239
   15.065      237
   15.080      240
   15.095      230
   15.110      240
   15.125      250
   15.140      230
   15.155      248
   15.170      238
   15.185      244
   15.200      232
   15.215      289
   15.230      251
   15.245      255
   15.260      255
   15.275      245
   15.290      231
   15.305      228
   15.320      252
   15.335      241
   15.350      224
   15.365      214
   15.380      239
   15.395      233
   15.410      239
   15.425      232
   15.440      224
   15.455      199
   15.470      219
   15.485      226
   15.500      250
   15.515      236
   15.530      252
   15.545      246
   15.560      257
   15.575      247
   15.590      244
   15.605      235
   15.620      243
   15.635      262
   15.650      241
   15.665      247
   15.680      258
   15.695      228
   15.710      265
   15.725      266
   15.740      254
   15.755      253
   15.770      238
   15.785      249
   15.800      231
   15.815      244
   15.830      261
   15.845      246
   15.860      256
   15.875      242
   15.890      254
   15.905      253
   15.920      239
   15.935      258
   15.950      234
   15.965      236
   15.980      249
   15.995      247
   16.010      261
   16.025      225
   16.040      240
   16.055      241
   16.070      233
   16.085      232
   16.100      238
   16.115      243
   16.130      227
   16.145      266
   16.160      251
   16.175      249
   16.190      234
   16.205      228
   16.220      242
   16.235      233
   16.250      232
   16.265      240
   16.280      248
   16.295      228
   16.310      221
   16.325      226
   16.340      218
   16.355      224
   16.370      240
   16.385      252
   16.400      255
   16.415      256
   16.430      226
   16.445      217
   16.460      246
   16.475      253
   16.490      253
   16.505      221
   16.520      217
   16.535      249
   16.550      233
   16.565      246
   16.580      247
   16.595      232
   16.610      214
   16.625      235
   16.640      243
   16.655      239
   16.670      231
   16.685      224
   16.700      234
   16.715      241
   16.730      244
   16.745      231
   16.760      226
   16.775      235
   16.790      240
   16.805      264
   16.820      246
   16.835      239
   16.850      254
   16.865      235
   16.880      222
   16.895      228
   16.910      240
   16.925      247
   16.940      253
   16.955      249
   16.970      256
   16.985      255
   17.000      261
   17.015      249
   17.030      237
   17.045      265
   17.060      267
   17.075      261
   17.090      253
   17.105      247
   17.120      258
   17.135      230
   17.150      242
   17.165      218
   17.180      242
   17.195      279
   17.210      238
   17.225      255
   17.240      257
   17.255      261
   17.270      247
   17.285      257
   17.300      253
   17.315      264
   17.330      242
   17.345      235
   17.360      260
   17.375      257
   17.390      256
   17.405      267
   17.420      272
   17.435      224
   17.450      260
   17.465      287
   17.480      271
   17.495      289
   17.510      267
   17.525      243
   17.540      279
   17.555      252
   17.570      270
   17.585      250
   17.600      266
   17.615      240
   17.630      268
   17.645      282
   17.660      271
   17.675      315
   17.690      293
   17.705      320
   17.720      320
   17.735      310
   17.750      309
   17.765      334
   17.780      346
   17.795      359
   17.810      377
   17.825      405
   17.840      375
   17.855      360
   17.870      354
   17.885      365
   17.900      401
   17.915      351
   17.930      360
   17.945      331
   17.960      332
   17.975      318
   17.990      316
   18.005      326
   18.020      300
   18.035      318
   18.050      312
   18.065      306
   18.080      291
   18.095      286
   18.110      273
   18.125      282
   18.140      290
   18.155      286
   18.170      277
   18.185      287
   18.200      310
   18.215      286
   18.230      282
   18.245      280
   18.260      315
   18.275      328
   18.290      314
   18.305      337
   18.320      378
   18.335      395
   18.350      405
   18.365      438
   18.380      497
   18.395      498
   18.410      480
   18.425      475
   18.440      490
   18.455      440
   18.470      410
   18.485      397
   18.500      374
   18.515      354
   18.530      331
   18.545      330
   18.560      317
   18.575      309
   18.590      334
   18.605      334
   18.620      292
   18.635      292
   18.650      285
   18.665      312
   18.680      311
   18.695      303
   18.710      292
   18.725      284
   18.740      305
   18.755      311
   18.770      289
   18.785      295
   18.800      317
   18.815      288
   18.830      284
   18.845      311
   18.860      313
   18.875      278
   18.890      279
   18.905      310
   18.920      292
   18.935      282
   18.950      312
   18.965      329
   18.980      309
   18.995      290
   19.010      309
   19.025      301
   19.040      306
   19.055      297
   19.070      280
   19.085      252
   19.100      286
   19.115      289
   19.130      256
   19.145      244
   19.160      245
   19.175      281
   19.190      277
   19.205      265
   19.220      245
   19.235      221
   19.250      247
   19.265      249
   19.280      260
   19.295      233
   19.310      221
   19.325      239
   19.340      227
   19.355      250
   19.370      278
   19.385      247
   19.400      252
   19.415      267
   19.430      254
   19.445      231
   19.460      260
   19.475      271
   19.490      273
   19.505      272
   19.520      257
   19.535      270
   19.550      257
   19.565      255
   19.580      253
   19.595      223
   19.610      254
   19.625      239
   19.640      252
   19.655      235
   19.670      252
   19.685      262
   19.700      236
   19.715      261
   19.730      222
   19.745      247
   19.760      263
   19.775      244
   19.790      246
   19.805      290
   19.820      259
   19.835      224
   19.850      237
   19.865      229
   19.880      211
   19.895      225
   19.910      266
   19.925      239
   19.940      283
   19.955      277
   19.970      253
   19.985      254
   20.000      256
   20.015      274
   20.030      243
   20.045      252
   20.060      251
   20.075      247
   20.090      216
   20.105      249
   20.120      258
   20.135      258
   20.150      235
   20.165      234
   20.180      219
   20.195      238
   20.210      234
   20.225      226
   20.240      257
   20.255      260
   20.270      247
   20.285      238
   20.300      248
   20.315      228
   20.330      221
   20.345      248
   20.360      248
   20.375      247
   20.390      244
   20.405      243
   20.420      256
   20.435      280
   20.450      268
   20.465      254
   20.480      253
   20.495      256
   20.510      242
   20.525      247
   20.540      263
   20.555      255
   20.570      256
   20.585      286
   20.600      272
   20.615      254
   20.630      244
   20.645      239
   20.660      265
   20.675      293
   20.690      281
   20.705      253
   20.720      260
   20.735      268
   20.750      271
   20.765      255
   20.780      265
   20.795      259
   20.810      253
   20.825      268
   20.840      270
   20.855      271
   20.870      262
   20.885      268
   20.900      266
   20.915      249
   20.930      235
   20.945      230
   20.960      252
   20.975      238
   20.990      241
   21.005      242
   21.020      263
   21.035      246
   21.050      241
   21.065      244
   21.080      245
   21.095      255
   21.110      245
   21.125      228
   21.140      250
   21.155      245
   21.170      254
   21.185      233
   21.200      234
   21.215      263
   21.230      275
   21.245      300
   21.260      280
   21.275      269
   21.290      257
   21.305      264
   21.320      280
   21.335      267
   21.350      271
   21.365      241
   21.380      229
   21.395      250
   21.410      254
   21.425      230
   21.440      237
   21.455      239
   21.470      254
   21.485      240
   21.500      278
   21.515      236
   21.530      228
   21.545      235
   21.560      258
   21.575      254
   21.590      237
   21.605      254
   21.620      257
   21.635      232
   21.650      264
   21.665      266
   21.680      257
   21.695      235
   21.710      280
   21.725      279
   21.740      257
   21.755      252
   21.770      244
   21.785      288
   21.800      261
   21.815      252
   21.830      249
   21.845      242
   21.860      236
   21.875      265
   21.890      267
   21.905      249
   21.920      242
   21.935      220
   21.950      218
   21.965      244
   21.980      255
   21.995      245
   22.010      254
   22.025      259
   22.040      252
   22.055      233
   22.070      217
   22.085      239
   22.100      237
   22.115      258
   22.130      251
   22.145      258
   22.160      253
   22.175      265
   22.190      235
   22.205      270
   22.220      262
   22.235      264
   22.250      271
   22.265      247
   22.280      217
   22.295      238
   22.310      234
   22.325      251
   22.340      273
   22.355      254
   22.370      235
   22.385      255
   22.400      271
   22.415      271
   22.430      252
   22.445      245
   22.460      265
   22.475      286
   22.490      270
   22.505      257
   22.520      263
   22.535      272
   22.550      250
   22.565      248
   22.580      242
   22.595      242
   22.610      244
   22.625      226
   22.640      249
   22.655      257
   22.670      253
   22.685      238
   22.700      244
   22.715      258
   22.730      253
   22.745      243
   22.760      256
   22.775      239
   22.790      230
   22.805      242
   22.820      241
   22.835      252
   22.850      268
   22.865      257
   22.880      273
   22.895      256
   22.910      243
   22.925      272
   22.940      268
   22.955      229
   22.970      269
   22.985      271
   23.000      259
   23.015      250
   23.030      248
   23.045      261
   23.060      232
   23.075      252
   23.090      256
   23.105      232
   23.120      234
   23.135      235
   23.150      227
   23.165      239
   23.180      234
   23.195      239
   23.210      229
   23.225      218
   23.240      278
   23.255      228
   23.270      245
   23.285      228
   23.300      264
   23.315      265
   23.330      236
   23.345      266
   23.360      212
   23.375      235
   23.390      253
   23.405      257
   23.420      236
   23.435      218
   23.450      247
   23.465      243
   23.480      213
   23.495      245
   23.510      257
   23.525      236
   23.540      262
   23.555      237
   23.570      249
   23.585      235
   23.600      247
   23.615      245
   23.630      227
   23.645      223
   23.660      237
   23.675      260
   23.690      214
   23.705      240
   23.720      237
   23.735      238
   23.750      255
   23.765      253
   23.780      266
   23.795      270
   23.810      267
   23.825      254
   23.840      274
   23.855      236
   23.870      263
   23.885      237
   23.900      232
   23.915      238
   23.930      251
   23.945      244
   23.960      239
   23.975      235
   23.990      241
   24.005      239
   24.020      236
   24.035      265
   24.050      250
   24.065      272
   24.080      242
   24.095      226
   24.110      229
   24.125      253
   24.140      272
   24.155      263
   24.170      270
   24.185      251
   24.200      257
   24.215      245
   24.230      219
   24.245      230
   24.260      236
   24.275      247
   24.290      243
   24.305      246
   24.320      252
   24.335      250
   24.350      228
   24.365      211
   24.380      240
   24.395      237
   24.410      238
   24.425      259
   24.440      247
   24.455      230
   24.470      239
   24.485      249
   24.500      212
   24.515      235
   24.530      209
   24.545      233
   24.560      248
   24.575      271
   24.590      260
   24.605      251
   24.620      235
   24.635      237
   24.650      213
   24.665      242
   24.680      232
   24.695      236
   24.710      238
   24.725      236
   24.740      254
   24.755      236
   24.770      225
   24.785      239
   24.800      248
   24.815      224
   24.830      218
   24.845      245
   24.860      255
   24.875      262
   24.890      271
   24.905      253
   24.920      238
   24.935      235
   24.950      230
   24.965      234
   24.980      284
   24.995      257
   25.010      219
   25.025      272
   25.040      219
   25.055      242
   25.070      266
   25.085      230
   25.100      254
   25.115      262
   25.130      248
   25.145      242
   25.160      216
   25.175      250
   25.190      248
   25.205      271
   25.220      234
   25.235      221
   25.250      256
   25.265      265
   25.280      265
   25.295      249
   25.310      222
   25.325      260
   25.340      217
   25.355      243
   25.370      270
   25.385      263
   25.400      265
   25.415      282
   25.430      252
   25.445      235
   25.460      258
   25.475      252
   25.490      270
   25.505      263
   25.520      244
   25.535      262
   25.550      235
   25.565      233
   25.580      237
   25.595      241
   25.610      239
   25.625      273
   25.640      247
   25.655      239
   25.670      262
   25.685      242
   25.700      237
   25.715      247
   25.730      226
   25.745      232
   25.760      256
   25.775      266
   25.790      239
   25.805      264
   25.820      275
   25.835      263
   25.850      268
   25.865      256
   25.880      283
   25.895      299
   25.910      271
   25.925      266
   25.940      266
   25.955      280
   25.970      268
   25.985      262
   26.000      255
   26.015      256
   26.030      266
   26.045      245
   26.060      241
   26.075      259
   26.090      229
   26.105      256
   26.120      258
   26.135      263
   26.150      269
   26.165      237
   26.180      221
   26.195      226
   26.210      239
   26.225      259
   26.240      274
   26.255      246
   26.270      242
   26.285      237
   26.300      240
   26.315      239
   26.330      269
   26.345      282
   26.360      246
   26.375      260
   26.390      255
   26.405      242
   26.420      265
   26.435      257
   26.450      272
   26.465      247
   26.480      244
   26.495      236
   26.510      232
   26.525      238
   26.540      264
   26.555      274
   26.570      290
   26.585      263
   26.600      256
   26.615      257
   26.630      269
   26.645      279
   26.660      284
   26.675      288
   26.690      271
   26.705      269
   26.720      279
   26.735      263
   26.750      273
   26.765      280
   26.780      274
   26.795      267
   26.810      266
   26.825      258
   26.840      237
   26.855      243
   26.870      256
   26.885      274
   26.900      286
   26.915      274
   26.930      250
   26.945      247
   26.960      257
   26.975      253
   26.990      248
   27.005      280
   27.020      265
   27.035      269
   27.050      248
   27.065      241
   27.080      253
   27.095      251
   27.110      253
   27.125      251
   27.140      258
   27.155      253
   27.170      263
   27.185      269
   27.200      261
   27.215      259
   27.230      289
   27.245      285
   27.260      300
   27.275      292
   27.290      281
   27.305      279
   27.320      270
   27.335      285
   27.350      270
   27.365      237
   27.380      263
   27.395      252
   27.410      244
   27.425      266
   27.440      255
   27.455      261
   27.470      239
   27.485      259
   27.500      266
   27.515      261
   27.530      233
   27.545      270
   27.560      256
   27.575      253
   27.590      278
   27.605      244
   27.620      253
   27.635      276
   27.650      246
   27.665      271
   27.680      270
   27.695      223
   27.710      245
   27.725      262
   27.740      243
   27.755      265
   27.770      235
   27.785      224
   27.800      253
   27.815      270
   27.830      254
   27.845      264
   27.860      264
   27.875      269
   27.890      286
   27.905      234
   27.920      253
   27.935      252
   27.950      230
   27.965      245
   27.980      228
   27.995      246
   28.010      285
   28.025      267
   28.040      235
   28.055      250
   28.070      246
   28.085      236
   28.100      239
   28.115      259
   28.130      254
   28.145      259
   28.160      242
   28.175      268
   28.190      265
   28.205      275
   28.220      263
   28.235      247
   28.250      248
   28.265      237
   28.280      247
   28.295      258
   28.310      241
   28.325      245
   28.340      247
   28.355      243
   28.370      260
   28.385      263
   28.400      257
   28.415      261
   28.430      265
   28.445      265
   28.460      270
   28.475      262
   28.490      267
   28.505      250
   28.520      277
   28.535      270
   28.550      270
   28.565      266
   28.580      259
   28.595      268
   28.610      282
   28.625      277
   28.640      252
   28.655      248
   28.670      253
   28.685      244
   28.700      257
   28.715      252
   28.730      249
   28.745      272
   28.760      268
   28.775      245
   28.790      222
   28.805      269
   28.820      246
   28.835      247
   28.850      263
   28.865      247
   28.880      239
   28.895      225
   28.910      259
   28.925      272
   28.940      245
   28.955      253
   28.970      261
   28.985      265
   29.000      265
   29.015      237
   29.030      240
   29.045      254
   29.060      268
   29.075      253
   29.090      264
   29.105      266
   29.120      257
   29.135      244
   29.150      250
   29.165      253
   29.180      251
   29.195      252
   29.210      256
   29.225      231
   29.240      261
   29.255      242
   29.270      265
   29.285      270
   29.300      251
   29.315      233
   29.330      256
   29.345      283
   29.360      281
   29.375      262
   29.390      295
   29.405      297
   29.420      226
   29.435      247
   29.450      270
   29.465      253
   29.480      251
   29.495      267
   29.510      259
   29.525      243
   29.540      272
   29.555      233
   29.570      268
   29.585      229
   29.600      273
   29.615      229
   29.630      227
   29.645      253
   29.660      264
   29.675      257
   29.690      246
   29.705      255
   29.720      261
   29.735      249
   29.750      238
   29.765      248
   29.780      237
   29.795      258
   29.810      249
   29.825      247
   29.840      219
   29.855      247
   29.870      245
   29.885      248
   29.900      223
   29.915      247
   29.930      255
   29.945      251
   29.960      253
   29.975      251
   29.990      245
   30.005      265
   30.020      278
   30.035      260
   30.050      279
   30.065      302
   30.080      265
   30.095      260
   30.110      254
   30.125      263
   30.140      265
   30.155      250
   30.170      239
   30.185      250
   30.200      269
   30.215      257
   30.230      254
   30.245      255
   30.260      275
   30.275      264
   30.290      263
   30.305      275
   30.320      283
   30.335      304
   30.350      272
   30.365      265
   30.380      268
   30.395      282
   30.410      294
   30.425      271
   30.440      282
   30.455      261
   30.470      270
   30.485      252
   30.500      251
   30.515      263
   30.530      254
   30.545      248
   30.560      257
   30.575      267
   30.590      247
   30.605      260
   30.620      249
   30.635      237
   30.650      235
   30.665      248
   30.680      269
   30.695      227
   30.710      256
   30.725      261
   30.740      264
   30.755      281
   30.770      250
   30.785      260
   30.800      241
   30.815      241
   30.830      224
   30.845      236
   30.860      279
   30.875      255
   30.890      229
   30.905      247
   30.920      259
   30.935      231
   30.950      218
   30.965      242
   30.980      262
   30.995      244
   31.010      243
   31.025      272
   31.040      222
   31.055      224
   31.070      233
   31.085      209
   31.100      268
   31.115      242
   31.130      270
   31.145      220
   31.160      221
   31.175      253
   31.190      261
   31.205      226
   31.220      214
   31.235      248
   31.250      235
   31.265      247
   31.280      259
   31.295      251
   31.310      222
   31.325      223
   31.340      225
   31.355      257
   31.370      264
   31.385      244
   31.400      243
   31.415      240
   31.430      224
   31.445      223
   31.460      241
   31.475      229
   31.490      237
   31.505      251
   31.520      241
   31.535      252
   31.550      227
   31.565      233
   31.580      214
   31.595      245
   31.610      246
   31.625      238
   31.640      217
   31.655      253
   31.670      258
   31.685      234
   31.700      215
   31.715      244
   31.730      227
   31.745      238
   31.760      239
   31.775      246
   31.790      224
   31.805      226
   31.820      230
   31.835      246
   31.850      241
   31.865      222
   31.880      237
   31.895      233
   31.910      211
   31.925      227
   31.940      238
   31.955      254
   31.970      242
   31.985      238
   32.000      238
   32.015      230
   32.030      214
   32.045      235
   32.060      242
   32.075      255
   32.090      223
   32.105      243
   32.120      247
   32.135      246
   32.150      237
   32.165      251
   32.180      233
   32.195      235
   32.210      271
   32.225      286
   32.240      262
   32.255      268
   32.270      298
   32.285      288
   32.300      277
   32.315      276
   32.330      300
   32.345      318
   32.360      280
   32.375      286
   32.390      258
   32.405      254
   32.420      269
   32.435      269
   32.450      256
   32.465      269
   32.480      257
   32.495      260
   32.510      247
   32.525      242
   32.540      252
   32.555      248
   32.570      231
   32.585      232
   32.600      261
   32.615      262
   32.630      256
   32.645      234
   32.660      250
   32.675      253
   32.690      256
   32.705      256
   32.720      252
   32.735      234
   32.750      263
   32.765      280
   32.780      279
   32.795      268
   32.810      276
   32.825      263
   32.840      247
   32.855      248
   32.870      254
   32.885      284
   32.900      280
   32.915      283
   32.930      262
   32.945      245
   32.960      244
   32.975      259
   32.990      240
   33.005      282
   33.020      304
   33.035      292
   33.050      260
   33.065      254
   33.080      264
   33.095      250
   33.110      267
   33.125      272
   33.140      270
   33.155      275
   33.170      264
   33.185      238
   33.200      265
   33.215      265
   33.230      249
   33.245      254
   33.260      244
   33.275      245
   33.290      225
   33.305      214
   33.320      241
   33.335      223
   33.350      257
   33.365      243
   33.380      240
   33.395      246
   33.410      227
   33.425      257
   33.440      269
   33.455      240
   33.470      263
   33.485      245
   33.500      264
   33.515      243
   33.530      227
   33.545      250
   33.560      255
   33.575      235
   33.590      251
   33.605      231
   33.620      296
   33.635      272
   33.650      251
   33.665      261
   33.680      246
   33.695      263
   33.710      262
   33.725      260
   33.740      257
   33.755      288
   33.770      258
   33.785      259
   33.800      241
   33.815      251
   33.830      252
   33.845      252
   33.860      252
   33.875      276
   33.890      264
   33.905      231
   33.920      247
   33.935      238
   33.950      233
   33.965      230
   33.980      275
   33.995      267
   34.010      262
   34.025      256
   34.040      257
   34.055      252
   34.070      222
   34.085      229
   34.100      238
   34.115      244
   34.130      229
   34.145      257
   34.160      273
   34.175      275
   34.190      237
   34.205      250
   34.220      273
   34.235      269
   34.250      239
   34.265      243
   34.280      238
   34.295      232
   34.310      217
   34.325      237
   34.340      250
   34.355      245
   34.370      241
   34.385      254
   34.400      255
   34.415      269
   34.430      242
   34.445      246
   34.460      255
   34.475      260
   34.490      250
   34.505      261
   34.520      261
   34.535      254
   34.550      261
   34.565      267
   34.580      251
   34.595      258
   34.610      242
   34.625      216
   34.640      226
   34.655      234
   34.670      226
   34.685      237
   34.700      249
   34.715      239
   34.730      248
   34.745      255
   34.760      257
   34.775      245
   34.790      263
   34.805      282
   34.820      263
   34.835      233
   34.850      235
   34.865      237
   34.880      259
   34.895      246
   34.910      244
   34.925      261
   34.940      267
   34.955      297
   34.970      270
   34.985      257
   35.000      251
   35.015      241
   35.030      261
   35.045      246
   35.060      250
   35.075      262
   35.090      248
   35.105      258
   35.120      229
   35.135      237
   35.150      243
   35.165      237
   35.180      260
   35.195      241
   35.210      240
   35.225      266
   35.240      280
   35.255      245
   35.270      260
   35.285      265
   35.300      262
   35.315      251
   35.330      258
   35.345      272
   35.360      248
   35.375      250
   35.390      256
   35.405      271
   35.420      260
   35.435      250
   35.450      272
   35.465      238
   35.480      251
   35.495      251
   35.510      266
   35.525      244
   35.540      250
   35.555      255
   35.570      224
   35.585      209
   35.600      251
   35.615      231
   35.630      251
   35.645      250
   35.660      269
   35.675      263
   35.690      223
   35.705      258
   35.720      234
   35.735      242
   35.750      264
   35.765      249
   35.780      256
   35.795      251
   35.810      222
   35.825      228
   35.840      216
   35.855      241
   35.870      246
   35.885      254
   35.900      236
   35.915      235
   35.930      234
   35.945      255
   35.960      235
   35.975      257
   35.990      257
   36.005      246
   36.020      237
   36.035      228
   36.050      231
   36.065      262
   36.080      236
   36.095      232
   36.110      212
   36.125      226
   36.140      232
   36.155      221
   36.170      228
   36.185      243
   36.200      266
   36.215      245
   36.230      221
   36.245      242
   36.260      258
   36.275      255
   36.290      231
   36.305      228
   36.320      239
   36.335      241
   36.350      243
   36.365      247
   36.380      251
   36.395      242
   36.410      257
   36.425      246
   36.440      255
   36.455      224
   36.470      234
   36.485      255
   36.500      234
   36.515      221
   36.530      231
   36.545      247
   36.560      245
   36.575      226
   36.590      234
   36.605      236
   36.620      264
   36.635      250
   36.650      250
   36.665      252
   36.680      233
   36.695      235
   36.710      244
   36.725      228
   36.740      251
   36.755      243
   36.770      268
   36.785      216
   36.800      233
   36.815      208
   36.830      243
   36.845      258
   36.860      244
   36.875      222
   36.890      257
   36.905      251
   36.920      239
   36.935      234
   36.950      226
   36.965      222
   36.980      260
   36.995      230
   37.010      206
   37.025      254
   37.040      281
   37.055      268
   37.070      238
   37.085      239
   37.100      279
   37.115      225
   37.130      212
   37.145      251
   37.160      224
   37.175      270
   37.190      244
   37.205      243
   37.220      251
   37.235      244
   37.250      228
   37.265      246
   37.280      257
   37.295      237
   37.310      223
   37.325      241
   37.340      202
   37.355      235
   37.370      264
   37.385      249
   37.400      248
   37.415      259
   37.430      227
   37.445      219
   37.460      210
   37.475      239
   37.490      238
   37.505      233
   37.520      215
   37.535      207
   37.550      225
   37.565      223
   37.580      253
   37.595      225
   37.610      241
   37.625      224
   37.640      217
   37.655      208
   37.670      236
   37.685      212
   37.700      212
   37.715      233
   37.730      237
   37.745      232
   37.760      240
   37.775      225
   37.790      225
   37.805      242
   37.820      231
   37.835      216
   37.850      246
   37.865      233
   37.880      236
   37.895      239
   37.910      214
   37.925      215
   37.940      241
   37.955      237
   37.970      240
   37.985      236
   38.000      233
   38.015      267
   38.030      244
   38.045      240
   38.060      256
   38.075      222
   38.090      228
   38.105      264
   38.120      247
   38.135      248
   38.150      248
   38.165      252
   38.180      231
   38.195      230
   38.210      240
   38.225      248
   38.240      220
   38.255      224
   38.270      249
   38.285      243
   38.300      248
   38.315      238
   38.330      218
   38.345      229
   38.360      232
   38.375      243
   38.390      242
   38.405      241
   38.420      259
   38.435      250
   38.450      225
   38.465      217
   38.480      235
   38.495      237
   38.510      244
   38.525      234
   38.540      236
   38.555      254
   38.570      245
   38.585      243
   38.600      256
   38.615      249
   38.630      242
   38.645      244
   38.660      234
   38.675      232
   38.690      252
   38.705      247
   38.720      246
   38.735      263
   38.750      236
   38.765      246
   38.780      275
   38.795      254
   38.810      238
   38.825      243
   38.840      250
   38.855      264
   38.870      274
   38.885      242
   38.900      233
   38.915      264
   38.930      236
   38.945      242
   38.960      237
   38.975      241
   38.990      252
   39.005      273
   39.020      256
   39.035      251
   39.050      257
   39.065      263
   39.080      243
   39.095      217
   39.110      238
   39.125      243
   39.140      251
   39.155      255
   39.170      242
   39.185      236
   39.200      258
   39.215      248
   39.230      260
   39.245      280
   39.260      258
   39.275      244
   39.290      243
   39.305      231
   39.320      250
   39.335      265
   39.350      280
   39.365      251
   39.380      244
   39.395      228
   39.410      241
   39.425      237
   39.440      231
   39.455      234
   39.470      235
   39.485      242
   39.500      240
   39.515      249
   39.530      215
   39.545      263
   39.560      269
   39.575      222
   39.590      214
   39.605      233
   39.620      257
   39.635      287
   39.650      252
   39.665      274
   39.680      261
   39.695      243
   39.710      237
   39.725      227
   39.740      247
   39.755      239
   39.770      232
   39.785      241
   39.800      257
   39.815      223
   39.830      263
   39.845      260
   39.860      256
   39.875      241
   39.890      240
   39.905      231
   39.920      252
   39.935      239
   39.950      210
   39.965      239
   39.980      260
   39.995      259
   40.010      258
   40.025      235
   40.040      219
   40.055      251
   40.070      265
   40.085      216
   40.100      217
   40.115      250
   40.130      238
   40.145      235
   40.160      240
   40.175      245
   40.190      235
   40.205      237
   40.220      249
   40.235      244
   40.250      235
   40.265      238
   40.280      220
   40.295      237
   40.310      237
   40.325      221
   40.340      229
   40.355      256
   40.370      260
   40.385      254
   40.400      227
   40.415      237
   40.430      249
   40.445      248
   40.460      263
   40.475      274
   40.490      289
   40.505      265
   40.520      251
   40.535      267
   40.550      254
   40.565      271
   40.580      270
   40.595      292
   40.610      285
   40.625      267
   40.640      291
   40.655      292
   40.670      269
   40.685      281
   40.700      292
   40.715      281
   40.730      276
   40.745      265
   40.760      258
   40.775      262
   40.790      266
   40.805      264
   40.820      245
   40.835      251
   40.850      240
   40.865      238
   40.880      258
   40.895      273
   40.910      257
   40.925      239
   40.940      235
   40.955      249
   40.970      246
   40.985      257
   41.000      271
   41.015      251
   41.030      277
   41.045      264
   41.060      270
   41.075      263
   41.090      279
   41.105      263
   41.120      248
   41.135      239
   41.150      252
   41.165      258
   41.180      290
   41.195      279
   41.210      263
   41.225      259
   41.240      272
   41.255      255
   41.270      261
   41.285      278
   41.300      279
   41.315      289
   41.330      284
   41.345      266
   41.360      268
   41.375      242
   41.390      272
   41.405      299
   41.420      294
   41.435      242
   41.450      252
   41.465      268
   41.480      243
   41.495      257
   41.510      240
   41.525      232
   41.540      252
   41.555      236
   41.570      245
   41.585      229
   41.600      236
   41.615      213
   41.630      254
   41.645      254
   41.660      244
   41.675      252
   41.690      244
   41.705      246
   41.720      253
   41.735      234
   41.750      233
   41.765      255
   41.780      238
   41.795      259
   41.810      257
   41.825      269
   41.840      226
   41.855      212
   41.870      225
   41.885      236
   41.900      243
   41.915      248
   41.930      250
   41.945      228
   41.960      259
   41.975      264
   41.990      265
   42.005      234
   42.020      246
   42.035      257
   42.050      262
   42.065      257
   42.080      248
   42.095      231
   42.110      227
   42.125      240
   42.140      261
   42.155      249
   42.170      256
   42.185      248
   42.200      286
   42.215      256
   42.230      236
   42.245      243
   42.260      263
   42.275      258
   42.290      236
   42.305      238
   42.320      241
   42.335      252
   42.350      254
   42.365      247
   42.380      238
   42.395      257
   42.410      272
   42.425      251
   42.440      239
   42.455      239
   42.470      248
   42.485      261
   42.500      238
   42.515      233
   42.530      245
   42.545      241
   42.560      251
   42.575      248
   42.590      232
   42.605      258
   42.620      238
   42.635      262
   42.650      226
   42.665      220
   42.680      238
   42.695      255
   42.710      241
   42.725      243
   42.740      259
   42.755      244
   42.770      231
   42.785      235
   42.800      230
   42.815      235
   42.830      216
   42.845      248
   42.860      257
   42.875      232
   42.890      241
   42.905      238
   42.920      233
   42.935      231
   42.950      247
   42.965      264
   42.980      270
   42.995      259
   43.010      241
   43.025      252
   43.040      240
   43.055      221
   43.070      229
   43.085      227
   43.100      276
   43.115      236
   43.130      278
   43.145      309
   43.160      252
   43.175      257
   43.190      278
   43.205      277
   43.220      242
   43.235      245
   43.250      213
   43.265      248
   43.280      260
   43.295      248
   43.310      232
   43.325      218
   43.340      250
   43.355      238
   43.370      288
   43.385      262
   43.400      259
   43.415      228
   43.430      254
   43.445      241
   43.460      265
   43.475      285
   43.490      249
   43.505      285
   43.520      263
   43.535      282
   43.550      280
   43.565      234
   43.580      260
   43.595      249
   43.610      240
   43.625      278
   43.640      264
   43.655      262
   43.670      265
   43.685      226
   43.700      211
   43.715      236
   43.730      241
   43.745      248
   43.760      270
   43.775      255
   43.790      246
   43.805      243
   43.820      261
   43.835      230
   43.850      252
   43.865      244
   43.880      241
   43.895      240
   43.910      225
   43.925      240
   43.940      221
   43.955      240
   43.970      247
   43.985      242
