    2.000      567
    2.015      594
    2.030      603
    2.045      628
    2.060      588
    2.075      603
    2.090      610
    2.105      600
    2.120      573
    2.135      594
    2.150      593
    2.165      589
    2.180      571
    2.195      531
    2.210      593
    2.225      597
    2.240      568
    2.255      548
    2.270      559
    2.285      560
    2.300      546
    2.315      539
    2.330      562
    2.345      584
    2.360      551
    2.375      557
    2.390      543
    2.405      555
    2.420      568
    2.435      578
    2.450      546
    2.465      551
    2.480      533
    2.495      557
    2.510      556
    2.525      543
    2.540      534
    2.555      567
    2.570      590
    2.585      530
    2.600      498
    2.615      535
    2.630      529
    2.645      544
    2.660      523
    2.675      521
    2.690      533
    2.705      554
    2.720      540
    2.735      522
    2.750      527
    2.765      504
    2.780      516
    2.795      517
    2.810      519
    2.825      519
    2.840      536
    2.855      539
    2.870      497
    2.885      504
    2.900      534
    2.915      549
    2.930      504
    2.945      520
    2.960      537
    2.975      490
    2.990      462
    3.005      495
    3.020      530
    3.035      529
    3.050      525
    3.065      548
    3.080      529
    3.095      506
    3.110      515
    3.125      543
    3.140      495
    3.155      501
    3.170      512
    3.185      517
    3.200      533
    3.215      490
    3.230      539
    3.245      515
    3.260      532
    3.275      512
    3.290      514
    3.305      495
    3.320      523
    3.335      536
    3.350      539
    3.365      545
    3.380      479
    3.395      486
    3.410      461
    3.425      476
    3.440      502
    3.455      528
    3.470      510
    3.485      522
    3.500      549
    3.515      482
    3.530      503
    3.545      489
    3.560      481
    3.575      492
    3.590      493
    3.605      514
    3.620      481
    3.635      497
    3.650      555
    3.665      505
    3.680      541
    3.695      513
    3.710      468
    3.725      482
    3.740      497
    3.755      491
    3.770      477
    3.785      465
    3.800      507
    3.815      485
    3.830      527
    3.845      502
    3.860      511
    3.875      504
    3.890      497
    3.905      504
    3.920      476
    3.935      524
    3.950      482
    3.965      494
    3.980      470
    3.995      488
    4.010      501
    4.025      488
    4.040      520
    4.055      493
    4.070      497
    4.085      518
    4.100      500
    4.115      491
    4.130      482
    4.145      499
    4.160      490
    4.175      479
    4.190      456
    4.205      480
    4.220      498
    4.235      484
    4.250      477
    4.265      474
    4.280      525
    4.295      521
    4.310      499
    4.325      501
    4.340      486
    4.355      501
    4.370      511
    4.385      507
    4.400      475
    4.415      483
    4.430      497
    4.445      513
    4.460      489
    4.475      486
    4.490      487
    4.505      500
    4.520      484
    4.535      475
    4.550      505
    4.565      501
    4.580      500
    4.595      467
    4.610      458
    4.625      499
    4.640      486
    4.655      454
    4.670      465
    4.685      490
    4.700      476
    4.715      525
    4.730      488
    4.745      459
    4.760      492
    4.775      499
    4.790      476
    4.805      504
    4.820      497
    4.835      477
    4.850      482
    4.865      476
    4.880      459
    4.895      490
    4.910      513
    4.925      519
    4.940      495
    4.955      486
    4.970      482
    4.985      489
    5.000      490
    5.015      502
    5.030      487
    5.045      479
    5.060      468
    5.075      461
    5.090      476
    5.105      478
    5.120      489
    5.135      487
    5.150      496
    5.165      493
    5.180      474
    5.195      508
    5.210      541
    5.225      538
    5.240      504
    5.255      486
    5.270      511
    5.285      529
    5.300      545
    5.315      537
    5.330      530
    5.345      532
    5.360      539
    5.375      556
    5.390      595
    5.405      582
    5.420      545
    5.435      572
    5.450      577
    5.465      556
    5.480      546
    5.495      542
    5.510      586
    5.525      580
    5.540      619
    5.555      611
    5.570      649
    5.585      584
    5.600      619
    5.615      660
    5.630      638
    5.645      697
    5.660      673
    5.675      806
    5.690      725
    5.705      784
    5.720      832
    5.735      823
    5.750      892
    5.765      995
    5.780      925
    5.795     1089
    5.810     1181
    5.825     1246
    5.840     1332
    5.855     1379
    5.870     1342
    5.885     1103
    5.900      956
    5.915      752
    5.930      630
    5.945      608
    5.960      555
    5.975      536
    5.990      561
    6.005      514
    6.020      520
    6.035      491
    6.050      478
    6.065      521
    6.080      542
    6.095      498
    6.110      466
    6.125      456
    6.140      464
    6.155      455
    6.170      467
    6.185      505
    6.200      505
    6.215      484
    6.230      487
    6.245      487
    6.260      460
    6.275      465
    6.290      474
    6.305      475
    6.320      464
    6.335      469
    6.350      452
    6.365      467
    6.380      476
    6.395      488
    6.410      505
    6.425      464
    6.440      448
    6.455      478
    6.470      462
    6.485      452
    6.500      457
    6.515      466
    6.530      456
    6.545      464
    6.560      432
    6.575      463
    6.590      467
    6.605      453
    6.620      483
    6.635      470
    6.650      493
    6.665      513
    6.680      463
    6.695      468
    6.710      485
    6.725      507
    6.740      484
    6.755      464
    6.770      477
    6.785      475
    6.800      509
    6.815      491
    6.830      489
    6.845      475
    6.860      443
    6.875      485
    6.890      467
    6.905      500
    6.920      461
    6.935      444
    6.950      443
    6.965      539
    6.980      481
    6.995      478
    7.010      491
    7.025      447
    7.040      434
    7.055      476
    7.070      470
    7.085      449
    7.100      466
    7.115      478
    7.130      540
    7.145      496
    7.160      458
    7.175      486
    7.190      457
    7.205      458
    7.220      477
    7.235      451
    7.250      482
    7.265      521
    7.280      482
    7.295      515
    7.310      461
    7.325      477
    7.340      465
    7.355      428
    7.370      464
    7.385      496
    7.400      455
    7.415      461
    7.430      460
    7.445      448
    7.460      464
    7.475      464
    7.490      470
    7.505      475
    7.520      448
    7.535      463
    7.550      467
    7.565      459
    7.580      504
    7.595      495
    7.610      468
    7.625      487
    7.640      451
    7.655      465
    7.670      449
    7.685      450
    7.700      443
    7.715      486
    7.730      494
    7.745      493
    7.760      518
    7.775      506
    7.790      487
    7.805      502
    7.820      498
    7.835      457
    7.850      520
    7.865      526
    7.880      527
    7.895      528
    7.910      530
    7.925      527
    7.940      529
    7.955      548
    7.970      540
    7.985      518
    8.000      562
    8.015      569
    8.030      596
    8.045      649
    8.060      615
    8.075      648
    8.090      628
    8.105      664
    8.120      663
    8.135      669
    8.150      727
    8.165      727
    8.180      723
    8.195      776
    8.210      815
    8.225      823
    8.240      861
    8.255      886
    8.270      929
    8.285     1019
    8.300     1028
    8.315     1046
    8.330     1194
    8.345     1353
    8.360     1453
    8.375     1580
    8.390     1703
    8.405     1882
    8.420     2136
    8.435     2358
    8.450     2632
    8.465     2957
    8.480     3155
    8.495     3006
    8.510     2711
    8.525     2302
    8.540     1707
    8.555     1265
    8.570      916
    8.585      694
    8.600      609
    8.615      566
    8.630      536
    8.645      550
    8.660      517
    8.675      499
    8.690      490
    8.705      502
    8.720      522
    8.735      502
    8.750      487
    8.765      476
    8.780      472
    8.795      501
    8.810      502
    8.825      489
    8.840      501
    8.855      497
    8.870      492
    8.885      495
    8.900      488
    8.915      481
    8.930      479
    8.945      480
    8.960      471
    8.975      479
    8.990      471
    9.005      474
    9.020      502
    9.035      470
    9.050      481
    9.065      477
    9.080      526
    9.095      499
    9.110      498
    9.125      501
    9.140      481
    9.155      491
    9.170      500
    9.185      500
    9.200      533
    9.215      482
    9.230      469
    9.245      490
    9.260      489
    9.275      478
    9.290      468
    9.305      493
    9.320      526
    9.335      519
    9.350      510
    9.365      479
    9.380      519
    9.395      479
    9.410      480
    9.425      447
    9.440      504
    9.455      480
    9.470      482
    9.485      471
    9.500      524
    9.515      479
    9.530      475
    9.545      474
    9.560      490
    9.575      449
    9.590      453
    9.605      492
    9.620      499
    9.635      504
    9.650      447
    9.665      489
    9.680      491
    9.695      511
    9.710      505
    9.725      533
    9.740      484
    9.755      532
    9.770      498
    9.785      487
    9.800      526
    9.815      533
    9.830      511
    9.845      508
    9.860      494
    9.875      516
    9.890      507
    9.905      518
    9.920      529
    9.935      527
    9.950      552
    9.965      525
    9.980      531
    9.995      528
   10.010      553
   10.025      538
   10.040      570
   10.055      562
   10.070      551
   10.085      573
   10.100      591
   10.115      608
   10.130      609
   10.145      655
   10.160      691
   10.175      709
   10.190      728
   10.205      807
   10.220      817
   10.235      793
   10.250      719
   10.265      651
   10.280      680
   10.295      597
   10.310      521
   10.325      525
   10.340      529
   10.355      533
   10.370      511
   10.385      509
   10.400      486
   10.415      507
   10.430      504
   10.445      514
   10.460      502
   10.475      505
   10.490      500
   10.505      535
   10.520      531
   10.535      505
   10.550      490
   10.565      490
   10.580      495
   10.595      490
   10.610      486
   10.625      482
   10.640      508
   10.655      500
   10.670      450
   10.685      484
   10.700      491
   10.715      523
   10.730      487
   10.745      495
   10.760      497
   10.775      472
   10.790      482
   10.805      470
   10.820      470
   10.835      478
   10.850      474
   10.865      502
   10.880      489
   10.895      502
   10.910      520
   10.925      488
   10.940      523
   10.955      534
   10.970      505
   10.985      499
   11.000      479
   11.015      497
   11.030      478
   11.045      480
   11.060      501
   11.075      525
   11.090      521
   11.105      472
   11.120      445
   11.135      476
   11.150      486
   11.165      510
   11.180      491
   11.195      522
   11.210      525
   11.225      517
   11.240      476
   11.255      490
   11.270      498
   11.285      522
   11.300      499
   11.315      470
   11.330      484
   11.345      459
   11.360      462
   11.375      485
   11.390      512
   11.405      527
   11.420      523
   11.435      479
   11.450      504
   11.465      497
   11.480      470
   11.495      454
   11.510      487
   11.525      487
   11.540      480
   11.555      516
   11.570      465
   11.585      450
   11.600      526
   11.615      488
   11.630      438
   11.645      505
   11.660      495
   11.675      538
   11.690      476
   11.705      512
   11.720      555
   11.735      466
   11.750      491
   11.765      511
   11.780      486
   11.795      515
   11.810      476
   11.825      553
   11.840      471
   11.855      485
   11.870      483
   11.885      448
   11.900      482
   11.915      480
   11.930      529
   11.945      547
   11.960      467
   11.975      482
   11.990      514
   12.005      520
   12.020      565
   12.035      515
   12.050      523
   12.065      530
   12.080      504
   12.095      520
   12.110      529
   12.125      500
   12.140      491
   12.155      513
   12.170      510
   12.185      512
   12.200      557
   12.215      555
   12.230      582
   12.245      590
   12.260      568
   12.275      563
   12.290      611
   12.305      618
   12.320      539
   12.335      517
   12.350      534
   12.365      525
   12.380      553
   12.395      495
   12.410      493
   12.425      488
   12.440      494
   12.455      493
   12.470      507
   12.485      488
   12.500      477
   12.515      536
   12.530      488
   12.545      474
   12.560      491
   12.575      491
   12.590      494
   12.605      477
   12.620      509
   12.635      510
   12.650      480
   12.665      504
   12.680      507
   12.695      503
   12.710      529
   12.725      547
   12.740      539
   12.755      523
   12.770      534
   12.785      502
   12.800      537
   12.815      481
   12.830      545
   12.845      567
   12.860      517
   12.875      505
   12.890      565
   12.905      509
   12.920      510
   12.935      468
   12.950      486
   12.965      539
   12.980      503
   12.995      509
   13.010      537
   13.025      529
   13.040      544
   13.055      512
   13.070      506
   13.085      543
   13.100      507
   13.115      519
   13.130      565
   13.145      532
   13.160      493
   13.175      505
   13.190      537
   13.205      549
   13.220      557
   13.235      632
   13.250      561
   13.265      523
   13.280      609
   13.295      593
   13.310      611
   13.325      641
   13.340      614
   13.355      604
   13.370      609
   13.385      589
   13.400      537
   13.415      538
   13.430      530
   13.445      518
   13.460      525
   13.475      510
   13.490      565
   13.505      525
   13.520      560
   13.535      549
   13.550      589
   13.565      502
   13.580      550
   13.595      569
   13.610      599
   13.625      606
   13.640      555
   13.655      576
   13.670      540
   13.685      600
   13.700      553
   13.715      516
   13.730      499
   13.745      504
   13.760      585
   13.775      532
   13.790      496
   13.805      535
   13.820      535
   13.835      544
   13.850      539
   13.865      518
   13.880      503
   13.895      518
   13.910      512
   13.925      494
   13.940      536
   13.955      498
   13.970      540
   13.985      529
   14.000      520
   14.015      537
   14.030      510
   14.045      539
   14.060      544
   14.075      555
   14.090      544
   14.105      539
   14.120      536
   14.135      528
   14.150      531
   14.165      540
   14.180      551
   14.195      529
   14.210      519
   14.225      569
   14.240      559
   14.255      557
   14.270      548
   14.285      529
   14.300      524
   14.315      535
   14.330      537
   14.345      536
   14.360      523
   14.375      505
   14.390      524
   14.405      528
   14.420      534
   14.435      550
   14.450      521
   14.465      519
   14.480      519
   14.495      532
   14.510      530
   14.525      541
   14.540      508
   14.555      541
   14.570      565
   14.585      526
   14.600      513
   14.615      543
   14.630      531
   14.645      527
   14.660      507
   14.675      532
   14.690      562
   14.705      561
   14.720      521
   14.735      503
   14.750      538
   14.765      503
   14.780      535
   14.795      540
   14.810      574
   14.825      549
   14.840      528
   14.855      543
   14.870      573
   14.885      564
   14.900      539
   14.915      592
   14.930      522
   14.945      518
   14.960      558
   14.975      549
   14.990      535
   15.005      522
   15.020      538
   15.035      562
   15.050      540
   15.065      555
   15.080      567
   15.095      539
   15.110      541
   15.125      580
   15.140      539
   15.155      566
   15.170      518
   15.185      520
   15.200      571
   15.215      572
   15.230      511
   15.245      563
   15.260      564
   15.275      554
   15.290      575
   15.305      585
   15.320      579
   15.335      582
   15.350      607
   15.365      553
   15.380      569
   15.395      536
   15.410      532
   15.425      559
   15.440      598
   15.455      527
   15.470      538
   15.485      568
   15.500      591
   15.515      560
   15.530      541
   15.545      582
   15.560      542
   15.575      543
   15.590      516
   15.605      565
   15.620      592
   15.635      592
   15.650      588
   15.665      591
   15.680      591
   15.695      590
   15.710      568
   15.725      599
   15.740      586
   15.755      611
   15.770      566
   15.785      582
   15.800      574
   15.815      607
   15.830      606
   15.845      605
   15.860      620
   15.875      659
   15.890      628
   15.905      624
   15.920      680
   15.935      695
   15.950      728
   15.965      690
   15.980      743
   15.995      782
   16.010      826
   16.025      861
   16.040      852
   16.055      803
   16.070      789
   16.085      711
   16.100      725
   16.115      669
   16.130      585
   16.145      619
   16.160      626
   16.175      642
   16.190      563
   16.205      603
   16.220      571
   16.235      574
   16.250      572
   16.265      546
   16.280      612
   16.295      603
   16.310      544
   16.325      584
   16.340      600
   16.355      593
   16.370      616
   16.385      635
   16.400      583
   16.415      593
   16.430      618
   16.445      632
   16.460      603
   16.475      588
   16.490      585
   16.505      617
   16.520      603
   16.535      591
   16.550      612
   16.565      621
   16.580      566
   16.595      581
   16.610      573
   16.625      616
   16.640      605
   16.655      592
   16.670      578
   16.685      559
   16.700      561
   16.715      600
   16.730      601
   16.745      602
   16.760      637
   16.775      634
   16.790      595
   16.805      601
   16.820      644
   16.835      600
   16.850      575
   16.865      674
   16.880      678
   16.895      680
   16.910      688
   16.925      687
   16.940      733
   16.955      718
   16.970      727
   16.985      759
   17.000      747
   17.015      794
   17.030      817
   17.045      803
   17.060      860
   17.075      922
   17.090      975
   17.105      969
   17.120      884
   17.135      885
   17.150      861
   17.165      808
   17.180      736
   17.195      717
   17.210      706
   17.225      699
   17.240      627
   17.255      582
   17.270      636
   17.285      694
   17.300      649
   17.315      658
   17.330      655
   17.345      665
   17.360      627
   17.375      652
   17.390      692
   17.405      699
   17.420      647
   17.435      681
   17.450      677
   17.465      682
   17.480      655
   17.495      652
   17.510      633
   17.525      662
   17.540      674
   17.555      634
   17.570      650
   17.585      625
   17.600      616
   17.615      615
   17.630      635
   17.645      686
   17.660      670
   17.675      750
   17.690      708
   17.705      679
   17.720      690
   17.735      667
   17.750      776
   17.765      760
   17.780      693
   17.795      728
   17.810      724
   17.825      764
   17.840      757
   17.855      721
   17.870      699
   17.885      722
   17.900      658
   17.915      632
   17.930      676
   17.945      660
   17.960      651
   17.975      686
   17.990      677
   18.005      677
   18.020      691
   18.035      673
   18.050      668
   18.065      673
   18.080      704
   18.095      681
   18.110      647
   18.125      650
   18.140      653
   18.155      678
   18.170      676
   18.185      688
   18.200      704
   18.215      694
   18.230      698
   18.245      674
   18.260      672
   18.275      691
   18.290      704
   18.305      690
   18.320      666
   18.335      666
   18.350      652
   18.365      702
   18.380      734
   18.395      727
   18.410      701
   18.425      636
   18.440      660
   18.455      725
   18.470      710
   18.485      645
   18.500      667
   18.515      754
   18.530      713
   18.545      691
   18.560      706
   18.575      756
   18.590      714
   18.605      694
   18.620      707
   18.635      692
   18.650      720
   18.665      747
   18.680      706
   18.695      714
   18.710      723
   18.725      743
   18.740      760
   18.755      664
   18.770      701
   18.785      749
   18.800      782
   18.815      784
   18.830      774
   18.845      759
   18.860      768
   18.875      746
   18.890      785
   18.905      759
   18.920      812
   18.935      689
   18.950      763
   18.965      799
   18.980      757
   18.995      701
   19.010      723
   19.025      730
   19.040      749
   19.055      751
   19.070      770
   19.085      783
   19.100      820
   19.115      828
   19.130      844
   19.145      744
   19.160      699
   19.175      752
   19.190      741
   19.205      751
   19.220      796
   19.235      761
   19.250      761
   19.265      805
   19.280      766
   19.295      772
   19.310      757
   19.325      787
   19.340      758
   19.355      824
   19.370      834
   19.385      810
   19.400      778
   19.415      869
   19.430      870
   19.445      796
   19.460      895
   19.475      888
   19.490      823
   19.505      853
   19.520      831
   19.535      784
   19.550      837
   19.565      790
   19.580      782
   19.595      817
   19.610      809
   19.625      823
   19.640      818
   19.655      795
   19.670      800
   19.685      822
   19.700      770
   19.715      797
   19.730      796
   19.745      791
   19.760      877
   19.775      831
   19.790      762
   19.805      787
   19.820      793
   19.835      850
   19.850      880
   19.865      839
   19.880      829
   19.895      816
   19.910      861
   19.925      872
   19.940      881
   19.955      863
   19.970      896
   19.985      880
   20.000      902
   20.015      938
   20.030      992
   20.045      999
   20.060      871
   20.075      899
   20.090      894
   20.105      880
   20.120      835
   20.135      838
   20.150      860
   20.165      840
   20.180      801
   20.195      852
   20.210      861
   20.225      864
   20.240      837
   20.255      867
   20.270      845
   20.285      874
   20.300      886
   20.315      839
   20.330      836
   20.345      883
   20.360      841
   20.375      812
   20.390      863
   20.405      886
   20.420      888
   20.435      865
   20.450      853
   20.465      852
   20.480      848
   20.495      862
   20.510      863
   20.525      893
   20.540      883
   20.555      923
   20.570      948
   20.585      898
   20.600      827
   20.615      860
   20.630      870
   20.645      908
   20.660      861
   20.675      848
   20.690      898
   20.705      947
   20.720      890
   20.735      822
   20.750      829
   20.765      812
   20.780      822
   20.795      884
   20.810      913
   20.825      920
   20.840      898
   20.855      934
   20.870      893
   20.885      922
   20.900      934
   20.915      924
   20.930      839
   20.945      881
   20.960      945
   20.975      893
   20.990      852
   21.005      851
   21.020      899
   21.035      955
   21.050      891
   21.065      993
   21.080      997
   21.095      886
   21.110      923
   21.125      954
   21.140      893
   21.155      925
   21.170      938
   21.185      969
   21.200      955
   21.215      916
   21.230      889
   21.245      905
   21.260      966
   21.275      885
   21.290      889
   21.305      958
   21.320      958
   21.335      909
   21.350      924
   21.365      899
   21.380      879
   21.395      910
   21.410      892
   21.425      954
   21.440      936
   21.455      882
   21.470      934
   21.485      957
   21.500      971
   21.515      952
   21.530      887
   21.545      871
   21.560      901
   21.575      858
   21.590      958
   21.605      943
   21.620      973
   21.635      954
   21.650      956
   21.665      983
   21.680     1033
   21.695     1007
   21.710      911
   21.725     1027
   21.740      965
   21.755      990
   21.770      913
   21.785      881
   21.800      940
   21.815      951
   21.830      960
   21.845      972
   21.860      953
   21.875      970
   21.890      961
   21.905      940
   21.920      937
   21.935     1001
   21.950      978
   21.965      898
   21.980      927
   21.995      935
   22.010      963
   22.025      932
   22.040      967
   22.055      942
   22.070     1011
   22.085      975
   22.100     1042
   22.115      988
   22.130      956
   22.145      957
   22.160      968
   22.175      971
   22.190      935
   22.205     1015
   22.220      993
   22.235      997
   22.250      974
   22.265      958
   22.280     1071
   22.295     1033
   22.310      959
   22.325      964
   22.340     1037
   22.355      988
   22.370     1017
   22.385     1056
   22.400      980
   22.415     1009
   22.430     1020
   22.445     1010
   22.460      982
   22.475      951
   22.490     1011
   22.505     1034
   22.520      988
   22.535      968
   22.550     1012
   22.565     1030
   22.580      960
   22.595      983
   22.610      954
   22.625      996
   22.640     1037
   22.655      982
   22.670      939
   22.685      920
   22.700      901
   22.715      988
   22.730     1027
   22.745     1010
   22.760     1014
   22.775      980
   22.790      965
   22.805      974
   22.820     1009
   22.835     1002
   22.850      953
   22.865      998
   22.880      978
   22.895      982
   22.910      993
   22.925     1021
   22.940     1024
   22.955      995
   22.970      999
   22.985     1029
   23.000      988
   23.015     1038
   23.030     1013
   23.045     1008
   23.060     1005
   23.075      987
   23.090      946
   23.105      932
   23.120      938
   23.135      978
   23.150     1026
   23.165     1044
   23.180     1011
   23.195     1051
   23.210     1039
   23.225     1096
   23.240     1034
   23.255      934
   23.270     1043
   23.285     1026
   23.300     1027
   23.315     1029
   23.330      981
   23.345      978
   23.360     1028
   23.375     1020
   23.390     1112
   23.405     1035
   23.420     1002
   23.435     1087
   23.450     1014
   23.465     1001
   23.480     1021
   23.495      964
   23.510     1028
   23.525      970
   23.540     1020
   23.555     1034
   23.570     1051
   23.585      976
   23.600     1005
   23.615     1008
   23.630     1000
   23.645     1090
   23.660     1038
   23.675     1098
   23.690     1032
   23.705     1015
   23.720     1149
   23.735     1092
   23.750     1152
   23.765     1204
   23.780     1093
   23.795     1145
   23.810     1160
   23.825     1202
   23.840     1166
   23.855     1161
   23.870     1171
   23.885     1117
   23.900     1085
   23.915     1074
   23.930     1184
   23.945     1114
   23.960     1082
   23.975     1156
   23.990     1119
   24.005     1136
   24.020     1259
   24.035     1283
   24.050     1297
   24.065     1344
   24.080     1382
   24.095     1297
   24.110     1287
   24.125     1260
   24.140     1179
   24.155     1181
   24.170     1173
   24.185     1139
   24.200     1102
   24.215     1093
   24.230     1110
   24.245     1127
   24.260     1147
   24.275     1142
   24.290     1192
   24.305     1268
   24.320     1313
   24.335     1369
   24.350     1354
   24.365     1399
   24.380     1438
   24.395     1477
   24.410     1444
   24.425     1245
   24.440     1239
   24.455     1235
   24.470     1184
   24.485     1163
   24.500     1111
   24.515     1123
   24.530     1088
   24.545     1077
   24.560     1089
   24.575     1152
   24.590     1138
   24.605     1112
   24.620     1184
   24.635     1165
   24.650     1147
   24.665     1228
   24.680     1201
   24.695     1191
   24.710     1173
   24.725     1169
   24.740     1134
   24.755     1186
   24.770     1124
   24.785     1076
   24.800     1163
   24.815     1139
   24.830     1181
   24.845     1147
   24.860     1135
   24.875     1122
   24.890     1229
   24.905     1207
   24.920     1115
   24.935     1083
   24.950     1122
   24.965     1208
   24.980     1165
   24.995     1150
   25.010     1117
   25.025     1133
   25.040     1083
   25.055     1132
   25.070     1131
   25.085     1057
   25.100     1108
   25.115     1169
   25.130     1197
   25.145     1165
   25.160     1077
   25.175     1069
   25.190     1162
   25.205     1114
   25.220     1089
   25.235     1107
   25.250     1070
   25.265     1084
   25.280     1144
   25.295     1164
   25.310     1097
   25.325     1122
   25.340     1085
   25.355     1097
   25.370     1118
   25.385     1085
   25.400     1098
   25.415     1109
   25.430     1176
   25.445     1105
   25.460     1185
   25.475     1127
   25.490     1072
   25.505     1145
   25.520     1150
   25.535     1130
   25.550     1208
   25.565     1137
   25.580     1152
   25.595     1208
   25.610     1193
   25.625     1232
   25.640     1160
   25.655     1214
   25.670     1176
   25.685     1197
   25.700     1245
   25.715     1247
   25.730     1263
   25.745     1349
   25.760     1461
   25.775     1482
   25.790     1454
   25.805     1532
   25.820     1585
   25.835     1674
   25.850     1637
   25.865     1515
   25.880     1379
   25.895     1306
   25.910     1267
   25.925     1259
   25.940     1236
   25.955     1195
   25.970     1175
   25.985     1134
   26.000     1153
   26.015     1181
   26.030     1201
   26.045     1169
   26.060     1146
   26.075     1266
   26.090     1220
   26.105     1173
   26.120     1158
   26.135     1159
   26.150     1262
   26.165     1219
   26.180     1139
   26.195     1120
   26.210     1196
   26.225     1201
   26.240     1151
   26.255     1166
   26.270     1185
   26.285     1205
   26.300     1147
   26.315     1132
   26.330     1193
   26.345     1245
   26.360     1158
   26.375     1186
   26.390     1202
   26.405     1195
   26.420     1246
   26.435     1261
   26.450     1205
   26.465     1212
   26.480     1179
   26.495     1139
   26.510     1156
   26.525     1180
   26.540     1161
   26.555     1221
   26.570     1192
   26.585     1195
   26.600     1165
   26.615     1209
   26.630     1172
   26.645     1174
   26.660     1161
   26.675     1187
   26.690     1224
   26.705     1286
   26.720     1253
   26.735     1159
   26.750     1148
   26.765     1151
   26.780     1135
   26.795     1164
   26.810     1195
   26.825     1196
   26.840     1181
   26.855     1224
   26.870     1241
   26.885     1207
   26.900     1178
   26.915     1224
   26.930     1195
   26.945     1260
   26.960     1228
   26.975     1177
   26.990     1206
   27.005     1142
   27.020     1249
   27.035     1245
   27.050     1257
   27.065     1259
   27.080     1286
   27.095     1150
   27.110     1184
   27.125     1205
   27.140     1178
   27.155     1187
   27.170     1167
   27.185     1230
   27.200     1201
   27.215     1195
   27.230     1206
   27.245     1207
   27.260     1347
   27.275     1264
   27.290     1244
   27.305     1193
   27.320     1198
   27.335     1227
   27.350     1219
   27.365     1185
   27.380     1204
   27.395     1251
   27.410     1231
   27.425     1230
   27.440     1262
   27.455     1217
   27.470     1175
   27.485     1247
   27.500     1221
   27.515     1271
   27.530     1201
   27.545     1166
   27.560     1165
   27.575     1181
   27.590     1176
   27.605     1266
   27.620     1298
   27.635     1280
   27.650     1193
   27.665     1220
   27.680     1289
   27.695     1299
   27.710     1243
   27.725     1290
   27.740     1202
   27.755     1208
   27.770     1115
   27.785     1182
   27.800     1240
   27.815     1254
   27.830     1224
   27.845     1180
   27.860     1163
   27.875     1228
   27.890     1198
   27.905     1241
   27.920     1203
   27.935     1230
   27.950     1225
   27.965     1188
   27.980     1178
   27.995     1182
   28.010     1235
   28.025     1148
   28.040     1222
   28.055     1136
   28.070     1176
   28.085     1273
   28.100     1307
   28.115     1197
   28.130     1184
   28.145     1172
   28.160     1192
   28.175     1203
   28.190     1196
   28.205     1231
   28.220     1271
   28.235     1231
   28.250     1193
   28.265     1136
   28.280     1216
   28.295     1182
   28.310     1179
   28.325     1160
   28.340     1243
   28.355     1260
   28.370     1233
   28.385     1277
   28.400     1207
   28.415     1229
   28.430     1270
   28.445     1287
   28.460     1251
   28.475     1270
   28.490     1293
   28.505     1313
   28.520     1254
   28.535     1235
   28.550     1310
   28.565     1250
   28.580     1224
   28.595     1203
   28.610     1207
   28.625     1232
   28.640     1221
   28.655     1172
   28.670     1144
   28.685     1183
   28.700     1202
   28.715     1247
   28.730     1170
   28.745     1164
   28.760     1220
   28.775     1157
   28.790     1155
   28.805     1188
   28.820     1206
   28.835     1161
   28.850     1148
   28.865     1214
   28.880     1209
   28.895     1158
   28.910     1198
   28.925     1200
   28.940     1210
   28.955     1211
   28.970     1174
   28.985     1160
   29.000     1203
   29.015     1234
   29.030     1146
   29.045     1163
   29.060     1201
   29.075     1176
   29.090     1158
   29.105     1156
   29.120     1116
   29.135     1139
   29.150     1207
   29.165     1228
   29.180     1162
   29.195     1177
   29.210     1188
   29.225     1204
   29.240     1131
   29.255     1112
   29.270     1230
   29.285     1226
   29.300     1217
   29.315     1163
   29.330     1193
   29.345     1150
   29.360     1180
   29.375     1116
   29.390     1235
   29.405     1196
   29.420     1117
   29.435     1135
   29.450     1145
   29.465     1225
   29.480     1114
   29.495     1138
   29.510     1155
   29.525     1183
   29.540     1197
   29.555     1226
   29.570     1150
   29.585     1066
   29.600     1137
   29.615     1133
   29.630     1149
   29.645     1188
   29.660     1132
   29.675     1171
   29.690     1095
   29.705     1136
   29.720     1209
   29.735     1139
   29.750     1168
   29.765     1228
   29.780     1151
   29.795     1227
   29.810     1157
   29.825     1180
   29.840     1186
   29.855     1130
   29.870     1146
   29.885     1115
   29.900     1110
   29.915     1085
   29.930     1137
   29.945     1131
   29.960     1112
   29.975     1137
   29.990     1167
   30.005     1129
   30.020     1189
   30.035     1116
   30.050     1121
   30.065     1112
   30.080     1125
   30.095     1126
   30.110     1131
   30.125     1102
   30.140     1114
   30.155     1129
   30.170     1155
   30.185     1168
   30.200     1091
   30.215     1112
   30.230     1192
   30.245     1133
   30.260     1078
   30.275     1093
   30.290     1144
   30.305     1110
   30.320     1072
   30.335     1072
   30.350     1061
   30.365     1119
   30.380     1125
   30.395     1136
   30.410     1090
   30.425     1068
   30.440     1100
   30.455     1088
   30.470     1095
   30.485     1096
   30.500     1127
   30.515     1121
   30.530     1102
   30.545     1082
   30.560     1127
   30.575     1138
   30.590     1156
   30.605     1147
   30.620     1219
   30.635     1207
   30.650     1165
   30.665     1173
   30.680     1201
   30.695     1185
   30.710     1174
   30.725     1174
   30.740     1164
   30.755     1182
   30.770     1156
   30.785     1120
   30.800     1115
   30.815     1048
   30.830     1086
   30.845     1131
   30.860     1129
   30.875     1045
   30.890     1112
   30.905     1092
   30.920     1107
   30.935     1038
   30.950     1132
   30.965     1164
   30.980     1122
   30.995     1108
   31.010     1165
   31.025     1109
   31.040     1076
   31.055     1110
   31.070     1101
   31.085     1043
   31.100     1108
   31.115     1094
   31.130     1109
   31.145     1056
   31.160      994
   31.175     1083
   31.190     1143
   31.205     1028
   31.220     1051
   31.235     1062
   31.250     1066
   31.265     1027
   31.280     1024
   31.295     1085
   31.310      939
   31.325     1020
   31.340      998
   31.355      976
   31.370     1109
   31.385      985
   31.400     1062
   31.415     1103
   31.430     1059
   31.445     1005
   31.460     1135
   31.475     1023
   31.490      996
   31.505     1040
   31.520     1076
   31.535     1047
   31.550     1074
   31.565     1027
   31.580     1069
   31.595     1055
   31.610     1064
   31.625     1089
   31.640     1026
   31.655     1088
   31.670     1117
   31.685     1091
   31.700     1133
   31.715     1100
   31.730     1061
   31.745     1092
   31.760     1173
   31.775     1109
   31.790     1079
   31.805     1164
   31.820     1146
   31.835     1142
   31.850     1076
   31.865     1111
   31.880      992
   31.895      973
   31.910     1014
   31.925      980
   31.940     1028
   31.955     1026
   31.970     1021
   31.985     1030
   32.000     1069
   32.015     1030
   32.030     1057
   32.045     1097
   32.060     1013
   32.075     1033
   32.090     1029
   32.105     1015
   32.120      956
   32.135      973
   32.150     1032
   32.165     1055
   32.180     1000
   32.195      995
   32.210     1035
   32.225     1018
   32.240      998
   32.255     1029
   32.270     1014
   32.285     1014
   32.300      932
   32.315      979
   32.330     1006
   32.345     1081
   32.360     1087
   32.375     1060
   32.390     1077
   32.405     1022
   32.420     1084
   32.435     1086
   32.450     1135
   32.465     1193
   32.480     1111
   32.495     1067
   32.510     1072
   32.525     1091
   32.540     1074
   32.555     1098
   32.570     1101
   32.585     1022
   32.600      956
   32.615     1013
   32.630      980
   32.645     1004
   32.660      998
   32.675      989
   32.690      988
   32.705     1035
   32.720      998
   32.735      907
   32.750      942
   32.765      937
   32.780      916
   32.795      939
   32.810      982
   32.825      993
   32.840      999
   32.855      998
   32.870      989
   32.885     1006
   32.900     1002
   32.915      984
   32.930      958
   32.945     1034
   32.960     1058
   32.975     1017
   32.990      982
   33.005     1002
   33.020     1015
   33.035     1073
   33.050     1079
   33.065     1122
   33.080     1060
   33.095      981
   33.110     1019
   33.125     1060
   33.140      964
   33.155     1037
   33.170     1028
   33.185     1017
   33.200     1017
   33.215      950
   33.230      957
   33.245     1006
   33.260     1051
   33.275      966
   33.290     1002
   33.305     1050
   33.320     1058
   33.335     1033
   33.350      991
   33.365      958
   33.380      917
   33.395      945
   33.410      918
   33.425      968
   33.440     1039
   33.455      957
   33.470      937
   33.485      973
   33.500     1030
   33.515      972
   33.530      946
   33.545      951
   33.560      927
   33.575      865
   33.590      899
   33.605      963
   33.620      930
   33.635      977
   33.650      920
   33.665      956
   33.680      961
   33.695      947
   33.710      929
   33.725      978
   33.740      916
   33.755      949
   33.770      880
   33.785      927
   33.800      913
   33.815     1005
   33.830      974
   33.845      923
   33.860      957
   33.875      989
   33.890      941
   33.905      893
   33.920      913
   33.935      949
   33.950      942
   33.965      912
   33.980      911
   33.995      890
   34.010      927
   34.025      899
   34.040      893
   34.055      893
   34.070      917
   34.085      884
   34.100      978
   34.115      900
   34.130      861
   34.145      868
   34.160      927
   34.175      900
   34.190      848
   34.205      898
   34.220      906
   34.235      924
   34.250      901
   34.265      880
   34.280      937
   34.295      918
   34.310      846
   34.325      899
   34.340      931
   34.355      906
   34.370      882
   34.385      932
   34.400      908
   34.415      920
   34.430      936
   34.445      945
   34.460      937
   34.475      913
   34.490      927
   34.505      925
   34.520      910
   34.535      873
   34.550      912
   34.565      920
   34.580      884
   34.595      882
   34.610      863
   34.625      903
   34.640      907
   34.655      862
   34.670      846
   34.685      918
   34.700      903
   34.715      910
   34.730      885
   34.745      879
   34.760      894
   34.775      906
   34.790      836
   34.805      872
   34.820      937
   34.835      857
   34.850      872
   34.865      903
   34.880      884
   34.895      878
   34.910      900
   34.925      934
   34.940      894
   34.955      854
   34.970      857
   34.985      903
   35.000      908
   35.015      889
   35.030      896
   35.045      869
   35.060      868
   35.075      891
   35.090      866
   35.105      830
   35.120      840
   35.135      872
   35.150      877
   35.165      857
   35.180      845
   35.195      899
   35.210      885
   35.225      893
   35.240      859
   35.255      822
   35.270      833
   35.285      872
   35.300      844
   35.315      803
   35.330      840
   35.345      921
   35.360      859
   35.375      865
   35.390      932
   35.405      957
   35.420      855
   35.435      928
   35.450      878
   35.465      852
   35.480      841
   35.495      847
   35.510      961
   35.525      890
   35.540      912
   35.555      875
   35.570      866
   35.585      802
   35.600      876
   35.615      864
   35.630      838
   35.645      913
   35.660      850
   35.675      827
   35.690      826
   35.705      876
   35.720      934
   35.735      866
   35.750      913
   35.765      923
   35.780      848
   35.795      882
   35.810      871
   35.825      921
   35.840      896
   35.855      857
   35.870      862
   35.885      860
   35.900      864
   35.915      802
   35.930      831
   35.945      879
   35.960      855
   35.975      812
   35.990      829
   36.005      827
   36.020      890
   36.035      841
   36.050      795
   36.065      821
   36.080      830
   36.095      806
   36.110      818
   36.125      820
   36.140      835
   36.155      816
   36.170      824
   36.185      861
   36.200      845
   36.215      880
   36.230      852
   36.245      813
   36.260      803
   36.275      807
   36.290      802
   36.305      868
   36.320      824
   36.335      796
   36.350      778
   36.365      823
   36.380      821
   36.395      798
   36.410      826
   36.425      829
   36.440      776
   36.455      798
   36.470      809
   36.485      836
   36.500      782
   36.515      818
   36.530      828
   36.545      809
   36.560      780
   36.575      822
   36.590      797
   36.605      813
   36.620      810
   36.635      786
   36.650      790
   36.665      878
   36.680      844
   36.695      820
   36.710      787
   36.725      857
   36.740      873
   36.755      874
   36.770      830
   36.785      803
   36.800      884
   36.815      774
   36.830      839
   36.845      844
   36.860      827
   36.875      819
   36.890      843
   36.905      838
   36.920      855
   36.935      808
   36.950      828
   36.965      868
   36.980      836
   36.995      859
   37.010      805
   37.025      819
   37.040      841
   37.055      812
   37.070      834
   37.085      800
   37.100      826
   37.115      819
   37.130      855
   37.145      789
   37.160      755
   37.175      811
   37.190      827
   37.205      784
   37.220      781
   37.235      796
   37.250      828
   37.265      783
   37.280      844
   37.295      821
   37.310      801
   37.325      780
   37.340      770
   37.355      810
   37.370      794
   37.385      762
   37.400      779
   37.415      783
   37.430      793
   37.445      727
   37.460      792
   37.475      772
   37.490      797
   37.505      791
   37.520      799
   37.535      817
   37.550      858
   37.565      829
   37.580      855
   37.595      809
   37.610      822
   37.625      833
   37.640      793
   37.655      783
   37.670      770
   37.685      798
   37.700      803
   37.715      759
   37.730      736
   37.745      745
   37.760      794
   37.775      826
   37.790      737
   37.805      842
   37.820      849
   37.835      836
   37.850      834
   37.865      815
   37.880      785
   37.895      765
   37.910      830
   37.925      812
   37.940      811
   37.955      774
   37.970      769
   37.985      759
   38.000      809
   38.015      790
   38.030      822
   38.045      853
   38.060      817
   38.075      870
   38.090      803
   38.105      807
   38.120      822
   38.135      784
   38.150      807
   38.165      830
   38.180      815
   38.195      797
   38.210      823
   38.225      831
   38.240      780
   38.255      807
   38.270      802
   38.285      797
   38.300      802
   38.315      786
   38.330      812
   38.345      821
   38.360      828
   38.375      821
   38.390      830
   38.405      835
   38.420      828
   38.435      825
   38.450      784
   38.465      819
   38.480      793
   38.495      751
   38.510      759
   38.525      752
   38.540      776
   38.555      799
   38.570      810
   38.585      782
   38.600      717
   38.615      767
   38.630      789
   38.645      802
   38.660      746
   38.675      800
   38.690      800
   38.705      804
   38.720      787
   38.735      768
   38.750      760
   38.765      727
   38.780      725
   38.795      757
   38.810      795
   38.825      808
   38.840      780
   38.855      842
   38.870      846
   38.885      812
   38.900      806
   38.915      844
   38.930      803
   38.945      798
   38.960      775
   38.975      743
   38.990      711
   39.005      726
   39.020      759
   39.035      817
   39.050      846
   39.065      841
   39.080      782
   39.095      736
   39.110      773
   39.125      755
   39.140      750
   39.155      794
   39.170      793
   39.185      853
   39.200      814
   39.215      722
   39.230      754
   39.245      765
   39.260      834
   39.275      790
   39.290      785
   39.305      793
   39.320      822
   39.335      857
   39.350      832
   39.365      761
   39.380      737
   39.395      747
   39.410      759
   39.425      810
   39.440      846
   39.455      758
   39.470      765
   39.485      816
   39.500      818
   39.515      871
   39.530      767
   39.545      737
   39.560      702
   39.575      766
   39.590      777
   39.605      862
   39.620      851
   39.635      812
   39.650      733
   39.665      789
   39.680      860
   39.695      814
   39.710      791
   39.725      823
   39.740      820
   39.755      786
   39.770      727
   39.785      753
   39.800      787
   39.815      831
   39.830      786
   39.845      793
   39.860      786
   39.875      829
   39.890      815
   39.905      768
   39.920      766
   39.935      793
   39.950      774
   39.965      756
   39.980      755
   39.995      729
   40.010      778
   40.025      766
   40.040      762
   40.055      728
   40.070      805
   40.085      769
   40.100      784
   40.115      776
   40.130      757
   40.145      776
   40.160      759
   40.175      776
   40.190      763
   40.205      796
   40.220      765
   40.235      772
   40.250      757
   40.265      739
   40.280      841
   40.295      825
   40.310      737
   40.325      739
   40.340      748
   40.355      764
   40.370      798
   40.385      822
   40.400      750
   40.415      745
   40.430      806
   40.445      772
   40.460      740
   40.475      759
   40.490      752
   40.505      778
   40.520      761
   40.535      745
   40.550      765
   40.565      820
   40.580      794
   40.595      766
   40.610      759
   40.625      771
   40.640      757
   40.655      780
   40.670      780
   40.685      816
   40.700      789
   40.715      806
   40.730      822
   40.745      809
   40.760      835
   40.775      771
   40.790      791
   40.805      782
   40.820      786
   40.835      797
   40.850      767
   40.865      778
   40.880      785
   40.895      860
   40.910      808
   40.925      755
   40.940      808
   40.955      799
   40.970      797
   40.985      804
   41.000      758
   41.015      824
   41.030      791
   41.045      794
   41.060      810
   41.075      775
   41.090      748
   41.105      740
   41.120      714
   41.135      757
   41.150      804
   41.165      792
   41.180      773
   41.195      772
   41.210      792
   41.225      779
   41.240      728
   41.255      714
   41.270      779
   41.285      789
   41.300      761
   41.315      763
   41.330      750
   41.345      769
   41.360      755
   41.375      747
   41.390      798
   41.405      751
   41.420      739
   41.435      752
   41.450      765
   41.465      678
   41.480      689
   41.495      700
   41.510      731
   41.525      733
   41.540      770
   41.555      817
   41.570      758
   41.585      708
   41.600      712
   41.615      675
   41.630      710
   41.645      762
   41.660      720
   41.675      783
   41.690      727
   41.705      743
   41.720      804
   41.735      766
   41.750      768
   41.765      771
   41.780      721
   41.795      721
   41.810      730
   41.825      762
   41.840      704
   41.855      739
   41.870      795
   41.885      727
   41.900      709
   41.915      696
   41.930      775
   41.945      748
   41.960      789
   41.975      853
   41.990      810
   42.005      823
   42.020      810
   42.035      769
   42.050      787
   42.065      809
   42.080      767
   42.095      753
   42.110      752
   42.125      753
   42.140      758
   42.155      739
   42.170      765
   42.185      791
   42.200      790
   42.215      756
   42.230      762
   42.245      746
   42.260      719
   42.275      712
   42.290      726
   42.305      746
   42.320      719
   42.335      734
   42.350      726
   42.365      750
   42.380      780
   42.395      721
   42.410      768
   42.425      747
   42.440      722
   42.455      738
   42.470      749
   42.485      726
   42.500      720
   42.515      749
   42.530      698
   42.545      690
   42.560      717
   42.575      722
   42.590      697
   42.605      708
   42.620      711
   42.635      710
   42.650      726
   42.665      728
   42.680      673
   42.695      697
   42.710      698
   42.725      699
   42.740      677
   42.755      721
   42.770      741
   42.785      685
   42.800      712
   42.815      712
   42.830      763
   42.845      713
   42.860      750
   42.875      770
   42.890      753
   42.905      720
   42.920      756
   42.935      763
   42.950      786
   42.965      780
   42.980      761
   42.995      731
   43.010      739
   43.025      780
   43.040      694
   43.055      754
   43.070      722
   43.085      704
   43.100      740
   43.115      714
   43.130      728
   43.145      712
   43.160      650
   43.175      714
   43.190      721
   43.205      661
   43.220      726
   43.235      725
   43.250      709
   43.265      703
   43.280      702
   43.295      709
   43.310      641
   43.325      667
   43.340      654
   43.355      679
   43.370      676
   43.385      689
   43.400      658
   43.415      672
   43.430      728
   43.445      694
   43.460      703
   43.475      664
   43.490      659
   43.505      686
   43.520      710
   43.535      721
   43.550      719
   43.565      634
   43.580      685
   43.595      715
   43.610      686
   43.625      695
   43.640      667
   43.655      681
   43.670      689
   43.685      690
   43.700      731
   43.715      712
   43.730      697
   43.745      718
   43.760      821
   43.775      764
   43.790      657
   43.805      733
   43.820      759
   43.835      726
   43.850      751
   43.865      722
   43.880      686
   43.895      699
   43.910      724
   43.925      718
   43.940      698
   43.955      671
   43.970      677
   43.985      641
