    2.000     1894
    2.015     1858
    2.030     1948
    2.045     2012
    2.060     1910
    2.075     1910
    2.090     1807
    2.105     1889
    2.120     1848
    2.135     1808
    2.150     1816
    2.165     1841
    2.180     1761
    2.195     1735
    2.210     1696
    2.225     1782
    2.240     1747
    2.255     1790
    2.270     1729
    2.285     1738
    2.300     1724
    2.315     1702
    2.330     1714
    2.345     1727
    2.360     1729
    2.375     1765
    2.390     1746
    2.405     1744
    2.420     1862
    2.435     1829
    2.450     1711
    2.465     1749
    2.480     1768
    2.495     1712
    2.510     1730
    2.525     1799
    2.540     1811
    2.555     1907
    2.570     1892
    2.585     1822
    2.600     1821
    2.615     1994
    2.630     1974
    2.645     2080
    2.660     2112
    2.675     2254
    2.690     2436
    2.705     2490
    2.720     2305
    2.735     2023
    2.750     1771
    2.765     1595
    2.780     1576
    2.795     1607
    2.810     1600
    2.825     1665
    2.840     1692
    2.855     1779
    2.870     1712
    2.885     1795
    2.900     1751
    2.915     1825
    2.930     1766
    2.945     1852
    2.960     1835
    2.975     1803
    2.990     1829
    3.005     1835
    3.020     1929
    3.035     2052
    3.050     2125
    3.065     2212
    3.080     2311
    3.095     2176
    3.110     2388
    3.125     2575
    3.140     2632
    3.155     3030
    3.170     3269
    3.185     3405
    3.200     3123
    3.215     2648
    3.230     2186
    3.245     1766
    3.260     1745
    3.275     1744
    3.290     1892
    3.305     2039
    3.320     2058
    3.335     2046
    3.350     1949
    3.365     1639
    3.380     1425
    3.395     1308
    3.410     1269
    3.425     1286
    3.440     1312
    3.455     1265
    3.470     1274
    3.485     1312
    3.500     1320
    3.515     1259
    3.530     1284
    3.545     1257
    3.560     1263
    3.575     1307
    3.590     1277
    3.605     1314
    3.620     1284
    3.635     1294
    3.650     1277
    3.665     1352
    3.680     1370
    3.695     1330
    3.710     1309
    3.725     1356
    3.740     1382
    3.755     1373
    3.770     1312
    3.785     1264
    3.800     1445
    3.815     1518
    3.830     1529
    3.845     1497
    3.860     1523
    3.875     1560
    3.890     1438
    3.905     1326
    3.920     1340
    3.935     1348
    3.950     1270
    3.965     1255
    3.980     1259
    3.995     1271
    4.010     1311
    4.025     1223
    4.040     1288
    4.055     1246
    4.070     1266
    4.085     1286
    4.100     1277
    4.115     1337
    4.130     1274
    4.145     1302
    4.160     1376
    4.175     1420
    4.190     1339
    4.205     1409
    4.220     1462
    4.235     1442
    4.250     1292
    4.265     1231
    4.280     1315
    4.295     1331
    4.310     1242
    4.325     1218
    4.340     1289
    4.355     1300
    4.370     1319
    4.385     1329
    4.400     1232
    4.415     1317
    4.430     1356
    4.445     1323
    4.460     1337
    4.475     1336
    4.490     1312
    4.505     1334
    4.520     1313
    4.535     1322
    4.550     1348
    4.565     1360
    4.580     1319
    4.595     1323
    4.610     1351
    4.625     1381
    4.640     1433
    4.655     1406
    4.670     1430
    4.685     1457
    4.700     1493
    4.715     1592
    4.730     1578
    4.745     1577
    4.760     1511
    4.775     1429
    4.790     1379
    4.805     1364
    4.820     1385
    4.835     1384
    4.850     1372
    4.865     1448
    4.880     1441
    4.895     1471
    4.910     1537
    4.925     1499
    4.940     1623
    4.955     1640
    4.970     1647
    4.985     1731
    5.000     1809
    5.015     2004
    5.030     1931
    5.045     1794
    5.060     1784
    5.075     1518
    5.090     1342
    5.105     1249
    5.120     1220
    5.135     1229
    5.150     1313
    5.165     1309
    5.180     1290
    5.195     1268
    5.210     1276
    5.225     1277
    5.240     1218
    5.255     1202
    5.270     1272
    5.285     1335
    5.300     1292
    5.315     1326
    5.330     1288
    5.345     1303
    5.360     1371
    5.375     1283
    5.390     1349
    5.405     1392
    5.420     1427
    5.435     1457
    5.450     1416
    5.465     1447
    5.480     1501
    5.495     1461
    5.510     1419
    5.525     1388
    5.540     1329
    5.555     1352
    5.570     1303
    5.585     1297
    5.600     1343
    5.615     1338
    5.630     1328
    5.645     1454
    5.660     1380
    5.675     1533
    5.690     1482
    5.705     1597
    5.720     1755
    5.735     1746
    5.750     1764
    5.765     1676
    5.780     1506
    5.795     1510
    5.810     1294
    5.825     1270
    5.840     1277
    5.855     1248
    5.870     1279
    5.885     1169
    5.900     1135
    5.915     1147
    5.930     1273
    5.945     1252
    5.960     1263
    5.975     1272
    5.990     1222
    6.005     1188
    6.020     1249
    6.035     1265
    6.050     1219
    6.065     1297
    6.080     1206
    6.095     1153
    6.110     1185
    6.125     1176
    6.140     1185
    6.155     1230
    6.170     1196
    6.185     1177
    6.200     1243
    6.215     1244
    6.230     1261
    6.245     1214
    6.260     1158
    6.275     1151
    6.290     1254
    6.305     1265
    6.320     1175
    6.335     1178
    6.350     1203
    6.365     1230
    6.380     1263
    6.395     1254
    6.410     1244
    6.425     1212
    6.440     1214
    6.455     1260
    6.470     1290
    6.485     1199
    6.500     1191
    6.515     1236
    6.530     1208
    6.545     1188
    6.560     1192
    6.575     1224
    6.590     1211
    6.605     1187
    6.620     1228
    6.635     1233
    6.650     1222
    6.665     1277
    6.680     1216
    6.695     1244
    6.710     1265
    6.725     1232
    6.740     1213
    6.755     1190
    6.770     1279
    6.785     1246
    6.800     1344
    6.815     1191
    6.830     1236
    6.845     1238
    6.860     1183
    6.875     1223
    6.890     1256
    6.905     1331
    6.920     1266
    6.935     1209
    6.950     1207
    6.965     1316
    6.980     1250
    6.995     1285
    7.010     1264
    7.025     1319
    7.040     1216
    7.055     1261
    7.070     1293
    7.085     1186
    7.100     1285
    7.115     1223
    7.130     1340
    7.145     1311
    7.160     1224
    7.175     1295
    7.190     1308
    7.205     1337
    7.220     1278
    7.235     1260
    7.250     1242
    7.265     1271
    7.280     1346
    7.295     1284
    7.310     1236
    7.325     1274
    7.340     1293
    7.355     1219
    7.370     1247
    7.385     1201
    7.400     1267
    7.415     1247
    7.430     1254
    7.445     1208
    7.460     1273
    7.475     1242
    7.490     1210
    7.505     1206
    7.520     1283
    7.535     1265
    7.550     1300
    7.565     1260
    7.580     1249
    7.595     1298
    7.610     1336
    7.625     1315
    7.640     1248
    7.655     1288
    7.670     1305
    7.685     1230
    7.700     1249
    7.715     1279
    7.730     1297
    7.745     1286
    7.760     1372
    7.775     1272
    7.790     1240
    7.805     1363
    7.820     1426
    7.835     1398
    7.850     1373
    7.865     1396
    7.880     1338
    7.895     1348
    7.910     1370
    7.925     1392
    7.940     1460
    7.955     1394
    7.970     1385
    7.985     1386
    8.000     1407
    8.015     1399
    8.030     1494
    8.045     1549
    8.060     1470
    8.075     1523
    8.090     1451
    8.105     1530
    8.120     1524
    8.135     1479
    8.150     1614
    8.165     1582
    8.180     1559
    8.195     1671
    8.210     1689
    8.225     1835
    8.240     2010
    8.255     2102
    8.270     2121
    8.285     2217
    8.300     2123
    8.315     1821
    8.330     1657
    8.345     1653
    8.360     1584
    8.375     1555
    8.390     1697
    8.405     1787
    8.420     1844
    8.435     1982
    8.450     1950
    8.465     1876
    8.480     1813
    8.495     1686
    8.510     1614
    8.525     1635
    8.540     1618
    8.555     1641
    8.570     1667
    8.585     1711
    8.600     1655
    8.615     1733
    8.630     1845
    8.645     1957
    8.660     1956
    8.675     2110
    8.690     2254
    8.705     2505
    8.720     2627
    8.735     2648
    8.750     2533
    8.765     2288
    8.780     2141
    8.795     2157
    8.810     2223
    8.825     2369
    8.840     2583
    8.855     3020
    8.870     3387
    8.885     3728
    8.900     3627
    8.915     3489
    8.930     3088
    8.945     2539
    8.960     2144
    8.975     1878
    8.990     1582
    9.005     1438
    9.020     1427
    9.035     1418
    9.050     1451
    9.065     1443
    9.080     1378
    9.095     1301
    9.110     1404
    9.125     1398
    9.140     1315
    9.155     1348
    9.170     1394
    9.185     1351
    9.200     1378
    9.215     1344
    9.230     1326
    9.245     1396
    9.260     1474
    9.275     1402
    9.290     1418
    9.305     1412
    9.320     1422
    9.335     1449
    9.350     1430
    9.365     1344
    9.380     1334
    9.395     1395
    9.410     1358
    9.425     1466
    9.440     1513
    9.455     1378
    9.470     1400
    9.485     1495
    9.500     1558
    9.515     1584
    9.530     1432
    9.545     1521
    9.560     1538
    9.575     1607
    9.590     1559
    9.605     1566
    9.620     1510
    9.635     1525
    9.650     1416
    9.665     1539
    9.680     1612
    9.695     1576
    9.710     1544
    9.725     1662
    9.740     1648
    9.755     1579
    9.770     1469
    9.785     1447
    9.800     1453
    9.815     1530
    9.830     1487
    9.845     1501
    9.860     1474
    9.875     1571
    9.890     1592
    9.905     1525
    9.920     1581
    9.935     1662
    9.950     1688
    9.965     1627
    9.980     1603
    9.995     1650
   10.010     1684
   10.025     1507
   10.040     1577
   10.055     1567
   10.070     1666
   10.085     1726
   10.100     1843
   10.115     1847
   10.130     1883
   10.145     2007
   10.160     2042
   10.175     2029
   10.190     1745
   10.205     1715
   10.220     1576
   10.235     1504
   10.250     1392
   10.265     1395
   10.280     1471
   10.295     1417
   10.310     1362
   10.325     1426
   10.340     1476
   10.355     1429
   10.370     1422
   10.385     1473
   10.400     1433
   10.415     1447
   10.430     1505
   10.445     1503
   10.460     1533
   10.475     1513
   10.490     1516
   10.505     1479
   10.520     1499
   10.535     1500
   10.550     1499
   10.565     1493
   10.580     1516
   10.595     1472
   10.610     1406
   10.625     1474
   10.640     1476
   10.655     1427
   10.670     1399
   10.685     1459
   10.700     1498
   10.715     1646
   10.730     1589
   10.745     1495
   10.760     1527
   10.775     1504
   10.790     1466
   10.805     1521
   10.820     1514
   10.835     1461
   10.850     1422
   10.865     1527
   10.880     1510
   10.895     1509
   10.910     1529
   10.925     1517
   10.940     1554
   10.955     1497
   10.970     1546
   10.985     1563
   11.000     1539
   11.015     1662
   11.030     1620
   11.045     1605
   11.060     1724
   11.075     1654
   11.090     1625
   11.105     1498
   11.120     1457
   11.135     1534
   11.150     1568
   11.165     1632
   11.180     1597
   11.195     1610
   11.210     1606
   11.225     1607
   11.240     1537
   11.255     1519
   11.270     1560
   11.285     1483
   11.300     1545
   11.315     1514
   11.330     1460
   11.345     1474
   11.360     1473
   11.375     1470
   11.390     1539
   11.405     1560
   11.420     1449
   11.435     1552
   11.450     1516
   11.465     1559
   11.480     1458
   11.495     1524
   11.510     1588
   11.525     1544
   11.540     1632
   11.555     1650
   11.570     1618
   11.585     1430
   11.600     1456
   11.615     1474
   11.630     1508
   11.645     1509
   11.660     1444
   11.675     1622
   11.690     1439
   11.705     1475
   11.720     1546
   11.735     1518
   11.750     1646
   11.765     1537
   11.780     1484
   11.795     1510
   11.810     1528
   11.825     1516
   11.840     1560
   11.855     1580
   11.870     1552
   11.885     1489
   11.900     1529
   11.915     1434
   11.930     1562
   11.945     1500
   11.960     1481
   11.975     1527
   11.990     1539
   12.005     1579
   12.020     1616
   12.035     1513
   12.050     1497
   12.065     1493
   12.080     1497
   12.095     1494
   12.110     1502
   12.125     1425
   12.140     1433
   12.155     1486
   12.170     1508
   12.185     1520
   12.200     1524
   12.215     1569
   12.230     1535
   12.245     1491
   12.260     1521
   12.275     1502
   12.290     1506
   12.305     1551
   12.320     1529
   12.335     1497
   12.350     1482
   12.365     1539
   12.380     1558
   12.395     1582
   12.410     1552
   12.425     1487
   12.440     1474
   12.455     1572
   12.470     1570
   12.485     1512
   12.500     1510
   12.515     1574
   12.530     1571
   12.545     1574
   12.560     1603
   12.575     1484
   12.590     1561
   12.605     1525
   12.620     1621
   12.635     1550
   12.650     1548
   12.665     1623
   12.680     1572
   12.695     1567
   12.710     1669
   12.725     1602
   12.740     1574
   12.755     1621
   12.770     1627
   12.785     1599
   12.800     1664
   12.815     1633
   12.830     1681
   12.845     1617
   12.860     1609
   12.875     1632
   12.890     1698
   12.905     1752
   12.920     1721
   12.935     1649
   12.950     1672
   12.965     1751
   12.980     1668
   12.995     1696
   13.010     1757
   13.025     1740
   13.040     1731
   13.055     1689
   13.070     1635
   13.085     1560
   13.100     1725
   13.115     1612
   13.130     1749
   13.145     1606
   13.160     1629
   13.175     1684
   13.190     1605
   13.205     1580
   13.220     1638
   13.235     1584
   13.250     1592
   13.265     1650
   13.280     1631
   13.295     1650
   13.310     1623
   13.325     1622
   13.340     1572
   13.355     1685
   13.370     1716
   13.385     1625
   13.400     1638
   13.415     1634
   13.430     1591
   13.445     1613
   13.460     1673
   13.475     1665
   13.490     1661
   13.505     1671
   13.520     1676
   13.535     1677
   13.550     1726
   13.565     1683
   13.580     1664
   13.595     1712
   13.610     1825
   13.625     1824
   13.640     1613
   13.655     1660
   13.670     1731
   13.685     1702
   13.700     1696
   13.715     1790
   13.730     1660
   13.745     1686
   13.760     1815
   13.775     1749
   13.790     1660
   13.805     1736
   13.820     1724
   13.835     1797
   13.850     1774
   13.865     1881
   13.880     1724
   13.895     1737
   13.910     1776
   13.925     1753
   13.940     1747
   13.955     1700
   13.970     1757
   13.985     1705
   14.000     1749
   14.015     1766
   14.030     1843
   14.045     1853
   14.060     1780
   14.075     1876
   14.090     1817
   14.105     1827
   14.120     1781
   14.135     1750
   14.150     1832
   14.165     1842
   14.180     1753
   14.195     1753
   14.210     1741
   14.225     1828
   14.240     1800
   14.255     1866
   14.270     1853
   14.285     1880
   14.300     1828
   14.315     1738
   14.330     1833
   14.345     1879
   14.360     1815
   14.375     1810
   14.390     1799
   14.405     1886
   14.420     1897
   14.435     1890
   14.450     1846
   14.465     1869
   14.480     1905
   14.495     1801
   14.510     1799
   14.525     1874
   14.540     1845
   14.555     1922
   14.570     1926
   14.585     1868
   14.600     1794
   14.615     1815
   14.630     1769
   14.645     1837
   14.660     1820
   14.675     1801
   14.690     1816
   14.705     1934
   14.720     1930
   14.735     1836
   14.750     1805
   14.765     1806
   14.780     1828
   14.795     1889
   14.810     1929
   14.825     1945
   14.840     1883
   14.855     1951
   14.870     1904
   14.885     2015
   14.900     1893
   14.915     1934
   14.930     1955
   14.945     2003
   14.960     2002
   14.975     1955
   14.990     1834
   15.005     1889
   15.020     1952
   15.035     1993
   15.050     2056
   15.065     2061
   15.080     2035
   15.095     1909
   15.110     2007
   15.125     2053
   15.140     1976
   15.155     2055
   15.170     2081
   15.185     2015
   15.200     2054
   15.215     1955
   15.230     2012
   15.245     1972
   15.260     2148
   15.275     2035
   15.290     2113
   15.305     2159
   15.320     2120
   15.335     2116
   15.350     2090
   15.365     1968
   15.380     1953
   15.395     2008
   15.410     2000
   15.425     2090
   15.440     2172
   15.455     2077
   15.470     2128
   15.485     2172
   15.500     2101
   15.515     2145
   15.530     2086
   15.545     2008
   15.560     2033
   15.575     2074
   15.590     2070
   15.605     2151
   15.620     2114
   15.635     2128
   15.650     2068
   15.665     2171
   15.680     2299
   15.695     2157
   15.710     2088
   15.725     2174
   15.740     2193
   15.755     2130
   15.770     2083
   15.785     2063
   15.800     2158
   15.815     2405
   15.830     2232
   15.845     2192
   15.860     2177
   15.875     2317
   15.890     2267
   15.905     2172
   15.920     2283
   15.935     2274
   15.950     2264
   15.965     2317
   15.980     2262
   15.995     2318
   16.010     2337
   16.025     2258
   16.040     2310
   16.055     2278
   16.070     2367
   16.085     2363
   16.100     2450
   16.115     2389
   16.130     2367
   16.145     2387
   16.160     2387
   16.175     2518
   16.190     2362
   16.205     2521
   16.220     2475
   16.235     2535
   16.250     2496
   16.265     2518
   16.280     2734
   16.295     2751
   16.310     2676
   16.325     2631
   16.340     2577
   16.355     2449
   16.370     2451
   16.385     2452
   16.400     2392
   16.415     2410
   16.430     2384
   16.445     2429
   16.460     2415
   16.475     2481
   16.490     2447
   16.505     2496
   16.520     2536
   16.535     2496
   16.550     2533
   16.565     2555
   16.580     2515
   16.595     2442
   16.610     2465
   16.625     2541
   16.640     2685
   16.655     2609
   16.670     2550
   16.685     2571
   16.700     2544
   16.715     2605
   16.730     2528
   16.745     2411
   16.760     2501
   16.775     2456
   16.790     2464
   16.805     2593
   16.820     2571
   16.835     2477
   16.850     2515
   16.865     2551
   16.880     2572
   16.895     2538
   16.910     2609
   16.925     2703
   16.940     2650
   16.955     2697
   16.970     2706
   16.985     2586
   17.000     2671
   17.015     2845
   17.030     2798
   17.045     2640
   17.060     2706
   17.075     2674
   17.090     2663
   17.105     2545
   17.120     2607
   17.135     2676
   17.150     2809
   17.165     2811
   17.180     2681
   17.195     2791
   17.210     2770
   17.225     2958
   17.240     2796
   17.255     2653
   17.270     2796
   17.285     2808
   17.300     2732
   17.315     2704
   17.330     2708
   17.345     2702
   17.360     2855
   17.375     2703
   17.390     2981
   17.405     2832
   17.420     2834
   17.435     2984
   17.450     2976
   17.465     2885
   17.480     2847
   17.495     2738
   17.510     2829
   17.525     2758
   17.540     2875
   17.555     3000
   17.570     2838
   17.585     2757
   17.600     2912
   17.615     2821
   17.630     2993
   17.645     3095
   17.660     2960
   17.675     3226
   17.690     3120
   17.705     3192
   17.720     3336
   17.735     3113
   17.750     3195
   17.765     3083
   17.780     2879
   17.795     3015
   17.810     2932
   17.825     3088
   17.840     3060
   17.855     3005
   17.870     3014
   17.885     2755
   17.900     2883
   17.915     2828
   17.930     3028
   17.945     2964
   17.960     2949
   17.975     3019
   17.990     2924
   18.005     2852
   18.020     3042
   18.035     2937
   18.050     2917
   18.065     3001
   18.080     2843
   18.095     2934
   18.110     3000
   18.125     2908
   18.140     2832
   18.155     2904
   18.170     3006
   18.185     2938
   18.200     2901
   18.215     2990
   18.230     3077
   18.245     2967
   18.260     2865
   18.275     2872
   18.290     3082
   18.305     3180
   18.320     3095
   18.335     3119
   18.350     3056
   18.365     3126
   18.380     3209
   18.395     3174
   18.410     3148
   18.425     3086
   18.440     3088
   18.455     3204
   18.470     3213
   18.485     3175
   18.500     3200
   18.515     3341
   18.530     3322
   18.545     3255
   18.560     3308
   18.575     3466
   18.590     3454
   18.605     3315
   18.620     3351
   18.635     3273
   18.650     3266
   18.665     3367
   18.680     3300
   18.695     3351
   18.710     3376
   18.725     3466
   18.740     3497
   18.755     3528
   18.770     3427
   18.785     3276
   18.800     3416
   18.815     3271
   18.830     3270
   18.845     3238
   18.860     3296
   18.875     3139
   18.890     3332
   18.905     3411
   18.920     3332
   18.935     3203
   18.950     3386
   18.965     3539
   18.980     3337
   18.995     3296
   19.010     3205
   19.025     3218
   19.040     3309
   19.055     3235
   19.070     3302
   19.085     3146
   19.100     3392
   19.115     3407
   19.130     3521
   19.145     3416
   19.160     3193
   19.175     3305
   19.190     3387
   19.205     3341
   19.220     3182
   19.235     3245
   19.250     3355
   19.265     3194
   19.280     3415
   19.295     3364
   19.310     3158
   19.325     3211
   19.340     3409
   19.355     3366
   19.370     3345
   19.385     3288
   19.400     3276
   19.415     3334
   19.430     3346
   19.445     3205
   19.460     3401
   19.475     3282
   19.490     3205
   19.505     3394
   19.520     3310
   19.535     3249
   19.550     3272
   19.565     3244
   19.580     3367
   19.595     3348
   19.610     3427
   19.625     3513
   19.640     3111
   19.655     3313
   19.670     3391
   19.685     3317
   19.700     3348
   19.715     3389
   19.730     3206
   19.745     3329
   19.760     3514
   19.775     3319
   19.790     3233
   19.805     3553
   19.820     3494
   19.835     3483
   19.850     3477
   19.865     3355
   19.880     3173
   19.895     3176
   19.910     3319
   19.925     3288
   19.940     3268
   19.955     3274
   19.970     3313
   19.985     3236
   20.000     3180
   20.015     3319
   20.030     3567
   20.045     3467
   20.060     3322
   20.075     3581
   20.090     3325
   20.105     3353
   20.120     3222
   20.135     3296
   20.150     3560
   20.165     3431
   20.180     3254
   20.195     3346
   20.210     3376
   20.225     3366
   20.240     3352
   20.255     3397
   20.270     3247
   20.285     3360
   20.300     3328
   20.315     3172
   20.330     3275
   20.345     3391
   20.360     3428
   20.375     3358
   20.390     3404
   20.405     3367
   20.420     3428
   20.435     3455
   20.450     3405
   20.465     3486
   20.480     3330
   20.495     3232
   20.510     3259
   20.525     3325
   20.540     3250
   20.555     3417
   20.570     3461
   20.585     3252
   20.600     3130
   20.615     3278
   20.630     3215
   20.645     3278
   20.660     3209
   20.675     3247
   20.690     3338
   20.705     3358
   20.720     3277
   20.735     3221
   20.750     3136
   20.765     3048
   20.780     3087
   20.795     3223
   20.810     3304
   20.825     3263
   20.840     3187
   20.855     3336
   20.870     3231
   20.885     3380
   20.900     3255
   20.915     3439
   20.930     3301
   20.945     3365
   20.960     3353
   20.975     3255
   20.990     3186
   21.005     3071
   21.020     3348
   21.035     3398
   21.050     3349
   21.065     3428
   21.080     3286
   21.095     3181
   21.110     3278
   21.125     3393
   21.140     3215
   21.155     3372
   21.170     3307
   21.185     3300
   21.200     3341
   21.215     3219
   21.230     3148
   21.245     3194
   21.260     3509
   21.275     3283
   21.290     3218
   21.305     3340
   21.320     3339
   21.335     3422
   21.350     3307
   21.365     3197
   21.380     3109
   21.395     3152
   21.410     3124
   21.425     3162
   21.440     3275
   21.455     3192
   21.470     3241
   21.485     3414
   21.500     3464
   21.515     3364
   21.530     3144
   21.545     3049
   21.560     2972
   21.575     3040
   21.590     3024
   21.605     3201
   21.620     3151
   21.635     3194
   21.650     3086
   21.665     3132
   21.680     3393
   21.695     3132
   21.710     2950
   21.725     3267
   21.740     3128
   21.755     3009
   21.770     3011
   21.785     2941
   21.800     3179
   21.815     3200
   21.830     3191
   21.845     3001
   21.860     3078
   21.875     3180
   21.890     3144
   21.905     3055
   21.920     3097
   21.935     3098
   21.950     2986
   21.965     3046
   21.980     3054
   21.995     2995
   22.010     3088
   22.025     2896
   22.040     3097
   22.055     3026
   22.070     3142
   22.085     3114
   22.100     3188
   22.115     3091
   22.130     2993
   22.145     2988
   22.160     2987
   22.175     3032
   22.190     2950
   22.205     3094
   22.220     3086
   22.235     3020
   22.250     2993
   22.265     2920
   22.280     3115
   22.295     3135
   22.310     2982
   22.325     2959
   22.340     3135
   22.355     3017
   22.370     3029
   22.385     3073
   22.400     2930
   22.415     2976
   22.430     3084
   22.445     3138
   22.460     3067
   22.475     3030
   22.490     3050
   22.505     3007
   22.520     3023
   22.535     2985
   22.550     3006
   22.565     2993
   22.580     3000
   22.595     2916
   22.610     2886
   22.625     2991
   22.640     2990
   22.655     2846
   22.670     2768
   22.685     2952
   22.700     2897
   22.715     3023
   22.730     2938
   22.745     2840
   22.760     2981
   22.775     2946
   22.790     2862
   22.805     2921
   22.820     2906
   22.835     2795
   22.850     2755
   22.865     2871
   22.880     2855
   22.895     2897
   22.910     2952
   22.925     2910
   22.940     2930
   22.955     2820
   22.970     2735
   22.985     2825
   23.000     2847
   23.015     2855
   23.030     2745
   23.045     2709
   23.060     2815
   23.075     2730
   23.090     2711
   23.105     2603
   23.120     2662
   23.135     2776
   23.150     2848
   23.165     2844
   23.180     2693
   23.195     2795
   23.210     2789
   23.225     2837
   23.240     2677
   23.255     2598
   23.270     2762
   23.285     2814
   23.300     2741
   23.315     2729
   23.330     2667
   23.345     2651
   23.360     2785
   23.375     2800
   23.390     2937
   23.405     2901
   23.420     2804
   23.435     2959
   23.450     2830
   23.465     2874
   23.480     2629
   23.495     2570
   23.510     2695
   23.525     2660
   23.540     2787
   23.555     2871
   23.570     2667
   23.585     2522
   23.600     2714
   23.615     2594
   23.630     2679
   23.645     2736
   23.660     2465
   23.675     2670
   23.690     2655
   23.705     2696
   23.720     2813
   23.735     2631
   23.750     2794
   23.765     2803
   23.780     2618
   23.795     2745
   23.810     2617
   23.825     2771
   23.840     2677
   23.855     2739
   23.870     2693
   23.885     2586
   23.900     2628
   23.915     2524
   23.930     2838
   23.945     2657
   23.960     2667
   23.975     2609
   23.990     2562
   24.005     2566
   24.020     2627
   24.035     2561
   24.050     2472
   24.065     2560
   24.080     2479
   24.095     2490
   24.110     2542
   24.125     2559
   24.140     2463
   24.155     2471
   24.170     2606
   24.185     2568
   24.200     2490
   24.215     2465
   24.230     2648
   24.245     2488
   24.260     2354
   24.275     2354
   24.290     2474
   24.305     2496
   24.320     2415
   24.335     2411
   24.350     2385
   24.365     2450
   24.380     2561
   24.395     2569
   24.410     2635
   24.425     2564
   24.440     2493
   24.455     2556
   24.470     2550
   24.485     2490
   24.500     2417
   24.515     2549
   24.530     2495
   24.545     2429
   24.560     2424
   24.575     2442
   24.590     2423
   24.605     2416
   24.620     2473
   24.635     2442
   24.650     2413
   24.665     2454
   24.680     2351
   24.695     2409
   24.710     2364
   24.725     2430
   24.740     2385
   24.755     2412
   24.770     2474
   24.785     2361
   24.800     2412
   24.815     2430
   24.830     2378
   24.845     2326
   24.860     2309
   24.875     2284
   24.890     2440
   24.905     2419
   24.920     2424
   24.935     2357
   24.950     2362
   24.965     2528
   24.980     2353
   24.995     2352
   25.010     2353
   25.025     2341
   25.040     2371
   25.055     2350
   25.070     2436
   25.085     2283
   25.100     2483
   25.115     2327
   25.130     2509
   25.145     2364
   25.160     2175
   25.175     2312
   25.190     2392
   25.205     2338
   25.220     2211
   25.235     2397
   25.250     2294
   25.265     2294
   25.280     2397
   25.295     2331
   25.310     2169
   25.325     2166
   25.340     2256
   25.355     2276
   25.370     2280
   25.385     2342
   25.400     2255
   25.415     2256
   25.430     2342
   25.445     2148
   25.460     2213
   25.475     2151
   25.490     2091
   25.505     2142
   25.520     2249
   25.535     2137
   25.550     2155
   25.565     2138
   25.580     2250
   25.595     2188
   25.610     2197
   25.625     2292
   25.640     2047
   25.655     2100
   25.670     2220
   25.685     2134
   25.700     2244
   25.715     2223
   25.730     2079
   25.745     2063
   25.760     2270
   25.775     2094
   25.790     2035
   25.805     2243
   25.820     2245
   25.835     2276
   25.850     2244
   25.865     2205
   25.880     2030
   25.895     1998
   25.910     2143
   25.925     2045
   25.940     2045
   25.955     2023
   25.970     2099
   25.985     2093
   26.000     2152
   26.015     2141
   26.030     2224
   26.045     2205
   26.060     2189
   26.075     2237
   26.090     2101
   26.105     2136
   26.120     2065
   26.135     2038
   26.150     2125
   26.165     2192
   26.180     2087
   26.195     2203
   26.210     2217
   26.225     2195
   26.240     2072
   26.255     2124
   26.270     2018
   26.285     2121
   26.300     2088
   26.315     1961
   26.330     2043
   26.345     2141
   26.360     2054
   26.375     2048
   26.390     2032
   26.405     2049
   26.420     2114
   26.435     2118
   26.450     2042
   26.465     2109
   26.480     2028
   26.495     1960
   26.510     1927
   26.525     1988
   26.540     2011
   26.555     2152
   26.570     2157
   26.585     2046
   26.600     1964
   26.615     2033
   26.630     2028
   26.645     2116
   26.660     2036
   26.675     2023
   26.690     2001
   26.705     2048
   26.720     2056
   26.735     1948
   26.750     1986
   26.765     1965
   26.780     1918
   26.795     1975
   26.810     1959
   26.825     1994
   26.840     1975
   26.855     2046
   26.870     1956
   26.885     1976
   26.900     1926
   26.915     1995
   26.930     1920
   26.945     1954
   26.960     1953
   26.975     1918
   26.990     1870
   27.005     1846
   27.020     1946
   27.035     1977
   27.050     1956
   27.065     2047
   27.080     2006
   27.095     1882
   27.110     1953
   27.125     2011
   27.140     1841
   27.155     1969
   27.170     1994
   27.185     1976
   27.200     1984
   27.215     1905
   27.230     1908
   27.245     1861
   27.260     2096
   27.275     1927
   27.290     1906
   27.305     1988
   27.320     1900
   27.335     1905
   27.350     1938
   27.365     1847
   27.380     1841
   27.395     1880
   27.410     1911
   27.425     1955
   27.440     2011
   27.455     1905
   27.470     1850
   27.485     1911
   27.500     2004
   27.515     1978
   27.530     1928
   27.545     1823
   27.560     1760
   27.575     1809
   27.590     1860
   27.605     1925
   27.620     1936
   27.635     1924
   27.650     1885
   27.665     1941
   27.680     2115
   27.695     1954
   27.710     1799
   27.725     1934
   27.740     1898
   27.755     1839
   27.770     1832
   27.785     1827
   27.800     1892
   27.815     2037
   27.830     1989
   27.845     1913
   27.860     1821
   27.875     1894
   27.890     1884
   27.905     1800
   27.920     1834
   27.935     1877
   27.950     1763
   27.965     1738
   27.980     1790
   27.995     1778
   28.010     1836
   28.025     1762
   28.040     1822
   28.055     1792
   28.070     1924
   28.085     1875
   28.100     1938
   28.115     1836
   28.130     1793
   28.145     1805
   28.160     1811
   28.175     1786
   28.190     1697
   28.205     1837
   28.220     1871
   28.235     1845
   28.250     1841
   28.265     1789
   28.280     1867
   28.295     1834
   28.310     1696
   28.325     1725
   28.340     1869
   28.355     1810
   28.370     1859
   28.385     1885
   28.400     1814
   28.415     1849
   28.430     1832
   28.445     1850
   28.460     1798
   28.475     1814
   28.490     1746
   28.505     1817
   28.520     1844
   28.535     1780
   28.550     1798
   28.565     1773
   28.580     1766
   28.595     1740
   28.610     1744
   28.625     1769
   28.640     1775
   28.655     1694
   28.670     1630
   28.685     1726
   28.700     1678
   28.715     1789
   28.730     1754
   28.745     1667
   28.760     1736
   28.775     1679
   28.790     1723
   28.805     1718
   28.820     1716
   28.835     1659
   28.850     1668
   28.865     1726
   28.880     1732
   28.895     1730
   28.910     1710
   28.925     1741
   28.940     1754
   28.955     1716
   28.970     1720
   28.985     1749
   29.000     1748
   29.015     1795
   29.030     1718
   29.045     1694
   29.060     1708
   29.075     1673
   29.090     1630
   29.105     1646
   29.120     1700
   29.135     1681
   29.150     1723
   29.165     1684
   29.180     1643
   29.195     1712
   29.210     1724
   29.225     1706
   29.240     1580
   29.255     1552
   29.270     1798
   29.285     1716
   29.300     1728
   29.315     1665
   29.330     1676
   29.345     1606
   29.360     1732
   29.375     1670
   29.390     1769
   29.405     1670
   29.420     1653
   29.435     1669
   29.450     1751
   29.465     1652
   29.480     1587
   29.495     1630
   29.510     1654
   29.525     1537
   29.540     1671
   29.555     1661
   29.570     1654
   29.585     1522
   29.600     1593
   29.615     1529
   29.630     1578
   29.645     1606
   29.660     1569
   29.675     1673
   29.690     1555
   29.705     1620
   29.720     1718
   29.735     1686
   29.750     1623
   29.765     1693
   29.780     1593
   29.795     1673
   29.810     1573
   29.825     1650
   29.840     1601
   29.855     1619
   29.870     1635
   29.885     1587
   29.900     1555
   29.915     1469
   29.930     1634
   29.945     1577
   29.960     1529
   29.975     1575
   29.990     1590
   30.005     1594
   30.020     1579
   30.035     1548
   30.050     1533
   30.065     1553
   30.080     1515
   30.095     1547
   30.110     1534
   30.125     1487
   30.140     1471
   30.155     1517
   30.170     1503
   30.185     1523
   30.200     1549
   30.215     1550
   30.230     1580
   30.245     1584
   30.260     1489
   30.275     1447
   30.290     1526
   30.305     1527
   30.320     1487
   30.335     1455
   30.350     1460
   30.365     1530
   30.380     1580
   30.395     1610
   30.410     1588
   30.425     1510
   30.440     1516
   30.455     1562
   30.470     1578
   30.485     1500
   30.500     1496
   30.515     1549
   30.530     1480
   30.545     1472
   30.560     1463
   30.575     1507
   30.590     1563
   30.605     1599
   30.620     1642
   30.635     1586
   30.650     1636
   30.665     1600
   30.680     1589
   30.695     1565
   30.710     1560
   30.725     1615
   30.740     1635
   30.755     1617
   30.770     1611
   30.785     1544
   30.800     1652
   30.815     1529
   30.830     1613
   30.845     1543
   30.860     1488
   30.875     1488
   30.890     1520
   30.905     1507
   30.920     1520
   30.935     1487
   30.950     1585
   30.965     1671
   30.980     1510
   30.995     1538
   31.010     1490
   31.025     1567
   31.040     1541
   31.055     1481
   31.070     1510
   31.085     1464
   31.100     1500
   31.115     1475
   31.130     1539
   31.145     1430
   31.160     1436
   31.175     1435
   31.190     1536
   31.205     1484
   31.220     1384
   31.235     1400
   31.250     1437
   31.265     1502
   31.280     1485
   31.295     1440
   31.310     1389
   31.325     1418
   31.340     1463
   31.355     1445
   31.370     1511
   31.385     1514
   31.400     1457
   31.415     1454
   31.430     1423
   31.445     1412
   31.460     1503
   31.475     1371
   31.490     1392
   31.505     1428
   31.520     1387
   31.535     1346
   31.550     1428
   31.565     1406
   31.580     1416
   31.595     1435
   31.610     1485
   31.625     1514
   31.640     1416
   31.655     1442
   31.670     1484
   31.685     1425
   31.700     1474
   31.715     1433
   31.730     1379
   31.745     1390
   31.760     1461
   31.775     1346
   31.790     1285
   31.805     1445
   31.820     1459
   31.835     1391
   31.850     1382
   31.865     1435
   31.880     1332
   31.895     1307
   31.910     1381
   31.925     1332
   31.940     1393
   31.955     1377
   31.970     1372
   31.985     1335
   32.000     1351
   32.015     1375
   32.030     1439
   32.045     1469
   32.060     1380
   32.075     1470
   32.090     1366
   32.105     1416
   32.120     1405
   32.135     1354
   32.150     1426
   32.165     1386
   32.180     1309
   32.195     1354
   32.210     1413
   32.225     1429
   32.240     1341
   32.255     1380
   32.270     1371
   32.285     1351
   32.300     1386
   32.315     1292
   32.330     1319
   32.345     1377
   32.360     1357
   32.375     1397
   32.390     1380
   32.405     1307
   32.420     1386
   32.435     1415
   32.450     1409
   32.465     1412
   32.480     1403
   32.495     1356
   32.510     1313
   32.525     1377
   32.540     1397
   32.555     1448
   32.570     1441
   32.585     1367
   32.600     1290
   32.615     1385
   32.630     1353
   32.645     1367
   32.660     1319
   32.675     1334
   32.690     1347
   32.705     1353
   32.720     1380
   32.735     1339
   32.750     1307
   32.765     1266
   32.780     1284
   32.795     1303
   32.810     1355
   32.825     1357
   32.840     1299
   32.855     1330
   32.870     1340
   32.885     1439
   32.900     1371
   32.915     1349
   32.930     1301
   32.945     1336
   32.960     1369
   32.975     1307
   32.990     1320
   33.005     1302
   33.020     1347
   33.035     1322
   33.050     1355
   33.065     1421
   33.080     1359
   33.095     1253
   33.110     1337
   33.125     1389
   33.140     1285
   33.155     1343
   33.170     1334
   33.185     1381
   33.200     1320
   33.215     1265
   33.230     1232
   33.245     1280
   33.260     1392
   33.275     1271
   33.290     1269
   33.305     1338
   33.320     1281
   33.335     1352
   33.350     1308
   33.365     1284
   33.380     1267
   33.395     1281
   33.410     1260
   33.425     1236
   33.440     1332
   33.455     1271
   33.470     1302
   33.485     1365
   33.500     1368
   33.515     1304
   33.530     1271
   33.545     1204
   33.560     1223
   33.575     1247
   33.590     1193
   33.605     1253
   33.620     1274
   33.635     1339
   33.650     1291
   33.665     1274
   33.680     1335
   33.695     1290
   33.710     1207
   33.725     1278
   33.740     1320
   33.755     1284
   33.770     1208
   33.785     1245
   33.800     1268
   33.815     1338
   33.830     1344
   33.845     1308
   33.860     1289
   33.875     1289
   33.890     1270
   33.905     1216
   33.920     1267
   33.935     1318
   33.950     1270
   33.965     1224
   33.980     1240
   33.995     1251
   34.010     1308
   34.025     1259
   34.040     1257
   34.055     1221
   34.070     1275
   34.085     1295
   34.100     1285
   34.115     1243
   34.130     1178
   34.145     1230
   34.160     1210
   34.175     1231
   34.190     1160
   34.205     1222
   34.220     1220
   34.235     1227
   34.250     1193
   34.265     1129
   34.280     1204
   34.295     1236
   34.310     1234
   34.325     1199
   34.340     1250
   34.355     1272
   34.370     1302
   34.385     1302
   34.400     1215
   34.415     1230
   34.430     1222
   34.445     1235
   34.460     1262
   34.475     1235
   34.490     1206
   34.505     1258
   34.520     1285
   34.535     1189
   34.550     1201
   34.565     1211
   34.580     1235
   34.595     1230
   34.610     1147
   34.625     1188
   34.640     1183
   34.655     1177
   34.670     1171
   34.685     1156
   34.700     1151
   34.715     1211
   34.730     1162
   34.745     1140
   34.760     1177
   34.775     1171
   34.790     1173
   34.805     1172
   34.820     1192
   34.835     1193
   34.850     1161
   34.865     1177
   34.880     1133
   34.895     1134
   34.910     1178
   34.925     1195
   34.940     1192
   34.955     1121
   34.970     1143
   34.985     1164
   35.000     1142
   35.015     1219
   35.030     1161
   35.045     1123
   35.060     1163
   35.075     1150
   35.090     1153
   35.105     1095
   35.120     1129
   35.135     1153
   35.150     1194
   35.165     1184
   35.180     1145
   35.195     1194
   35.210     1158
   35.225     1170
   35.240     1156
   35.255     1104
   35.270     1210
   35.285     1176
   35.300     1143
   35.315     1184
   35.330     1134
   35.345     1175
   35.360     1170
   35.375     1116
   35.390     1196
   35.405     1221
   35.420     1128
   35.435     1167
   35.450     1160
   35.465     1143
   35.480     1101
   35.495     1104
   35.510     1046
   35.525     1117
   35.540     1120
   35.555     1110
   35.570     1154
   35.585     1078
   35.600     1117
   35.615     1054
   35.630     1099
   35.645     1187
   35.660     1105
   35.675     1171
   35.690     1073
   35.705     1137
   35.720     1161
   35.735     1106
   35.750     1190
   35.765     1068
   35.780     1049
   35.795     1128
   35.810     1094
   35.825     1129
   35.840     1111
   35.855     1160
   35.870     1163
   35.885     1118
   35.900     1053
   35.915     1030
   35.930     1110
   35.945     1106
   35.960     1062
   35.975     1113
   35.990     1114
   36.005     1102
   36.020     1102
   36.035     1028
   36.050     1077
   36.065     1103
   36.080     1071
   36.095     1053
   36.110     1078
   36.125     1080
   36.140     1073
   36.155     1051
   36.170     1046
   36.185     1088
   36.200     1059
   36.215     1053
   36.230     1071
   36.245     1087
   36.260     1082
   36.275     1031
   36.290     1111
   36.305     1068
   36.320     1030
   36.335     1064
   36.350     1055
   36.365     1072
   36.380     1133
   36.395     1114
   36.410     1120
   36.425     1051
   36.440     1057
   36.455     1055
   36.470     1085
   36.485     1068
   36.500     1037
   36.515     1041
   36.530     1044
   36.545     1037
   36.560     1024
   36.575      998
   36.590     1008
   36.605     1046
   36.620     1088
   36.635     1105
   36.650     1089
   36.665     1093
   36.680     1103
   36.695     1093
   36.710     1079
   36.725     1095
   36.740     1095
   36.755     1044
   36.770     1057
   36.785     1039
   36.800     1132
   36.815     1026
   36.830     1063
   36.845     1081
   36.860     1055
   36.875     1073
   36.890     1121
   36.905     1093
   36.920     1122
   36.935     1087
   36.950     1055
   36.965     1120
   36.980     1088
   36.995     1068
   37.010     1044
   37.025     1093
   37.040     1055
   37.055     1040
   37.070     1039
   37.085      952
   37.100     1097
   37.115      983
   37.130     1075
   37.145     1027
   37.160     1000
   37.175     1065
   37.190     1090
   37.205     1051
   37.220     1001
   37.235      983
   37.250     1047
   37.265      981
   37.280     1055
   37.295     1044
   37.310      998
   37.325     1029
   37.340     1057
   37.355     1029
   37.370     1031
   37.385     1029
   37.400     1018
   37.415     1031
   37.430     1094
   37.445      987
   37.460      965
   37.475     1002
   37.490     1044
   37.505     1071
   37.520     1009
   37.535      983
   37.550      968
   37.565      985
   37.580     1055
   37.595     1051
   37.610     1060
   37.625     1081
   37.640     1009
   37.655     1015
   37.670     1064
   37.685     1045
   37.700     1018
   37.715     1014
   37.730      995
   37.745      991
   37.760     1060
   37.775     1037
   37.790      964
   37.805     1061
   37.820     1043
   37.835     1042
   37.850     1027
   37.865     1044
   37.880      978
   37.895      967
   37.910     1009
   37.925      986
   37.940     1003
   37.955      994
   37.970     1008
   37.985     1002
   38.000     1010
   38.015     1035
   38.030     1030
   38.045     1064
   38.060     1060
   38.075     1060
   38.090      991
   38.105     1010
   38.120     1000
   38.135      988
   38.150     1067
   38.165     1063
   38.180     1002
   38.195      999
   38.210     1004
   38.225     1026
   38.240     1027
   38.255     1022
   38.270      997
   38.285     1004
   38.300     1052
   38.315      996
   38.330      965
   38.345     1008
   38.360     1054
   38.375     1008
   38.390      977
   38.405      985
   38.420     1010
   38.435     1041
   38.450     1008
   38.465     1005
   38.480      970
   38.495      962
   38.510      937
   38.525      963
   38.540      990
   38.555     1029
   38.570     1045
   38.585      974
   38.600      941
   38.615     1011
   38.630     1008
   38.645     1007
   38.660      925
   38.675      915
   38.690      977
   38.705     1042
   38.720     1033
   38.735     1002
   38.750      986
   38.765      918
   38.780      960
   38.795     1000
   38.810     1008
   38.825     1014
   38.840     1019
   38.855     1084
   38.870     1029
   38.885     1034
   38.900     1022
   38.915      983
   38.930      950
   38.945      974
   38.960      978
   38.975      955
   38.990      968
   39.005      985
   39.020      952
   39.035      970
   39.050      986
   39.065     1064
   39.080     1001
   39.095      941
   39.110      987
   39.125      977
   39.140      935
   39.155     1017
   39.170     1003
   39.185     1037
   39.200      988
   39.215      967
   39.230      926
   39.245      969
   39.260     1071
   39.275      978
   39.290      942
   39.305      967
   39.320      974
   39.335     1034
   39.350     1010
   39.365      971
   39.380      902
   39.395      951
   39.410      921
   39.425      954
   39.440     1019
   39.455      935
   39.470     1001
   39.485      997
   39.500      994
   39.515      975
   39.530      962
   39.545      903
   39.560      954
   39.575      928
   39.590      941
   39.605      927
   39.620      945
   39.635      999
   39.650      922
   39.665      988
   39.680     1068
   39.695      972
   39.710      984
   39.725     1037
   39.740     1004
   39.755      988
   39.770      947
   39.785      957
   39.800      978
   39.815      994
   39.830      967
   39.845      990
   39.860     1011
   39.875      993
   39.890      951
   39.905      945
   39.920      995
   39.935     1034
   39.950     1003
   39.965      961
   39.980      936
   39.995      967
   40.010      985
   40.025      983
   40.040     1009
   40.055      963
   40.070      985
   40.085      984
   40.100      974
   40.115      984
   40.130      911
   40.145      935
   40.160      973
   40.175     1028
   40.190      979
   40.205      986
   40.220     1009
   40.235      984
   40.250      980
   40.265      955
   40.280      975
   40.295      951
   40.310      934
   40.325      935
   40.340      974
   40.355     1006
   40.370      999
   40.385     1043
   40.400      957
   40.415      957
   40.430      988
   40.445      999
   40.460      960
   40.475     1000
   40.490      975
   40.505      958
   40.520      962
   40.535      990
   40.550      971
   40.565     1000
   40.580     1009
   40.595      966
   40.610      979
   40.625     1006
   40.640      992
   40.655      985
   40.670      961
   40.685      978
   40.700      984
   40.715      978
   40.730      966
   40.745      967
   40.760      980
   40.775      927
   40.790      923
   40.805      954
   40.820      973
   40.835      921
   40.850      929
   40.865      930
   40.880      966
   40.895      962
   40.910      900
   40.925      950
   40.940      962
   40.955      933
   40.970      967
   40.985      962
   41.000      930
   41.015     1010
   41.030      967
   41.045      971
   41.060      963
   41.075     1004
   41.090      988
   41.105      962
   41.120      953
   41.135      984
   41.150     1016
   41.165     1016
   41.180      950
   41.195     1002
   41.210     1018
   41.225      987
   41.240      931
   41.255      934
   41.270      982
   41.285     1028
   41.300      963
   41.315      997
   41.330     1001
   41.345      977
   41.360      983
   41.375      928
   41.390     1021
   41.405     1063
   41.420     1002
   41.435     1021
   41.450      987
   41.465      958
   41.480      929
   41.495      968
   41.510      899
   41.525      924
   41.540      960
   41.555      982
   41.570      967
   41.585      899
   41.600      939
   41.615      907
   41.630      868
   41.645      945
   41.660      933
   41.675      966
   41.690      914
   41.705      908
   41.720      967
   41.735      913
   41.750      943
   41.765      947
   41.780      913
   41.795      939
   41.810      875
   41.825      990
   41.840      937
   41.855      909
   41.870      969
   41.885      879
   41.900      959
   41.915      910
   41.930      964
   41.945      932
   41.960      920
   41.975      933
   41.990      943
   42.005      945
   42.020      944
   42.035      934
   42.050      903
   42.065      941
   42.080      898
   42.095      888
   42.110      916
   42.125      961
   42.140      927
   42.155      924
   42.170      958
   42.185      927
   42.200      941
   42.215      973
   42.230      966
   42.245      924
   42.260      912
   42.275      891
   42.290      933
   42.305      922
   42.320      878
   42.335      915
   42.350      906
   42.365      944
   42.380      977
   42.395      966
   42.410      949
   42.425      898
   42.440      874
   42.455      931
   42.470      938
   42.485      940
   42.500      928
   42.515      964
   42.530      900
   42.545      899
   42.560      899
   42.575      966
   42.590      941
   42.605      915
   42.620      950
   42.635      911
   42.650      935
   42.665      950
   42.680      940
   42.695      929
   42.710      913
   42.725      920
   42.740      939
   42.755      975
   42.770      970
   42.785      911
   42.800      967
   42.815      943
   42.830      973
   42.845      944
   42.860      952
   42.875      922
   42.890      927
   42.905      934
   42.920      974
   42.935      890
   42.950      964
   42.965      989
   42.980      939
   42.995      975
   43.010      927
   43.025      959
   43.040      998
   43.055     1010
   43.070     1005
   43.085      926
   43.100     1037
   43.115      959
   43.130      987
   43.145      907
   43.160      870
   43.175      935
   43.190      961
   43.205      903
   43.220      942
   43.235      951
   43.250      879
   43.265      916
   43.280      884
   43.295      923
   43.310      823
   43.325      845
   43.340      866
   43.355      946
   43.370      979
   43.385      923
   43.400      944
   43.415      933
   43.430      989
   43.445      901
   43.460      928
   43.475      906
   43.490      925
   43.505      915
   43.520      904
   43.535      905
   43.550      950
   43.565      960
   43.580      946
   43.595      970
   43.610      907
   43.625      973
   43.640      916
   43.655      893
   43.670      942
   43.685      945
   43.700      951
   43.715      918
   43.730      893
   43.745      903
   43.760      976
   43.775      870
   43.790      846
   43.805      933
   43.820      939
   43.835      896
   43.850      878
   43.865      921
   43.880      855
   43.895      898
   43.910      907
   43.925      864
   43.940      836
   43.955      880
   43.970      961
   43.985      896
