    2.000     2031
    2.015     2003
    2.030     2052
    2.045     2072
    2.060     2060
    2.075     2061
    2.090     1929
    2.105     2078
    2.120     2012
    2.135     2048
    2.150     2124
    2.165     2084
    2.180     2031
    2.195     2060
    2.210     2039
    2.225     2132
    2.240     2143
    2.255     2180
    2.270     2097
    2.285     2148
    2.300     2156
    2.315     2036
    2.330     2129
    2.345     2320
    2.360     2239
    2.375     2287
    2.390     2282
    2.405     2246
    2.420     2294
    2.435     2395
    2.450     2327
    2.465     2404
    2.480     2422
    2.495     2335
    2.510     2324
    2.525     2434
    2.540     2447
    2.555     2503
    2.570     2597
    2.585     2616
    2.600     2607
    2.615     2742
    2.630     2774
    2.645     2884
    2.660     3065
    2.675     3243
    2.690     3324
    2.705     3350
    2.720     3209
    2.735     2896
    2.750     2645
    2.765     2391
    2.780     2310
    2.795     2329
    2.810     2395
    2.825     2395
    2.840     2362
    2.855     2443
    2.870     2519
    2.885     2620
    2.900     2681
    2.915     2662
    2.930     2539
    2.945     2666
    2.960     2766
    2.975     2733
    2.990     2751
    3.005     2758
    3.020     2873
    3.035     2890
    3.050     3018
    3.065     3144
    3.080     3286
    3.095     3386
    3.110     3694
    3.125     3948
    3.140     4099
    3.155     4583
    3.170     4745
    3.185     4808
    3.200     4421
    3.215     3842
    3.230     3342
    3.245     2851
    3.260     2779
    3.275     2696
    3.290     2810
    3.305     3100
    3.320     3085
    3.335     2987
    3.350     2791
    3.365     2368
    3.380     2188
    3.395     1960
    3.410     1915
    3.425     1899
    3.440     1889
    3.455     1835
    3.470     1851
    3.485     1975
    3.500     1956
    3.515     1908
    3.530     1854
    3.545     1916
    3.560     1876
    3.575     1857
    3.590     1909
    3.605     1914
    3.620     1909
    3.635     1914
    3.650     1902
    3.665     2037
    3.680     2034
    3.695     2012
    3.710     1942
    3.725     2005
    3.740     1950
    3.755     2069
    3.770     2048
    3.785     2097
    3.800     2125
    3.815     2225
    3.830     2256
    3.845     2335
    3.860     2176
    3.875     2262
    3.890     2165
    3.905     1969
    3.920     1928
    3.935     1933
    3.950     1895
    3.965     1857
    3.980     1910
    3.995     1874
    4.010     2038
    4.025     2017
    4.040     1989
    4.055     1868
    4.070     1926
    4.085     1940
    4.100     2032
    4.115     2045
    4.130     1954
    4.145     1984
    4.160     2071
    4.175     2073
    4.190     2048
    4.205     2140
    4.220     2066
    4.235     2061
    4.250     2030
    4.265     1914
    4.280     1973
    4.295     1928
    4.310     1796
    4.325     1817
    4.340     1883
    4.355     1943
    4.370     1865
    4.385     1924
    4.400     1899
    4.415     1989
    4.430     1915
    4.445     1935
    4.460     1962
    4.475     1937
    4.490     1952
    4.505     1909
    4.520     1947
    4.535     1954
    4.550     1994
    4.565     2095
    4.580     2044
    4.595     2012
    4.610     2002
    4.625     2010
    4.640     2107
    4.655     2118
    4.670     2194
    4.685     2215
    4.700     2226
    4.715     2389
    4.730     2387
    4.745     2305
    4.760     2327
    4.775     2256
    4.790     2184
    4.805     2187
    4.820     2070
    4.835     2062
    4.850     2103
    4.865     2182
    4.880     2186
    4.895     2212
    4.910     2264
    4.925     2326
    4.940     2415
    4.955     2356
    4.970     2557
    4.985     2612
    5.000     2788
    5.015     2956
    5.030     2902
    5.045     2789
    5.060     2582
    5.075     2328
    5.090     2106
    5.105     1854
    5.120     1839
    5.135     1875
    5.150     1945
    5.165     1918
    5.180     1920
    5.195     1943
    5.210     1937
    5.225     1972
    5.240     1928
    5.255     1936
    5.270     1959
    5.285     1984
    5.300     1986
    5.315     1959
    5.330     1889
    5.345     1979
    5.360     2021
    5.375     1961
    5.390     2132
    5.405     2102
    5.420     2138
    5.435     2097
    5.450     2153
    5.465     2228
    5.480     2151
    5.495     2147
    5.510     2209
    5.525     2133
    5.540     2152
    5.555     2038
    5.570     1998
    5.585     1916
    5.600     2034
    5.615     1952
    5.630     2108
    5.645     2155
    5.660     2246
    5.675     2358
    5.690     2335
    5.705     2522
    5.720     2690
    5.735     2609
    5.750     2603
    5.765     2461
    5.780     2159
    5.795     2168
    5.810     1987
    5.825     1964
    5.840     1876
    5.855     1873
    5.870     1855
    5.885     1822
    5.900     1786
    5.915     1727
    5.930     1855
    5.945     1805
    5.960     1828
    5.975     1790
    5.990     1823
    6.005     1855
    6.020     1905
    6.035     1899
    6.050     1854
    6.065     1888
    6.080     1817
    6.095     1799
    6.110     1848
    6.125     1855
    6.140     1854
    6.155     1814
    6.170     1831
    6.185     1854
    6.200     1845
    6.215     1851
    6.230     1811
    6.245     1843
    6.260     1860
    6.275     1902
    6.290     1837
    6.305     1848
    6.320     1822
    6.335     1824
    6.350     1812
    6.365     1906
    6.380     1913
    6.395     1956
    6.410     1945
    6.425     1860
    6.440     1813
    6.455     1790
    6.470     1864
    6.485     1913
    6.500     1847
    6.515     1828
    6.530     1772
    6.545     1823
    6.560     1853
    6.575     1832
    6.590     1822
    6.605     1865
    6.620     1856
    6.635     1782
    6.650     1757
    6.665     1897
    6.680     1736
    6.695     1793
    6.710     1875
    6.725     1860
    6.740     1840
    6.755     1881
    6.770     1907
    6.785     1858
    6.800     1928
    6.815     1802
    6.830     1894
    6.845     1825
    6.860     1875
    6.875     1893
    6.890     1853
    6.905     1881
    6.920     1820
    6.935     1877
    6.950     1844
    6.965     2010
    6.980     1942
    6.995     1877
    7.010     1900
    7.025     1929
    7.040     1981
    7.055     1923
    7.070     1893
    7.085     1816
    7.100     1907
    7.115     2001
    7.130     1903
    7.145     1928
    7.160     1849
    7.175     1838
    7.190     1898
    7.205     1876
    7.220     1930
    7.235     1946
    7.250     1851
    7.265     1872
    7.280     2010
    7.295     1987
    7.310     1835
    7.325     1870
    7.340     1842
    7.355     1889
    7.370     1926
    7.385     1841
    7.400     1915
    7.415     1867
    7.430     1892
    7.445     1802
    7.460     1887
    7.475     1909
    7.490     1881
    7.505     1965
    7.520     1849
    7.535     1882
    7.550     1928
    7.565     1870
    7.580     1907
    7.595     1806
    7.610     1881
    7.625     1939
    7.640     1937
    7.655     1820
    7.670     1884
    7.685     1929
    7.700     1954
    7.715     1924
    7.730     1917
    7.745     1983
    7.760     2074
    7.775     2029
    7.790     1969
    7.805     2101
    7.820     2108
    7.835     2163
    7.850     2153
    7.865     2181
    7.880     2202
    7.895     2249
    7.910     2261
    7.925     2235
    7.940     2201
    7.955     2236
    7.970     2273
    7.985     2183
    8.000     2096
    8.015     2177
    8.030     2213
    8.045     2172
    8.060     2094
    8.075     2155
    8.090     2108
    8.105     2303
    8.120     2188
    8.135     2205
    8.150     2344
    8.165     2410
    8.180     2276
    8.195     2421
    8.210     2628
    8.225     2764
    8.240     2865
    8.255     3087
    8.270     3074
    8.285     3019
    8.300     2953
    8.315     2678
    8.330     2484
    8.345     2459
    8.360     2381
    8.375     2432
    8.390     2457
    8.405     2551
    8.420     2717
    8.435     2861
    8.450     2795
    8.465     2697
    8.480     2598
    8.495     2479
    8.510     2425
    8.525     2355
    8.540     2396
    8.555     2475
    8.570     2555
    8.585     2574
    8.600     2544
    8.615     2777
    8.630     2763
    8.645     2927
    8.660     3094
    8.675     3292
    8.690     3562
    8.705     3875
    8.720     4009
    8.735     3869
    8.750     3715
    8.765     3502
    8.780     3493
    8.795     3533
    8.810     3677
    8.825     3906
    8.840     4306
    8.855     4960
    8.870     5403
    8.885     5829
    8.900     5707
    8.915     5570
    8.930     4967
    8.945     4538
    8.960     4171
    8.975     3787
    8.990     3607
    9.005     3442
    9.020     3561
    9.035     3541
    9.050     3820
    9.065     4110
    9.080     4368
    9.095     4413
    9.110     4910
    9.125     5458
    9.140     5599
    9.155     6363
    9.170     6843
    9.185     7788
    9.200     8862
    9.215     9735
    9.230    11206
    9.245    12288
    9.260    13393
    9.275    11510
    9.290     9817
    9.305     7530
    9.320     5217
    9.335     3545
    9.350     2924
    9.365     2547
    9.380     2558
    9.395     2562
    9.410     2584
    9.425     2775
    9.440     2832
    9.455     2907
    9.470     3008
    9.485     3452
    9.500     3648
    9.515     4083
    9.530     4418
    9.545     4783
    9.560     4692
    9.575     4551
    9.590     3928
    9.605     3491
    9.620     2900
    9.635     2636
    9.650     2427
    9.665     2606
    9.680     2646
    9.695     2664
    9.710     2609
    9.725     2772
    9.740     2630
    9.755     2498
    9.770     2131
    9.785     2152
    9.800     2179
    9.815     2151
    9.830     2128
    9.845     2139
    9.860     2212
    9.875     2357
    9.890     2374
    9.905     2259
    9.920     2260
    9.935     2418
    9.950     2354
    9.965     2400
    9.980     2431
    9.995     2384
   10.010     2448
   10.025     2358
   10.040     2312
   10.055     2193
   10.070     2302
   10.085     2428
   10.100     2672
   10.115     2709
   10.130     2849
   10.145     2848
   10.160     2899
   10.175     2822
   10.190     2568
   10.205     2406
   10.220     2230
   10.235     2110
   10.250     2050
   10.265     2083
   10.280     2180
   10.295     2100
   10.310     1939
   10.325     1970
   10.340     2054
   10.355     2046
   10.370     2069
   10.385     2117
   10.400     2072
   10.415     2123
   10.430     2119
   10.445     2134
   10.460     2147
   10.475     2272
   10.490     2252
   10.505     2191
   10.520     2170
   10.535     2118
   10.550     2070
   10.565     2061
   10.580     2136
   10.595     2108
   10.610     2079
   10.625     2104
   10.640     2131
   10.655     2133
   10.670     2141
   10.685     2200
   10.700     2208
   10.715     2313
   10.730     2262
   10.745     2168
   10.760     2210
   10.775     2180
   10.790     2090
   10.805     2112
   10.820     2120
   10.835     2080
   10.850     2067
   10.865     2125
   10.880     2111
   10.895     2228
   10.910     2276
   10.925     2275
   10.940     2301
   10.955     2235
   10.970     2161
   10.985     2216
   11.000     2257
   11.015     2342
   11.030     2315
   11.045     2323
   11.060     2398
   11.075     2357
   11.090     2314
   11.105     2264
   11.120     2222
   11.135     2199
   11.150     2227
   11.165     2280
   11.180     2240
   11.195     2317
   11.210     2324
   11.225     2321
   11.240     2223
   11.255     2192
   11.270     2274
   11.285     2262
   11.300     2173
   11.315     2115
   11.330     2128
   11.345     2212
   11.360     2277
   11.375     2127
   11.390     2230
   11.405     2147
   11.420     2180
   11.435     2157
   11.450     2151
   11.465     2122
   11.480     2173
   11.495     2182
   11.510     2260
   11.525     2262
   11.540     2303
   11.555     2396
   11.570     2220
   11.585     2179
   11.600     2216
   11.615     2036
   11.630     2062
   11.645     2144
   11.660     2161
   11.675     2254
   11.690     2153
   11.705     2229
   11.720     2311
   11.735     2196
   11.750     2184
   11.765     2277
   11.780     2202
   11.795     2314
   11.810     2172
   11.825     2180
   11.840     2157
   11.855     2233
   11.870     2273
   11.885     2175
   11.900     2261
   11.915     2155
   11.930     2232
   11.945     2219
   11.960     2131
   11.975     2195
   11.990     2152
   12.005     2130
   12.020     2165
   12.035     2154
   12.050     2203
   12.065     2196
   12.080     2194
   12.095     2227
   12.110     2205
   12.125     2226
   12.140     2205
   12.155     2226
   12.170     2277
   12.185     2318
   12.200     2368
   12.215     2373
   12.230     2394
   12.245     2454
   12.260     2519
   12.275     2529
   12.290     2518
   12.305     2673
   12.320     2774
   12.335     2838
   12.350     2900
   12.365     3137
   12.380     3448
   12.395     3756
   12.410     4072
   12.425     4290
   12.440     4621
   12.455     4773
   12.470     4522
   12.485     4078
   12.500     3519
   12.515     3017
   12.530     2554
   12.545     2389
   12.560     2329
   12.575     2363
   12.590     2261
   12.605     2250
   12.620     2299
   12.635     2273
   12.650     2202
   12.665     2280
   12.680     2206
   12.695     2224
   12.710     2302
   12.725     2309
   12.740     2348
   12.755     2274
   12.770     2278
   12.785     2279
   12.800     2335
   12.815     2246
   12.830     2325
   12.845     2341
   12.860     2314
   12.875     2295
   12.890     2396
   12.905     2283
   12.920     2289
   12.935     2214
   12.950     2253
   12.965     2451
   12.980     2337
   12.995     2305
   13.010     2289
   13.025     2395
   13.040     2377
   13.055     2352
   13.070     2397
   13.085     2309
   13.100     2422
   13.115     2330
   13.130     2329
   13.145     2321
   13.160     2233
   13.175     2333
   13.190     2411
   13.205     2251
   13.220     2321
   13.235     2306
   13.250     2264
   13.265     2321
   13.280     2302
   13.295     2300
   13.310     2274
   13.325     2380
   13.340     2385
   13.355     2296
   13.370     2443
   13.385     2407
   13.400     2402
   13.415     2321
   13.430     2382
   13.445     2296
   13.460     2366
   13.475     2288
   13.490     2258
   13.505     2441
   13.520     2328
   13.535     2435
   13.550     2532
   13.565     2360
   13.580     2510
   13.595     2513
   13.610     2518
   13.625     2571
   13.640     2498
   13.655     2621
   13.670     2642
   13.685     2699
   13.700     2797
   13.715     2963
   13.730     3043
   13.745     3065
   13.760     3406
   13.775     3469
   13.790     3314
   13.805     3433
   13.820     3347
   13.835     3178
   13.850     2947
   13.865     2793
   13.880     2590
   13.895     2460
   13.910     2438
   13.925     2405
   13.940     2408
   13.955     2414
   13.970     2536
   13.985     2407
   14.000     2430
   14.015     2519
   14.030     2519
   14.045     2539
   14.060     2493
   14.075     2530
   14.090     2420
   14.105     2509
   14.120     2470
   14.135     2492
   14.150     2627
   14.165     2537
   14.180     2358
   14.195     2405
   14.210     2466
   14.225     2536
   14.240     2467
   14.255     2608
   14.270     2436
   14.285     2484
   14.300     2552
   14.315     2462
   14.330     2591
   14.345     2730
   14.360     2592
   14.375     2644
   14.390     2627
   14.405     2621
   14.420     2676
   14.435     2761
   14.450     2661
   14.465     2610
   14.480     2568
   14.495     2518
   14.510     2596
   14.525     2660
   14.540     2639
   14.555     2718
   14.570     2675
   14.585     2591
   14.600     2539
   14.615     2706
   14.630     2662
   14.645     2673
   14.660     2614
   14.675     2667
   14.690     2640
   14.705     2687
   14.720     2737
   14.735     2629
   14.750     2591
   14.765     2543
   14.780     2688
   14.795     2688
   14.810     2769
   14.825     2743
   14.840     2731
   14.855     2851
   14.870     2789
   14.885     2857
   14.900     2851
   14.915     2851
   14.930     2747
   14.945     2861
   14.960     2921
   14.975     2809
   14.990     2794
   15.005     2795
   15.020     2914
   15.035     2921
   15.050     2965
   15.065     2958
   15.080     2899
   15.095     2765
   15.110     2889
   15.125     2814
   15.140     2756
   15.155     2860
   15.170     2856
   15.185     2870
   15.200     2874
   15.215     2816
   15.230     2775
   15.245     2897
   15.260     2967
   15.275     2845
   15.290     2872
   15.305     2933
   15.320     2887
   15.335     2929
   15.350     2898
   15.365     2855
   15.380     2851
   15.395     2862
   15.410     2746
   15.425     2938
   15.440     2951
   15.455     2854
   15.470     2913
   15.485     2971
   15.500     3102
   15.515     3002
   15.530     2782
   15.545     2827
   15.560     2918
   15.575     2977
   15.590     2886
   15.605     3087
   15.620     3006
   15.635     3061
   15.650     2924
   15.665     3133
   15.680     3037
   15.695     2983
   15.710     2954
   15.725     3144
   15.740     3077
   15.755     3092
   15.770     3028
   15.785     3152
   15.800     3211
   15.815     3343
   15.830     3442
   15.845     3383
   15.860     3418
   15.875     3570
   15.890     3771
   15.905     3676
   15.920     3899
   15.935     4060
   15.950     3967
   15.965     3938
   15.980     3942
   15.995     3913
   16.010     3840
   16.025     3539
   16.040     3492
   16.055     3305
   16.070     3348
   16.085     3362
   16.100     3341
   16.115     3209
   16.130     3151
   16.145     3340
   16.160     3402
   16.175     3465
   16.190     3425
   16.205     3592
   16.220     3598
   16.235     3585
   16.250     3640
   16.265     3848
   16.280     3993
   16.295     3909
   16.310     3741
   16.325     3812
   16.340     3844
   16.355     3870
   16.370     3924
   16.385     4020
   16.400     3982
   16.415     4368
   16.430     4575
   16.445     4876
   16.460     5051
   16.475     5169
   16.490     5062
   16.505     4913
   16.520     4515
   16.535     4176
   16.550     3994
   16.565     3709
   16.580     3519
   16.595     3453
   16.610     3472
   16.625     3617
   16.640     3672
   16.655     3590
   16.670     3607
   16.685     3713
   16.700     3731
   16.715     3867
   16.730     3808
   16.745     3778
   16.760     3852
   16.775     3927
   16.790     3994
   16.805     4166
   16.820     4142
   16.835     4202
   16.850     4132
   16.865     4108
   16.880     4061
   16.895     3920
   16.910     3873
   16.925     3867
   16.940     3774
   16.955     3674
   16.970     3704
   16.985     3698
   17.000     3677
   17.015     3773
   17.030     3706
   17.045     3658
   17.060     3718
   17.075     3683
   17.090     3545
   17.105     3492
   17.120     3550
   17.135     3663
   17.150     3749
   17.165     3832
   17.180     3695
   17.195     3866
   17.210     3912
   17.225     3929
   17.240     3711
   17.255     3626
   17.270     3826
   17.285     3921
   17.300     3776
   17.315     3644
   17.330     3710
   17.345     3725
   17.360     3642
   17.375     3705
   17.390     3975
   17.405     3917
   17.420     3973
   17.435     3962
   17.450     3963
   17.465     3977
   17.480     3917
   17.495     3914
   17.510     4007
   17.525     3842
   17.540     4015
   17.555     4040
   17.570     3940
   17.585     3915
   17.600     4153
   17.615     3980
   17.630     4067
   17.645     4288
   17.660     4255
   17.675     4258
   17.690     4153
   17.705     4317
   17.720     4495
   17.735     4179
   17.750     4353
   17.765     4305
   17.780     3982
   17.795     4268
   17.810     4139
   17.825     4188
   17.840     4139
   17.855     4070
   17.870     4202
   17.885     3990
   17.900     3978
   17.915     3840
   17.930     4023
   17.945     4002
   17.960     3955
   17.975     4065
   17.990     4017
   18.005     4085
   18.020     4101
   18.035     4061
   18.050     4102
   18.065     4106
   18.080     4086
   18.095     3997
   18.110     4032
   18.125     4105
   18.140     3971
   18.155     4051
   18.170     4114
   18.185     4064
   18.200     4062
   18.215     4205
   18.230     4119
   18.245     4077
   18.260     4141
   18.275     4179
   18.290     4316
   18.305     4436
   18.320     4289
   18.335     4265
   18.350     4210
   18.365     4436
   18.380     4602
   18.395     4649
   18.410     4728
   18.425     4618
   18.440     4734
   18.455     4908
   18.470     5154
   18.485     5232
   18.500     5344
   18.515     5638
   18.530     5706
   18.545     5862
   18.560     6121
   18.575     6744
   18.590     7291
   18.605     7879
   18.620     9011
   18.635     9467
   18.650     9611
   18.665     9914
   18.680     9390
   18.695     8703
   18.710     7825
   18.725     7092
   18.740     6120
   18.755     5381
   18.770     5024
   18.785     4634
   18.800     4697
   18.815     4479
   18.830     4548
   18.845     4305
   18.860     4204
   18.875     4316
   18.890     4314
   18.905     4443
   18.920     4424
   18.935     4143
   18.950     4401
   18.965     4588
   18.980     4381
   18.995     4478
   19.010     4334
   19.025     4415
   19.040     4453
   19.055     4359
   19.070     4578
   19.085     4218
   19.100     4714
   19.115     4598
   19.130     4588
   19.145     4565
   19.160     4508
   19.175     4730
   19.190     5073
   19.205     5055
   19.220     5362
   19.235     5356
   19.250     5532
   19.265     5356
   19.280     5494
   19.295     5362
   19.310     4913
   19.325     4805
   19.340     4670
   19.355     4615
   19.370     4493
   19.385     4383
   19.400     4297
   19.415     4220
   19.430     4330
   19.445     4231
   19.460     4394
   19.475     4238
   19.490     4251
   19.505     4485
   19.520     4309
   19.535     4473
   19.550     4366
   19.565     4157
   19.580     4416
   19.595     4386
   19.610     4473
   19.625     4478
   19.640     4134
   19.655     4319
   19.670     4337
   19.685     4233
   19.700     4289
   19.715     4464
   19.730     4255
   19.745     4200
   19.760     4597
   19.775     4340
   19.790     4202
   19.805     4420
   19.820     4404
   19.835     4418
   19.850     4412
   19.865     4431
   19.880     4143
   19.895     4208
   19.910     4327
   19.925     4332
   19.940     4361
   19.955     4288
   19.970     4335
   19.985     4154
   20.000     4152
   20.015     4135
   20.030     4388
   20.045     4488
   20.060     4273
   20.075     4489
   20.090     4305
   20.105     4439
   20.120     4316
   20.135     4214
   20.150     4285
   20.165     4244
   20.180     4141
   20.195     4287
   20.210     4272
   20.225     4290
   20.240     4151
   20.255     4257
   20.270     4151
   20.285     4244
   20.300     4240
   20.315     4085
   20.330     4200
   20.345     4420
   20.360     4296
   20.375     4243
   20.390     4297
   20.405     4330
   20.420     4324
   20.435     4351
   20.450     4281
   20.465     4307
   20.480     4170
   20.495     4042
   20.510     4160
   20.525     4237
   20.540     4183
   20.555     4362
   20.570     4275
   20.585     4163
   20.600     4061
   20.615     4256
   20.630     4137
   20.645     4207
   20.660     4210
   20.675     4214
   20.690     4238
   20.705     4313
   20.720     4290
   20.735     4118
   20.750     4128
   20.765     4092
   20.780     4225
   20.795     4408
   20.810     4488
   20.825     4487
   20.840     4542
   20.855     4718
   20.870     4695
   20.885     4797
   20.900     4628
   20.915     4720
   20.930     4466
   20.945     4363
   20.960     4368
   20.975     4206
   20.990     4130
   21.005     4116
   21.020     4408
   21.035     4369
   21.050     4321
   21.065     4417
   21.080     4298
   21.095     4323
   21.110     4529
   21.125     4604
   21.140     4421
   21.155     4750
   21.170     4731
   21.185     4858
   21.200     4797
   21.215     4468
   21.230     4386
   21.245     4425
   21.260     4667
   21.275     4368
   21.290     4364
   21.305     4211
   21.320     4190
   21.335     4140
   21.350     4152
   21.365     4000
   21.380     4056
   21.395     4108
   21.410     3994
   21.425     4259
   21.440     4232
   21.455     4166
   21.470     4129
   21.485     4355
   21.500     4385
   21.515     4206
   21.530     4197
   21.545     4255
   21.560     4271
   21.575     4388
   21.590     4381
   21.605     4747
   21.620     4843
   21.635     5143
   21.650     5125
   21.665     5836
   21.680     6171
   21.695     6102
   21.710     6126
   21.725     6882
   21.740     6751
   21.755     6420
   21.770     5956
   21.785     5741
   21.800     5503
   21.815     5333
   21.830     4933
   21.845     4424
   21.860     4093
   21.875     4138
   21.890     4060
   21.905     3869
   21.920     3972
   21.935     3947
   21.950     3784
   21.965     3676
   21.980     3760
   21.995     3814
   22.010     3984
   22.025     3910
   22.040     3896
   22.055     3788
   22.070     3849
   22.085     3926
   22.100     4059
   22.115     3953
   22.130     3774
   22.145     3777
   22.160     3777
   22.175     3846
   22.190     3731
   22.205     3984
   22.220     4018
   22.235     3853
   22.250     3700
   22.265     3738
   22.280     3955
   22.295     3849
   22.310     3623
   22.325     3599
   22.340     3728
   22.355     3763
   22.370     3886
   22.385     3903
   22.400     3768
   22.415     3835
   22.430     3820
   22.445     3807
   22.460     3802
   22.475     3853
   22.490     3844
   22.505     3896
   22.520     3823
   22.535     3745
   22.550     3820
   22.565     3898
   22.580     3864
   22.595     3881
   22.610     3721
   22.625     3791
   22.640     3819
   22.655     3679
   22.670     3681
   22.685     3767
   22.700     3628
   22.715     3786
   22.730     3798
   22.745     3636
   22.760     3662
   22.775     3673
   22.790     3731
   22.805     3629
   22.820     3551
   22.835     3601
   22.850     3504
   22.865     3588
   22.880     3731
   22.895     3682
   22.910     3685
   22.925     3758
   22.940     3770
   22.955     3574
   22.970     3592
   22.985     3609
   23.000     3588
   23.015     3696
   23.030     3511
   23.045     3507
   23.060     3631
   23.075     3697
   23.090     3547
   23.105     3420
   23.120     3421
   23.135     3587
   23.150     3613
   23.165     3654
   23.180     3587
   23.195     3755
   23.210     3724
   23.225     3784
   23.240     3672
   23.255     3594
   23.270     3886
   23.285     3914
   23.300     3808
   23.315     3709
   23.330     3764
   23.345     3799
   23.360     3886
   23.375     3750
   23.390     3980
   23.405     3876
   23.420     3783
   23.435     3839
   23.450     3730
   23.465     3599
   23.480     3475
   23.495     3562
   23.510     3526
   23.525     3505
   23.540     3712
   23.555     3709
   23.570     3532
   23.585     3322
   23.600     3628
   23.615     3462
   23.630     3466
   23.645     3586
   23.660     3529
   23.675     3601
   23.690     3604
   23.705     3613
   23.720     3801
   23.735     3672
   23.750     3782
   23.765     3908
   23.780     3778
   23.795     3946
   23.810     3773
   23.825     3958
   23.840     3844
   23.855     3851
   23.870     3727
   23.885     3555
   23.900     3588
   23.915     3424
   23.930     3627
   23.945     3553
   23.960     3451
   23.975     3482
   23.990     3428
   24.005     3464
   24.020     3682
   24.035     3505
   24.050     3442
   24.065     3479
   24.080     3443
   24.095     3429
   24.110     3469
   24.125     3400
   24.140     3388
   24.155     3295
   24.170     3445
   24.185     3449
   24.200     3476
   24.215     3569
   24.230     3462
   24.245     3407
   24.260     3335
   24.275     3297
   24.290     3351
   24.305     3317
   24.320     3359
   24.335     3408
   24.350     3462
   24.365     3468
   24.380     3620
   24.395     3652
   24.410     3676
   24.425     3582
   24.440     3503
   24.455     3600
   24.470     3610
   24.485     3568
   24.500     3560
   24.515     3748
   24.530     3614
   24.545     3633
   24.560     3691
   24.575     3699
   24.590     3611
   24.605     3663
   24.620     3617
   24.635     3529
   24.650     3467
   24.665     3505
   24.680     3373
   24.695     3271
   24.710     3190
   24.725     3375
   24.740     3496
   24.755     3427
   24.770     3355
   24.785     3262
   24.800     3552
   24.815     3353
   24.830     3404
   24.845     3253
   24.860     3218
   24.875     3265
   24.890     3357
   24.905     3292
   24.920     3305
   24.935     3143
   24.950     3144
   24.965     3502
   24.980     3312
   24.995     3338
   25.010     3283
   25.025     3471
   25.040     3383
   25.055     3393
   25.070     3551
   25.085     3206
   25.100     3684
   25.115     3518
   25.130     3446
   25.145     3482
   25.160     3386
   25.175     3613
   25.190     3602
   25.205     3336
   25.220     3347
   25.235     3310
   25.250     3325
   25.265     3180
   25.280     3311
   25.295     3222
   25.310     3143
   25.325     3191
   25.340     3297
   25.355     3224
   25.370     3379
   25.385     3284
   25.400     3328
   25.415     3304
   25.430     3447
   25.445     3152
   25.460     3349
   25.475     3373
   25.490     3266
   25.505     3408
   25.520     3249
   25.535     3288
   25.550     3351
   25.565     3251
   25.580     3328
   25.595     3183
   25.610     3428
   25.625     3514
   25.640     3221
   25.655     3451
   25.670     3645
   25.685     3636
   25.700     3876
   25.715     3903
   25.730     3806
   25.745     3986
   25.760     4076
   25.775     3856
   25.790     3591
   25.805     3771
   25.820     3739
   25.835     3697
   25.850     3528
   25.865     3440
   25.880     3276
   25.895     3438
   25.910     3659
   25.925     3752
   25.940     3890
   25.955     3923
   25.970     3930
   25.985     3867
   26.000     3823
   26.015     3862
   26.030     3918
   26.045     3852
   26.060     3552
   26.075     3511
   26.090     3303
   26.105     3280
   26.120     3187
   26.135     3023
   26.150     3139
   26.165     3085
   26.180     3019
   26.195     3104
   26.210     3068
   26.225     3121
   26.240     3081
   26.255     3096
   26.270     2988
   26.285     3015
   26.300     3113
   26.315     3068
   26.330     3118
   26.345     3211
   26.360     3142
   26.375     3142
   26.390     3121
   26.405     3122
   26.420     3134
   26.435     3128
   26.450     3028
   26.465     3071
   26.480     3050
   26.495     2988
   26.510     3072
   26.525     3017
   26.540     3005
   26.555     3204
   26.570     3242
   26.585     3136
   26.600     3095
   26.615     3246
   26.630     3113
   26.645     3158
   26.660     3107
   26.675     3102
   26.690     3025
   26.705     3134
   26.720     3211
   26.735     3116
   26.750     3034
   26.765     2915
   26.780     2970
   26.795     3038
   26.810     3032
   26.825     2993
   26.840     2948
   26.855     3098
   26.870     3109
   26.885     3141
   26.900     2979
   26.915     3157
   26.930     2961
   26.945     3010
   26.960     3103
   26.975     2968
   26.990     2914
   27.005     3013
   27.020     3062
   27.035     2994
   27.050     3076
   27.065     3079
   27.080     3086
   27.095     3061
   27.110     3091
   27.125     3133
   27.140     2976
   27.155     3092
   27.170     3027
   27.185     3012
   27.200     3100
   27.215     3024
   27.230     2970
   27.245     2973
   27.260     3290
   27.275     3139
   27.290     3132
   27.305     3040
   27.320     2968
   27.335     3015
   27.350     3104
   27.365     2939
   27.380     2946
   27.395     2977
   27.410     2886
   27.425     3105
   27.440     3023
   27.455     2885
   27.470     2837
   27.485     3047
   27.500     3155
   27.515     3023
   27.530     2964
   27.545     2967
   27.560     2904
   27.575     2933
   27.590     2915
   27.605     2977
   27.620     3013
   27.635     3036
   27.650     2967
   27.665     3158
   27.680     3126
   27.695     3034
   27.710     2939
   27.725     3256
   27.740     3228
   27.755     3187
   27.770     3105
   27.785     3138
   27.800     3247
   27.815     3367
   27.830     3459
   27.845     3316
   27.860     3285
   27.875     3487
   27.890     3386
   27.905     3249
   27.920     3270
   27.935     3295
   27.950     3187
   27.965     3106
   27.980     3136
   27.995     3082
   28.010     3163
   28.025     3066
   28.040     3086
   28.055     3031
   28.070     3152
   28.085     3323
   28.100     3450
   28.115     3583
   28.130     3461
   28.145     3578
   28.160     3715
   28.175     3923
   28.190     3792
   28.205     3932
   28.220     3941
   28.235     3749
   28.250     3455
   28.265     3262
   28.280     3346
   28.295     3242
   28.310     3013
   28.325     2908
   28.340     3008
   28.355     2931
   28.370     3005
   28.385     3047
   28.400     2891
   28.415     2919
   28.430     2968
   28.445     2971
   28.460     2951
   28.475     2963
   28.490     2874
   28.505     2899
   28.520     2891
   28.535     2844
   28.550     2822
   28.565     2878
   28.580     2875
   28.595     2833
   28.610     2840
   28.625     2825
   28.640     2875
   28.655     2889
   28.670     2854
   28.685     2931
   28.700     2909
   28.715     3011
   28.730     3016
   28.745     2926
   28.760     3019
   28.775     3016
   28.790     2995
   28.805     3032
   28.820     2978
   28.835     2950
   28.850     2819
   28.865     2856
   28.880     2896
   28.895     2932
   28.910     2979
   28.925     2956
   28.940     2976
   28.955     2826
   28.970     2878
   28.985     2824
   29.000     2825
   29.015     2882
   29.030     2748
   29.045     2811
   29.060     2964
   29.075     3000
   29.090     2894
   29.105     2824
   29.120     2777
   29.135     2821
   29.150     2915
   29.165     2918
   29.180     2774
   29.195     2867
   29.210     2881
   29.225     2825
   29.240     2708
   29.255     2728
   29.270     2884
   29.285     2943
   29.300     2831
   29.315     2753
   29.330     2753
   29.345     2790
   29.360     2827
   29.375     2840
   29.390     2941
   29.405     3020
   29.420     2917
   29.435     2902
   29.450     3023
   29.465     3037
   29.480     2996
   29.495     2978
   29.510     2999
   29.525     3013
   29.540     3042
   29.555     3085
   29.570     2869
   29.585     2775
   29.600     3007
   29.615     2838
   29.630     2844
   29.645     2920
   29.660     2827
   29.675     2858
   29.690     2646
   29.705     2754
   29.720     2913
   29.735     2785
   29.750     2755
   29.765     2908
   29.780     2709
   29.795     2862
   29.810     2715
   29.825     2788
   29.840     2750
   29.855     2799
   29.870     2826
   29.885     2626
   29.900     2687
   29.915     2571
   29.930     2700
   29.945     2645
   29.960     2580
   29.975     2614
   29.990     2619
   30.005     2627
   30.020     2752
   30.035     2754
   30.050     2635
   30.065     2620
   30.080     2625
   30.095     2642
   30.110     2688
   30.125     2694
   30.140     2612
   30.155     2587
   30.170     2606
   30.185     2574
   30.200     2717
   30.215     2795
   30.230     2720
   30.245     2683
   30.260     2599
   30.275     2627
   30.290     2649
   30.305     2676
   30.320     2682
   30.335     2618
   30.350     2629
   30.365     2590
   30.380     2686
   30.395     2703
   30.410     2699
   30.425     2708
   30.440     2672
   30.455     2678
   30.470     2774
   30.485     2744
   30.500     2662
   30.515     2709
   30.530     2636
   30.545     2692
   30.560     2745
   30.575     2779
   30.590     2814
   30.605     2833
   30.620     2911
   30.635     2813
   30.650     2750
   30.665     2920
   30.680     2839
   30.695     2851
   30.710     2817
   30.725     2873
   30.740     2838
   30.755     2791
   30.770     2766
   30.785     2647
   30.800     2681
   30.815     2558
   30.830     2608
   30.845     2611
   30.860     2591
   30.875     2622
   30.890     2729
   30.905     2589
   30.920     2546
   30.935     2517
   30.950     2525
   30.965     2756
   30.980     2635
   30.995     2695
   31.010     2573
   31.025     2734
   31.040     2598
   31.055     2551
   31.070     2759
   31.085     2564
   31.100     2800
   31.115     2609
   31.130     2560
   31.145     2579
   31.160     2503
   31.175     2574
   31.190     2638
   31.205     2514
   31.220     2461
   31.235     2542
   31.250     2437
   31.265     2484
   31.280     2534
   31.295     2551
   31.310     2492
   31.325     2484
   31.340     2581
   31.355     2524
   31.370     2578
   31.385     2612
   31.400     2495
   31.415     2539
   31.430     2537
   31.445     2451
   31.460     2584
   31.475     2553
   31.490     2467
   31.505     2551
   31.520     2433
   31.535     2548
   31.550     2554
   31.565     2544
   31.580     2626
   31.595     2482
   31.610     2540
   31.625     2609
   31.640     2435
   31.655     2487
   31.670     2431
   31.685     2497
   31.700     2490
   31.715     2522
   31.730     2404
   31.745     2420
   31.760     2520
   31.775     2442
   31.790     2342
   31.805     2512
   31.820     2511
   31.835     2453
   31.850     2479
   31.865     2400
   31.880     2336
   31.895     2411
   31.910     2419
   31.925     2401
   31.940     2460
   31.955     2468
   31.970     2515
   31.985     2362
   32.000     2348
   32.015     2453
   32.030     2570
   32.045     2466
   32.060     2447
   32.075     2528
   32.090     2367
   32.105     2488
   32.120     2444
   32.135     2415
   32.150     2469
   32.165     2386
   32.180     2416
   32.195     2474
   32.210     2439
   32.225     2563
   32.240     2461
   32.255     2536
   32.270     2472
   32.285     2607
   32.300     2760
   32.315     2712
   32.330     2863
   32.345     3102
   32.360     3027
   32.375     3069
   32.390     3089
   32.405     2999
   32.420     2991
   32.435     3068
   32.450     2962
   32.465     2855
   32.480     2707
   32.495     2650
   32.510     2688
   32.525     2685
   32.540     2733
   32.555     2782
   32.570     2841
   32.585     2839
   32.600     2732
   32.615     2806
   32.630     2690
   32.645     2697
   32.660     2645
   32.675     2617
   32.690     2591
   32.705     2574
   32.720     2569
   32.735     2507
   32.750     2460
   32.765     2387
   32.780     2450
   32.795     2405
   32.810     2450
   32.825     2368
   32.840     2424
   32.855     2505
   32.870     2472
   32.885     2489
   32.900     2476
   32.915     2453
   32.930     2364
   32.945     2412
   32.960     2510
   32.975     2434
   32.990     2390
   33.005     2417
   33.020     2451
   33.035     2421
   33.050     2532
   33.065     2462
   33.080     2446
   33.095     2279
   33.110     2450
   33.125     2339
   33.140     2272
   33.155     2418
   33.170     2378
   33.185     2405
   33.200     2400
   33.215     2375
   33.230     2354
   33.245     2358
   33.260     2535
   33.275     2349
   33.290     2451
   33.305     2483
   33.320     2527
   33.335     2605
   33.350     2659
   33.365     2670
   33.380     2751
   33.395     2652
   33.410     2622
   33.425     2695
   33.440     2694
   33.455     2562
   33.470     2465
   33.485     2602
   33.500     2619
   33.515     2419
   33.530     2358
   33.545     2309
   33.560     2345
   33.575     2350
   33.590     2297
   33.605     2393
   33.620     2386
   33.635     2408
   33.650     2428
   33.665     2548
   33.680     2505
   33.695     2351
   33.710     2354
   33.725     2437
   33.740     2443
   33.755     2520
   33.770     2341
   33.785     2460
   33.800     2480
   33.815     2445
   33.830     2451
   33.845     2438
   33.860     2384
   33.875     2588
   33.890     2484
   33.905     2325
   33.920     2391
   33.935     2438
   33.950     2251
   33.965     2271
   33.980     2325
   33.995     2349
   34.010     2445
   34.025     2401
   34.040     2439
   34.055     2420
   34.070     2439
   34.085     2558
   34.100     2717
   34.115     2660
   34.130     2569
   34.145     2575
   34.160     2608
   34.175     2676
   34.190     2515
   34.205     2615
   34.220     2598
   34.235     2445
   34.250     2444
   34.265     2429
   34.280     2481
   34.295     2280
   34.310     2206
   34.325     2339
   34.340     2403
   34.355     2464
   34.370     2604
   34.385     2605
   34.400     2443
   34.415     2595
   34.430     2601
   34.445     2537
   34.460     2486
   34.475     2550
   34.490     2411
   34.505     2416
   34.520     2362
   34.535     2333
   34.550     2240
   34.565     2296
   34.580     2294
   34.595     2267
   34.610     2216
   34.625     2201
   34.640     2153
   34.655     2186
   34.670     2171
   34.685     2172
   34.700     2154
   34.715     2264
   34.730     2286
   34.745     2203
   34.760     2181
   34.775     2217
   34.790     2203
   34.805     2189
   34.820     2189
   34.835     2204
   34.850     2142
   34.865     2106
   34.880     2082
   34.895     2189
   34.910     2271
   34.925     2246
   34.940     2235
   34.955     2174
   34.970     2208
   34.985     2237
   35.000     2270
   35.015     2298
   35.030     2236
   35.045     2210
   35.060     2296
   35.075     2369
   35.090     2315
   35.105     2304
   35.120     2232
   35.135     2299
   35.150     2331
   35.165     2299
   35.180     2240
   35.195     2292
   35.210     2241
   35.225     2252
   35.240     2148
   35.255     2194
   35.270     2400
   35.285     2327
   35.300     2225
   35.315     2178
   35.330     2173
   35.345     2243
   35.360     2202
   35.375     2118
   35.390     2192
   35.405     2261
   35.420     2213
   35.435     2194
   35.450     2185
   35.465     2162
   35.480     2174
   35.495     2159
   35.510     2160
   35.525     2278
   35.540     2204
   35.555     2220
   35.570     2113
   35.585     2169
   35.600     2201
   35.615     2111
   35.630     2131
   35.645     2240
   35.660     2201
   35.675     2258
   35.690     2229
   35.705     2266
   35.720     2317
   35.735     2219
   35.750     2232
   35.765     2315
   35.780     2149
   35.795     2278
   35.810     2162
   35.825     2110
   35.840     2123
   35.855     2093
   35.870     2181
   35.885     2114
   35.900     2063
   35.915     2001
   35.930     2151
   35.945     2169
   35.960     2053
   35.975     2050
   35.990     2090
   36.005     2042
   36.020     2134
   36.035     2130
   36.050     2046
   36.065     2004
   36.080     2063
   36.095     1985
   36.110     2046
   36.125     2051
   36.140     2036
   36.155     2093
   36.170     2061
   36.185     2064
   36.200     2132
   36.215     2136
   36.230     2041
   36.245     2033
   36.260     2101
   36.275     2151
   36.290     2160
   36.305     2066
   36.320     2046
   36.335     2111
   36.350     2085
   36.365     2059
   36.380     2141
   36.395     2128
   36.410     2164
   36.425     2075
   36.440     2073
   36.455     2042
   36.470     2126
   36.485     2145
   36.500     2066
   36.515     2148
   36.530     2083
   36.545     2104
   36.560     2124
   36.575     2182
   36.590     2240
   36.605     2259
   36.620     2246
   36.635     2263
   36.650     2185
   36.665     2237
   36.680     2164
   36.695     2208
   36.710     2260
   36.725     2227
   36.740     2296
   36.755     2266
   36.770     2240
   36.785     2159
   36.800     2218
   36.815     2102
   36.830     2123
   36.845     2094
   36.860     2112
   36.875     2005
   36.890     2112
   36.905     2033
   36.920     2068
   36.935     2019
   36.950     1977
   36.965     2191
   36.980     2127
   36.995     2011
   37.010     2067
   37.025     2080
   37.040     1977
   37.055     2140
   37.070     2053
   37.085     2021
   37.100     2071
   37.115     2020
   37.130     2126
   37.145     2068
   37.160     2036
   37.175     2101
   37.190     2139
   37.205     2046
   37.220     2102
   37.235     2118
   37.250     2116
   37.265     2042
   37.280     2089
   37.295     2136
   37.310     2037
   37.325     1995
   37.340     2039
   37.355     2046
   37.370     2264
   37.385     2077
   37.400     2140
   37.415     2164
   37.430     2081
   37.445     2123
   37.460     2100
   37.475     2158
   37.490     2190
   37.505     2310
   37.520     2194
   37.535     2258
   37.550     2298
   37.565     2237
   37.580     2229
   37.595     2117
   37.610     2239
   37.625     2290
   37.640     2130
   37.655     2069
   37.670     2046
   37.685     2019
   37.700     2062
   37.715     2011
   37.730     2024
   37.745     2027
   37.760     2122
   37.775     2126
   37.790     2048
   37.805     2185
   37.820     2156
   37.835     2221
   37.850     2242
   37.865     2229
   37.880     2164
   37.895     2214
   37.910     2318
   37.925     2309
   37.940     2302
   37.955     2304
   37.970     2340
   37.985     2197
   38.000     2150
   38.015     2201
   38.030     2287
   38.045     2223
   38.060     2142
   38.075     2151
   38.090     2077
   38.105     2109
   38.120     1971
   38.135     2005
   38.150     2106
   38.165     2083
   38.180     1965
   38.195     2005
   38.210     2126
   38.225     2112
   38.240     2092
   38.255     2117
   38.270     1989
   38.285     1976
   38.300     2000
   38.315     1939
   38.330     2084
   38.345     2162
   38.360     2041
   38.375     2105
   38.390     2105
   38.405     2102
   38.420     2055
   38.435     2121
   38.450     2119
   38.465     2030
   38.480     2050
   38.495     2000
   38.510     1980
   38.525     1993
   38.540     1995
   38.555     2038
   38.570     2045
   38.585     2050
   38.600     2024
   38.615     2042
   38.630     1971
   38.645     1976
   38.660     1973
   38.675     2046
   38.690     2063
   38.705     2031
   38.720     2000
   38.735     1937
   38.750     2005
   38.765     1973
   38.780     2036
   38.795     2028
   38.810     2058
   38.825     2050
   38.840     1986
   38.855     2048
   38.870     2043
   38.885     2079
   38.900     1977
   38.915     2086
   38.930     1986
   38.945     1947
   38.960     2045
   38.975     2039
   38.990     1983
   39.005     1978
   39.020     2033
   39.035     2039
   39.050     2088
   39.065     2030
   39.080     2043
   39.095     1935
   39.110     2016
   39.125     2030
   39.140     1959
   39.155     2119
   39.170     2072
   39.185     1984
   39.200     2055
   39.215     2060
   39.230     2022
   39.245     2013
   39.260     2167
   39.275     1964
   39.290     2112
   39.305     2042
   39.320     2008
   39.335     2038
   39.350     2065
   39.365     2048
   39.380     2059
   39.395     2072
   39.410     1908
   39.425     2003
   39.440     1983
   39.455     1924
   39.470     1940
   39.485     2036
   39.500     2080
   39.515     1947
   39.530     1862
   39.545     1916
   39.560     1966
   39.575     1923
   39.590     1922
   39.605     1963
   39.620     1974
   39.635     2055
   39.650     1939
   39.665     2033
   39.680     2061
   39.695     2007
   39.710     1900
   39.725     1965
   39.740     2007
   39.755     1987
   39.770     1980
   39.785     2034
   39.800     2109
   39.815     2065
   39.830     2026
   39.845     2045
   39.860     2037
   39.875     2096
   39.890     2058
   39.905     1965
   39.920     2046
   39.935     2142
   39.950     1981
   39.965     2007
   39.980     2060
   39.995     2012
   40.010     2110
   40.025     2104
   40.040     2078
   40.055     2000
   40.070     2075
   40.085     2140
   40.100     2176
   40.115     2135
   40.130     2050
   40.145     2098
   40.160     2090
   40.175     2115
   40.190     1980
   40.205     2042
   40.220     1979
   40.235     2062
   40.250     2077
   40.265     2046
   40.280     2045
   40.295     1956
   40.310     1934
   40.325     1964
   40.340     2024
   40.355     2054
   40.370     2075
   40.385     2062
   40.400     1977
   40.415     2078
   40.430     2122
   40.445     2206
   40.460     2261
   40.475     2323
   40.490     2292
   40.505     2354
   40.520     2362
   40.535     2359
   40.550     2442
   40.565     2474
   40.580     2419
   40.595     2379
   40.610     2298
   40.625     2332
   40.640     2287
   40.655     2267
   40.670     2136
   40.685     2165
   40.700     2075
   40.715     2169
   40.730     2194
   40.745     2092
   40.760     2107
   40.775     2101
   40.790     2058
   40.805     2103
   40.820     2027
   40.835     2020
   40.850     2004
   40.865     1996
   40.880     2056
   40.895     2109
   40.910     2088
   40.925     2100
   40.940     2075
   40.955     1997
   40.970     2028
   40.985     2005
   41.000     2014
   41.015     2010
   41.030     2043
   41.045     2063
   41.060     2039
   41.075     2084
   41.090     2074
   41.105     2051
   41.120     2064
   41.135     2127
   41.150     2098
   41.165     2048
   41.180     2014
   41.195     2100
   41.210     2123
   41.225     2065
   41.240     1974
   41.255     1976
   41.270     2092
   41.285     2072
   41.300     2031
   41.315     2016
   41.330     2013
   41.345     2083
   41.360     2014
   41.375     1961
   41.390     2067
   41.405     2117
   41.420     2049
   41.435     2035
   41.450     2101
   41.465     2034
   41.480     2034
   41.495     2113
   41.510     2155
   41.525     2160
   41.540     2310
   41.555     2323
   41.570     2310
   41.585     2275
   41.600     2318
   41.615     2340
   41.630     2301
   41.645     2446
   41.660     2348
   41.675     2420
   41.690     2383
   41.705     2373
   41.720     2511
   41.735     2386
   41.750     2282
   41.765     2268
   41.780     2182
   41.795     2319
   41.810     2174
   41.825     2199
   41.840     2171
   41.855     2209
   41.870     2215
   41.885     2206
   41.900     2230
   41.915     2097
   41.930     2211
   41.945     2241
   41.960     2169
   41.975     2211
   41.990     2157
   42.005     2199
   42.020     2260
   42.035     2182
   42.050     2210
   42.065     2230
   42.080     2157
   42.095     2102
   42.110     2061
   42.125     2101
   42.140     2093
   42.155     2118
   42.170     2069
   42.185     2088
   42.200     2180
   42.215     2190
   42.230     2145
   42.245     2116
   42.260     2117
   42.275     2150
   42.290     2115
   42.305     2143
   42.320     2174
   42.335     2122
   42.350     2073
   42.365     2019
   42.380     2095
   42.395     2139
   42.410     2166
   42.425     2083
   42.440     2123
   42.455     2091
   42.470     2151
   42.485     2115
   42.500     2121
   42.515     2194
   42.530     2081
   42.545     2128
   42.560     2156
   42.575     2149
   42.590     2112
   42.605     2120
   42.620     2128
   42.635     2031
   42.650     2018
   42.665     2058
   42.680     1975
   42.695     2096
   42.710     2017
   42.725     2024
   42.740     1996
   42.755     2033
   42.770     2078
   42.785     1976
   42.800     2106
   42.815     1921
   42.830     1922
   42.845     1997
   42.860     2017
   42.875     1911
   42.890     2004
   42.905     1976
   42.920     1936
   42.935     1951
   42.950     1902
   42.965     2112
   42.980     2051
   42.995     2011
   43.010     1998
   43.025     2049
   43.040     2043
   43.055     1956
   43.070     2086
   43.085     1941
   43.100     2074
   43.115     2097
   43.130     2002
   43.145     2010
   43.160     1978
   43.175     2038
   43.190     2121
   43.205     1922
   43.220     2037
   43.235     2177
   43.250     2069
   43.265     2122
   43.280     2117
   43.295     2097
   43.310     2028
   43.325     2163
   43.340     2101
   43.355     2144
   43.370     2152
   43.385     2021
   43.400     2009
   43.415     2012
   43.430     1928
   43.445     1943
   43.460     1955
   43.475     2067
   43.490     2060
   43.505     2156
   43.520     1957
   43.535     2031
   43.550     2130
   43.565     1955
   43.580     2063
   43.595     2008
   43.610     2024
   43.625     2100
   43.640     2013
   43.655     2031
   43.670     1994
   43.685     1959
   43.700     1948
   43.715     1918
   43.730     1934
   43.745     1945
   43.760     1956
   43.775     1926
   43.790     1826
   43.805     1945
   43.820     1919
   43.835     1898
   43.850     1944
   43.865     1942
   43.880     1963
   43.895     1920
   43.910     1930
   43.925     1910
   43.940     1898
   43.955     1977
   43.970     2015
   43.985     1979
