    2.000      638
    2.015      684
    2.030      693
    2.045      699
    2.060      653
    2.075      713
    2.090      675
    2.105      669
    2.120      638
    2.135      657
    2.150      705
    2.165      710
    2.180      655
    2.195      662
    2.210      666
    2.225      678
    2.240      642
    2.255      693
    2.270      685
    2.285      675
    2.300      645
    2.315      626
    2.330      645
    2.345      663
    2.360      699
    2.375      677
    2.390      656
    2.405      652
    2.420      700
    2.435      720
    2.450      704
    2.465      714
    2.480      683
    2.495      649
    2.510      656
    2.525      689
    2.540      681
    2.555      685
    2.570      675
    2.585      619
    2.600      630
    2.615      713
    2.630      686
    2.645      675
    2.660      668
    2.675      677
    2.690      675
    2.705      684
    2.720      664
    2.735      641
    2.750      654
    2.765      615
    2.780      618
    2.795      675
    2.810      684
    2.825      631
    2.840      683
    2.855      707
    2.870      667
    2.885      695
    2.900      711
    2.915      713
    2.930      666
    2.945      703
    2.960      660
    2.975      622
    2.990      640
    3.005      644
    3.020      668
    3.035      670
    3.050      671
    3.065      739
    3.080      680
    3.095      667
    3.110      675
    3.125      682
    3.140      649
    3.155      681
    3.170      684
    3.185      692
    3.200      711
    3.215      657
    3.230      668
    3.245      653
    3.260      693
    3.275      657
    3.290      656
    3.305      683
    3.320      713
    3.335      710
    3.350      743
    3.365      707
    3.380      665
    3.395      630
    3.410      587
    3.425      668
    3.440      707
    3.455      741
    3.470      682
    3.485      695
    3.500      700
    3.515      678
    3.530      614
    3.545      630
    3.560      656
    3.575      658
    3.590      625
    3.605      647
    3.620      736
    3.635      692
    3.650      697
    3.665      669
    3.680      692
    3.695      636
    3.710      656
    3.725      684
    3.740      698
    3.755      735
    3.770      642
    3.785      609
    3.800      672
    3.815      707
    3.830      687
    3.845      688
    3.860      675
    3.875      694
    3.890      689
    3.905      655
    3.920      678
    3.935      650
    3.950      665
    3.965      660
    3.980      651
    3.995      634
    4.010      659
    4.025      650
    4.040      667
    4.055      683
    4.070      686
    4.085      667
    4.100      697
    4.115      727
    4.130      667
    4.145      664
    4.160      636
    4.175      654
    4.190      651
    4.205      684
    4.220      655
    4.235      656
    4.250      669
    4.265      658
    4.280      687
    4.295      676
    4.310      664
    4.325      635
    4.340      663
    4.355      661
    4.370      675
    4.385      681
    4.400      684
    4.415      689
    4.430      694
    4.445      662
    4.460      652
    4.475      672
    4.490      647
    4.505      650
    4.520      639
    4.535      618
    4.550      672
    4.565      727
    4.580      720
    4.595      701
    4.610      652
    4.625      671
    4.640      656
    4.655      648
    4.670      653
    4.685      657
    4.700      657
    4.715      668
    4.730      651
    4.745      670
    4.760      715
    4.775      663
    4.790      623
    4.805      650
    4.820      640
    4.835      630
    4.850      646
    4.865      688
    4.880      651
    4.895      642
    4.910      671
    4.925      671
    4.940      681
    4.955      679
    4.970      684
    4.985      615
    5.000      648
    5.015      685
    5.030      634
    5.045      626
    5.060      660
    5.075      672
    5.090      687
    5.105      637
    5.120      631
    5.135      642
    5.150      665
    5.165      641
    5.180      630
    5.195      660
    5.210      664
    5.225      650
    5.240      652
    5.255      653
    5.270      691
    5.285      706
    5.300      670
    5.315      603
    5.330      638
    5.345      669
    5.360      700
    5.375      632
    5.390      700
    5.405      676
    5.420      701
    5.435      693
    5.450      662
    5.465      640
    5.480      622
    5.495      598
    5.510      647
    5.525      633
    5.540      675
    5.555      704
    5.570      669
    5.585      632
    5.600      684
    5.615      658
    5.630      640
    5.645      679
    5.660      680
    5.675      676
    5.690      643
    5.705      646
    5.720      693
    5.735      654
    5.750      672
    5.765      653
    5.780      645
    5.795      654
    5.810      633
    5.825      634
    5.840      660
    5.855      647
    5.870      656
    5.885      631
    5.900      638
    5.915      641
    5.930      710
    5.945      657
    5.960      662
    5.975      654
    5.990      652
    6.005      668
    6.020      669
    6.035      662
    6.050      626
    6.065      698
    6.080      688
    6.095      659
    6.110      676
    6.125      646
    6.140      626
    6.155      676
    6.170      658
    6.185      623
    6.200      666
    6.215      663
    6.230      673
    6.245      650
    6.260      608
    6.275      618
    6.290      651
    6.305      689
    6.320      662
    6.335      622
    6.350      606
    6.365      616
    6.380      676
    6.395      685
    6.410      681
    6.425      672
    6.440      650
    6.455      651
    6.470      653
    6.485      675
    6.500      669
    6.515      702
    6.530      666
    6.545      668
    6.560      677
    6.575      681
    6.590      679
    6.605      665
    6.620      685
    6.635      702
    6.650      665
    6.665      672
    6.680      674
    6.695      661
    6.710      680
    6.725      676
    6.740      659
    6.755      670
    6.770      689
    6.785      669
    6.800      703
    6.815      666
    6.830      681
    6.845      700
    6.860      657
    6.875      659
    6.890      679
    6.905      687
    6.920      688
    6.935      635
    6.950      695
    6.965      731
    6.980      685
    6.995      686
    7.010      683
    7.025      691
    7.040      652
    7.055      651
    7.070      769
    7.085      621
    7.100      729
    7.115      695
    7.130      765
    7.145      644
    7.160      666
    7.175      656
    7.190      682
    7.205      629
    7.220      604
    7.235      636
    7.250      692
    7.265      672
    7.280      704
    7.295      679
    7.310      626
    7.325      669
    7.340      661
    7.355      679
    7.370      679
    7.385      657
    7.400      636
    7.415      650
    7.430      675
    7.445      629
    7.460      700
    7.475      684
    7.490      689
    7.505      700
    7.520      697
    7.535      677
    7.550      643
    7.565      685
    7.580      669
    7.595      663
    7.610      677
    7.625      680
    7.640      646
    7.655      639
    7.670      671
    7.685      719
    7.700      707
    7.715      662
    7.730      639
    7.745      679
    7.760      700
    7.775      709
    7.790      632
    7.805      696
    7.820      725
    7.835      708
    7.850      660
    7.865      696
    7.880      673
    7.895      666
    7.910      671
    7.925      654
    7.940      634
    7.955      651
    7.970      704
    7.985      687
    8.000      684
    8.015      674
    8.030      660
    8.045      694
    8.060      646
    8.075      722
    8.090      676
    8.105      734
    8.120      691
    8.135      692
    8.150      706
    8.165      694
    8.180      691
    8.195      666
    8.210      694
    8.225      725
    8.240      715
    8.255      687
    8.270      713
    8.285      699
    8.300      674
    8.315      636
    8.330      663
    8.345      733
    8.360      731
    8.375      700
    8.390      676
    8.405      669
    8.420      719
    8.435      713
    8.450      703
    8.465      690
    8.480      682
    8.495      646
    8.510      653
    8.525      683
    8.540      693
    8.555      702
    8.570      702
    8.585      686
    8.600      653
    8.615      692
    8.630      686
    8.645      678
    8.660      698
    8.675      704
    8.690      713
    8.705      719
    8.720      725
    8.735      663
    8.750      645
    8.765      642
    8.780      687
    8.795      720
    8.810      708
    8.825      695
    8.840      709
    8.855      742
    8.870      730
    8.885      758
    8.900      716
    8.915      739
    8.930      694
    8.945      707
    8.960      755
    8.975      734
    8.990      723
    9.005      686
    9.020      741
    9.035      771
    9.050      740
    9.065      794
    9.080      794
    9.095      778
    9.110      777
    9.125      845
    9.140      817
    9.155      926
    9.170      954
    9.185     1019
    9.200     1150
    9.215     1181
    9.230     1283
    9.245     1366
    9.260     1393
    9.275     1202
    9.290     1096
    9.305      972
    9.320      847
    9.335      755
    9.350      780
    9.365      760
    9.380      746
    9.395      726
    9.410      732
    9.425      757
    9.440      790
    9.455      757
    9.470      728
    9.485      817
    9.500      796
    9.515      806
    9.530      823
    9.545      771
    9.560      802
    9.575      788
    9.590      786
    9.605      783
    9.620      739
    9.635      695
    9.650      702
    9.665      756
    9.680      754
    9.695      716
    9.710      667
    9.725      724
    9.740      750
    9.755      695
    9.770      688
    9.785      701
    9.800      704
    9.815      764
    9.830      752
    9.845      702
    9.860      684
    9.875      695
    9.890      740
    9.905      719
    9.920      747
    9.935      675
    9.950      698
    9.965      724
    9.980      682
    9.995      673
   10.010      732
   10.025      721
   10.040      698
   10.055      693
   10.070      749
   10.085      742
   10.100      807
   10.115      755
   10.130      702
   10.145      711
   10.160      718
   10.175      742
   10.190      684
   10.205      676
   10.220      694
   10.235      757
   10.250      728
   10.265      698
   10.280      760
   10.295      743
   10.310      718
   10.325      673
   10.340      708
   10.355      723
   10.370      743
   10.385      784
   10.400      729
   10.415      724
   10.430      795
   10.445      792
   10.460      735
   10.475      768
   10.490      737
   10.505      748
   10.520      725
   10.535      699
   10.550      720
   10.565      739
   10.580      745
   10.595      761
   10.610      749
   10.625      755
   10.640      778
   10.655      755
   10.670      700
   10.685      697
   10.700      684
   10.715      747
   10.730      741
   10.745      747
   10.760      751
   10.775      750
   10.790      763
   10.805      760
   10.820      728
   10.835      739
   10.850      715
   10.865      748
   10.880      763
   10.895      790
   10.910      803
   10.925      792
   10.940      760
   10.955      741
   10.970      754
   10.985      744
   11.000      703
   11.015      728
   11.030      723
   11.045      725
   11.060      765
   11.075      723
   11.090      742
   11.105      698
   11.120      735
   11.135      752
   11.150      774
   11.165      762
   11.180      739
   11.195      814
   11.210      773
   11.225      843
   11.240      766
   11.255      734
   11.270      779
   11.285      779
   11.300      817
   11.315      789
   11.330      753
   11.345      731
   11.360      758
   11.375      765
   11.390      800
   11.405      764
   11.420      738
   11.435      773
   11.450      757
   11.465      781
   11.480      712
   11.495      706
   11.510      779
   11.525      746
   11.540      800
   11.555      850
   11.570      736
   11.585      740
   11.600      700
   11.615      737
   11.630      734
   11.645      828
   11.660      782
   11.675      810
   11.690      787
   11.705      778
   11.720      793
   11.735      783
   11.750      810
   11.765      809
   11.780      756
   11.795      825
   11.810      799
   11.825      810
   11.840      714
   11.855      768
   11.870      780
   11.885      705
   11.900      790
   11.915      739
   11.930      752
   11.945      738
   11.960      710
   11.975      784
   11.990      805
   12.005      778
   12.020      817
   12.035      773
   12.050      757
   12.065      791
   12.080      791
   12.095      772
   12.110      792
   12.125      795
   12.140      763
   12.155      764
   12.170      786
   12.185      815
   12.200      777
   12.215      787
   12.230      793
   12.245      767
   12.260      767
   12.275      780
   12.290      793
   12.305      844
   12.320      827
   12.335      817
   12.350      795
   12.365      828
   12.380      873
   12.395      913
   12.410      937
   12.425      972
   12.440      974
   12.455      995
   12.470      977
   12.485      912
   12.500      796
   12.515      820
   12.530      796
   12.545      784
   12.560      805
   12.575      817
   12.590      802
   12.605      825
   12.620      843
   12.635      847
   12.650      785
   12.665      828
   12.680      794
   12.695      848
   12.710      830
   12.725      853
   12.740      824
   12.755      855
   12.770      857
   12.785      830
   12.800      823
   12.815      857
   12.830      872
   12.845      863
   12.860      872
   12.875      880
   12.890      881
   12.905      859
   12.920      849
   12.935      819
   12.950      882
   12.965      904
   12.980      895
   12.995      856
   13.010      847
   13.025      867
   13.040      908
   13.055      828
   13.070      840
   13.085      831
   13.100      902
   13.115      962
   13.130      961
   13.145      921
   13.160      905
   13.175      887
   13.190      912
   13.205      833
   13.220      880
   13.235      873
   13.250      853
   13.265      827
   13.280      907
   13.295      883
   13.310      820
   13.325      878
   13.340      886
   13.355      877
   13.370      897
   13.385      895
   13.400      847
   13.415      855
   13.430      842
   13.445      797
   13.460      912
   13.475      884
   13.490      888
   13.505      910
   13.520      902
   13.535      886
   13.550      875
   13.565      914
   13.580      898
   13.595      883
   13.610      970
   13.625     1022
   13.640      878
   13.655      883
   13.670      926
   13.685      919
   13.700      953
   13.715      949
   13.730      954
   13.745     1005
   13.760     1084
   13.775     1003
   13.790      953
   13.805      972
   13.820     1009
   13.835     1023
   13.850     1007
   13.865      940
   13.880      887
   13.895      927
   13.910      932
   13.925      945
   13.940      932
   13.955      929
   13.970      919
   13.985      920
   14.000      956
   14.015      879
   14.030     1043
   14.045     1016
   14.060      993
   14.075     1004
   14.090      990
   14.105      964
   14.120      931
   14.135      954
   14.150     1012
   14.165      994
   14.180      965
   14.195      984
   14.210     1000
   14.225      987
   14.240      989
   14.255      977
   14.270      962
   14.285      955
   14.300      967
   14.315      914
   14.330      951
   14.345      991
   14.360     1020
   14.375      992
   14.390      983
   14.405     1016
   14.420     1045
   14.435     1039
   14.450     1013
   14.465     1044
   14.480     1012
   14.495      965
   14.510      981
   14.525     1041
   14.540     1015
   14.555     1008
   14.570     1050
   14.585     1003
   14.600      973
   14.615     1041
   14.630     1035
   14.645     1074
   14.660     1035
   14.675      992
   14.690     1051
   14.705     1095
   14.720     1054
   14.735     1032
   14.750      992
   14.765      966
   14.780      961
   14.795     1015
   14.810     1058
   14.825     1052
   14.840     1044
   14.855     1092
   14.870     1081
   14.885     1128
   14.900     1032
   14.915     1071
   14.930     1038
   14.945     1021
   14.960     1094
   14.975     1069
   14.990     1016
   15.005     1020
   15.020     1063
   15.035     1093
   15.050     1095
   15.065     1159
   15.080     1116
   15.095     1032
   15.110     1104
   15.125     1123
   15.140     1084
   15.155     1138
   15.170     1094
   15.185     1115
   15.200     1086
   15.215     1067
   15.230     1061
   15.245     1068
   15.260     1124
   15.275     1096
   15.290     1090
   15.305     1208
   15.320     1130
   15.335     1148
   15.350     1187
   15.365     1067
   15.380     1138
   15.395     1134
   15.410     1077
   15.425     1092
   15.440     1252
   15.455     1118
   15.470     1102
   15.485     1166
   15.500     1197
   15.515     1157
   15.530     1151
   15.545     1175
   15.560     1092
   15.575     1105
   15.590     1139
   15.605     1115
   15.620     1167
   15.635     1179
   15.650     1220
   15.665     1232
   15.680     1244
   15.695     1167
   15.710     1190
   15.725     1256
   15.740     1204
   15.755     1215
   15.770     1152
   15.785     1206
   15.800     1243
   15.815     1365
   15.830     1269
   15.845     1222
   15.860     1205
   15.875     1261
   15.890     1307
   15.905     1257
   15.920     1288
   15.935     1310
   15.950     1232
   15.965     1222
   15.980     1275
   15.995     1253
   16.010     1349
   16.025     1214
   16.040     1264
   16.055     1243
   16.070     1327
   16.085     1318
   16.100     1356
   16.115     1292
   16.130     1282
   16.145     1273
   16.160     1234
   16.175     1281
   16.190     1306
   16.205     1300
   16.220     1370
   16.235     1315
   16.250     1275
   16.265     1231
   16.280     1368
   16.295     1340
   16.310     1259
   16.325     1252
   16.340     1328
   16.355     1301
   16.370     1293
   16.385     1337
   16.400     1321
   16.415     1389
   16.430     1455
   16.445     1531
   16.460     1482
   16.475     1466
   16.490     1417
   16.505     1434
   16.520     1449
   16.535     1403
   16.550     1398
   16.565     1425
   16.580     1372
   16.595     1378
   16.610     1357
   16.625     1404
   16.640     1433
   16.655     1373
   16.670     1340
   16.685     1367
   16.700     1417
   16.715     1439
   16.730     1408
   16.745     1380
   16.760     1446
   16.775     1425
   16.790     1431
   16.805     1471
   16.820     1483
   16.835     1444
   16.850     1419
   16.865     1486
   16.880     1477
   16.895     1439
   16.910     1459
   16.925     1464
   16.940     1520
   16.955     1472
   16.970     1488
   16.985     1516
   17.000     1493
   17.015     1553
   17.030     1513
   17.045     1482
   17.060     1480
   17.075     1454
   17.090     1472
   17.105     1428
   17.120     1490
   17.135     1546
   17.150     1581
   17.165     1581
   17.180     1431
   17.195     1512
   17.210     1602
   17.225     1625
   17.240     1507
   17.255     1445
   17.270     1544
   17.285     1614
   17.300     1552
   17.315     1563
   17.330     1550
   17.345     1545
   17.360     1536
   17.375     1535
   17.390     1655
   17.405     1668
   17.420     1568
   17.435     1603
   17.450     1585
   17.465     1570
   17.480     1501
   17.495     1563
   17.510     1628
   17.525     1597
   17.540     1700
   17.555     1807
   17.570     1692
   17.585     1569
   17.600     1674
   17.615     1592
   17.630     1530
   17.645     1693
   17.660     1650
   17.675     1727
   17.690     1565
   17.705     1672
   17.720     1708
   17.735     1637
   17.750     1684
   17.765     1800
   17.780     1622
   17.795     1798
   17.810     1719
   17.825     1772
   17.840     1735
   17.855     1790
   17.870     1707
   17.885     1593
   17.900     1681
   17.915     1604
   17.930     1753
   17.945     1728
   17.960     1666
   17.975     1756
   17.990     1777
   18.005     1796
   18.020     1833
   18.035     1696
   18.050     1648
   18.065     1718
   18.080     1637
   18.095     1648
   18.110     1692
   18.125     1700
   18.140     1639
   18.155     1698
   18.170     1739
   18.185     1718
   18.200     1770
   18.215     1725
   18.230     1758
   18.245     1739
   18.260     1683
   18.275     1704
   18.290     1806
   18.305     1845
   18.320     1774
   18.335     1811
   18.350     1733
   18.365     1819
   18.380     1815
   18.395     1777
   18.410     1835
   18.425     1738
   18.440     1798
   18.455     1811
   18.470     1851
   18.485     1798
   18.500     1769
   18.515     1916
   18.530     1863
   18.545     1806
   18.560     1841
   18.575     1919
   18.590     1987
   18.605     1984
   18.620     2149
   18.635     2152
   18.650     2131
   18.665     2232
   18.680     2112
   18.695     2065
   18.710     1936
   18.725     1942
   18.740     1946
   18.755     1887
   18.770     1836
   18.785     1878
   18.800     1967
   18.815     1863
   18.830     1949
   18.845     1936
   18.860     1890
   18.875     1827
   18.890     1975
   18.905     2053
   18.920     2008
   18.935     1855
   18.950     1958
   18.965     2028
   18.980     2012
   18.995     1872
   19.010     1909
   19.025     1911
   19.040     1896
   19.055     1901
   19.070     1973
   19.085     1855
   19.100     2064
   19.115     1921
   19.130     2071
   19.145     1945
   19.160     1925
   19.175     1966
   19.190     1910
   19.205     1991
   19.220     1978
   19.235     1943
   19.250     1938
   19.265     1923
   19.280     2021
   19.295     2073
   19.310     1832
   19.325     1887
   19.340     1876
   19.355     1848
   19.370     1883
   19.385     1969
   19.400     1885
   19.415     1810
   19.430     1917
   19.445     1812
   19.460     1948
   19.475     1889
   19.490     1826
   19.505     1889
   19.520     1894
   19.535     1859
   19.550     1865
   19.565     1916
   19.580     1944
   19.595     1867
   19.610     1928
   19.625     2003
   19.640     1828
   19.655     1843
   19.670     1894
   19.685     1925
   19.700     1853
   19.715     1905
   19.730     1897
   19.745     1873
   19.760     2070
   19.775     1879
   19.790     1774
   19.805     1938
   19.820     2030
   19.835     2030
   19.850     1949
   19.865     1882
   19.880     1818
   19.895     1849
   19.910     1876
   19.925     1890
   19.940     1925
   19.955     1941
   19.970     1936
   19.985     1808
   20.000     1839
   20.015     1835
   20.030     1931
   20.045     1988
   20.060     1890
   20.075     1980
   20.090     1924
   20.105     1920
   20.120     1887
   20.135     1884
   20.150     1985
   20.165     1961
   20.180     1831
   20.195     1818
   20.210     1900
   20.225     1926
   20.240     1929
   20.255     1897
   20.270     1842
   20.285     1860
   20.300     1870
   20.315     1770
   20.330     1833
   20.345     1976
   20.360     1947
   20.375     1842
   20.390     1902
   20.405     1856
   20.420     1911
   20.435     1914
   20.450     1849
   20.465     1879
   20.480     1834
   20.495     1738
   20.510     1747
   20.525     1817
   20.540     1851
   20.555     1904
   20.570     1923
   20.585     1815
   20.600     1784
   20.615     1814
   20.630     1790
   20.645     1859
   20.660     1782
   20.675     1773
   20.690     1770
   20.705     1862
   20.720     1871
   20.735     1775
   20.750     1685
   20.765     1736
   20.780     1782
   20.795     1836
   20.810     1801
   20.825     1755
   20.840     1763
   20.855     1830
   20.870     1844
   20.885     1911
   20.900     1778
   20.915     1798
   20.930     1690
   20.945     1791
   20.960     1799
   20.975     1701
   20.990     1643
   21.005     1664
   21.020     1791
   21.035     1817
   21.050     1824
   21.065     1866
   21.080     1813
   21.095     1700
   21.110     1791
   21.125     1838
   21.140     1786
   21.155     1859
   21.170     1773
   21.185     1783
   21.200     1798
   21.215     1697
   21.230     1664
   21.245     1715
   21.260     1905
   21.275     1739
   21.290     1718
   21.305     1738
   21.320     1773
   21.335     1793
   21.350     1785
   21.365     1680
   21.380     1690
   21.395     1722
   21.410     1634
   21.425     1652
   21.440     1771
   21.455     1676
   21.470     1576
   21.485     1805
   21.500     1739
   21.515     1761
   21.530     1641
   21.545     1684
   21.560     1649
   21.575     1708
   21.590     1708
   21.605     1709
   21.620     1717
   21.635     1720
   21.650     1630
   21.665     1787
   21.680     2001
   21.695     1897
   21.710     1793
   21.725     1919
   21.740     1880
   21.755     1807
   21.770     1682
   21.785     1687
   21.800     1740
   21.815     1710
   21.830     1730
   21.845     1675
   21.860     1567
   21.875     1649
   21.890     1727
   21.905     1682
   21.920     1680
   21.935     1664
   21.950     1623
   21.965     1585
   21.980     1509
   21.995     1569
   22.010     1645
   22.025     1570
   22.040     1664
   22.055     1548
   22.070     1640
   22.085     1670
   22.100     1692
   22.115     1619
   22.130     1599
   22.145     1547
   22.160     1606
   22.175     1665
   22.190     1549
   22.205     1590
   22.220     1636
   22.235     1632
   22.250     1587
   22.265     1537
   22.280     1642
   22.295     1600
   22.310     1551
   22.325     1518
   22.340     1552
   22.355     1572
   22.370     1658
   22.385     1640
   22.400     1518
   22.415     1564
   22.430     1652
   22.445     1683
   22.460     1609
   22.475     1580
   22.490     1553
   22.505     1631
   22.520     1636
   22.535     1590
   22.550     1546
   22.565     1553
   22.580     1477
   22.595     1516
   22.610     1512
   22.625     1590
   22.640     1571
   22.655     1549
   22.670     1498
   22.685     1547
   22.700     1518
   22.715     1552
   22.730     1500
   22.745     1450
   22.760     1483
   22.775     1442
   22.790     1538
   22.805     1566
   22.820     1546
   22.835     1507
   22.850     1459
   22.865     1474
   22.880     1531
   22.895     1506
   22.910     1539
   22.925     1540
   22.940     1539
   22.955     1470
   22.970     1446
   22.985     1493
   23.000     1528
   23.015     1588
   23.030     1491
   23.045     1431
   23.060     1519
   23.075     1460
   23.090     1436
   23.105     1390
   23.120     1392
   23.135     1458
   23.150     1490
   23.165     1507
   23.180     1433
   23.195     1457
   23.210     1531
   23.225     1496
   23.240     1409
   23.255     1371
   23.270     1481
   23.285     1499
   23.300     1495
   23.315     1495
   23.330     1464
   23.345     1391
   23.360     1498
   23.375     1466
   23.390     1472
   23.405     1541
   23.420     1504
   23.435     1461
   23.450     1412
   23.465     1436
   23.480     1370
   23.495     1354
   23.510     1456
   23.525     1387
   23.540     1452
   23.555     1469
   23.570     1418
   23.585     1260
   23.600     1361
   23.615     1319
   23.630     1346
   23.645     1437
   23.660     1362
   23.675     1445
   23.690     1369
   23.705     1411
   23.720     1480
   23.735     1477
   23.750     1465
   23.765     1484
   23.780     1358
   23.795     1494
   23.810     1431
   23.825     1414
   23.840     1455
   23.855     1418
   23.870     1358
   23.885     1304
   23.900     1387
   23.915     1305
   23.930     1387
   23.945     1314
   23.960     1276
   23.975     1438
   23.990     1400
   24.005     1406
   24.020     1410
   24.035     1324
   24.050     1304
   24.065     1372
   24.080     1311
   24.095     1263
   24.110     1329
   24.125     1328
   24.140     1260
   24.155     1269
   24.170     1309
   24.185     1391
   24.200     1348
   24.215     1333
   24.230     1383
   24.245     1328
   24.260     1217
   24.275     1224
   24.290     1305
   24.305     1340
   24.320     1284
   24.335     1278
   24.350     1240
   24.365     1347
   24.380     1363
   24.395     1311
   24.410     1381
   24.425     1348
   24.440     1286
   24.455     1365
   24.470     1325
   24.485     1322
   24.500     1304
   24.515     1364
   24.530     1317
   24.545     1291
   24.560     1345
   24.575     1387
   24.590     1310
   24.605     1235
   24.620     1260
   24.635     1303
   24.650     1288
   24.665     1272
   24.680     1312
   24.695     1304
   24.710     1308
   24.725     1313
   24.740     1316
   24.755     1321
   24.770     1318
   24.785     1290
   24.800     1352
   24.815     1352
   24.830     1353
   24.845     1310
   24.860     1332
   24.875     1258
   24.890     1339
   24.905     1374
   24.920     1307
   24.935     1219
   24.950     1326
   24.965     1375
   24.980     1342
   24.995     1334
   25.010     1276
   25.025     1279
   25.040     1350
   25.055     1315
   25.070     1347
   25.085     1270
   25.100     1335
   25.115     1317
   25.130     1408
   25.145     1273
   25.160     1203
   25.175     1289
   25.190     1337
   25.205     1278
   25.220     1302
   25.235     1240
   25.250     1249
   25.265     1213
   25.280     1290
   25.295     1335
   25.310     1233
   25.325     1266
   25.340     1247
   25.355     1254
   25.370     1261
   25.385     1239
   25.400     1236
   25.415     1248
   25.430     1263
   25.445     1232
   25.460     1257
   25.475     1228
   25.490     1246
   25.505     1260
   25.520     1198
   25.535     1249
   25.550     1261
   25.565     1201
   25.580     1206
   25.595     1233
   25.610     1297
   25.625     1324
   25.640     1195
   25.655     1225
   25.670     1214
   25.685     1283
   25.700     1320
   25.715     1317
   25.730     1262
   25.745     1252
   25.760     1342
   25.775     1266
   25.790     1215
   25.805     1318
   25.820     1288
   25.835     1323
   25.850     1279
   25.865     1269
   25.880     1255
   25.895     1197
   25.910     1207
   25.925     1245
   25.940     1252
   25.955     1292
   25.970     1284
   25.985     1208
   26.000     1249
   26.015     1279
   26.030     1267
   26.045     1282
   26.060     1213
   26.075     1284
   26.090     1261
   26.105     1270
   26.120     1231
   26.135     1179
   26.150     1232
   26.165     1213
   26.180     1211
   26.195     1248
   26.210     1219
   26.225     1190
   26.240     1168
   26.255     1193
   26.270     1163
   26.285     1254
   26.300     1233
   26.315     1123
   26.330     1178
   26.345     1206
   26.360     1195
   26.375     1190
   26.390     1206
   26.405     1220
   26.420     1181
   26.435     1196
   26.450     1163
   26.465     1151
   26.480     1113
   26.495     1161
   26.510     1192
   26.525     1158
   26.540     1175
   26.555     1183
   26.570     1240
   26.585     1177
   26.600     1130
   26.615     1205
   26.630     1161
   26.645     1223
   26.660     1203
   26.675     1142
   26.690     1158
   26.705     1185
   26.720     1129
   26.735     1104
   26.750     1120
   26.765     1105
   26.780     1144
   26.795     1179
   26.810     1130
   26.825     1171
   26.840     1218
   26.855     1226
   26.870     1139
   26.885     1169
   26.900     1155
   26.915     1200
   26.930     1118
   26.945     1117
   26.960     1162
   26.975     1178
   26.990     1150
   27.005     1078
   27.020     1151
   27.035     1196
   27.050     1179
   27.065     1172
   27.080     1166
   27.095     1106
   27.110     1162
   27.125     1146
   27.140     1124
   27.155     1209
   27.170     1147
   27.185     1163
   27.200     1174
   27.215     1136
   27.230     1071
   27.245     1098
   27.260     1218
   27.275     1134
   27.290     1181
   27.305     1225
   27.320     1125
   27.335     1132
   27.350     1165
   27.365     1053
   27.380     1084
   27.395     1146
   27.410     1098
   27.425     1138
   27.440     1137
   27.455     1179
   27.470     1106
   27.485     1159
   27.500     1192
   27.515     1176
   27.530     1096
   27.545     1064
   27.560     1028
   27.575     1116
   27.590     1083
   27.605     1107
   27.620     1081
   27.635     1065
   27.650     1101
   27.665     1131
   27.680     1127
   27.695     1097
   27.710     1092
   27.725     1183
   27.740     1132
   27.755     1125
   27.770     1050
   27.785     1060
   27.800     1152
   27.815     1177
   27.830     1211
   27.845     1144
   27.860     1081
   27.875     1147
   27.890     1159
   27.905     1118
   27.920     1141
   27.935     1126
   27.950     1079
   27.965     1012
   27.980     1078
   27.995     1082
   28.010     1088
   28.025     1064
   28.040     1094
   28.055     1092
   28.070     1097
   28.085     1116
   28.100     1131
   28.115     1136
   28.130     1081
   28.145     1106
   28.160     1121
   28.175     1171
   28.190     1091
   28.205     1114
   28.220     1166
   28.235     1144
   28.250     1093
   28.265     1037
   28.280     1110
   28.295     1131
   28.310     1082
   28.325     1040
   28.340     1085
   28.355     1026
   28.370     1056
   28.385     1067
   28.400     1082
   28.415     1063
   28.430     1067
   28.445     1070
   28.460     1025
   28.475     1061
   28.490     1067
   28.505     1058
   28.520     1027
   28.535     1024
   28.550     1086
   28.565     1109
   28.580     1055
   28.595     1060
   28.610     1027
   28.625     1045
   28.640     1068
   28.655     1039
   28.670      976
   28.685     1049
   28.700     1007
   28.715     1059
   28.730     1032
   28.745     1029
   28.760     1054
   28.775     1007
   28.790     1027
   28.805     1063
   28.820     1065
   28.835     1012
   28.850      989
   28.865     1048
   28.880     1027
   28.895     1011
   28.910     1025
   28.925     1058
   28.940     1087
   28.955     1049
   28.970     1013
   28.985     1040
   29.000     1021
   29.015     1068
   29.030     1065
   29.045     1030
   29.060      997
   29.075      959
   29.090     1007
   29.105      980
   29.120     1000
   29.135     1010
   29.150     1029
   29.165     1022
   29.180      943
   29.195     1022
   29.210     1037
   29.225     1064
   29.240      983
   29.255      970
   29.270      975
   29.285     1000
   29.300     1005
   29.315      976
   29.330      972
   29.345     1001
   29.360     1039
   29.375     1010
   29.390     1013
   29.405     1030
   29.420     1038
   29.435     1052
   29.450     1043
   29.465     1031
   29.480     1013
   29.495      983
   29.510     1019
   29.525     1013
   29.540     1015
   29.555     1079
   29.570     1026
   29.585      950
   29.600     1002
   29.615      978
   29.630      937
   29.645      988
   29.660      961
   29.675      972
   29.690      960
   29.705      982
   29.720      955
   29.735      946
   29.750      998
   29.765     1031
   29.780      965
   29.795     1026
   29.810      978
   29.825      998
   29.840      992
   29.855     1007
   29.870      983
   29.885      927
   29.900      984
   29.915      905
   29.930      997
   29.945      992
   29.960      936
   29.975     1015
   29.990     1016
   30.005     1016
   30.020      955
   30.035      915
   30.050      892
   30.065      939
   30.080      903
   30.095      897
   30.110      899
   30.125      884
   30.140      896
   30.155      938
   30.170      922
   30.185      936
   30.200      914
   30.215      908
   30.230      977
   30.245      946
   30.260      889
   30.275      883
   30.290      931
   30.305      966
   30.320      917
   30.335      917
   30.350      936
   30.365      969
   30.380      980
   30.395      922
   30.410      886
   30.425      876
   30.440      896
   30.455      935
   30.470      942
   30.485      930
   30.500      923
   30.515      956
   30.530      919
   30.545      863
   30.560      916
   30.575      925
   30.590      873
   30.605      917
   30.620      947
   30.635      927
   30.650      949
   30.665      948
   30.680      936
   30.695      951
   30.710      890
   30.725      966
   30.740      924
   30.755      882
   30.770      928
   30.785      853
   30.800      970
   30.815      939
   30.830      933
   30.845      912
   30.860      914
   30.875      879
   30.890      905
   30.905      923
   30.920      914
   30.935      869
   30.950      903
   30.965      928
   30.980      970
   30.995      885
   31.010      876
   31.025      883
   31.040      907
   31.055      927
   31.070      907
   31.085      814
   31.100      949
   31.115      913
   31.130      945
   31.145      871
   31.160      834
   31.175      874
   31.190      853
   31.205      833
   31.220      862
   31.235      876
   31.250      859
   31.265      902
   31.280      910
   31.295      929
   31.310      854
   31.325      862
   31.340      822
   31.355      891
   31.370      870
   31.385      840
   31.400      812
   31.415      829
   31.430      847
   31.445      802
   31.460      866
   31.475      831
   31.490      798
   31.505      851
   31.520      884
   31.535      861
   31.550      830
   31.565      788
   31.580      842
   31.595      864
   31.610      856
   31.625      911
   31.640      816
   31.655      872
   31.670      868
   31.685      876
   31.700      848
   31.715      834
   31.730      780
   31.745      807
   31.760      877
   31.775      800
   31.790      807
   31.805      867
   31.820      863
   31.835      873
   31.850      892
   31.865      858
   31.880      795
   31.895      827
   31.910      854
   31.925      818
   31.940      826
   31.955      830
   31.970      815
   31.985      769
   32.000      822
   32.015      876
   32.030      857
   32.045      840
   32.060      815
   32.075      847
   32.090      826
   32.105      839
   32.120      829
   32.135      774
   32.150      847
   32.165      840
   32.180      782
   32.195      796
   32.210      805
   32.225      843
   32.240      838
   32.255      849
   32.270      818
   32.285      850
   32.300      844
   32.315      809
   32.330      846
   32.345      880
   32.360      882
   32.375      854
   32.390      863
   32.405      842
   32.420      854
   32.435      884
   32.450      826
   32.465      813
   32.480      796
   32.495      786
   32.510      803
   32.525      787
   32.540      794
   32.555      848
   32.570      824
   32.585      767
   32.600      808
   32.615      800
   32.630      779
   32.645      776
   32.660      725
   32.675      737
   32.690      782
   32.705      807
   32.720      792
   32.735      799
   32.750      759
   32.765      721
   32.780      725
   32.795      773
   32.810      769
   32.825      787
   32.840      780
   32.855      822
   32.870      775
   32.885      787
   32.900      793
   32.915      775
   32.930      718
   32.945      742
   32.960      776
   32.975      755
   32.990      710
   33.005      699
   33.020      752
   33.035      769
   33.050      764
   33.065      770
   33.080      821
   33.095      757
   33.110      767
   33.125      803
   33.140      760
   33.155      808
   33.170      780
   33.185      780
   33.200      779
   33.215      739
   33.230      728
   33.245      722
   33.260      791
   33.275      789
   33.290      811
   33.305      781
   33.320      827
   33.335      819
   33.350      778
   33.365      717
   33.380      753
   33.395      689
   33.410      763
   33.425      788
   33.440      814
   33.455      784
   33.470      713
   33.485      750
   33.500      741
   33.515      737
   33.530      753
   33.545      705
   33.560      689
   33.575      713
   33.590      729
   33.605      739
   33.620      738
   33.635      727
   33.650      699
   33.665      750
   33.680      768
   33.695      726
   33.710      680
   33.725      749
   33.740      782
   33.755      682
   33.770      698
   33.785      673
   33.800      676
   33.815      729
   33.830      775
   33.845      726
   33.860      699
   33.875      756
   33.890      734
   33.905      690
   33.920      696
   33.935      738
   33.950      734
   33.965      681
   33.980      674
   33.995      688
   34.010      717
   34.025      687
   34.040      692
   34.055      684
   34.070      707
   34.085      719
   34.100      790
   34.115      749
   34.130      715
   34.145      699
   34.160      713
   34.175      712
   34.190      663
   34.205      733
   34.220      713
   34.235      685
   34.250      650
   34.265      639
   34.280      676
   34.295      723
   34.310      678
   34.325      696
   34.340      687
   34.355      704
   34.370      682
   34.385      692
   34.400      678
   34.415      729
   34.430      719
   34.445      726
   34.460      759
   34.475      740
   34.490      666
   34.505      682
   34.520      687
   34.535      658
   34.550      688
   34.565      718
   34.580      698
   34.595      673
   34.610      636
   34.625      642
   34.640      672
   34.655      684
   34.670      641
   34.685      644
   34.700      659
   34.715      702
   34.730      677
   34.745      674
   34.760      687
   34.775      668
   34.790      679
   34.805      720
   34.820      709
   34.835      662
   34.850      625
   34.865      666
   34.880      629
   34.895      625
   34.910      654
   34.925      672
   34.940      648
   34.955      636
   34.970      636
   34.985      638
   35.000      649
   35.015      694
   35.030      658
   35.045      633
   35.060      668
   35.075      623
   35.090      657
   35.105      660
   35.120      629
   35.135      684
   35.150      694
   35.165      690
   35.180      603
   35.195      630
   35.210      658
   35.225      647
   35.240      630
   35.255      597
   35.270      604
   35.285      586
   35.300      614
   35.315      634
   35.330      648
   35.345      612
   35.360      634
   35.375      640
   35.390      702
   35.405      660
   35.420      634
   35.435      651
   35.450      655
   35.465      691
   35.480      667
   35.495      613
   35.510      634
   35.525      586
   35.540      657
   35.555      675
   35.570      607
   35.585      593
   35.600      617
   35.615      605
   35.630      618
   35.645      646
   35.660      595
   35.675      621
   35.690      591
   35.705      624
   35.720      681
   35.735      618
   35.750      636
   35.765      637
   35.780      590
   35.795      626
   35.810      639
   35.825      628
   35.840      619
   35.855      636
   35.870      626
   35.885      573
   35.900      594
   35.915      581
   35.930      646
   35.945      585
   35.960      553
   35.975      632
   35.990      610
   36.005      653
   36.020      643
   36.035      613
   36.050      598
   36.065      626
   36.080      600
   36.095      615
   36.110      611
   36.125      601
   36.140      610
   36.155      610
   36.170      625
   36.185      636
   36.200      606
   36.215      570
   36.230      595
   36.245      571
   36.260      591
   36.275      584
   36.290      574
   36.305      573
   36.320      598
   36.335      609
   36.350      622
   36.365      618
   36.380      602
   36.395      620
   36.410      619
   36.425      577
   36.440      579
   36.455      585
   36.470      624
   36.485      601
   36.500      564
   36.515      600
   36.530      608
   36.545      568
   36.560      580
   36.575      612
   36.590      606
   36.605      602
   36.620      599
   36.635      609
   36.650      614
   36.665      601
   36.680      600
   36.695      615
   36.710      585
   36.725      622
   36.740      606
   36.755      612
   36.770      586
   36.785      583
   36.800      647
   36.815      579
   36.830      585
   36.845      602
   36.860      569
   36.875      534
   36.890      575
   36.905      565
   36.920      590
   36.935      532
   36.950      553
   36.965      599
   36.980      577
   36.995      580
   37.010      588
   37.025      603
   37.040      599
   37.055      578
   37.070      586
   37.085      554
   37.100      617
   37.115      600
   37.130      580
   37.145      557
   37.160      579
   37.175      600
   37.190      617
   37.205      611
   37.220      600
   37.235      538
   37.250      539
   37.265      574
   37.280      606
   37.295      616
   37.310      533
   37.325      567
   37.340      588
   37.355      585
   37.370      589
   37.385      622
   37.400      577
   37.415      618
   37.430      584
   37.445      569
   37.460      543
   37.475      569
   37.490      584
   37.505      578
   37.520      577
   37.535      563
   37.550      569
   37.565      565
   37.580      562
   37.595      547
   37.610      563
   37.625      590
   37.640      552
   37.655      574
   37.670      582
   37.685      571
   37.700      579
   37.715      583
   37.730      551
   37.745      542
   37.760      600
   37.775      550
   37.790      548
   37.805      597
   37.820      597
   37.835      600
   37.850      577
   37.865      571
   37.880      551
   37.895      573
   37.910      567
   37.925      545
   37.940      522
   37.955      552
   37.970      562
   37.985      552
   38.000      564
   38.015      587
   38.030      600
   38.045      587
   38.060      534
   38.075      542
   38.090      577
   38.105      596
   38.120      568
   38.135      565
   38.150      578
   38.165      558
   38.180      556
   38.195      544
   38.210      565
   38.225      587
   38.240      602
   38.255      567
   38.270      537
   38.285      567
   38.300      577
   38.315      551
   38.330      567
   38.345      574
   38.360      572
   38.375      577
   38.390      560
   38.405      575
   38.420      587
   38.435      595
   38.450      566
   38.465      561
   38.480      550
   38.495      527
   38.510      554
   38.525      561
   38.540      543
   38.555      536
   38.570      540
   38.585      524
   38.600      524
   38.615      553
   38.630      550
   38.645      539
   38.660      537
   38.675      548
   38.690      544
   38.705      544
   38.720      555
   38.735      564
   38.750      550
   38.765      516
   38.780      526
   38.795      561
   38.810      571
   38.825      572
   38.840      537
   38.855      536
   38.870      562
   38.885      574
   38.900      542
   38.915      560
   38.930      571
   38.945      572
   38.960      597
   38.975      557
   38.990      521
   39.005      520
   39.020      575
   39.035      532
   39.050      546
   39.065      578
   39.080      564
   39.095      536
   39.110      571
   39.125      584
   39.140      534
   39.155      555
   39.170      571
   39.185      553
   39.200      579
   39.215      536
   39.230      543
   39.245      533
   39.260      565
   39.275      540
   39.290      523
   39.305      515
   39.320      573
   39.335      566
   39.350      544
   39.365      532
   39.380      520
   39.395      540
   39.410      530
   39.425      529
   39.440      551
   39.455      546
   39.470      528
   39.485      599
   39.500      575
   39.515      532
   39.530      476
   39.545      532
   39.560      504
   39.575      477
   39.590      521
   39.605      525
   39.620      585
   39.635      529
   39.650      547
   39.665      543
   39.680      537
   39.695      560
   39.710      566
   39.725      569
   39.740      537
   39.755      550
   39.770      513
   39.785      510
   39.800      543
   39.815      539
   39.830      545
   39.845      549
   39.860      512
   39.875      513
   39.890      535
   39.905      529
   39.920      527
   39.935      545
   39.950      553
   39.965      550
   39.980      545
   39.995      555
   40.010      553
   40.025      518
   40.040      515
   40.055      516
   40.070      520
   40.085      536
   40.100      570
   40.115      541
   40.130      511
   40.145      542
   40.160      557
   40.175      528
   40.190      502
   40.205      538
   40.220      533
   40.235      539
   40.250      522
   40.265      509
   40.280      551
   40.295      577
   40.310      542
   40.325      512
   40.340      540
   40.355      557
   40.370      532
   40.385      544
   40.400      516
   40.415      502
   40.430      531
   40.445      573
   40.460      551
   40.475      557
   40.490      515
   40.505      532
   40.520      564
   40.535      529
   40.550      507
   40.565      543
   40.580      546
   40.595      566
   40.610      559
   40.625      555
   40.640      529
   40.655      508
   40.670      495
   40.685      510
   40.700      524
   40.715      553
   40.730      543
   40.745      562
   40.760      545
   40.775      520
   40.790      527
   40.805      538
   40.820      541
   40.835      508
   40.850      525
   40.865      503
   40.880      506
   40.895      524
   40.910      548
   40.925      534
   40.940      548
   40.955      526
   40.970      540
   40.985      555
   41.000      567
   41.015      547
   41.030      554
   41.045      561
   41.060      545
   41.075      515
   41.090      531
   41.105      479
   41.120      507
   41.135      500
   41.150      490
   41.165      543
   41.180      480
   41.195      527
   41.210      518
   41.225      529
   41.240      507
   41.255      500
   41.270      513
   41.285      543
   41.300      529
   41.315      487
   41.330      515
   41.345      505
   41.360      536
   41.375      501
   41.390      541
   41.405      520
   41.420      499
   41.435      506
   41.450      568
   41.465      502
   41.480      478
   41.495      509
   41.510      525
   41.525      509
   41.540      506
   41.555      571
   41.570      539
   41.585      486
   41.600      539
   41.615      487
   41.630      493
   41.645      532
   41.660      541
   41.675      521
   41.690      541
   41.705      534
   41.720      539
   41.735      526
   41.750      511
   41.765      556
   41.780      514
   41.795      519
   41.810      527
   41.825      521
   41.840      515
   41.855      538
   41.870      523
   41.885      515
   41.900      517
   41.915      493
   41.930      549
   41.945      525
   41.960      514
   41.975      499
   41.990      529
   42.005      541
   42.020      531
   42.035      511
   42.050      473
   42.065      479
   42.080      507
   42.095      481
   42.110      483
   42.125      477
   42.140      488
   42.155      493
   42.170      509
   42.185      550
   42.200      546
   42.215      484
   42.230      493
   42.245      525
   42.260      520
   42.275      511
   42.290      493
   42.305      510
   42.320      493
   42.335      474
   42.350      507
   42.365      532
   42.380      513
   42.395      506
   42.410      523
   42.425      511
   42.440      462
   42.455      481
   42.470      523
   42.485      515
   42.500      482
   42.515      504
   42.530      526
   42.545      513
   42.560      505
   42.575      506
   42.590      517
   42.605      521
   42.620      490
   42.635      489
   42.650      488
   42.665      508
   42.680      486
   42.695      500
   42.710      503
   42.725      532
   42.740      502
   42.755      503
   42.770      528
   42.785      487
   42.800      508
   42.815      492
   42.830      493
   42.845      468
   42.860      483
   42.875      475
   42.890      531
   42.905      496
   42.920      497
   42.935      457
   42.950      484
   42.965      504
   42.980      513
   42.995      488
   43.010      506
   43.025      491
   43.040      480
   43.055      497
   43.070      487
   43.085      515
   43.100      553
   43.115      540
   43.130      517
   43.145      509
   43.160      470
   43.175      484
   43.190      523
   43.205      475
   43.220      481
   43.235      487
   43.250      499
   43.265      499
   43.280      503
   43.295      531
   43.310      507
   43.325      472
   43.340      518
   43.355      505
   43.370      523
   43.385      487
   43.400      472
   43.415      466
   43.430      494
   43.445      470
   43.460      492
   43.475      478
   43.490      469
   43.505      469
   43.520      528
   43.535      541
   43.550      509
   43.565      504
   43.580      506
   43.595      512
   43.610      500
   43.625      509
   43.640      496
   43.655      480
   43.670      478
   43.685      532
   43.700      534
   43.715      481
   43.730      484
   43.745      466
   43.760      500
   43.775      520
   43.790      473
   43.805      513
   43.820      496
   43.835      485
   43.850      480
   43.865      476
   43.880      437
   43.895      477
   43.910      500
   43.925      465
   43.940      459
   43.955      496
   43.970      503
   43.985      467
