    2.000      197
    2.015      195
    2.030      201
    2.045      214
    2.060      198
    2.075      208
    2.090      206
    2.105      197
    2.120      199
    2.135      203
    2.150      187
    2.165      215
    2.180      205
    2.195      196
    2.210      199
    2.225      186
    2.240      193
    2.255      204
    2.270      190
    2.285      202
    2.300      204
    2.315      193
    2.330      185
    2.345      183
    2.360      201
    2.375      200
    2.390      181
    2.405      189
    2.420      215
    2.435      207
    2.450      188
    2.465      200
    2.480      202
    2.495      197
    2.510      200
    2.525      212
    2.540      206
    2.555      208
    2.570      219
    2.585      205
    2.600      220
    2.615      246
    2.630      238
    2.645      242
    2.660      237
    2.675      257
    2.690      279
    2.705      269
    2.720      271
    2.735      244
    2.750      221
    2.765      202
    2.780      189
    2.795      195
    2.810      190
    2.825      182
    2.840      187
    2.855      204
    2.870      196
    2.885      205
    2.900      202
    2.915      218
    2.930      226
    2.945      249
    2.960      224
    2.975      225
    2.990      217
    3.005      231
    3.020      241
    3.035      227
    3.050      253
    3.065      259
    3.080      284
    3.095      260
    3.110      301
    3.125      353
    3.140      313
    3.155      346
    3.170      380
    3.185      410
    3.200      389
    3.215      318
    3.230      309
    3.245      242
    3.260      213
    3.275      220
    3.290      194
    3.305      252
    3.320      243
    3.335      274
    3.350      229
    3.365      175
    3.380      185
    3.395      197
    3.410      174
    3.425      188
    3.440      156
    3.455      154
    3.470      173
    3.485      178
    3.500      149
    3.515      166
    3.530      180
    3.545      163
    3.560      146
    3.575      158
    3.590      167
    3.605      168
    3.620      187
    3.635      177
    3.650      185
    3.665      156
    3.680      181
    3.695      182
    3.710      151
    3.725      171
    3.740      169
    3.755      188
    3.770      163
    3.785      178
    3.800      203
    3.815      177
    3.830      206
    3.845      223
    3.860      188
    3.875      209
    3.890      202
    3.905      181
    3.920      160
    3.935      151
    3.950      145
    3.965      167
    3.980      149
    3.995      159
    4.010      168
    4.025      159
    4.040      170
    4.055      162
    4.070      166
    4.085      166
    4.100      180
    4.115      166
    4.130      164
    4.145      155
    4.160      152
    4.175      185
    4.190      183
    4.205      189
    4.220      188
    4.235      177
    4.250      155
    4.265      150
    4.280      160
    4.295      160
    4.310      148
    4.325      141
    4.340      149
    4.355      163
    4.370      161
    4.385      161
    4.400      165
    4.415      163
    4.430      157
    4.445      162
    4.460      148
    4.475      147
    4.490      176
    4.505      175
    4.520      166
    4.535      181
    4.550      159
    4.565      160
    4.580      168
    4.595      178
    4.610      163
    4.625      165
    4.640      174
    4.655      163
    4.670      170
    4.685      175
    4.700      177
    4.715      209
    4.730      200
    4.745      170
    4.760      205
    4.775      197
    4.790      173
    4.805      178
    4.820      180
    4.835      160
    4.850      166
    4.865      183
    4.880      187
    4.895      187
    4.910      188
    4.925      186
    4.940      187
    4.955      193
    4.970      219
    4.985      202
    5.000      212
    5.015      243
    5.030      249
    5.045      222
    5.060      213
    5.075      194
    5.090      171
    5.105      157
    5.120      149
    5.135      139
    5.150      167
    5.165      163
    5.180      151
    5.195      153
    5.210      159
    5.225      152
    5.240      143
    5.255      149
    5.270      141
    5.285      150
    5.300      151
    5.315      144
    5.330      162
    5.345      158
    5.360      145
    5.375      187
    5.390      172
    5.405      173
    5.420      165
    5.435      224
    5.450      166
    5.465      174
    5.480      172
    5.495      177
    5.510      183
    5.525      184
    5.540      179
    5.555      169
    5.570      162
    5.585      183
    5.600      175
    5.615      145
    5.630      184
    5.645      167
    5.660      150
    5.675      195
    5.690      195
    5.705      217
    5.720      246
    5.735      217
    5.750      218
    5.765      234
    5.780      177
    5.795      195
    5.810      158
    5.825      161
    5.840      166
    5.855      163
    5.870      169
    5.885      169
    5.900      161
    5.915      139
    5.930      143
    5.945      154
    5.960      132
    5.975      155
    5.990      139
    6.005      145
    6.020      146
    6.035      153
    6.050      136
    6.065      148
    6.080      148
    6.095      155
    6.110      173
    6.125      149
    6.140      139
    6.155      158
    6.170      141
    6.185      165
    6.200      164
    6.215      153
    6.230      161
    6.245      164
    6.260      145
    6.275      135
    6.290      168
    6.305      178
    6.320      169
    6.335      156
    6.350      151
    6.365      164
    6.380      182
    6.395      169
    6.410      148
    6.425      132
    6.440      143
    6.455      143
    6.470      153
    6.485      146
    6.500      151
    6.515      161
    6.530      149
    6.545      138
    6.560      141
    6.575      169
    6.590      152
    6.605      141
    6.620      173
    6.635      162
    6.650      152
    6.665      155
    6.680      130
    6.695      150
    6.710      144
    6.725      151
    6.740      165
    6.755      150
    6.770      162
    6.785      148
    6.800      162
    6.815      164
    6.830      148
    6.845      149
    6.860      149
    6.875      147
    6.890      147
    6.905      159
    6.920      157
    6.935      137
    6.950      158
    6.965      155
    6.980      151
    6.995      168
    7.010      146
    7.025      152
    7.040      161
    7.055      165
    7.070      147
    7.085      140
    7.100      178
    7.115      165
    7.130      145
    7.145      138
    7.160      141
    7.175      158
    7.190      165
    7.205      162
    7.220      149
    7.235      143
    7.250      149
    7.265      163
    7.280      173
    7.295      164
    7.310      149
    7.325      169
    7.340      150
    7.355      156
    7.370      153
    7.385      150
    7.400      135
    7.415      150
    7.430      131
    7.445      123
    7.460      165
    7.475      124
    7.490      131
    7.505      165
    7.520      133
    7.535      140
    7.550      137
    7.565      159
    7.580      161
    7.595      142
    7.610      170
    7.625      184
    7.640      156
    7.655      148
    7.670      155
    7.685      138
    7.700      151
    7.715      166
    7.730      148
    7.745      139
    7.760      149
    7.775      129
    7.790      136
    7.805      148
    7.820      166
    7.835      158
    7.850      142
    7.865      155
    7.880      172
    7.895      151
    7.910      151
    7.925      148
    7.940      159
    7.955      170
    7.970      186
    7.985      177
    8.000      159
    8.015      150
    8.030      192
    8.045      175
    8.060      154
    8.075      164
    8.090      177
    8.105      185
    8.120      177
    8.135      173
    8.150      176
    8.165      184
    8.180      168
    8.195      194
    8.210      189
    8.225      208
    8.240      204
    8.255      249
    8.270      256
    8.285      267
    8.300      243
    8.315      237
    8.330      212
    8.345      207
    8.360      219
    8.375      208
    8.390      222
    8.405      245
    8.420      239
    8.435      237
    8.450      252
    8.465      253
    8.480      255
    8.495      240
    8.510      216
    8.525      198
    8.540      194
    8.555      190
    8.570      167
    8.585      168
    8.600      161
    8.615      177
    8.630      176
    8.645      197
    8.660      196
    8.675      195
    8.690      227
    8.705      271
    8.720      304
    8.735      303
    8.750      285
    8.765      271
    8.780      264
    8.795      259
    8.810      254
    8.825      264
    8.840      287
    8.855      321
    8.870      369
    8.885      443
    8.900      439
    8.915      445
    8.930      397
    8.945      352
    8.960      311
    8.975      251
    8.990      206
    9.005      185
    9.020      189
    9.035      161
    9.050      170
    9.065      170
    9.080      164
    9.095      165
    9.110      148
    9.125      149
    9.140      165
    9.155      185
    9.170      167
    9.185      177
    9.200      173
    9.215      150
    9.230      120
    9.245      138
    9.260      164
    9.275      183
    9.290      179
    9.305      146
    9.320      158
    9.335      146
    9.350      177
    9.365      153
    9.380      158
    9.395      145
    9.410      143
    9.425      151
    9.440      156
    9.455      153
    9.470      156
    9.485      163
    9.500      148
    9.515      171
    9.530      165
    9.545      165
    9.560      181
    9.575      163
    9.590      175
    9.605      192
    9.620      173
    9.635      183
    9.650      152
    9.665      191
    9.680      188
    9.695      173
    9.710      181
    9.725      181
    9.740      200
    9.755      198
    9.770      171
    9.785      162
    9.800      177
    9.815      168
    9.830      159
    9.845      151
    9.860      143
    9.875      168
    9.890      160
    9.905      160
    9.920      180
    9.935      171
    9.950      209
    9.965      188
    9.980      172
    9.995      198
   10.010      197
   10.025      169
   10.040      174
   10.055      178
   10.070      164
   10.085      180
   10.100      183
   10.115      194
   10.130      198
   10.145      226
   10.160      232
   10.175      239
   10.190      209
   10.205      193
   10.220      180
   10.235      194
   10.250      161
   10.265      137
   10.280      162
   10.295      146
   10.310      135
   10.325      144
   10.340      150
   10.355      169
   10.370      174
   10.385      162
   10.400      135
   10.415      155
   10.430      156
   10.445      160
   10.460      171
   10.475      165
   10.490      164
   10.505      163
   10.520      162
   10.535      154
   10.550      152
   10.565      147
   10.580      149
   10.595      163
   10.610      149
   10.625      152
   10.640      150
   10.655      157
   10.670      169
   10.685      158
   10.700      166
   10.715      178
   10.730      148
   10.745      142
   10.760      161
   10.775      172
   10.790      152
   10.805      138
   10.820      149
   10.835      146
   10.850      143
   10.865      170
   10.880      161
   10.895      150
   10.910      149
   10.925      172
   10.940      170
   10.955      168
   10.970      157
   10.985      145
   11.000      150
   11.015      151
   11.030      146
   11.045      162
   11.060      194
   11.075      183
   11.090      165
   11.105      173
   11.120      171
   11.135      168
   11.150      150
   11.165      154
   11.180      147
   11.195      163
   11.210      187
   11.225      158
   11.240      173
   11.255      147
   11.270      161
   11.285      162
   11.300      148
   11.315      143
   11.330      134
   11.345      132
   11.360      148
   11.375      140
   11.390      142
   11.405      153
   11.420      150
   11.435      166
   11.450      167
   11.465      175
   11.480      147
   11.495      165
   11.510      138
   11.525      174
   11.540      162
   11.555      165
   11.570      176
   11.585      164
   11.600      158
   11.615      150
   11.630      153
   11.645      158
   11.660      138
   11.675      143
   11.690      146
   11.705      149
   11.720      156
   11.735      152
   11.750      176
   11.765      165
   11.780      148
   11.795      147
   11.810      155
   11.825      162
   11.840      135
   11.855      156
   11.870      151
   11.885      153
   11.900      141
   11.915      144
   11.930      151
   11.945      150
   11.960      137
   11.975      136
   11.990      151
   12.005      146
   12.020      151
   12.035      155
   12.050      137
   12.065      166
   12.080      137
   12.095      133
   12.110      136
   12.125      144
   12.140      137
   12.155      156
   12.170      144
   12.185      140
   12.200      136
   12.215      141
   12.230      154
   12.245      147
   12.260      133
   12.275      143
   12.290      151
   12.305      170
   12.320      162
   12.335      137
   12.350      141
   12.365      154
   12.380      151
   12.395      152
   12.410      148
   12.425      132
   12.440      152
   12.455      159
   12.470      146
   12.485      138
   12.500      152
   12.515      161
   12.530      155
   12.545      152
   12.560      157
   12.575      164
   12.590      151
   12.605      151
   12.620      171
   12.635      136
   12.650      137
   12.665      149
   12.680      155
   12.695      150
   12.710      140
   12.725      149
   12.740      142
   12.755      161
   12.770      147
   12.785      145
   12.800      168
   12.815      139
   12.830      144
   12.845      154
   12.860      165
   12.875      141
   12.890      176
   12.905      166
   12.920      183
   12.935      135
   12.950      145
   12.965      176
   12.980      149
   12.995      174
   13.010      164
   13.025      160
   13.040      154
   13.055      160
   13.070      169
   13.085      142
   13.100      151
   13.115      145
   13.130      179
   13.145      186
   13.160      161
   13.175      150
   13.190      140
   13.205      161
   13.220      152
   13.235      158
   13.250      166
   13.265      136
   13.280      167
   13.295      160
   13.310      149
   13.325      166
   13.340      158
   13.355      150
   13.370      155
   13.385      150
   13.400      150
   13.415      134
   13.430      158
   13.445      157
   13.460      186
   13.475      170
   13.490      153
   13.505      176
   13.520      186
   13.535      169
   13.550      180
   13.565      174
   13.580      164
   13.595      168
   13.610      150
   13.625      161
   13.640      147
   13.655      152
   13.670      161
   13.685      165
   13.700      157
   13.715      167
   13.730      150
   13.745      159
   13.760      168
   13.775      159
   13.790      143
   13.805      139
   13.820      150
   13.835      159
   13.850      165
   13.865      145
   13.880      163
   13.895      145
   13.910      153
   13.925      162
   13.940      142
   13.955      128
   13.970      151
   13.985      171
   14.000      165
   14.015      157
   14.030      172
   14.045      161
   14.060      151
   14.075      147
   14.090      153
   14.105      178
   14.120      162
   14.135      159
   14.150      146
   14.165      152
   14.180      148
   14.195      165
   14.210      165
   14.225      165
   14.240      177
   14.255      174
   14.270      145
   14.285      145
   14.300      155
   14.315      145
   14.330      161
   14.345      161
   14.360      158
   14.375      169
   14.390      186
   14.405      180
   14.420      175
   14.435      164
   14.450      155
   14.465      177
   14.480      175
   14.495      160
   14.510      159
   14.525      148
   14.540      156
   14.555      170
   14.570      163
   14.585      168
   14.600      164
   14.615      168
   14.630      170
   14.645      172
   14.660      158
   14.675      166
   14.690      167
   14.705      171
   14.720      175
   14.735      164
   14.750      143
   14.765      145
   14.780      160
   14.795      172
   14.810      160
   14.825      163
   14.840      173
   14.855      183
   14.870      171
   14.885      178
   14.900      164
   14.915      180
   14.930      175
   14.945      168
   14.960      173
   14.975      162
   14.990      144
   15.005      152
   15.020      164
   15.035      175
   15.050      159
   15.065      179
   15.080      169
   15.095      169
   15.110      174
   15.125      164
   15.140      178
   15.155      177
   15.170      159
   15.185      165
   15.200      167
   15.215      171
   15.230      164
   15.245      147
   15.260      166
   15.275      190
   15.290      195
   15.305      167
   15.320      181
   15.335      196
   15.350      193
   15.365      173
   15.380      171
   15.395      177
   15.410      170
   15.425      178
   15.440      197
   15.455      173
   15.470      170
   15.485      162
   15.500      167
   15.515      195
   15.530      163
   15.545      173
   15.560      175
   15.575      190
   15.590      171
   15.605      170
   15.620      143
   15.635      176
   15.650      179
   15.665      168
   15.680      214
   15.695      201
   15.710      165
   15.725      177
   15.740      167
   15.755      163
   15.770      171
   15.785      163
   15.800      170
   15.815      180
   15.830      177
   15.845      190
   15.860      181
   15.875      183
   15.890      201
   15.905      180
   15.920      184
   15.935      195
   15.950      181
   15.965      177
   15.980      187
   15.995      186
   16.010      211
   16.025      204
   16.040      196
   16.055      194
   16.070      178
   16.085      187
   16.100      205
   16.115      185
   16.130      195
   16.145      192
   16.160      207
   16.175      201
   16.190      188
   16.205      211
   16.220      202
   16.235      215
   16.250      204
   16.265      204
   16.280      238
   16.295      259
   16.310      251
   16.325      265
   16.340      264
   16.355      239
   16.370      244
   16.385      218
   16.400      182
   16.415      188
   16.430      193
   16.445      191
   16.460      193
   16.475      197
   16.490      194
   16.505      191
   16.520      197
   16.535      179
   16.550      194
   16.565      191
   16.580      196
   16.595      200
   16.610      183
   16.625      182
   16.640      193
   16.655      196
   16.670      208
   16.685      196
   16.700      201
   16.715      194
   16.730      211
   16.745      202
   16.760      189
   16.775      190
   16.790      184
   16.805      178
   16.820      160
   16.835      187
   16.850      200
   16.865      206
   16.880      218
   16.895      190
   16.910      186
   16.925      200
   16.940      216
   16.955      217
   16.970      202
   16.985      197
   17.000      208
   17.015      218
   17.030      201
   17.045      198
   17.060      202
   17.075      181
   17.090      210
   17.105      199
   17.120      177
   17.135      194
   17.150      200
   17.165      190
   17.180      208
   17.195      211
   17.210      207
   17.225      208
   17.240      199
   17.255      186
   17.270      208
   17.285      197
   17.300      223
   17.315      206
   17.330      205
   17.345      226
   17.360      192
   17.375      196
   17.390      212
   17.405      208
   17.420      219
   17.435      207
   17.450      211
   17.465      212
   17.480      190
   17.495      228
   17.510      227
   17.525      202
   17.540      192
   17.555      205
   17.570      203
   17.585      210
   17.600      235
   17.615      223
   17.630      228
   17.645      229
   17.660      204
   17.675      227
   17.690      196
   17.705      217
   17.720      259
   17.735      257
   17.750      237
   17.765      226
   17.780      236
   17.795      212
   17.810      207
   17.825      203
   17.840      206
   17.855      231
   17.870      242
   17.885      213
   17.900      194
   17.915      214
   17.930      219
   17.945      208
   17.960      218
   17.975      211
   17.990      210
   18.005      221
   18.020      185
   18.035      207
   18.050      226
   18.065      227
   18.080      204
   18.095      213
   18.110      228
   18.125      214
   18.140      216
   18.155      216
   18.170      201
   18.185      215
   18.200      207
   18.215      221
   18.230      214
   18.245      186
   18.260      207
   18.275      213
   18.290      202
   18.305      199
   18.320      199
   18.335      225
   18.350      213
   18.365      214
   18.380      220
   18.395      203
   18.410      216
   18.425      201
   18.440      202
   18.455      206
   18.470      219
   18.485      228
   18.500      235
   18.515      234
   18.530      226
   18.545      226
   18.560      231
   18.575      254
   18.590      239
   18.605      230
   18.620      228
   18.635      208
   18.650      237
   18.665      240
   18.680      227
   18.695      222
   18.710      232
   18.725      252
   18.740      235
   18.755      223
   18.770      258
   18.785      231
   18.800      254
   18.815      249
   18.830      230
   18.845      243
   18.860      213
   18.875      248
   18.890      267
   18.905      237
   18.920      233
   18.935      202
   18.950      249
   18.965      250
   18.980      249
   18.995      229
   19.010      226
   19.025      223
   19.040      245
   19.055      261
   19.070      237
   19.085      228
   19.100      266
   19.115      244
   19.130      239
   19.145      231
   19.160      234
   19.175      237
   19.190      243
   19.205      253
   19.220      238
   19.235      221
   19.250      246
   19.265      233
   19.280      251
   19.295      230
   19.310      243
   19.325      246
   19.340      216
   19.355      258
   19.370      241
   19.385      235
   19.400      221
   19.415      242
   19.430      232
   19.445      230
   19.460      265
   19.475      261
   19.490      229
   19.505      257
   19.520      273
   19.535      241
   19.550      239
   19.565      254
   19.580      255
   19.595      246
   19.610      252
   19.625      287
   19.640      244
   19.655      244
   19.670      238
   19.685      241
   19.700      263
   19.715      250
   19.730      251
   19.745      260
   19.760      260
   19.775      265
   19.790      275
   19.805      261
   19.820      268
   19.835      260
   19.850      263
   19.865      260
   19.880      244
   19.895      245
   19.910      250
   19.925      255
   19.940      243
   19.955      251
   19.970      253
   19.985      258
   20.000      266
   20.015      289
   20.030      299
   20.045      273
   20.060      257
   20.075      266
   20.090      258
   20.105      250
   20.120      257
   20.135      272
   20.150      269
   20.165      284
   20.180      273
   20.195      260
   20.210      259
   20.225      255
   20.240      272
   20.255      260
   20.270      247
   20.285      266
   20.300      279
   20.315      249
   20.330      252
   20.345      267
   20.360      264
   20.375      261
   20.390      259
   20.405      271
   20.420      267
   20.435      263
   20.450      281
   20.465      259
   20.480      246
   20.495      242
   20.510      253
   20.525      239
   20.540      242
   20.555      267
   20.570      306
   20.585      278
   20.600      248
   20.615      260
   20.630      252
   20.645      249
   20.660      264
   20.675      269
   20.690      262
   20.705      272
   20.720      261
   20.735      270
   20.750      274
   20.765      244
   20.780      240
   20.795      241
   20.810      266
   20.825      282
   20.840      288
   20.855      284
   20.870      245
   20.885      278
   20.900      288
   20.915      261
   20.930      267
   20.945      267
   20.960      263
   20.975      274
   20.990      274
   21.005      264
   21.020      308
   21.035      296
   21.050      267
   21.065      282
   21.080      307
   21.095      267
   21.110      271
   21.125      301
   21.140      278
   21.155      293
   21.170      300
   21.185      299
   21.200      304
   21.215      294
   21.230      274
   21.245      258
   21.260      285
   21.275      295
   21.290      282
   21.305      313
   21.320      297
   21.335      287
   21.350      296
   21.365      265
   21.380      251
   21.395      276
   21.410      285
   21.425      289
   21.440      306
   21.455      310
   21.470      305
   21.485      299
   21.500      301
   21.515      292
   21.530      280
   21.545      308
   21.560      271
   21.575      281
   21.590      264
   21.605      276
   21.620      307
   21.635      264
   21.650      279
   21.665      312
   21.680      304
   21.695      267
   21.710      287
   21.725      283
   21.740      319
   21.755      301
   21.770      286
   21.785      287
   21.800      297
   21.815      340
   21.830      286
   21.845      285
   21.860      291
   21.875      290
   21.890      326
   21.905      297
   21.920      291
   21.935      293
   21.950      296
   21.965      306
   21.980      298
   21.995      273
   22.010      307
   22.025      294
   22.040      295
   22.055      302
   22.070      316
   22.085      318
   22.100      315
   22.115      315
   22.130      303
   22.145      295
   22.160      297
   22.175      318
   22.190      282
   22.205      320
   22.220      321
   22.235      287
   22.250      285
   22.265      286
   22.280      323
   22.295      304
   22.310      281
   22.325      282
   22.340      304
   22.355      299
   22.370      320
   22.385      306
   22.400      299
   22.415      302
   22.430      322
   22.445      311
   22.460      292
   22.475      329
   22.490      341
   22.505      311
   22.520      325
   22.535      324
   22.550      314
   22.565      340
   22.580      313
   22.595      290
   22.610      312
   22.625      329
   22.640      303
   22.655      333
   22.670      325
   22.685      302
   22.700      289
   22.715      311
   22.730      310
   22.745      323
   22.760      331
   22.775      320
   22.790      323
   22.805      310
   22.820      282
   22.835      315
   22.850      296
   22.865      316
   22.880      337
   22.895      332
   22.910      308
   22.925      302
   22.940      337
   22.955      335
   22.970      308
   22.985      296
   23.000      314
   23.015      348
   23.030      316
   23.045      285
   23.060      322
   23.075      320
   23.090      295
   23.105      309
   23.120      300
   23.135      312
   23.150      340
   23.165      331
   23.180      305
   23.195      312
   23.210      341
   23.225      357
   23.240      328
   23.255      298
   23.270      328
   23.285      355
   23.300      334
   23.315      327
   23.330      313
   23.345      308
   23.360      330
   23.375      322
   23.390      327
   23.405      345
   23.420      328
   23.435      333
   23.450      353
   23.465      351
   23.480      328
   23.495      342
   23.510      334
   23.525      319
   23.540      313
   23.555      387
   23.570      328
   23.585      278
   23.600      334
   23.615      358
   23.630      317
   23.645      341
   23.660      329
   23.675      354
   23.690      345
   23.705      346
   23.720      328
   23.735      346
   23.750      334
   23.765      334
   23.780      333
   23.795      374
   23.810      341
   23.825      335
   23.840      342
   23.855      343
   23.870      352
   23.885      316
   23.900      316
   23.915      316
   23.930      345
   23.945      339
   23.960      325
   23.975      326
   23.990      339
   24.005      345
   24.020      320
   24.035      326
   24.050      343
   24.065      334
   24.080      329
   24.095      331
   24.110      333
   24.125      347
   24.140      350
   24.155      347
   24.170      343
   24.185      349
   24.200      355
   24.215      354
   24.230      349
   24.245      346
   24.260      340
   24.275      336
   24.290      340
   24.305      323
   24.320      329
   24.335      331
   24.350      334
   24.365      347
   24.380      353
   24.395      351
   24.410      354
   24.425      346
   24.440      337
   24.455      351
   24.470      366
   24.485      349
   24.500      361
   24.515      372
   24.530      356
   24.545      338
   24.560      346
   24.575      373
   24.590      358
   24.605      335
   24.620      380
   24.635      364
   24.650      338
   24.665      360
   24.680      370
   24.695      333
   24.710      332
   24.725      383
   24.740      380
   24.755      354
   24.770      378
   24.785      392
   24.800      372
   24.815      364
   24.830      394
   24.845      359
   24.860      359
   24.875      337
   24.890      372
   24.905      335
   24.920      385
   24.935      362
   24.950      360
   24.965      369
   24.980      358
   24.995      379
   25.010      352
   25.025      365
   25.040      385
   25.055      356
   25.070      360
   25.085      329
   25.100      388
   25.115      361
   25.130      385
   25.145      356
   25.160      364
   25.175      358
   25.190      369
   25.205      319
   25.220      321
   25.235      331
   25.250      389
   25.265      378
   25.280      398
   25.295      372
   25.310      337
   25.325      378
   25.340      354
   25.355      369
   25.370      375
   25.385      368
   25.400      376
   25.415      391
   25.430      409
   25.445      374
   25.460      402
   25.475      379
   25.490      345
   25.505      360
   25.520      369
   25.535      350
   25.550      364
   25.565      369
   25.580      348
   25.595      385
   25.610      391
   25.625      393
   25.640      374
   25.655      391
   25.670      362
   25.685      380
   25.700      386
   25.715      373
   25.730      341
   25.745      353
   25.760      389
   25.775      368
   25.790      330
   25.805      340
   25.820      379
   25.835      386
   25.850      366
   25.865      364
   25.880      344
   25.895      344
   25.910      385
   25.925      356
   25.940      356
   25.955      350
   25.970      370
   25.985      346
   26.000      359
   26.015      364
   26.030      396
   26.045      409
   26.060      356
   26.075      387
   26.090      384
   26.105      381
   26.120      360
   26.135      385
   26.150      383
   26.165      364
   26.180      344
   26.195      370
   26.210      365
   26.225      363
   26.240      364
   26.255      404
   26.270      375
   26.285      386
   26.300      347
   26.315      339
   26.330      361
   26.345      378
   26.360      389
   26.375      382
   26.390      389
   26.405      405
   26.420      381
   26.435      378
   26.450      367
   26.465      375
   26.480      355
   26.495      370
   26.510      385
   26.525      368
   26.540      332
   26.555      373
   26.570      404
   26.585      377
   26.600      360
   26.615      371
   26.630      386
   26.645      392
   26.660      359
   26.675      378
   26.690      395
   26.705      401
   26.720      418
   26.735      386
   26.750      383
   26.765      369
   26.780      347
   26.795      357
   26.810      354
   26.825      385
   26.840      377
   26.855      371
   26.870      339
   26.885      376
   26.900      399
   26.915      391
   26.930      351
   26.945      372
   26.960      352
   26.975      325
   26.990      357
   27.005      373
   27.020      411
   27.035      414
   27.050      361
   27.065      385
   27.080      394
   27.095      373
   27.110      391
   27.125      425
   27.140      361
   27.155      378
   27.170      390
   27.185      362
   27.200      357
   27.215      369
   27.230      369
   27.245      390
   27.260      388
   27.275      375
   27.290      401
   27.305      412
   27.320      386
   27.335      377
   27.350      387
   27.365      378
   27.380      381
   27.395      340
   27.410      362
   27.425      370
   27.440      432
   27.455      407
   27.470      383
   27.485      437
   27.500      401
   27.515      397
   27.530      396
   27.545      401
   27.560      371
   27.575      388
   27.590      372
   27.605      353
   27.620      403
   27.635      415
   27.650      357
   27.665      398
   27.680      398
   27.695      393
   27.710      366
   27.725      402
   27.740      411
   27.755      387
   27.770      376
   27.785      415
   27.800      408
   27.815      412
   27.830      405
   27.845      397
   27.860      394
   27.875      405
   27.890      448
   27.905      363
   27.920      380
   27.935      383
   27.950      383
   27.965      382
   27.980      381
   27.995      376
   28.010      380
   28.025      353
   28.040      382
   28.055      385
   28.070      411
   28.085      381
   28.100      414
   28.115      386
   28.130      367
   28.145      372
   28.160      373
   28.175      387
   28.190      358
   28.205      363
   28.220      384
   28.235      397
   28.250      362
   28.265      344
   28.280      384
   28.295      367
   28.310      369
   28.325      378
   28.340      373
   28.355      376
   28.370      389
   28.385      397
   28.400      392
   28.415      398
   28.430      391
   28.445      393
   28.460      373
   28.475      379
   28.490      384
   28.505      363
   28.520      376
   28.535      397
   28.550      401
   28.565      394
   28.580      382
   28.595      371
   28.610      340
   28.625      379
   28.640      374
   28.655      357
   28.670      376
   28.685      378
   28.700      368
   28.715      396
   28.730      379
   28.745      365
   28.760      365
   28.775      335
   28.790      354
   28.805      375
   28.820      373
   28.835      356
   28.850      350
   28.865      358
   28.880      371
   28.895      362
   28.910      368
   28.925      362
   28.940      370
   28.955      361
   28.970      358
   28.985      363
   29.000      357
   29.015      355
   29.030      336
   29.045      368
   29.060      378
   29.075      352
   29.090      359
   29.105      360
   29.120      363
   29.135      354
   29.150      377
   29.165      384
   29.180      356
   29.195      386
   29.210      372
   29.225      372
   29.240      396
   29.255      369
   29.270      361
   29.285      381
   29.300      404
   29.315      399
   29.330      342
   29.345      344
   29.360      382
   29.375      354
   29.390      362
   29.405      363
   29.420      344
   29.435      349
   29.450      361
   29.465      357
   29.480      359
   29.495      337
   29.510      362
   29.525      340
   29.540      365
   29.555      375
   29.570      366
   29.585      354
   29.600      392
   29.615      368
   29.630      359
   29.645      345
   29.660      345
   29.675      375
   29.690      347
   29.705      351
   29.720      372
   29.735      340
   29.750      352
   29.765      370
   29.780      355
   29.795      416
   29.810      373
   29.825      343
   29.840      398
   29.855      390
   29.870      356
   29.885      349
   29.900      352
   29.915      331
   29.930      348
   29.945      358
   29.960      328
   29.975      347
   29.990      352
   30.005      346
   30.020      358
   30.035      354
   30.050      318
   30.065      331
   30.080      362
   30.095      340
   30.110      328
   30.125      333
   30.140      309
   30.155      327
   30.170      345
   30.185      345
   30.200      346
   30.215      341
   30.230      341
   30.245      349
   30.260      330
   30.275      328
   30.290      356
   30.305      358
   30.320      317
   30.335      325
   30.350      328
   30.365      346
   30.380      366
   30.395      373
   30.410      344
   30.425      318
   30.440      301
   30.455      308
   30.470      348
   30.485      366
   30.500      335
   30.515      357
   30.530      348
   30.545      346
   30.560      321
   30.575      347
   30.590      359
   30.605      333
   30.620      335
   30.635      341
   30.650      342
   30.665      343
   30.680      360
   30.695      359
   30.710      357
   30.725      352
   30.740      351
   30.755      379
   30.770      313
   30.785      324
   30.800      350
   30.815      338
   30.830      340
   30.845      324
   30.860      356
   30.875      316
   30.890      354
   30.905      374
   30.920      361
   30.935      344
   30.950      358
   30.965      393
   30.980      373
   30.995      328
   31.010      309
   31.025      345
   31.040      354
   31.055      295
   31.070      340
   31.085      305
   31.100      390
   31.115      359
   31.130      350
   31.145      333
   31.160      326
   31.175      277
   31.190      369
   31.205      343
   31.220      320
   31.235      325
   31.250      334
   31.265      337
   31.280      348
   31.295      352
   31.310      308
   31.325      327
   31.340      331
   31.355      341
   31.370      333
   31.385      322
   31.400      310
   31.415      342
   31.430      351
   31.445      340
   31.460      345
   31.475      310
   31.490      331
   31.505      340
   31.520      339
   31.535      333
   31.550      315
   31.565      307
   31.580      310
   31.595      331
   31.610      328
   31.625      324
   31.640      306
   31.655      342
   31.670      336
   31.685      338
   31.700      365
   31.715      315
   31.730      299
   31.745      327
   31.760      353
   31.775      326
   31.790      319
   31.805      319
   31.820      300
   31.835      329
   31.850      341
   31.865      343
   31.880      308
   31.895      308
   31.910      291
   31.925      284
   31.940      274
   31.955      309
   31.970      317
   31.985      327
   32.000      316
   32.015      299
   32.030      345
   32.045      346
   32.060      301
   32.075      331
   32.090      344
   32.105      303
   32.120      288
   32.135      313
   32.150      321
   32.165      349
   32.180      317
   32.195      307
   32.210      320
   32.225      328
   32.240      318
   32.255      327
   32.270      318
   32.285      340
   32.300      314
   32.315      281
   32.330      288
   32.345      314
   32.360      345
   32.375      317
   32.390      308
   32.405      315
   32.420      309
   32.435      333
   32.450      327
   32.465      310
   32.480      306
   32.495      292
   32.510      307
   32.525      294
   32.540      320
   32.555      340
   32.570      335
   32.585      317
   32.600      296
   32.615      303
   32.630      286
   32.645      303
   32.660      303
   32.675      299
   32.690      316
   32.705      318
   32.720      307
   32.735      297
   32.750      300
   32.765      301
   32.780      287
   32.795      291
   32.810      311
   32.825      325
   32.840      304
   32.855      294
   32.870      273
   32.885      280
   32.900      297
   32.915      313
   32.930      304
   32.945      307
   32.960      305
   32.975      295
   32.990      306
   33.005      288
   33.020      307
   33.035      294
   33.050      312
   33.065      313
   33.080      281
   33.095      272
   33.110      287
   33.125      314
   33.140      279
   33.155      298
   33.170      320
   33.185      324
   33.200      309
   33.215      281
   33.230      292
   33.245      290
   33.260      286
   33.275      277
   33.290      304
   33.305      296
   33.320      294
   33.335      324
   33.350      316
   33.365      265
   33.380      288
   33.395      317
   33.410      305
   33.425      305
   33.440      305
   33.455      289
   33.470      294
   33.485      328
   33.500      308
   33.515      315
   33.530      296
   33.545      262
   33.560      275
   33.575      272
   33.590      286
   33.605      297
   33.620      289
   33.635      295
   33.650      273
   33.665      286
   33.680      321
   33.695      286
   33.710      269
   33.725      308
   33.740      270
   33.755      281
   33.770      267
   33.785      281
   33.800      268
   33.815      318
   33.830      301
   33.845      288
   33.860      274
   33.875      302
   33.890      286
   33.905      297
   33.920      300
   33.935      277
   33.950      279
   33.965      291
   33.980      299
   33.995      277
   34.010      291
   34.025      279
   34.040      277
   34.055      259
   34.070      273
   34.085      275
   34.100      299
   34.115      299
   34.130      270
   34.145      294
   34.160      274
   34.175      285
   34.190      277
   34.205      295
   34.220      289
   34.235      296
   34.250      282
   34.265      283
   34.280      296
   34.295      281
   34.310      280
   34.325      263
   34.340      279
   34.355      292
   34.370      286
   34.385      286
   34.400      284
   34.415      253
   34.430      273
   34.445      296
   34.460      281
   34.475      280
   34.490      293
   34.505      266
   34.520      258
   34.535      277
   34.550      268
   34.565      248
   34.580      256
   34.595      272
   34.610      262
   34.625      263
   34.640      263
   34.655      267
   34.670      267
   34.685      254
   34.700      241
   34.715      283
   34.730      282
   34.745      288
   34.760      277
   34.775      263
   34.790      270
   34.805      268
   34.820      247
   34.835      260
   34.850      275
   34.865      260
   34.880      274
   34.895      276
   34.910      284
   34.925      271
   34.940      278
   34.955      258
   34.970      257
   34.985      278
   35.000      287
   35.015      284
   35.030      247
   35.045      268
   35.060      259
   35.075      258
   35.090      266
   35.105      269
   35.120      263
   35.135      259
   35.150      262
   35.165      276
   35.180      252
   35.195      282
   35.210      267
   35.225      278
   35.240      258
   35.255      259
   35.270      262
   35.285      272
   35.300      262
   35.315      265
   35.330      253
   35.345      260
   35.360      292
   35.375      260
   35.390      278
   35.405      274
   35.420      277
   35.435      287
   35.450      294
   35.465      248
   35.480      253
   35.495      242
   35.510      250
   35.525      280
   35.540      272
   35.555      256
   35.570      268
   35.585      247
   35.600      258
   35.615      258
   35.630      249
   35.645      278
   35.660      255
   35.675      265
   35.690      268
   35.705      297
   35.720      262
   35.735      247
   35.750      275
   35.765      271
   35.780      257
   35.795      258
   35.810      264
   35.825      264
   35.840      272
   35.855      274
   35.870      230
   35.885      232
   35.900      238
   35.915      262
   35.930      264
   35.945      255
   35.960      239
   35.975      256
   35.990      281
   36.005      276
   36.020      258
   36.035      245
   36.050      252
   36.065      267
   36.080      264
   36.095      250
   36.110      256
   36.125      238
   36.140      252
   36.155      252
   36.170      230
   36.185      238
   36.200      236
   36.215      253
   36.230      265
   36.245      265
   36.260      233
   36.275      227
   36.290      251
   36.305      253
   36.320      256
   36.335      243
   36.350      241
   36.365      272
   36.380      243
   36.395      242
   36.410      259
   36.425      262
   36.440      250
   36.455      264
   36.470      263
   36.485      224
   36.500      231
   36.515      219
   36.530      227
   36.545      247
   36.560      245
   36.575      257
   36.590      237
   36.605      237
   36.620      255
   36.635      239
   36.650      218
   36.665      239
   36.680      250
   36.695      229
   36.710      235
   36.725      240
   36.740      241
   36.755      246
   36.770      252
   36.785      234
   36.800      264
   36.815      257
   36.830      233
   36.845      241
   36.860      228
   36.875      238
   36.890      240
   36.905      248
   36.920      230
   36.935      246
   36.950      248
   36.965      239
   36.980      246
   36.995      241
   37.010      238
   37.025      241
   37.040      243
   37.055      231
   37.070      257
   37.085      237
   37.100      256
   37.115      228
   37.130      255
   37.145      221
   37.160      263
   37.175      216
   37.190      255
   37.205      252
   37.220      237
   37.235      270
   37.250      227
   37.265      205
   37.280      247
   37.295      243
   37.310      222
   37.325      226
   37.340      216
   37.355      229
   37.370      246
   37.385      227
   37.400      236
   37.415      223
   37.430      239
   37.445      235
   37.460      240
   37.475      247
   37.490      242
   37.505      246
   37.520      225
   37.535      264
   37.550      258
   37.565      232
   37.580      250
   37.595      250
   37.610      259
   37.625      281
   37.640      221
   37.655      235
   37.670      246
   37.685      268
   37.700      242
   37.715      249
   37.730      243
   37.745      252
   37.760      235
   37.775      255
   37.790      226
   37.805      252
   37.820      248
   37.835      262
   37.850      251
   37.865      268
   37.880      232
   37.895      217
   37.910      228
   37.925      231
   37.940      243
   37.955      226
   37.970      234
   37.985      208
   38.000      236
   38.015      257
   38.030      257
   38.045      273
   38.060      247
   38.075      250
   38.090      249
   38.105      259
   38.120      228
   38.135      206
   38.150      246
   38.165      252
   38.180      241
   38.195      255
   38.210      229
   38.225      241
   38.240      237
   38.255      229
   38.270      219
   38.285      232
   38.300      233
   38.315      196
   38.330      217
   38.345      222
   38.360      224
   38.375      247
   38.390      255
   38.405      254
   38.420      267
   38.435      258
   38.450      241
   38.465      238
   38.480      232
   38.495      231
   38.510      229
   38.525      230
   38.540      225
   38.555      228
   38.570      215
   38.585      215
   38.600      223
   38.615      236
   38.630      210
   38.645      215
   38.660      211
   38.675      221
   38.690      234
   38.705      243
   38.720      228
   38.735      216
   38.750      232
   38.765      221
   38.780      209
   38.795      226
   38.810      258
   38.825      236
   38.840      216
   38.855      222
   38.870      217
   38.885      241
   38.900      240
   38.915      257
   38.930      228
   38.945      237
   38.960      246
   38.975      238
   38.990      218
   39.005      226
   39.020      246
   39.035      226
   39.050      248
   39.065      263
   39.080      244
   39.095      226
   39.110      219
   39.125      243
   39.140      235
   39.155      227
   39.170      232
   39.185      230
   39.200      261
   39.215      207
   39.230      247
   39.245      239
   39.260      244
   39.275      236
   39.290      249
   39.305      262
   39.320      229
   39.335      244
   39.350      257
   39.365      213
   39.380      198
   39.395      256
   39.410      222
   39.425      232
   39.440      241
   39.455      226
   39.470      259
   39.485      236
   39.500      240
   39.515      238
   39.530      217
   39.545      227
   39.560      221
   39.575      205
   39.590      244
   39.605      266
   39.620      246
   39.635      238
   39.650      226
   39.665      230
   39.680      245
   39.695      236
   39.710      210
   39.725      252
   39.740      247
   39.755      246
   39.770      211
   39.785      204
   39.800      223
   39.815      228
   39.830      227
   39.845      222
   39.860      210
   39.875      222
   39.890      250
   39.905      219
   39.920      226
   39.935      214
   39.950      210
   39.965      227
   39.980      222
   39.995      218
   40.010      220
   40.025      236
   40.040      247
   40.055      237
   40.070      255
   40.085      249
   40.100      237
   40.115      237
   40.130      229
   40.145      223
   40.160      235
   40.175      250
   40.190      229
   40.205      232
   40.220      254
   40.235      240
   40.250      223
   40.265      217
   40.280      261
   40.295      246
   40.310      253
   40.325      240
   40.340      248
   40.355      253
   40.370      240
   40.385      241
   40.400      225
   40.415      224
   40.430      228
   40.445      221
   40.460      223
   40.475      212
   40.490      242
   40.505      245
   40.520      236
   40.535      239
   40.550      258
   40.565      237
   40.580      228
   40.595      216
   40.610      211
   40.625      237
   40.640      259
   40.655      251
   40.670      236
   40.685      224
   40.700      230
   40.715      252
   40.730      255
   40.745      245
   40.760      230
   40.775      245
   40.790      244
   40.805      226
   40.820      231
   40.835      217
   40.850      199
   40.865      215
   40.880      231
   40.895      229
   40.910      234
   40.925      214
   40.940      197
   40.955      220
   40.970      246
   40.985      250
   41.000      231
   41.015      207
   41.030      207
   41.045      214
   41.060      225
   41.075      219
   41.090      225
   41.105      220
   41.120      220
   41.135      225
   41.150      242
   41.165      234
   41.180      242
   41.195      224
   41.210      235
   41.225      223
   41.240      216
   41.255      204
   41.270      235
   41.285      225
   41.300      250
   41.315      230
   41.330      217
   41.345      217
   41.360      219
   41.375      231
   41.390      216
   41.405      232
   41.420      227
   41.435      236
   41.450      252
   41.465      230
   41.480      195
   41.495      236
   41.510      270
   41.525      221
   41.540      241
   41.555      233
   41.570      218
   41.585      217
   41.600      237
   41.615      212
   41.630      196
   41.645      220
   41.660      207
   41.675      227
   41.690      212
   41.705      224
   41.720      249
   41.735      226
   41.750      233
   41.765      232
   41.780      207
   41.795      233
   41.810      224
   41.825      222
   41.840      244
   41.855      220
   41.870      216
   41.885      189
   41.900      203
   41.915      196
   41.930      225
   41.945      224
   41.960      225
   41.975      225
   41.990      226
   42.005      233
   42.020      225
   42.035      222
   42.050      223
   42.065      228
   42.080      223
   42.095      218
   42.110      224
   42.125      217
   42.140      218
   42.155      212
   42.170      193
   42.185      205
   42.200      203
   42.215      203
   42.230      200
   42.245      212
   42.260      224
   42.275      213
   42.290      205
   42.305      204
   42.320      207
   42.335      197
   42.350      216
   42.365      252
   42.380      211
   42.395      218
   42.410      217
   42.425      241
   42.440      216
   42.455      198
   42.470      205
   42.485      214
   42.500      215
   42.515      233
   42.530      210
   42.545      197
   42.560      192
   42.575      199
   42.590      215
   42.605      223
   42.620      208
   42.635      213
   42.650      209
   42.665      232
   42.680      224
   42.695      225
   42.710      263
   42.725      252
   42.740      248
   42.755      221
   42.770      220
   42.785      212
   42.800      210
   42.815      214
   42.830      188
   42.845      207
   42.860      218
   42.875      201
   42.890      223
   42.905      229
   42.920      193
   42.935      208
   42.950      207
   42.965      240
   42.980      212
   42.995      206
   43.010      208
   43.025      193
   43.040      200
   43.055      177
   43.070      231
   43.085      200
   43.100      228
   43.115      203
   43.130      224
   43.145      180
   43.160      189
   43.175      191
   43.190      198
   43.205      196
   43.220      193
   43.235      219
   43.250      226
   43.265      215
   43.280      216
   43.295      202
   43.310      203
   43.325      208
   43.340      242
   43.355      203
   43.370      248
   43.385      201
   43.400      210
   43.415      212
   43.430      213
   43.445      193
   43.460      206
   43.475      193
   43.490      209
   43.505      224
   43.520      203
   43.535      215
   43.550      231
   43.565      232
   43.580      212
   43.595      205
   43.610      214
   43.625      205
   43.640      205
   43.655      214
   43.670      205
   43.685      234
   43.700      226
   43.715      222
   43.730      212
   43.745      214
   43.760      223
   43.775      222
   43.790      230
   43.805      199
   43.820      221
   43.835      221
   43.850      201
   43.865      196
   43.880      201
   43.895      206
   43.910      219
   43.925      207
   43.940      192
   43.955      180
   43.970      185
   43.985      171
