    2.000       76
    2.015       68
    2.030       62
    2.045       78
    2.060       90
    2.075       73
    2.090       73
    2.105       73
    2.120       74
    2.135       69
    2.150       80
    2.165       69
    2.180       64
    2.195       63
    2.210       61
    2.225       59
    2.240       67
    2.255       84
    2.270       72
    2.285       69
    2.300       79
    2.315       73
    2.330       64
    2.345       64
    2.360       68
    2.375       59
    2.390       61
    2.405       60
    2.420       71
    2.435       77
    2.450       69
    2.465       72
    2.480       72
    2.495       68
    2.510       74
    2.525       82
    2.540       70
    2.555       64
    2.570       72
    2.585       66
    2.600       63
    2.615       67
    2.630       77
    2.645       70
    2.660       67
    2.675       76
    2.690       80
    2.705       64
    2.720       62
    2.735       69
    2.750       72
    2.765       61
    2.780       56
    2.795       64
    2.810       80
    2.825       76
    2.840       74
    2.855       68
    2.870       63
    2.885       70
    2.900       66
    2.915       85
    2.930       79
    2.945       65
    2.960       61
    2.975       59
    2.990       72
    3.005       74
    3.020       80
    3.035       70
    3.050       70
    3.065       78
    3.080       64
    3.095       62
    3.110       66
    3.125       65
    3.140       71
    3.155       71
    3.170       71
    3.185       55
    3.200       75
    3.215       72
    3.230       79
    3.245       65
    3.260       84
    3.275       69
    3.290       65
    3.305       74
    3.320       80
    3.335       85
    3.350       61
    3.365       68
    3.380       77
    3.395       71
    3.410       63
    3.425       64
    3.440       79
    3.455       65
    3.470       56
    3.485       69
    3.500       71
    3.515       79
    3.530       67
    3.545       72
    3.560       68
    3.575       68
    3.590       57
    3.605       64
    3.620       72
    3.635       81
    3.650       72
    3.665       69
    3.680       75
    3.695       68
    3.710       79
    3.725       65
    3.740       69
    3.755       63
    3.770       61
    3.785       72
    3.800       67
    3.815       61
    3.830       76
    3.845       70
    3.860       68
    3.875       70
    3.890       65
    3.905       65
    3.920       67
    3.935       58
    3.950       55
    3.965       69
    3.980       80
    3.995       79
    4.010       79
    4.025       68
    4.040       60
    4.055       66
    4.070       65
    4.085       65
    4.100       71
    4.115       70
    4.130       62
    4.145       60
    4.160       86
    4.175       72
    4.190       67
    4.205       66
    4.220       72
    4.235       71
    4.250       68
    4.265       74
    4.280       68
    4.295       68
    4.310       67
    4.325       67
    4.340       75
    4.355       63
    4.370       55
    4.385       70
    4.400       77
    4.415       72
    4.430       68
    4.445       65
    4.460       66
    4.475       63
    4.490       60
    4.505       64
    4.520       69
    4.535       67
    4.550       63
    4.565       66
    4.580       74
    4.595       73
    4.610       70
    4.625       78
    4.640       82
    4.655       68
    4.670       65
    4.685       73
    4.700       76
    4.715       75
    4.730       72
    4.745       72
    4.760       82
    4.775       73
    4.790       69
    4.805       73
    4.820       74
    4.835       67
    4.850       61
    4.865       68
    4.880       66
    4.895       69
    4.910       75
    4.925       66
    4.940       60
    4.955       77
    4.970       73
    4.985       51
    5.000       60
    5.015       62
    5.030       66
    5.045       66
    5.060       62
    5.075       66
    5.090       70
    5.105       67
    5.120       73
    5.135       65
    5.150       61
    5.165       72
    5.180       57
    5.195       70
    5.210       74
    5.225       79
    5.240       63
    5.255       68
    5.270       58
    5.285       56
    5.300       54
    5.315       51
    5.330       67
    5.345       71
    5.360       73
    5.375       64
    5.390       78
    5.405       62
    5.420       67
    5.435       70
    5.450       70
    5.465       72
    5.480       67
    5.495       65
    5.510       72
    5.525       66
    5.540       69
    5.555       72
    5.570       76
    5.585       70
    5.600       58
    5.615       64
    5.630       60
    5.645       70
    5.660       77
    5.675       73
    5.690       55
    5.705       61
    5.720       75
    5.735       65
    5.750       67
    5.765       78
    5.780       70
    5.795       75
    5.810       72
    5.825       63
    5.840       75
    5.855       52
    5.870       63
    5.885       59
    5.900       60
    5.915       60
    5.930       60
    5.945       49
    5.960       68
    5.975       70
    5.990       78
    6.005       63
    6.020       64
    6.035       62
    6.050       65
    6.065       73
    6.080       69
    6.095       71
    6.110       68
    6.125       67
    6.140       65
    6.155       57
    6.170       54
    6.185       61
    6.200       62
    6.215       68
    6.230       68
    6.245       63
    6.260       59
    6.275       60
    6.290       69
    6.305       70
    6.320       67
    6.335       71
    6.350       64
    6.365       64
    6.380       58
    6.395       65
    6.410       71
    6.425       61
    6.440       65
    6.455       52
    6.470       49
    6.485       68
    6.500       62
    6.515       62
    6.530       66
    6.545       66
    6.560       60
    6.575       65
    6.590       65
    6.605       57
    6.620       71
    6.635       67
    6.650       69
    6.665       71
    6.680       52
    6.695       78
    6.710       71
    6.725       68
    6.740       56
    6.755       69
    6.770       73
    6.785       47
    6.800       64
    6.815       73
    6.830       69
    6.845       60
    6.860       61
    6.875       57
    6.890       76
    6.905       47
    6.920       74
    6.935       74
    6.950       61
    6.965       80
    6.980       64
    6.995       56
    7.010       60
    7.025       63
    7.040       65
    7.055       70
    7.070       70
    7.085       70
    7.100       72
    7.115       48
    7.130       58
    7.145       64
    7.160       64
    7.175       69
    7.190       72
    7.205       79
    7.220       55
    7.235       74
    7.250       56
    7.265       56
    7.280       63
    7.295       69
    7.310       63
    7.325       51
    7.340       65
    7.355       70
    7.370       69
    7.385       63
    7.400       64
    7.415       74
    7.430       62
    7.445       64
    7.460       63
    7.475       61
    7.490       64
    7.505       64
    7.520       63
    7.535       54
    7.550       57
    7.565       54
    7.580       59
    7.595       52
    7.610       73
    7.625       59
    7.640       68
    7.655       60
    7.670       69
    7.685       63
    7.700       76
    7.715       73
    7.730       64
    7.745       62
    7.760       62
    7.775       66
    7.790       57
    7.805       56
    7.820       58
    7.835       65
    7.850       63
    7.865       63
    7.880       62
    7.895       60
    7.910       71
    7.925       67
    7.940       71
    7.955       65
    7.970       66
    7.985       58
    8.000       66
    8.015       66
    8.030       77
    8.045       63
    8.060       72
    8.075       66
    8.090       51
    8.105       65
    8.120       75
    8.135       70
    8.150       66
    8.165       59
    8.180       62
    8.195       59
    8.210       70
    8.225       71
    8.240       67
    8.255       69
    8.270       65
    8.285       53
    8.300       70
    8.315       63
    8.330       65
    8.345       77
    8.360       71
    8.375       63
    8.390       56
    8.405       61
    8.420       74
    8.435       72
    8.450       70
    8.465       72
    8.480       67
    8.495       74
    8.510       58
    8.525       58
    8.540       61
    8.555       60
    8.570       75
    8.585       77
    8.600       79
    8.615       74
    8.630       69
    8.645       75
    8.660       75
    8.675       72
    8.690       73
    8.705       75
    8.720       65
    8.735       57
    8.750       56
    8.765       71
    8.780       72
    8.795       78
    8.810       75
    8.825       75
    8.840       84
    8.855       78
    8.870       79
    8.885       93
    8.900       95
    8.915      114
    8.930       93
    8.945       96
    8.960       98
    8.975      112
    8.990      123
    9.005      149
    9.020      154
    9.035      171
    9.050      205
    9.065      219
    9.080      262
    9.095      325
    9.110      437
    9.125      501
    9.140      466
    9.155      426
    9.170      287
    9.185      168
    9.200       91
    9.215       81
    9.230       68
    9.245       68
    9.260       70
    9.275       64
    9.290       84
    9.305       75
    9.320       76
    9.335       58
    9.350       59
    9.365       72
    9.380       51
    9.395       67
    9.410       73
    9.425       61
    9.440       65
    9.455       68
    9.470       72
    9.485       80
    9.500       61
    9.515       67
    9.530       94
    9.545       70
    9.560       66
    9.575       67
    9.590       67
    9.605       67
    9.620       73
    9.635       65
    9.650       68
    9.665       64
    9.680       74
    9.695       71
    9.710       74
    9.725       68
    9.740       83
    9.755       69
    9.770       53
    9.785       58
    9.800       53
    9.815       61
    9.830       71
    9.845       77
    9.860       77
    9.875       67
    9.890       62
    9.905       73
    9.920       71
    9.935       63
    9.950       59
    9.965       76
    9.980       61
    9.995       63
   10.010       69
   10.025       66
   10.040       77
   10.055       64
   10.070       62
   10.085       58
   10.100       54
   10.115       62
   10.130       58
   10.145       59
   10.160       57
   10.175       54
   10.190       60
   10.205       68
   10.220       78
   10.235       64
   10.250       63
   10.265       65
   10.280       73
   10.295       70
   10.310       68
   10.325       67
   10.340       74
   10.355       62
   10.370       54
   10.385       72
   10.400       68
   10.415       72
   10.430       70
   10.445       58
   10.460       66
   10.475       71
   10.490       67
   10.505       61
   10.520       53
   10.535       59
   10.550       71
   10.565       73
   10.580       69
   10.595       78
   10.610       76
   10.625       69
   10.640       64
   10.655       62
   10.670       71
   10.685       68
   10.700       65
   10.715       72
   10.730       66
   10.745       71
   10.760       59
   10.775       63
   10.790       62
   10.805       61
   10.820       55
   10.835       56
   10.850       57
   10.865       56
   10.880       64
   10.895       64
   10.910       67
   10.925       72
   10.940       70
   10.955       70
   10.970       70
   10.985       64
   11.000       67
   11.015       54
   11.030       73
   11.045       75
   11.060       76
   11.075       65
   11.090       71
   11.105       62
   11.120       56
   11.135       52
   11.150       57
   11.165       50
   11.180       59
   11.195       59
   11.210       63
   11.225       57
   11.240       62
   11.255       67
   11.270       67
   11.285       76
   11.300       66
   11.315       67
   11.330       66
   11.345       66
   11.360       64
   11.375       61
   11.390       72
   11.405       64
   11.420       57
   11.435       72
   11.450       82
   11.465       70
   11.480       56
   11.495       68
   11.510       64
   11.525       74
   11.540       71
   11.555       82
   11.570       53
   11.585       63
   11.600       58
   11.615       64
   11.630       65
   11.645       72
   11.660       80
   11.675       55
   11.690       80
   11.705       61
   11.720       81
   11.735       70
   11.750       77
   11.765       78
   11.780       77
   11.795       78
   11.810       73
   11.825       91
   11.840       90
   11.855       77
   11.870      103
   11.885       78
   11.900       86
   11.915       91
   11.930      105
   11.945      116
   11.960      116
   11.975      109
   11.990      137
   12.005      150
   12.020      155
   12.035      170
   12.050      190
   12.065      239
   12.080      260
   12.095      276
   12.110      298
   12.125      290
   12.140      278
   12.155      260
   12.170      259
   12.185      227
   12.200      213
   12.215      192
   12.230      165
   12.245      124
   12.260      121
   12.275      117
   12.290      122
   12.305      117
   12.320      107
   12.335      107
   12.350       91
   12.365      101
   12.380      105
   12.395      114
   12.410       97
   12.425      103
   12.440       86
   12.455       91
   12.470       85
   12.485       79
   12.500       77
   12.515       83
   12.530       75
   12.545       78
   12.560       81
   12.575       79
   12.590       80
   12.605       77
   12.620       77
   12.635       79
   12.650       70
   12.665       68
   12.680       67
   12.695       64
   12.710       61
   12.725       64
   12.740       58
   12.755       74
   12.770       78
   12.785       67
   12.800       72
   12.815       70
   12.830       70
   12.845       68
   12.860       59
   12.875       65
   12.890       69
   12.905       62
   12.920       67
   12.935       76
   12.950       63
   12.965       63
   12.980       62
   12.995       63
   13.010       66
   13.025       71
   13.040       72
   13.055       64
   13.070       63
   13.085       62
   13.100       68
   13.115       62
   13.130       80
   13.145       73
   13.160       48
   13.175       58
   13.190       68
   13.205       64
   13.220       58
   13.235       56
   13.250       62
   13.265       70
   13.280       72
   13.295       66
   13.310       53
   13.325       63
   13.340       54
   13.355       51
   13.370       62
   13.385       71
   13.400       73
   13.415       67
   13.430       60
   13.445       59
   13.460       78
   13.475       71
   13.490       57
   13.505       54
   13.520       53
   13.535       53
   13.550       72
   13.565       62
   13.580       63
   13.595       62
   13.610       58
   13.625       79
   13.640       65
   13.655       56
   13.670       58
   13.685       56
   13.700       54
   13.715       56
   13.730       54
   13.745       62
   13.760       79
   13.775       69
   13.790       59
   13.805       56
   13.820       57
   13.835       59
   13.850       61
   13.865       58
   13.880       55
   13.895       55
   13.910       63
   13.925       64
   13.940       60
   13.955       58
   13.970       62
   13.985       76
   14.000       69
   14.015       64
   14.030       63
   14.045       70
   14.060       75
   14.075       78
   14.090       50
   14.105       61
   14.120       65
   14.135       56
   14.150       68
   14.165       63
   14.180       47
   14.195       58
   14.210       64
   14.225       66
   14.240       60
   14.255       60
   14.270       47
   14.285       52
   14.300       60
   14.315       58
   14.330       59
   14.345       62
   14.360       60
   14.375       63
   14.390       72
   14.405       64
   14.420       67
   14.435       61
   14.450       56
   14.465       64
   14.480       65
   14.495       62
   14.510       61
   14.525       61
   14.540       63
   14.555       81
   14.570       81
   14.585       70
   14.600       67
   14.615       64
   14.630       63
   14.645       61
   14.660       58
   14.675       68
   14.690       85
   14.705       65
   14.720       56
   14.735       65
   14.750       63
   14.765       67
   14.780       52
   14.795       49
   14.810       64
   14.825       64
   14.840       63
   14.855       70
   14.870       64
   14.885       57
   14.900       64
   14.915       72
   14.930       72
   14.945       68
   14.960       58
   14.975       59
   14.990       60
   15.005       65
   15.020       61
   15.035       73
   15.050       83
   15.065       74
   15.080       69
   15.095       53
   15.110       63
   15.125       62
   15.140       60
   15.155       81
   15.170       64
   15.185       59
   15.200       68
   15.215       69
   15.230       72
   15.245       70
   15.260       69
   15.275       67
   15.290       59
   15.305       70
   15.320       71
   15.335       57
   15.350       56
   15.365       65
   15.380       58
   15.395       58
   15.410       57
   15.425       58
   15.440       84
   15.455       62
   15.470       66
   15.485       57
   15.500       71
   15.515       66
   15.530       61
   15.545       69
   15.560       77
   15.575       72
   15.590       73
   15.605       78
   15.620       78
   15.635       80
   15.650       62
   15.665       61
   15.680       73
   15.695       55
   15.710       55
   15.725       67
   15.740       74
   15.755       70
   15.770       69
   15.785       65
   15.800       61
   15.815       73
   15.830       61
   15.845       62
   15.860       60
   15.875       75
   15.890       66
   15.905       63
   15.920       58
   15.935       62
   15.950       78
   15.965       54
   15.980       64
   15.995       67
   16.010       61
   16.025       47
   16.040       60
   16.055       66
   16.070       58
   16.085       61
   16.100       78
   16.115       78
   16.130       67
   16.145       69
   16.160       68
   16.175       73
   16.190       69
   16.205       60
   16.220       54
   16.235       57
   16.250       71
   16.265       72
   16.280       68
   16.295       56
   16.310       59
   16.325       62
   16.340       65
   16.355       71
   16.370       70
   16.385       71
   16.400       62
   16.415       66
   16.430       74
   16.445       74
   16.460       70
   16.475       75
   16.490       79
   16.505       70
   16.520       65
   16.535       66
   16.550       73
   16.565       67
   16.580       66
   16.595       71
   16.610       69
   16.625       80
   16.640       80
   16.655       75
   16.670       61
   16.685       64
   16.700       72
   16.715       79
   16.730       75
   16.745       64
   16.760       68
   16.775       78
   16.790       68
   16.805       76
   16.820       79
   16.835       74
   16.850       72
   16.865       78
   16.880       82
   16.895       82
   16.910       77
   16.925       80
   16.940       84
   16.955       77
   16.970       88
   16.985       75
   17.000       89
   17.015      110
   17.030       98
   17.045      102
   17.060      113
   17.075      125
   17.090      127
   17.105      136
   17.120      132
   17.135      140
   17.150      147
   17.165      132
   17.180      144
   17.195      139
   17.210      149
   17.225      136
   17.240      130
   17.255      114
   17.270      110
   17.285      103
   17.300       97
   17.315       94
   17.330       89
   17.345       97
   17.360       95
   17.375       84
   17.390      104
   17.405       80
   17.420       77
   17.435       84
   17.450       79
   17.465       71
   17.480       71
   17.495       85
   17.510       68
   17.525       68
   17.540       61
   17.555       78
   17.570       78
   17.585       65
   17.600       80
   17.615       65
   17.630       64
   17.645       70
   17.660       62
   17.675       76
   17.690       69
   17.705       80
   17.720       81
   17.735       87
   17.750       83
   17.765      103
   17.780       94
   17.795       98
   17.810       98
   17.825      106
   17.840      106
   17.855       90
   17.870       91
   17.885       91
   17.900      103
   17.915       81
   17.930       97
   17.945      100
   17.960       86
   17.975       86
   17.990       86
   18.005       82
   18.020       80
   18.035       71
   18.050       70
   18.065       77
   18.080       73
   18.095       72
   18.110       79
   18.125       68
   18.140       76
   18.155       81
   18.170       84
   18.185       67
   18.200       62
   18.215       68
   18.230       73
   18.245       81
   18.260       65
   18.275       74
   18.290       73
   18.305       81
   18.320       86
   18.335      101
   18.350      109
   18.365      108
   18.380      127
   18.395      135
   18.410      144
   18.425      125
   18.440      108
   18.455      103
   18.470       81
   18.485       93
   18.500       84
   18.515       83
   18.530       78
   18.545       76
   18.560       81
   18.575       71
   18.590       70
   18.605       89
   18.620       83
   18.635       71
   18.650       73
   18.665       69
   18.680       65
   18.695       70
   18.710       62
   18.725       69
   18.740       67
   18.755       78
   18.770       76
   18.785       81
   18.800       78
   18.815       76
   18.830       80
   18.845       75
   18.860       84
   18.875       81
   18.890       84
   18.905       89
   18.920       79
   18.935       84
   18.950       82
   18.965       91
   18.980       85
   18.995      100
   19.010       84
   19.025       80
   19.040       68
   19.055       78
   19.070       81
   19.085       75
   19.100       83
   19.115       77
   19.130       74
   19.145       70
   19.160       68
   19.175       68
   19.190       72
   19.205       72
   19.220       64
   19.235       84
   19.250       75
   19.265       74
   19.280       81
   19.295       90
   19.310       86
   19.325       79
   19.340       80
   19.355       85
   19.370       88
   19.385       72
   19.400       83
   19.415       87
   19.430       64
   19.445       67
   19.460       71
   19.475       77
   19.490       75
   19.505       73
   19.520       74
   19.535       77
   19.550       65
   19.565       75
   19.580       82
   19.595       83
   19.610       80
   19.625       71
   19.640       68
   19.655       70
   19.670       85
   19.685       71
   19.700       75
   19.715       87
   19.730       77
   19.745       76
   19.760       85
   19.775       87
   19.790       71
   19.805       74
   19.820       80
   19.835       78
   19.850       85
   19.865       80
   19.880       75
   19.895       69
   19.910       70
   19.925       70
   19.940       86
   19.955       81
   19.970       89
   19.985       89
   20.000       99
   20.015       84
   20.030       96
   20.045       88
   20.060       78
   20.075       74
   20.090       89
   20.105       90
   20.120       92
   20.135       93
   20.150      102
   20.165      102
   20.180       76
   20.195       82
   20.210       77
   20.225       92
   20.240       86
   20.255       77
   20.270       74
   20.285       90
   20.300       88
   20.315       64
   20.330       83
   20.345       93
   20.360       83
   20.375       75
   20.390       78
   20.405       85
   20.420       78
   20.435       88
   20.450       85
   20.465       88
   20.480       84
   20.495       72
   20.510       81
   20.525       94
   20.540       76
   20.555       76
   20.570       81
   20.585       73
   20.600       80
   20.615       86
   20.630       87
   20.645       87
   20.660       86
   20.675       91
   20.690       79
   20.705       84
   20.720       82
   20.735       78
   20.750       81
   20.765       72
   20.780       74
   20.795       79
   20.810       79
   20.825       74
   20.840       79
   20.855       82
   20.870       80
   20.885       91
   20.900       75
   20.915       79
   20.930       76
   20.945       81
   20.960       78
   20.975       79
   20.990       81
   21.005       75
   21.020       79
   21.035       82
   21.050       84
   21.065       94
   21.080       99
   21.095       85
   21.110       88
   21.125       75
   21.140       68
   21.155       84
   21.170       75
   21.185       73
   21.200       77
   21.215       86
   21.230       79
   21.245       79
   21.260       95
   21.275       88
   21.290       97
   21.305       85
   21.320       83
   21.335      104
   21.350       99
   21.365       82
   21.380       75
   21.395       83
   21.410       83
   21.425       95
   21.440       88
   21.455       95
   21.470       88
   21.485       89
   21.500       73
   21.515       71
   21.530       94
   21.545       92
   21.560       99
   21.575       87
   21.590       81
   21.605       74
   21.620       88
   21.635       93
   21.650       91
   21.665       87
   21.680       86
   21.695       90
   21.710       93
   21.725       95
   21.740       87
   21.755       82
   21.770       76
   21.785       80
   21.800       87
   21.815       94
   21.830       92
   21.845       82
   21.860       87
   21.875       88
   21.890      107
   21.905       97
   21.920       84
   21.935       80
   21.950       81
   21.965       85
   21.980       85
   21.995       91
   22.010      108
   22.025      101
   22.040       83
   22.055       80
   22.070       80
   22.085      107
   22.100       87
   22.115       83
   22.130      100
   22.145       92
   22.160       80
   22.175       87
   22.190       97
   22.205       90
   22.220       77
   22.235       81
   22.250      100
   22.265       99
   22.280      106
   22.295      104
   22.310       98
   22.325       95
   22.340       89
   22.355       99
   22.370       92
   22.385       92
   22.400       84
   22.415       87
   22.430       90
   22.445       91
   22.460       91
   22.475       89
   22.490       93
   22.505       89
   22.520       94
   22.535       89
   22.550       88
   22.565       88
   22.580       87
   22.595       92
   22.610       88
   22.625       94
   22.640       93
   22.655       91
   22.670       87
   22.685      102
   22.700       95
   22.715       93
   22.730       94
   22.745       84
   22.760       80
   22.775       88
   22.790       92
   22.805       91
   22.820       97
   22.835       98
   22.850       99
   22.865       97
   22.880       95
   22.895       89
   22.910       98
   22.925      114
   22.940      112
   22.955      104
   22.970       90
   22.985      103
   23.000       95
   23.015      102
   23.030      101
   23.045       94
   23.060       95
   23.075      117
   23.090      103
   23.105       93
   23.120       92
   23.135       90
   23.150       91
   23.165       96
   23.180       96
   23.195      112
   23.210      108
   23.225       99
   23.240      101
   23.255       96
   23.270      102
   23.285       98
   23.300      108
   23.315       86
   23.330       97
   23.345      105
   23.360      106
   23.375      100
   23.390      100
   23.405      107
   23.420      109
   23.435      105
   23.450       92
   23.465      101
   23.480      103
   23.495      108
   23.510       99
   23.525       96
   23.540       96
   23.555       93
   23.570      104
   23.585      101
   23.600      108
   23.615      101
   23.630       98
   23.645      111
   23.660       98
   23.675      123
   23.690       92
   23.705       98
   23.720      111
   23.735       94
   23.750      121
   23.765      114
   23.780      111
   23.795      112
   23.810      132
   23.825      118
   23.840      102
   23.855      105
   23.870      118
   23.885      102
   23.900       98
   23.915       83
   23.930       93
   23.945       99
   23.960      109
   23.975      121
   23.990      117
   24.005      110
   24.020      121
   24.035      120
   24.050       97
   24.065      100
   24.080      105
   24.095       99
   24.110      114
   24.125       85
   24.140       97
   24.155      111
   24.170       99
   24.185       99
   24.200      107
   24.215       95
   24.230      108
   24.245      117
   24.260      105
   24.275      113
   24.290      120
   24.305      130
   24.320      131
   24.335      126
   24.350      113
   24.365      124
   24.380      125
   24.395      133
   24.410      134
   24.425      126
   24.440      132
   24.455      137
   24.470      141
   24.485      139
   24.500      127
   24.515      128
   24.530      118
   24.545      124
   24.560      128
   24.575      140
   24.590      129
   24.605      121
   24.620      125
   24.635      111
   24.650      116
   24.665      124
   24.680      117
   24.695      142
   24.710      127
   24.725      126
   24.740      103
   24.755      111
   24.770      124
   24.785      123
   24.800      135
   24.815      130
   24.830      132
   24.845      118
   24.860      125
   24.875      131
   24.890      125
   24.905      122
   24.920      129
   24.935      117
   24.950      114
   24.965      118
   24.980       99
   24.995      109
   25.010      105
   25.025      111
   25.040      125
   25.055      127
   25.070      138
   25.085      104
   25.100      132
   25.115      139
   25.130       97
   25.145      108
   25.160      129
   25.175      135
   25.190      119
   25.205       91
   25.220      101
   25.235      102
   25.250      111
   25.265      131
   25.280      140
   25.295      117
   25.310      103
   25.325      123
   25.340      117
   25.355      111
   25.370      116
   25.385       98
   25.400      118
   25.415      109
   25.430      117
   25.445      128
   25.460      126
   25.475      114
   25.490      114
   25.505      110
   25.520      115
   25.535      111
   25.550      113
   25.565      108
   25.580      125
   25.595      107
   25.610      105
   25.625      118
   25.640      115
   25.655      105
   25.670      108
   25.685      124
   25.700      122
   25.715      136
   25.730      117
   25.745      107
   25.760      136
   25.775      120
   25.790      118
   25.805      138
   25.820      132
   25.835      127
   25.850      113
   25.865      105
   25.880      111
   25.895      103
   25.910      110
   25.925      117
   25.940      113
   25.955      124
   25.970      128
   25.985      126
   26.000      128
   26.015      126
   26.030      132
   26.045      132
   26.060      117
   26.075      131
   26.090      135
   26.105      127
   26.120      128
   26.135      114
   26.150      114
   26.165      142
   26.180      105
   26.195      117
   26.210      122
   26.225      143
   26.240      138
   26.255      149
   26.270      149
   26.285      134
   26.300      127
   26.315      117
   26.330      127
   26.345      133
   26.360      135
   26.375      141
   26.390      146
   26.405      128
   26.420      113
   26.435      137
   26.450      132
   26.465      126
   26.480      137
   26.495      125
   26.510      122
   26.525      115
   26.540      121
   26.555      127
   26.570      116
   26.585      122
   26.600      116
   26.615      117
   26.630      117
   26.645      115
   26.660      120
   26.675      137
   26.690      136
   26.705      126
   26.720      120
   26.735      132
   26.750      132
   26.765      123
   26.780      132
   26.795      136
   26.810      111
   26.825      109
   26.840      117
   26.855      129
   26.870      130
   26.885      131
   26.900      117
   26.915      138
   26.930      127
   26.945      126
   26.960      139
   26.975      122
   26.990      122
   27.005      123
   27.020      128
   27.035      126
   27.050      134
   27.065      148
   27.080      147
   27.095      121
   27.110      134
   27.125      116
   27.140      125
   27.155      129
   27.170      105
   27.185      132
   27.200      113
   27.215      117
   27.230      119
   27.245      138
   27.260      138
   27.275      121
   27.290      123
   27.305      109
   27.320      121
   27.335      133
   27.350      139
   27.365      134
   27.380      134
   27.395      138
   27.410      126
   27.425      131
   27.440      112
   27.455      120
   27.470      121
   27.485      132
   27.500      133
   27.515      125
   27.530      113
   27.545      110
   27.560      107
   27.575      113
   27.590      116
   27.605      127
   27.620      131
   27.635      120
   27.650      124
   27.665      122
   27.680      140
   27.695      123
   27.710      117
   27.725      113
   27.740      117
   27.755      129
   27.770      136
   27.785      125
   27.800      117
   27.815      123
   27.830      133
   27.845      127
   27.860      127
   27.875      145
   27.890      140
   27.905      122
   27.920      123
   27.935      123
   27.950      109
   27.965      118
   27.980      140
   27.995      138
   28.010      153
   28.025      121
   28.040      132
   28.055      140
   28.070      124
   28.085      124
   28.100      130
   28.115      127
   28.130      122
   28.145      118
   28.160      113
   28.175      114
   28.190      112
   28.205      127
   28.220      130
   28.235      120
   28.250      122
   28.265      119
   28.280      123
   28.295      126
   28.310      123
   28.325      120
   28.340      136
   28.355      133
   28.370      132
   28.385      156
   28.400      139
   28.415      140
   28.430      148
   28.445      134
   28.460      135
   28.475      141
   28.490      137
   28.505      140
   28.520      129
   28.535      116
   28.550      144
   28.565      134
   28.580      134
   28.595      136
   28.610      128
   28.625      137
   28.640      134
   28.655      135
   28.670      124
   28.685      122
   28.700      119
   28.715      119
   28.730      128
   28.745      126
   28.760      128
   28.775      105
   28.790      105
   28.805      131
   28.820      122
   28.835      125
   28.850      141
   28.865      140
   28.880      123
   28.895      126
   28.910      131
   28.925      131
   28.940      141
   28.955      125
   28.970      122
   28.985      109
   29.000      129
   29.015      135
   29.030      130
   29.045      128
   29.060      120
   29.075      125
   29.090      126
   29.105      124
   29.120      118
   29.135      132
   29.150      113
   29.165      126
   29.180      124
   29.195      142
   29.210      127
   29.225      149
   29.240      127
   29.255      144
   29.270      143
   29.285      137
   29.300      132
   29.315      128
   29.330      149
   29.345      143
   29.360      141
   29.375      135
   29.390      143
   29.405      143
   29.420      125
   29.435      125
   29.450      126
   29.465      129
   29.480      125
   29.495      109
   29.510      127
   29.525      120
   29.540      137
   29.555      142
   29.570      147
   29.585      119
   29.600      124
   29.615      118
   29.630      107
   29.645      146
   29.660      116
   29.675      117
   29.690      117
   29.705      110
   29.720      116
   29.735      125
   29.750      150
   29.765      128
   29.780      115
   29.795      117
   29.810      136
   29.825      121
   29.840      126
   29.855      101
   29.870      121
   29.885      115
   29.900      121
   29.915      117
   29.930      117
   29.945      124
   29.960      121
   29.975      124
   29.990      115
   30.005      118
   30.020      119
   30.035      114
   30.050      110
   30.065      126
   30.080      109
   30.095      124
   30.110      122
   30.125      122
   30.140      121
   30.155      112
   30.170      116
   30.185      125
   30.200      113
   30.215      112
   30.230      116
   30.245      123
   30.260      110
   30.275      116
   30.290      136
   30.305      126
   30.320      119
   30.335      107
   30.350      113
   30.365      121
   30.380      131
   30.395      107
   30.410      112
   30.425      125
   30.440      106
   30.455      114
   30.470      118
   30.485      125
   30.500      137
   30.515      157
   30.530      135
   30.545      124
   30.560      119
   30.575      132
   30.590      132
   30.605      132
   30.620      146
   30.635      123
   30.650      115
   30.665      115
   30.680      108
   30.695      113
   30.710      125
   30.725      114
   30.740      105
   30.755      113
   30.770      127
   30.785      128
   30.800      122
   30.815      106
   30.830       96
   30.845      128
   30.860      132
   30.875      112
   30.890      123
   30.905      110
   30.920      111
   30.935      123
   30.950      126
   30.965      129
   30.980      105
   30.995      118
   31.010      108
   31.025      101
   31.040      119
   31.055      114
   31.070      117
   31.085      124
   31.100      119
   31.115      120
   31.130      116
   31.145      121
   31.160      112
   31.175      122
   31.190      130
   31.205      124
   31.220       93
   31.235      111
   31.250      114
   31.265      104
   31.280      133
   31.295      106
   31.310      118
   31.325      123
   31.340      114
   31.355       92
   31.370      123
   31.385      106
   31.400      114
   31.415      117
   31.430      131
   31.445      108
   31.460      102
   31.475      103
   31.490       99
   31.505      111
   31.520      113
   31.535      105
   31.550      134
   31.565       96
   31.580      118
   31.595      103
   31.610       98
   31.625      104
   31.640       94
   31.655      112
   31.670      134
   31.685      138
   31.700      138
   31.715      134
   31.730      121
   31.745      131
   31.760      123
   31.775      137
   31.790      120
   31.805      133
   31.820      113
   31.835      113
   31.850      101
   31.865      114
   31.880       98
   31.895      102
   31.910      108
   31.925      110
   31.940      102
   31.955       93
   31.970      111
   31.985      106
   32.000      107
   32.015       97
   32.030      106
   32.045      116
   32.060      114
   32.075      104
   32.090      102
   32.105      106
   32.120       95
   32.135      103
   32.150      102
   32.165      111
   32.180      100
   32.195       95
   32.210      110
   32.225      119
   32.240      127
   32.255      120
   32.270      104
   32.285      106
   32.300      122
   32.315      113
   32.330       98
   32.345      105
   32.360      112
   32.375      109
   32.390      104
   32.405      103
   32.420      116
   32.435      111
   32.450      114
   32.465      105
   32.480      100
   32.495       91
   32.510       95
   32.525      100
   32.540       94
   32.555      100
   32.570      115
   32.585      100
   32.600      100
   32.615      107
   32.630      104
   32.645      107
   32.660       99
   32.675      106
   32.690      116
   32.705      108
   32.720       99
   32.735      103
   32.750      106
   32.765      114
   32.780      117
   32.795      114
   32.810      115
   32.825      111
   32.840      130
   32.855      116
   32.870      110
   32.885      115
   32.900      108
   32.915      119
   32.930      127
   32.945      114
   32.960      109
   32.975      104
   32.990      102
   33.005       96
   33.020      114
   33.035      108
   33.050      109
   33.065      112
   33.080      108
   33.095      104
   33.110      128
   33.125      105
   33.140      101
   33.155      105
   33.170      115
   33.185      114
   33.200      109
   33.215       94
   33.230      104
   33.245      102
   33.260      105
   33.275      119
   33.290      118
   33.305      111
   33.320       92
   33.335      116
   33.350      110
   33.365      113
   33.380       88
   33.395       90
   33.410       85
   33.425       98
   33.440       84
   33.455       88
   33.470      107
   33.485      112
   33.500       94
   33.515      108
   33.530       98
   33.545      109
   33.560       93
   33.575       92
   33.590       98
   33.605      110
   33.620      107
   33.635      105
   33.650       95
   33.665       99
   33.680      113
   33.695      116
   33.710      101
   33.725      120
   33.740      108
   33.755      107
   33.770      105
   33.785       95
   33.800      108
   33.815      103
   33.830      102
   33.845      110
   33.860       90
   33.875      103
   33.890       86
   33.905      106
   33.920       86
   33.935       96
   33.950       93
   33.965       86
   33.980       92
   33.995      100
   34.010       99
   34.025      101
   34.040       91
   34.055       79
   34.070       99
   34.085      107
   34.100      120
   34.115       89
   34.130       91
   34.145      100
   34.160       92
   34.175      102
   34.190      100
   34.205      102
   34.220       88
   34.235       99
   34.250       95
   34.265      100
   34.280      107
   34.295      117
   34.310      114
   34.325       97
   34.340      102
   34.355      102
   34.370      106
   34.385       99
   34.400      102
   34.415      112
   34.430      128
   34.445      103
   34.460      106
   34.475      105
   34.490       99
   34.505      102
   34.520      102
   34.535      102
   34.550      114
   34.565      101
   34.580       96
   34.595       93
   34.610       97
   34.625       89
   34.640       99
   34.655      100
   34.670       97
   34.685      111
   34.700      112
   34.715      110
   34.730      108
   34.745       94
   34.760       92
   34.775       91
   34.790      107
   34.805       92
   34.820       94
   34.835       97
   34.850      100
   34.865      101
   34.880      114
   34.895      100
   34.910      100
   34.925       97
   34.940      100
   34.955       95
   34.970      111
   34.985      104
   35.000      100
   35.015      101
   35.030      109
   35.045      108
   35.060       99
   35.075      102
   35.090       94
   35.105       94
   35.120       97
   35.135      104
   35.150       96
   35.165       84
   35.180       93
   35.195       93
   35.210      102
   35.225       90
   35.240       81
   35.255       96
   35.270       89
   35.285      101
   35.300      106
   35.315      105
   35.330      114
   35.345      107
   35.360       94
   35.375      105
   35.390       89
   35.405      108
   35.420       88
   35.435       84
   35.450      102
   35.465      102
   35.480       92
   35.495       84
   35.510       93
   35.525       81
   35.540       97
   35.555       94
   35.570       96
   35.585       96
   35.600       92
   35.615       88
   35.630       88
   35.645      108
   35.660       87
   35.675       86
   35.690       99
   35.705      107
   35.720       95
   35.735       77
   35.750       83
   35.765       96
   35.780       86
   35.795       80
   35.810       93
   35.825      102
   35.840      106
   35.855       95
   35.870       85
   35.885       92
   35.900       98
   35.915       93
   35.930       80
   35.945       83
   35.960       86
   35.975       93
   35.990      100
   36.005       99
   36.020       90
   36.035       98
   36.050       90
   36.065       90
   36.080       88
   36.095       98
   36.110       99
   36.125      101
   36.140       99
   36.155       96
   36.170       97
   36.185       94
   36.200      102
   36.215       95
   36.230       98
   36.245       94
   36.260       91
   36.275       98
   36.290      100
   36.305      117
   36.320       96
   36.335       99
   36.350       97
   36.365       99
   36.380      105
   36.395       99
   36.410       90
   36.425       89
   36.440       85
   36.455       86
   36.470       97
   36.485      101
   36.500       97
   36.515      105
   36.530       94
   36.545       93
   36.560      113
   36.575      105
   36.590      101
   36.605       86
   36.620       88
   36.635      105
   36.650       84
   36.665       79
   36.680       91
   36.695       96
   36.710       94
   36.725       99
   36.740       89
   36.755       87
   36.770       94
   36.785      110
   36.800      100
   36.815       98
   36.830       95
   36.845       96
   36.860       96
   36.875       98
   36.890       96
   36.905       94
   36.920       88
   36.935       89
   36.950       94
   36.965      111
   36.980       92
   36.995      106
   37.010       97
   37.025       95
   37.040       93
   37.055       99
   37.070       98
   37.085      106
   37.100       92
   37.115       93
   37.130       98
   37.145       87
   37.160       82
   37.175       82
   37.190       86
   37.205       77
   37.220       86
   37.235      100
   37.250       84
   37.265       94
   37.280      110
   37.295       81
   37.310       97
   37.325       67
   37.340       90
   37.355       77
   37.370       85
   37.385       94
   37.400       86
   37.415       98
   37.430      108
   37.445       91
   37.460       97
   37.475       75
   37.490       86
   37.505       84
   37.520       91
   37.535       86
   37.550       91
   37.565       96
   37.580       98
   37.595       94
   37.610       95
   37.625       96
   37.640       96
   37.655       95
   37.670       85
   37.685       78
   37.700      103
   37.715       99
   37.730       90
   37.745       88
   37.760      100
   37.775       75
   37.790       81
   37.805      100
   37.820       95
   37.835       85
   37.850       79
   37.865       94
   37.880       92
   37.895       98
   37.910       92
   37.925       87
   37.940       92
   37.955       99
   37.970       97
   37.985       82
   38.000      101
   38.015      104
   38.030       85
   38.045       80
   38.060       79
   38.075       88
   38.090       87
   38.105       91
   38.120       80
   38.135       86
   38.150       90
   38.165       85
   38.180       82
   38.195       85
   38.210       98
   38.225       92
   38.240       82
   38.255       91
   38.270       81
   38.285       77
   38.300       88
   38.315       75
   38.330       77
   38.345       82
   38.360       81
   38.375       85
   38.390       84
   38.405       85
   38.420       91
   38.435       83
   38.450       85
   38.465       89
   38.480       86
   38.495       85
   38.510       79
   38.525       90
   38.540       97
   38.555       88
   38.570       81
   38.585       88
   38.600       99
   38.615      107
   38.630       99
   38.645       90
   38.660       81
   38.675       82
   38.690       76
   38.705       80
   38.720       78
   38.735       90
   38.750       83
   38.765       80
   38.780       77
   38.795       73
   38.810       70
   38.825       75
   38.840       90
   38.855       93
   38.870       84
   38.885       85
   38.900       87
   38.915       83
   38.930       85
   38.945       90
   38.960       84
   38.975       80
   38.990       93
   39.005       90
   39.020       95
   39.035       83
   39.050       83
   39.065       89
   39.080       90
   39.095       89
   39.110       71
   39.125       76
   39.140       75
   39.155       88
   39.170       88
   39.185       99
   39.200       97
   39.215       84
   39.230       87
   39.245       89
   39.260       85
   39.275       78
   39.290       84
   39.305       81
   39.320       83
   39.335       94
   39.350       83
   39.365       90
   39.380       87
   39.395       87
   39.410       81
   39.425       87
   39.440       78
   39.455      100
   39.470       80
   39.485       90
   39.500       91
   39.515       82
   39.530       60
   39.545       70
   39.560       91
   39.575       85
   39.590       90
   39.605       81
   39.620       92
   39.635       91
   39.650       75
   39.665       90
   39.680       89
   39.695       76
   39.710       81
   39.725       96
   39.740       96
   39.755       80
   39.770       90
   39.785       85
   39.800       86
   39.815       76
   39.830       77
   39.845       80
   39.860       88
   39.875       85
   39.890       82
   39.905       89
   39.920       95
   39.935       89
   39.950       97
   39.965       81
   39.980       79
   39.995       78
   40.010       84
   40.025       75
   40.040       78
   40.055       79
   40.070       79
   40.085       94
   40.100      123
   40.115      113
   40.130       95
   40.145       91
   40.160       91
   40.175      101
   40.190       92
   40.205      105
   40.220       95
   40.235       85
   40.250       92
   40.265      104
   40.280       91
   40.295       83
   40.310       80
   40.325       79
   40.340       89
   40.355      100
   40.370      108
   40.385      101
   40.400       79
   40.415       93
   40.430       86
   40.445       90
   40.460       77
   40.475       74
   40.490      101
   40.505       99
   40.520       82
   40.535       78
   40.550       85
   40.565       85
   40.580       86
   40.595       94
   40.610       97
   40.625       88
   40.640       93
   40.655       82
   40.670       84
   40.685       92
   40.700       83
   40.715       84
   40.730       84
   40.745       87
   40.760       91
   40.775       85
   40.790       77
   40.805       93
   40.820       91
   40.835       82
   40.850       83
   40.865       90
   40.880       84
   40.895       85
   40.910       81
   40.925       78
   40.940       86
   40.955       82
   40.970       80
   40.985       98
   41.000      104
   41.015       93
   41.030       83
   41.045       84
   41.060      101
   41.075      106
   41.090       99
   41.105       86
   41.120       84
   41.135       73
   41.150       88
   41.165       82
   41.180       82
   41.195       90
   41.210       96
   41.225       89
   41.240       88
   41.255       85
   41.270       87
   41.285       82
   41.300       89
   41.315      104
   41.330      102
   41.345       90
   41.360       78
   41.375       80
   41.390       96
   41.405       86
   41.420       89
   41.435       82
   41.450       96
   41.465       85
   41.480       66
   41.495       84
   41.510       90
   41.525       82
   41.540       84
   41.555      109
   41.570       81
   41.585       72
   41.600       77
   41.615       81
   41.630       99
   41.645       87
   41.660       66
   41.675       94
   41.690       88
   41.705      101
   41.720      101
   41.735       92
   41.750      103
   41.765       89
   41.780       89
   41.795       88
   41.810       88
   41.825       95
   41.840       87
   41.855       77
   41.870       71
   41.885       81
   41.900       90
   41.915       73
   41.930       86
   41.945       76
   41.960       84
   41.975       86
   41.990       86
   42.005      102
   42.020       99
   42.035       83
   42.050       84
   42.065       86
   42.080       90
   42.095       75
   42.110       88
   42.125       90
   42.140       76
   42.155       80
   42.170       88
   42.185       89
   42.200       82
   42.215       76
   42.230       81
   42.245       91
   42.260       91
   42.275       75
   42.290       85
   42.305       93
   42.320       74
   42.335       85
   42.350       91
   42.365       90
   42.380       86
   42.395       86
   42.410       73
   42.425       75
   42.440       78
   42.455       76
   42.470       77
   42.485       79
   42.500       78
   42.515       83
   42.530       82
   42.545       86
   42.560       86
   42.575       80
   42.590       89
   42.605       89
   42.620       89
   42.635       82
   42.650       64
   42.665       67
   42.680       69
   42.695       71
   42.710       77
   42.725       88
   42.740       82
   42.755       89
   42.770       84
   42.785       83
   42.800       75
   42.815       86
   42.830       73
   42.845       74
   42.860       82
   42.875       82
   42.890       90
   42.905       88
   42.920       96
   42.935       76
   42.950       71
   42.965       89
   42.980      104
   42.995       78
   43.010       72
   43.025       85
   43.040       82
   43.055       87
   43.070       88
   43.085       76
   43.100       80
   43.115       75
   43.130       75
   43.145       86
   43.160       71
   43.175       77
   43.190       79
   43.205       91
   43.220       81
   43.235       79
   43.250       83
   43.265       81
   43.280       85
   43.295       81
   43.310       85
   43.325       83
   43.340       79
   43.355       90
   43.370       87
   43.385       96
   43.400       79
   43.415       91
   43.430       92
   43.445       71
   43.460       81
   43.475       79
   43.490       75
   43.505       77
   43.520       81
   43.535       90
   43.550       70
   43.565       83
   43.580       72
   43.595       75
   43.610       83
   43.625       90
   43.640       83
   43.655       87
   43.670       79
   43.685       85
   43.700       82
   43.715       98
   43.730       83
   43.745       71
   43.760       79
   43.775       87
   43.790       86
   43.805       97
   43.820       99
   43.835       97
   43.850      102
   43.865       74
   43.880       90
   43.895       95
   43.910       94
   43.925       93
   43.940       89
   43.955       90
   43.970       88
   43.985       97
