    2.000       87
    2.015       77
    2.030       99
    2.045      115
    2.060      101
    2.075      101
    2.090       90
    2.105       90
    2.120       81
    2.135       97
    2.150       95
    2.165      101
    2.180       97
    2.195       92
    2.210      114
    2.225      105
    2.240      101
    2.255      101
    2.270       97
    2.285       89
    2.300       96
    2.315       84
    2.330      102
    2.345      115
    2.360      107
    2.375      118
    2.390      113
    2.405       99
    2.420      100
    2.435       95
    2.450       88
    2.465       91
    2.480       98
    2.495      103
    2.510      108
    2.525      114
    2.540      104
    2.555       95
    2.570      100
    2.585      106
    2.600       99
    2.615      110
    2.630      127
    2.645      118
    2.660      122
    2.675      142
    2.690      138
    2.705      134
    2.720      137
    2.735      121
    2.750      107
    2.765      107
    2.780      125
    2.795      114
    2.810      110
    2.825      107
    2.840      109
    2.855      107
    2.870      111
    2.885      115
    2.900      125
    2.915      128
    2.930      114
    2.945      116
    2.960      120
    2.975      121
    2.990      108
    3.005      128
    3.020      137
    3.035      137
    3.050      139
    3.065      131
    3.080      124
    3.095      126
    3.110      141
    3.125      144
    3.140      122
    3.155      143
    3.170      150
    3.185      150
    3.200      153
    3.215      119
    3.230      122
    3.245      108
    3.260      124
    3.275      127
    3.290      107
    3.305      125
    3.320      112
    3.335      120
    3.350      120
    3.365      115
    3.380      109
    3.395      107
    3.410       90
    3.425       84
    3.440       94
    3.455      108
    3.470       96
    3.485       84
    3.500      107
    3.515       87
    3.530       89
    3.545       94
    3.560      100
    3.575      104
    3.590      103
    3.605       83
    3.620       97
    3.635      104
    3.650       94
    3.665      100
    3.680      100
    3.695      101
    3.710       94
    3.725       88
    3.740      102
    3.755      109
    3.770       96
    3.785      102
    3.800      110
    3.815      111
    3.830      101
    3.845      124
    3.860      105
    3.875      101
    3.890      120
    3.905      114
    3.920      108
    3.935       92
    3.950       97
    3.965      108
    3.980       95
    3.995       92
    4.010       94
    4.025       94
    4.040      100
    4.055       98
    4.070      104
    4.085      103
    4.100       88
    4.115       98
    4.130       91
    4.145       94
    4.160       87
    4.175       91
    4.190       98
    4.205      106
    4.220      100
    4.235      108
    4.250      106
    4.265      106
    4.280       89
    4.295       86
    4.310       91
    4.325       93
    4.340      104
    4.355       81
    4.370       82
    4.385      106
    4.400      104
    4.415      104
    4.430      101
    4.445       94
    4.460      100
    4.475       88
    4.490      106
    4.505       90
    4.520       99
    4.535       98
    4.550      104
    4.565      107
    4.580      105
    4.595      103
    4.610      105
    4.625      101
    4.640       99
    4.655       98
    4.670       96
    4.685      102
    4.700      100
    4.715       97
    4.730      104
    4.745      102
    4.760      106
    4.775      104
    4.790       97
    4.805       96
    4.820       91
    4.835       90
    4.850      107
    4.865      113
    4.880      122
    4.895      110
    4.910      105
    4.925      107
    4.940       97
    4.955      101
    4.970      112
    4.985      113
    5.000      116
    5.015      103
    5.030      102
    5.045      116
    5.060       95
    5.075      107
    5.090      110
    5.105      100
    5.120       92
    5.135       89
    5.150       91
    5.165       95
    5.180       97
    5.195       93
    5.210      119
    5.225      100
    5.240      120
    5.255      111
    5.270      118
    5.285       96
    5.300       82
    5.315      102
    5.330      100
    5.345      104
    5.360      111
    5.375      106
    5.390      103
    5.405       90
    5.420       92
    5.435      112
    5.450      103
    5.465      107
    5.480      103
    5.495      110
    5.510      108
    5.525       92
    5.540      127
    5.555      100
    5.570       98
    5.585       95
    5.600       82
    5.615       98
    5.630       94
    5.645      102
    5.660      110
    5.675      104
    5.690       94
    5.705      103
    5.720       97
    5.735      104
    5.750      104
    5.765      111
    5.780      107
    5.795      105
    5.810      103
    5.825       96
    5.840       86
    5.855       74
    5.870       90
    5.885       90
    5.900       95
    5.915       87
    5.930       77
    5.945       93
    5.960       93
    5.975       87
    5.990       84
    6.005       85
    6.020       91
    6.035       89
    6.050       97
    6.065      101
    6.080       92
    6.095       99
    6.110      101
    6.125       95
    6.140       88
    6.155       80
    6.170       95
    6.185      102
    6.200       89
    6.215       89
    6.230      103
    6.245       91
    6.260       93
    6.275       85
    6.290       90
    6.305       93
    6.320      100
    6.335       98
    6.350       95
    6.365       98
    6.380      100
    6.395       94
    6.410       95
    6.425      100
    6.440       98
    6.455       94
    6.470       97
    6.485      105
    6.500       88
    6.515       83
    6.530       85
    6.545       86
    6.560       90
    6.575       98
    6.590       94
    6.605      104
    6.620       98
    6.635      107
    6.650       62
    6.665       81
    6.680       96
    6.695       94
    6.710       70
    6.725       76
    6.740       95
    6.755       94
    6.770       91
    6.785      102
    6.800      104
    6.815       92
    6.830       96
    6.845      100
    6.860      109
    6.875       85
    6.890       85
    6.905      107
    6.920       99
    6.935       88
    6.950      113
    6.965       94
    6.980       96
    6.995       97
    7.010       93
    7.025      113
    7.040      104
    7.055       97
    7.070       83
    7.085       96
    7.100      101
    7.115       88
    7.130      111
    7.145       95
    7.160       90
    7.175      113
    7.190       92
    7.205       85
    7.220       95
    7.235       89
    7.250       80
    7.265       93
    7.280       85
    7.295       72
    7.310       86
    7.325       82
    7.340       84
    7.355       97
    7.370      100
    7.385      102
    7.400      102
    7.415      100
    7.430       86
    7.445       98
    7.460      100
    7.475       96
    7.490      113
    7.505      114
    7.520      100
    7.535       96
    7.550       92
    7.565       96
    7.580       96
    7.595      100
    7.610      118
    7.625       92
    7.640       97
    7.655      104
    7.670      102
    7.685       94
    7.700       87
    7.715      105
    7.730      109
    7.745      100
    7.760      113
    7.775      105
    7.790      103
    7.805      125
    7.820      115
    7.835      103
    7.850      102
    7.865      105
    7.880       99
    7.895       96
    7.910      107
    7.925      101
    7.940      104
    7.955      107
    7.970       95
    7.985       88
    8.000       90
    8.015       96
    8.030      115
    8.045      120
    8.060      106
    8.075       94
    8.090       95
    8.105      104
    8.120       93
    8.135       90
    8.150      110
    8.165      103
    8.180       86
    8.195       99
    8.210      111
    8.225      107
    8.240      122
    8.255      129
    8.270      121
    8.285      114
    8.300      110
    8.315      109
    8.330       97
    8.345      112
    8.360      123
    8.375      107
    8.390      112
    8.405      120
    8.420      130
    8.435      123
    8.450      108
    8.465      117
    8.480      133
    8.495      116
    8.510      106
    8.525      112
    8.540      107
    8.555      111
    8.570      129
    8.585      129
    8.600      131
    8.615      136
    8.630      133
    8.645      129
    8.660      120
    8.675      120
    8.690      139
    8.705      152
    8.720      169
    8.735      161
    8.750      159
    8.765      149
    8.780      164
    8.795      162
    8.810      167
    8.825      165
    8.840      171
    8.855      212
    8.870      207
    8.885      203
    8.900      211
    8.915      212
    8.930      209
    8.945      194
    8.960      207
    8.975      178
    8.990      181
    9.005      188
    9.020      218
    9.035      240
    9.050      232
    9.065      250
    9.080      257
    9.095      265
    9.110      284
    9.125      308
    9.140      303
    9.155      378
    9.170      413
    9.185      445
    9.200      499
    9.215      568
    9.230      710
    9.245      835
    9.260      955
    9.275      836
    9.290      674
    9.305      539
    9.320      388
    9.335      238
    9.350      173
    9.365      142
    9.380      124
    9.395      146
    9.410      141
    9.425      174
    9.440      143
    9.455      161
    9.470      160
    9.485      184
    9.500      224
    9.515      240
    9.530      263
    9.545      275
    9.560      247
    9.575      208
    9.590      172
    9.605      139
    9.620      146
    9.635      126
    9.650      111
    9.665      116
    9.680      124
    9.695      110
    9.710      105
    9.725      100
    9.740      105
    9.755      113
    9.770      100
    9.785      105
    9.800      112
    9.815      102
    9.830      101
    9.845      100
    9.860      109
    9.875      116
    9.890      107
    9.905      103
    9.920      109
    9.935      115
    9.950      104
    9.965      114
    9.980      117
    9.995      114
   10.010      115
   10.025       98
   10.040       97
   10.055      109
   10.070      111
   10.085      102
   10.100      123
   10.115      124
   10.130      115
   10.145      110
   10.160      117
   10.175      134
   10.190      114
   10.205      106
   10.220      106
   10.235      114
   10.250      104
   10.265      106
   10.280       98
   10.295       97
   10.310      108
   10.325      101
   10.340      112
   10.355      123
   10.370      114
   10.385      101
   10.400      100
   10.415      108
   10.430      101
   10.445      106
   10.460      115
   10.475      115
   10.490      110
   10.505      102
   10.520      104
   10.535      105
   10.550       99
   10.565       91
   10.580      102
   10.595      107
   10.610      113
   10.625      115
   10.640      103
   10.655      112
   10.670      106
   10.685      101
   10.700       99
   10.715      106
   10.730      111
   10.745      109
   10.760      102
   10.775       98
   10.790      110
   10.805      115
   10.820       97
   10.835      101
   10.850      105
   10.865      119
   10.880      114
   10.895      100
   10.910      105
   10.925       97
   10.940      110
   10.955      115
   10.970      119
   10.985      126
   11.000      126
   11.015      115
   11.030      106
   11.045      107
   11.060      123
   11.075      117
   11.090      105
   11.105      116
   11.120      110
   11.135      106
   11.150      116
   11.165      128
   11.180      114
   11.195      114
   11.210      107
   11.225      101
   11.240      115
   11.255      111
   11.270      107
   11.285      100
   11.300       99
   11.315       89
   11.330       95
   11.345       99
   11.360       98
   11.375      105
   11.390      116
   11.405      107
   11.420      107
   11.435      104
   11.450      105
   11.465       99
   11.480      102
   11.495      127
   11.510      101
   11.525       90
   11.540      114
   11.555      119
   11.570      126
   11.585      110
   11.600      102
   11.615      103
   11.630      104
   11.645       96
   11.660      107
   11.675      101
   11.690       87
   11.705      112
   11.720       93
   11.735       94
   11.750       90
   11.765      116
   11.780      100
   11.795       90
   11.810      105
   11.825      113
   11.840      101
   11.855      110
   11.870       98
   11.885      100
   11.900       93
   11.915      112
   11.930      102
   11.945      105
   11.960       87
   11.975      102
   11.990       94
   12.005       99
   12.020      105
   12.035       95
   12.050      102
   12.065      103
   12.080      120
   12.095      129
   12.110      118
   12.125      105
   12.140      110
   12.155      118
   12.170      130
   12.185      118
   12.200      130
   12.215      101
   12.230      102
   12.245      115
   12.260      138
   12.275      143
   12.290      153
   12.305      131
   12.320      137
   12.335      166
   12.350      184
   12.365      193
   12.380      213
   12.395      228
   12.410      242
   12.425      294
   12.440      299
   12.455      311
   12.470      290
   12.485      240
   12.500      202
   12.515      167
   12.530      134
   12.545      112
   12.560      113
   12.575      115
   12.590      105
   12.605      106
   12.620      110
   12.635       90
   12.650      121
   12.665      118
   12.680      100
   12.695      120
   12.710      117
   12.725      116
   12.740      109
   12.755      106
   12.770      106
   12.785      113
   12.800      108
   12.815      103
   12.830      116
   12.845      128
   12.860      114
   12.875       99
   12.890      116
   12.905      112
   12.920       93
   12.935      112
   12.950      106
   12.965      112
   12.980      125
   12.995      108
   13.010      114
   13.025      124
   13.040      101
   13.055      136
   13.070      113
   13.085      106
   13.100      126
   13.115      108
   13.130      114
   13.145      119
   13.160      111
   13.175      125
   13.190      116
   13.205      116
   13.220      133
   13.235       99
   13.250      129
   13.265      119
   13.280      119
   13.295      127
   13.310       98
   13.325      129
   13.340      133
   13.355      109
   13.370      125
   13.385      109
   13.400      118
   13.415       99
   13.430      125
   13.445      117
   13.460      104
   13.475      106
   13.490      113
   13.505      100
   13.520      111
   13.535      103
   13.550      107
   13.565      104
   13.580      117
   13.595      122
   13.610      126
   13.625      127
   13.640      118
   13.655      124
   13.670      123
   13.685      118
   13.700      134
   13.715      137
   13.730      154
   13.745      149
   13.760      163
   13.775      179
   13.790      178
   13.805      209
   13.820      211
   13.835      201
   13.850      158
   13.865      136
   13.880      136
   13.895      127
   13.910      107
   13.925      124
   13.940      119
   13.955      108
   13.970      115
   13.985      107
   14.000      120
   14.015      121
   14.030      108
   14.045      120
   14.060      120
   14.075      120
   14.090      118
   14.105       98
   14.120      114
   14.135      105
   14.150      112
   14.165      114
   14.180      108
   14.195      118
   14.210      125
   14.225      106
   14.240      108
   14.255      121
   14.270      120
   14.285      113
   14.300      119
   14.315      117
   14.330      120
   14.345      121
   14.360      125
   14.375      114
   14.390      114
   14.405      116
   14.420      126
   14.435      129
   14.450      118
   14.465      113
   14.480      103
   14.495      107
   14.510      111
   14.525      115
   14.540      126
   14.555      112
   14.570      110
   14.585      106
   14.600      126
   14.615      131
   14.630      125
   14.645      115
   14.660      119
   14.675      121
   14.690      125
   14.705      123
   14.720      116
   14.735      129
   14.750      121
   14.765      113
   14.780      121
   14.795      129
   14.810      122
   14.825      119
   14.840      111
   14.855      119
   14.870      134
   14.885      133
   14.900      125
   14.915      117
   14.930      119
   14.945      109
   14.960      115
   14.975      121
   14.990      114
   15.005      116
   15.020      110
   15.035      117
   15.050      128
   15.065      133
   15.080      148
   15.095      135
   15.110      112
   15.125      116
   15.140      108
   15.155      118
   15.170      121
   15.185      121
   15.200      133
   15.215      132
   15.230      128
   15.245      112
   15.260      135
   15.275      146
   15.290      137
   15.305      124
   15.320      122
   15.335      128
   15.350      134
   15.365      112
   15.380      122
   15.395      119
   15.410      123
   15.425      119
   15.440      117
   15.455      135
   15.470      123
   15.485      115
   15.500      142
   15.515      123
   15.530      129
   15.545      116
   15.560      127
   15.575      121
   15.590      123
   15.605      121
   15.620      125
   15.635      148
   15.650      121
   15.665      115
   15.680      142
   15.695      139
   15.710      156
   15.725      138
   15.740      122
   15.755      143
   15.770      133
   15.785      146
   15.800      154
   15.815      146
   15.830      143
   15.845      143
   15.860      152
   15.875      166
   15.890      159
   15.905      148
   15.920      185
   15.935      189
   15.950      196
   15.965      191
   15.980      210
   15.995      201
   16.010      201
   16.025      176
   16.040      161
   16.055      166
   16.070      158
   16.085      125
   16.100      138
   16.115      133
   16.130      131
   16.145      145
   16.160      155
   16.175      150
   16.190      128
   16.205      149
   16.220      138
   16.235      128
   16.250      150
   16.265      160
   16.280      159
   16.295      151
   16.310      160
   16.325      154
   16.340      160
   16.355      180
   16.370      175
   16.385      184
   16.400      200
   16.415      232
   16.430      253
   16.445      252
   16.460      275
   16.475      274
   16.490      262
   16.505      239
   16.520      200
   16.535      190
   16.550      179
   16.565      160
   16.580      147
   16.595      123
   16.610      129
   16.625      148
   16.640      167
   16.655      158
   16.670      149
   16.685      151
   16.700      147
   16.715      147
   16.730      142
   16.745      146
   16.760      159
   16.775      161
   16.790      174
   16.805      198
   16.820      198
   16.835      186
   16.850      177
   16.865      173
   16.880      195
   16.895      179
   16.910      158
   16.925      155
   16.940      152
   16.955      155
   16.970      145
   16.985      126
   17.000      132
   17.015      158
   17.030      142
   17.045      134
   17.060      138
   17.075      141
   17.090      149
   17.105      138
   17.120      146
   17.135      157
   17.150      160
   17.165      146
   17.180      157
   17.195      141
   17.210      149
   17.225      151
   17.240      167
   17.255      146
   17.270      148
   17.285      156
   17.300      159
   17.315      148
   17.330      131
   17.345      131
   17.360      144
   17.375      144
   17.390      135
   17.405      134
   17.420      155
   17.435      165
   17.450      163
   17.465      149
   17.480      138
   17.495      140
   17.510      156
   17.525      140
   17.540      160
   17.555      152
   17.570      157
   17.585      141
   17.600      140
   17.615      138
   17.630      164
   17.645      167
   17.660      150
   17.675      172
   17.690      169
   17.705      128
   17.720      131
   17.735      137
   17.750      165
   17.765      167
   17.780      143
   17.795      146
   17.810      160
   17.825      162
   17.840      143
   17.855      149
   17.870      171
   17.885      163
   17.900      141
   17.915      152
   17.930      132
   17.945      152
   17.960      156
   17.975      160
   17.990      162
   18.005      170
   18.020      168
   18.035      149
   18.050      154
   18.065      148
   18.080      155
   18.095      154
   18.110      145
   18.125      165
   18.140      159
   18.155      146
   18.170      149
   18.185      160
   18.200      162
   18.215      162
   18.230      156
   18.245      150
   18.260      149
   18.275      153
   18.290      177
   18.305      180
   18.320      163
   18.335      165
   18.350      157
   18.365      168
   18.380      159
   18.395      169
   18.410      183
   18.425      178
   18.440      178
   18.455      200
   18.470      176
   18.485      192
   18.500      206
   18.515      222
   18.530      227
   18.545      231
   18.560      270
   18.575      341
   18.590      338
   18.605      347
   18.620      433
   18.635      509
   18.650      532
   18.665      566
   18.680      573
   18.695      552
   18.710      465
   18.725      384
   18.740      293
   18.755      237
   18.770      209
   18.785      176
   18.800      183
   18.815      158
   18.830      182
   18.845      182
   18.860      173
   18.875      139
   18.890      139
   18.905      155
   18.920      162
   18.935      169
   18.950      148
   18.965      172
   18.980      160
   18.995      150
   19.010      160
   19.025      151
   19.040      157
   19.055      173
   19.070      172
   19.085      167
   19.100      187
   19.115      196
   19.130      185
   19.145      195
   19.160      183
   19.175      183
   19.190      239
   19.205      235
   19.220      255
   19.235      255
   19.250      263
   19.265      252
   19.280      256
   19.295      231
   19.310      176
   19.325      179
   19.340      177
   19.355      162
   19.370      176
   19.385      164
   19.400      173
   19.415      170
   19.430      159
   19.445      143
   19.460      165
   19.475      169
   19.490      171
   19.505      158
   19.520      144
   19.535      154
   19.550      153
   19.565      162
   19.580      171
   19.595      162
   19.610      167
   19.625      159
   19.640      164
   19.655      166
   19.670      162
   19.685      163
   19.700      167
   19.715      167
   19.730      139
   19.745      160
   19.760      171
   19.775      157
   19.790      142
   19.805      161
   19.820      158
   19.835      158
   19.850      148
   19.865      139
   19.880      172
   19.895      158
   19.910      156
   19.925      161
   19.940      181
   19.955      174
   19.970      165
   19.985      147
   20.000      146
   20.015      160
   20.030      169
   20.045      181
   20.060      163
   20.075      170
   20.090      159
   20.105      158
   20.120      155
   20.135      143
   20.150      165
   20.165      155
   20.180      147
   20.195      149
   20.210      172
   20.225      169
   20.240      145
   20.255      136
   20.270      140
   20.285      150
   20.300      144
   20.315      149
   20.330      149
   20.345      175
   20.360      169
   20.375      161
   20.390      150
   20.405      156
   20.420      178
   20.435      180
   20.450      147
   20.465      158
   20.480      164
   20.495      142
   20.510      134
   20.525      150
   20.540      160
   20.555      159
   20.570      167
   20.585      158
   20.600      148
   20.615      168
   20.630      165
   20.645      166
   20.660      160
   20.675      155
   20.690      145
   20.705      152
   20.720      174
   20.735      160
   20.750      177
   20.765      173
   20.780      181
   20.795      159
   20.810      171
   20.825      184
   20.840      176
   20.855      179
   20.870      199
   20.885      210
   20.900      184
   20.915      187
   20.930      183
   20.945      183
   20.960      167
   20.975      170
   20.990      143
   21.005      145
   21.020      154
   21.035      160
   21.050      162
   21.065      169
   21.080      152
   21.095      149
   21.110      168
   21.125      185
   21.140      187
   21.155      178
   21.170      197
   21.185      196
   21.200      219
   21.215      196
   21.230      202
   21.245      187
   21.260      190
   21.275      171
   21.290      169
   21.305      176
   21.320      169
   21.335      183
   21.350      155
   21.365      157
   21.380      157
   21.395      161
   21.410      145
   21.425      166
   21.440      161
   21.455      160
   21.470      149
   21.485      174
   21.500      168
   21.515      170
   21.530      182
   21.545      168
   21.560      164
   21.575      169
   21.590      175
   21.605      186
   21.620      215
   21.635      210
   21.650      204
   21.665      243
   21.680      253
   21.695      259
   21.710      299
   21.725      362
   21.740      376
   21.755      386
   21.770      375
   21.785      346
   21.800      320
   21.815      320
   21.830      286
   21.845      242
   21.860      182
   21.875      165
   21.890      156
   21.905      162
   21.920      162
   21.935      178
   21.950      172
   21.965      150
   21.980      140
   21.995      166
   22.010      173
   22.025      158
   22.040      160
   22.055      151
   22.070      139
   22.085      162
   22.100      168
   22.115      145
   22.130      139
   22.145      172
   22.160      167
   22.175      169
   22.190      143
   22.205      156
   22.220      145
   22.235      157
   22.250      146
   22.265      140
   22.280      158
   22.295      173
   22.310      158
   22.325      138
   22.340      146
   22.355      159
   22.370      141
   22.385      147
   22.400      146
   22.415      156
   22.430      174
   22.445      152
   22.460      164
   22.475      172
   22.490      148
   22.505      137
   22.520      135
   22.535      142
   22.550      156
   22.565      164
   22.580      144
   22.595      143
   22.610      149
   22.625      139
   22.640      148
   22.655      142
   22.670      145
   22.685      162
   22.700      158
   22.715      155
   22.730      163
   22.745      151
   22.760      132
   22.775      126
   22.790      144
   22.805      140
   22.820      132
   22.835      144
   22.850      164
   22.865      149
   22.880      143
   22.895      159
   22.910      160
   22.925      138
   22.940      142
   22.955      140
   22.970      147
   22.985      157
   23.000      155
   23.015      158
   23.030      147
   23.045      132
   23.060      148
   23.075      147
   23.090      143
   23.105      130
   23.120      127
   23.135      153
   23.150      156
   23.165      148
   23.180      136
   23.195      143
   23.210      139
   23.225      162
   23.240      153
   23.255      163
   23.270      170
   23.285      162
   23.300      178
   23.315      156
   23.330      178
   23.345      189
   23.360      182
   23.375      170
   23.390      167
   23.405      162
   23.420      155
   23.435      150
   23.450      153
   23.465      141
   23.480      177
   23.495      168
   23.510      148
   23.525      134
   23.540      151
   23.555      136
   23.570      132
   23.585      146
   23.600      142
   23.615      149
   23.630      161
   23.645      160
   23.660      141
   23.675      141
   23.690      154
   23.705      165
   23.720      161
   23.735      173
   23.750      152
   23.765      164
   23.780      184
   23.795      171
   23.810      178
   23.825      172
   23.840      164
   23.855      144
   23.870      153
   23.885      154
   23.900      176
   23.915      150
   23.930      155
   23.945      151
   23.960      129
   23.975      147
   23.990      149
   24.005      151
   24.020      145
   24.035      149
   24.050      156
   24.065      149
   24.080      137
   24.095      132
   24.110      142
   24.125      138
   24.140      137
   24.155      139
   24.170      140
   24.185      132
   24.200      148
   24.215      150
   24.230      158
   24.245      141
   24.260      136
   24.275      128
   24.290      132
   24.305      136
   24.320      131
   24.335      131
   24.350      115
   24.365      134
   24.380      144
   24.395      165
   24.410      157
   24.425      141
   24.440      150
   24.455      154
   24.470      143
   24.485      158
   24.500      155
   24.515      154
   24.530      142
   24.545      142
   24.560      168
   24.575      150
   24.590      149
   24.605      159
   24.620      150
   24.635      161
   24.650      144
   24.665      152
   24.680      152
   24.695      147
   24.710      131
   24.725      129
   24.740      149
   24.755      156
   24.770      137
   24.785      142
   24.800      142
   24.815      133
   24.830      131
   24.845      140
   24.860      143
   24.875      126
   24.890      138
   24.905      159
   24.920      148
   24.935      130
   24.950      134
   24.965      132
   24.980      130
   24.995      127
   25.010      137
   25.025      145
   25.040      152
   25.055      138
   25.070      130
   25.085      140
   25.100      145
   25.115      161
   25.130      157
   25.145      164
   25.160      136
   25.175      158
   25.190      154
   25.205      150
   25.220      150
   25.235      152
   25.250      140
   25.265      156
   25.280      144
   25.295      165
   25.310      130
   25.325      148
   25.340      142
   25.355      128
   25.370      158
   25.385      132
   25.400      139
   25.415      152
   25.430      143
   25.445      137
   25.460      144
   25.475      146
   25.490      140
   25.505      136
   25.520      144
   25.535      144
   25.550      142
   25.565      135
   25.580      140
   25.595      148
   25.610      146
   25.625      156
   25.640      142
   25.655      153
   25.670      179
   25.685      173
   25.700      176
   25.715      188
   25.730      180
   25.745      199
   25.760      213
   25.775      200
   25.790      189
   25.805      198
   25.820      191
   25.835      172
   25.850      154
   25.865      151
   25.880      144
   25.895      136
   25.910      149
   25.925      175
   25.940      173
   25.955      188
   25.970      197
   25.985      185
   26.000      184
   26.015      197
   26.030      207
   26.045      190
   26.060      162
   26.075      156
   26.090      126
   26.105      143
   26.120      134
   26.135      133
   26.150      149
   26.165      135
   26.180      122
   26.195      112
   26.210      117
   26.225      131
   26.240      137
   26.255      128
   26.270      126
   26.285      139
   26.300      134
   26.315      125
   26.330      150
   26.345      151
   26.360      138
   26.375      134
   26.390      137
   26.405      134
   26.420      119
   26.435      123
   26.450      142
   26.465      158
   26.480      136
   26.495      130
   26.510      136
   26.525      134
   26.540      138
   26.555      139
   26.570      146
   26.585      134
   26.600      138
   26.615      133
   26.630      129
   26.645      148
   26.660      145
   26.675      134
   26.690      133
   26.705      136
   26.720      143
   26.735      129
   26.750      124
   26.765      122
   26.780      123
   26.795      131
   26.810      150
   26.825      148
   26.840      142
   26.855      135
   26.870      131
   26.885      137
   26.900      135
   26.915      149
   26.930      139
   26.945      131
   26.960      136
   26.975      143
   26.990      136
   27.005      137
   27.020      118
   27.035      126
   27.050      163
   27.065      143
   27.080      131
   27.095      122
   27.110      120
   27.125      120
   27.140      123
   27.155      136
   27.170      139
   27.185      125
   27.200      152
   27.215      146
   27.230      135
   27.245      141
   27.260      142
   27.275      134
   27.290      123
   27.305      122
   27.320      133
   27.335      121
   27.350      119
   27.365      112
   27.380      129
   27.395      131
   27.410      116
   27.425      119
   27.440      121
   27.455      141
   27.470      142
   27.485      112
   27.500      134
   27.515      126
   27.530      123
   27.545      129
   27.560      129
   27.575      121
   27.590      132
   27.605      137
   27.620      132
   27.635      157
   27.650      128
   27.665      140
   27.680      136
   27.695      132
   27.710      147
   27.725      154
   27.740      139
   27.755      148
   27.770      130
   27.785      148
   27.800      131
   27.815      143
   27.830      153
   27.845      156
   27.860      150
   27.875      150
   27.890      159
   27.905      154
   27.920      149
   27.935      153
   27.950      148
   27.965      147
   27.980      151
   27.995      145
   28.010      144
   28.025      158
   28.040      143
   28.055      141
   28.070      164
   28.085      147
   28.100      155
   28.115      163
   28.130      138
   28.145      161
   28.160      176
   28.175      183
   28.190      164
   28.205      186
   28.220      203
   28.235      199
   28.250      175
   28.265      174
   28.280      177
   28.295      146
   28.310      146
   28.325      141
   28.340      140
   28.355      147
   28.370      138
   28.385      134
   28.400      126
   28.415      141
   28.430      143
   28.445      145
   28.460      131
   28.475      131
   28.490      137
   28.505      126
   28.520      118
   28.535      132
   28.550      133
   28.565      119
   28.580      120
   28.595      122
   28.610      120
   28.625      136
   28.640      139
   28.655      143
   28.670      116
   28.685      131
   28.700      130
   28.715      142
   28.730      138
   28.745      135
   28.760      157
   28.775      146
   28.790      132
   28.805      133
   28.820      142
   28.835      140
   28.850      135
   28.865      150
   28.880      141
   28.895      140
   28.910      130
   28.925      131
   28.940      137
   28.955      138
   28.970      124
   28.985      131
   29.000      120
   29.015      135
   29.030      128
   29.045      119
   29.060      116
   29.075      139
   29.090      134
   29.105      128
   29.120      123
   29.135      121
   29.150      131
   29.165      142
   29.180      128
   29.195      126
   29.210      123
   29.225      125
   29.240      142
   29.255      129
   29.270      118
   29.285      107
   29.300      122
   29.315      120
   29.330      143
   29.345      130
   29.360      108
   29.375      130
   29.390      145
   29.405      129
   29.420      148
   29.435      132
   29.450      150
   29.465      125
   29.480      148
   29.495      149
   29.510      144
   29.525      153
   29.540      151
   29.555      145
   29.570      139
   29.585      139
   29.600      133
   29.615      124
   29.630      133
   29.645      142
   29.660      141
   29.675      156
   29.690      132
   29.705      142
   29.720      123
   29.735      113
   29.750      124
   29.765      133
   29.780      133
   29.795      118
   29.810      110
   29.825      115
   29.840      136
   29.855      140
   29.870      112
   29.885      101
   29.900      120
   29.915      123
   29.930      120
   29.945      116
   29.960      114
   29.975      117
   29.990      108
   30.005      121
   30.020      132
   30.035      132
   30.050      117
   30.065      115
   30.080      127
   30.095      133
   30.110      131
   30.125      102
   30.140      124
   30.155      127
   30.170      124
   30.185      127
   30.200      134
   30.215      142
   30.230      136
   30.245      119
   30.260      120
   30.275      120
   30.290      115
   30.305      123
   30.320      134
   30.335      140
   30.350      135
   30.365      145
   30.380      133
   30.395      133
   30.410      142
   30.425      123
   30.440      124
   30.455      119
   30.470      132
   30.485      133
   30.500      136
   30.515      137
   30.530      130
   30.545      150
   30.560      132
   30.575      125
   30.590      147
   30.605      134
   30.620      127
   30.635      129
   30.650      132
   30.665      152
   30.680      155
   30.695      148
   30.710      156
   30.725      161
   30.740      152
   30.755      115
   30.770      145
   30.785      121
   30.800      134
   30.815      126
   30.830      119
   30.845      123
   30.860      120
   30.875      125
   30.890      130
   30.905      125
   30.920      114
   30.935      105
   30.950      129
   30.965      118
   30.980      125
   30.995      121
   31.010      125
   31.025      143
   31.040      126
   31.055      143
   31.070      133
   31.085      114
   31.100      149
   31.115      126
   31.130      118
   31.145      124
   31.160      112
   31.175      132
   31.190      124
   31.205      111
   31.220      126
   31.235      120
   31.250      110
   31.265      119
   31.280      116
   31.295      125
   31.310      105
   31.325      122
   31.340      118
   31.355      135
   31.370      127
   31.385      130
   31.400      132
   31.415      115
   31.430      137
   31.445      121
   31.460      114
   31.475      123
   31.490      114
   31.505      131
   31.520       95
   31.535      121
   31.550      125
   31.565      121
   31.580      118
   31.595      130
   31.610      147
   31.625      128
   31.640      119
   31.655      107
   31.670      115
   31.685      103
   31.700      119
   31.715      113
   31.730      124
   31.745      131
   31.760      125
   31.775      118
   31.790      114
   31.805      129
   31.820      114
   31.835      120
   31.850      115
   31.865      118
   31.880      107
   31.895       99
   31.910      104
   31.925      124
   31.940      113
   31.955      107
   31.970      110
   31.985       93
   32.000      133
   32.015      140
   32.030      116
   32.045      127
   32.060      124
   32.075      126
   32.090      122
   32.105      141
   32.120      118
   32.135      123
   32.150      119
   32.165      115
   32.180      121
   32.195      118
   32.210      106
   32.225      117
   32.240      108
   32.255      119
   32.270      136
   32.285      138
   32.300      118
   32.315      123
   32.330      146
   32.345      149
   32.360      140
   32.375      152
   32.390      167
   32.405      150
   32.420      155
   32.435      150
   32.450      148
   32.465      143
   32.480      137
   32.495      129
   32.510      128
   32.525      117
   32.540      119
   32.555      131
   32.570      137
   32.585      148
   32.600      154
   32.615      154
   32.630      155
   32.645      147
   32.660      148
   32.675      141
   32.690      134
   32.705      131
   32.720      123
   32.735      115
   32.750      129
   32.765      111
   32.780      101
   32.795      130
   32.810      118
   32.825      112
   32.840      118
   32.855      119
   32.870      119
   32.885      110
   32.900      111
   32.915      127
   32.930      119
   32.945      109
   32.960      112
   32.975      113
   32.990      107
   33.005      113
   33.020      120
   33.035      123
   33.050      124
   33.065      138
   33.080      117
   33.095      122
   33.110      121
   33.125      106
   33.140      106
   33.155      112
   33.170      115
   33.185      117
   33.200      118
   33.215      136
   33.230      121
   33.245      113
   33.260      117
   33.275      126
   33.290      116
   33.305      125
   33.320      127
   33.335      118
   33.350      147
   33.365      138
   33.380      131
   33.395      145
   33.410      140
   33.425      140
   33.440      157
   33.455      135
   33.470      125
   33.485      124
   33.500      112
   33.515      138
   33.530      121
   33.545      101
   33.560      120
   33.575      122
   33.590      126
   33.605      106
   33.620      109
   33.635      123
   33.650      102
   33.665      109
   33.680      127
   33.695      120
   33.710      115
   33.725      124
   33.740      107
   33.755      127
   33.770      135
   33.785      154
   33.800      118
   33.815      124
   33.830      104
   33.845      120
   33.860      113
   33.875       99
   33.890      121
   33.905      116
   33.920      123
   33.935      123
   33.950      125
   33.965      108
   33.980      112
   33.995      100
   34.010      114
   34.025      112
   34.040      126
   34.055      121
   34.070      115
   34.085      127
   34.100      136
   34.115      116
   34.130      136
   34.145      144
   34.160      136
   34.175      138
   34.190      153
   34.205      141
   34.220      131
   34.235      142
   34.250      107
   34.265      108
   34.280      127
   34.295      129
   34.310      130
   34.325      123
   34.340      137
   34.355      145
   34.370      130
   34.385      134
   34.400      131
   34.415      128
   34.430      122
   34.445      130
   34.460      125
   34.475      138
   34.490      137
   34.505      133
   34.520      129
   34.535      124
   34.550      116
   34.565      108
   34.580      108
   34.595      109
   34.610      109
   34.625      113
   34.640      116
   34.655      113
   34.670      109
   34.685      103
   34.700      103
   34.715      108
   34.730      106
   34.745      108
   34.760      120
   34.775      118
   34.790      116
   34.805      123
   34.820      130
   34.835      115
   34.850      106
   34.865      113
   34.880      120
   34.895      112
   34.910       95
   34.925      120
   34.940      123
   34.955      106
   34.970       97
   34.985      105
   35.000      104
   35.015      114
   35.030      107
   35.045      111
   35.060      115
   35.075      111
   35.090      108
   35.105      120
   35.120      111
   35.135      100
   35.150      106
   35.165      102
   35.180      118
   35.195      116
   35.210      106
   35.225      108
   35.240      107
   35.255      116
   35.270      123
   35.285      116
   35.300      105
   35.315      130
   35.330      117
   35.345      112
   35.360      102
   35.375      110
   35.390      116
   35.405      112
   35.420      108
   35.435      118
   35.450      133
   35.465      111
   35.480      121
   35.495      108
   35.510      114
   35.525       98
   35.540      121
   35.555      105
   35.570      103
   35.585      111
   35.600      111
   35.615      105
   35.630      108
   35.645      110
   35.660      106
   35.675      123
   35.690      118
   35.705      111
   35.720      130
   35.735      106
   35.750       98
   35.765      106
   35.780      111
   35.795      100
   35.810      118
   35.825      116
   35.840      113
   35.855      110
   35.870      101
   35.885      100
   35.900      111
   35.915      111
   35.930      110
   35.945      111
   35.960       97
   35.975      103
   35.990      112
   36.005      111
   36.020      106
   36.035      104
   36.050      109
   36.065      113
   36.080       96
   36.095      100
   36.110       94
   36.125       94
   36.140       97
   36.155      110
   36.170       97
   36.185       93
   36.200      111
   36.215      106
   36.230      104
   36.245      101
   36.260       96
   36.275      106
   36.290      124
   36.305      117
   36.320      115
   36.335      119
   36.350      109
   36.365      109
   36.380      114
   36.395      119
   36.410      110
   36.425      100
   36.440       93
   36.455       99
   36.470      112
   36.485      113
   36.500       93
   36.515      107
   36.530      112
   36.545      120
   36.560      106
   36.575      110
   36.590      112
   36.605      116
   36.620      114
   36.635      120
   36.650      115
   36.665      118
   36.680      115
   36.695      126
   36.710      130
   36.725      127
   36.740      115
   36.755      135
   36.770      129
   36.785      130
   36.800      114
   36.815      101
   36.830      115
   36.845      114
   36.860      106
   36.875      105
   36.890      126
   36.905       96
   36.920       96
   36.935      110
   36.950       90
   36.965      106
   36.980       97
   36.995      110
   37.010       92
   37.025      113
   37.040       84
   37.055      104
   37.070       98
   37.085      110
   37.100      131
   37.115      111
   37.130      101
   37.145      111
   37.160      112
   37.175       90
   37.190      110
   37.205      108
   37.220      115
   37.235      106
   37.250       89
   37.265      125
   37.280      114
   37.295      116
   37.310      107
   37.325      110
   37.340      116
   37.355      108
   37.370      100
   37.385       99
   37.400       96
   37.415       99
   37.430      111
   37.445       90
   37.460      112
   37.475      110
   37.490      122
   37.505      115
   37.520      126
   37.535      129
   37.550      110
   37.565      125
   37.580      124
   37.595      134
   37.610      121
   37.625      137
   37.640      135
   37.655      115
   37.670      134
   37.685      109
   37.700      107
   37.715      118
   37.730      105
   37.745      109
   37.760      111
   37.775       98
   37.790      103
   37.805      105
   37.820      107
   37.835      105
   37.850      110
   37.865      115
   37.880      122
   37.895      121
   37.910      121
   37.925      122
   37.940      120
   37.955      121
   37.970      155
   37.985      138
   38.000      134
   38.015      137
   38.030      141
   38.045      145
   38.060      134
   38.075      122
   38.090      112
   38.105      106
   38.120      114
   38.135      110
   38.150      114
   38.165      126
   38.180      107
   38.195      105
   38.210      126
   38.225      115
   38.240      103
   38.255      105
   38.270       97
   38.285      117
   38.300       99
   38.315      101
   38.330      109
   38.345      123
   38.360      105
   38.375      106
   38.390      107
   38.405      103
   38.420      111
   38.435      100
   38.450       95
   38.465      115
   38.480      112
   38.495       95
   38.510       95
   38.525      108
   38.540      119
   38.555      121
   38.570      106
   38.585      100
   38.600      114
   38.615      123
   38.630      114
   38.645      105
   38.660       99
   38.675      109
   38.690      112
   38.705       95
   38.720      115
   38.735      123
   38.750      111
   38.765      114
   38.780      105
   38.795       92
   38.810       95
   38.825      105
   38.840      111
   38.855      108
   38.870      112
   38.885      104
   38.900      114
   38.915      110
   38.930      119
   38.945      113
   38.960      106
   38.975      104
   38.990      101
   39.005      106
   39.020       89
   39.035       98
   39.050      100
   39.065      111
   39.080      109
   39.095       99
   39.110       90
   39.125      102
   39.140      107
   39.155      101
   39.170      100
   39.185      108
   39.200      105
   39.215      113
   39.230      104
   39.245      115
   39.260      108
   39.275      108
   39.290       96
   39.305       96
   39.320       98
   39.335       98
   39.350      123
   39.365      101
   39.380      116
   39.395      100
   39.410      111
   39.425      106
   39.440      110
   39.455      129
   39.470       98
   39.485       93
   39.500       99
   39.515      113
   39.530      101
   39.545      101
   39.560      111
   39.575       95
   39.590      103
   39.605       94
   39.620      112
   39.635      114
   39.650      117
   39.665      122
   39.680       91
   39.695       88
   39.710       99
   39.725      116
   39.740      110
   39.755      101
   39.770       94
   39.785      104
   39.800       94
   39.815       96
   39.830       98
   39.845      101
   39.860       95
   39.875       89
   39.890      111
   39.905      105
   39.920      103
   39.935      102
   39.950      106
   39.965      104
   39.980       95
   39.995      101
   40.010      123
   40.025      114
   40.040      118
   40.055      100
   40.070       98
   40.085      115
   40.100      109
   40.115      112
   40.130      109
   40.145      105
   40.160      100
   40.175      103
   40.190      102
   40.205      115
   40.220       98
   40.235       93
   40.250      107
   40.265      100
   40.280      100
   40.295      107
   40.310       92
   40.325      106
   40.340      124
   40.355      115
   40.370      108
   40.385      117
   40.400      105
   40.415      111
   40.430      115
   40.445      120
   40.460      116
   40.475      121
   40.490      124
   40.505      133
   40.520      125
   40.535      119
   40.550      121
   40.565      143
   40.580      138
   40.595      135
   40.610      140
   40.625      131
   40.640      129
   40.655      126
   40.670      124
   40.685       99
   40.700      110
   40.715      115
   40.730      114
   40.745      102
   40.760      103
   40.775      102
   40.790      107
   40.805      123
   40.820      112
   40.835      110
   40.850      120
   40.865      116
   40.880      124
   40.895      109
   40.910      101
   40.925      111
   40.940      108
   40.955       88
   40.970       98
   40.985      114
   41.000      130
   41.015      116
   41.030      110
   41.045      108
   41.060      108
   41.075      110
   41.090      103
   41.105      107
   41.120       97
   41.135      106
   41.150      105
   41.165      103
   41.180      100
   41.195      119
   41.210      118
   41.225      116
   41.240      105
   41.255      104
   41.270      106
   41.285      111
   41.300      109
   41.315      109
   41.330      113
   41.345      106
   41.360      116
   41.375      126
   41.390       95
   41.405       97
   41.420      132
   41.435      104
   41.450      114
   41.465      107
   41.480      106
   41.495      107
   41.510      108
   41.525      138
   41.540      110
   41.555      140
   41.570      129
   41.585      124
   41.600      133
   41.615      130
   41.630      135
   41.645      142
   41.660      139
   41.675      126
   41.690      129
   41.705      143
   41.720      130
   41.735      133
   41.750      118
   41.765      128
   41.780      117
   41.795      104
   41.810      100
   41.825      104
   41.840      116
   41.855       93
   41.870      112
   41.885      121
   41.900       97
   41.915      108
   41.930      112
   41.945      115
   41.960      106
   41.975      105
   41.990      121
   42.005      122
   42.020      110
   42.035      110
   42.050      129
   42.065      117
   42.080      130
   42.095      140
   42.110      130
   42.125      126
   42.140       95
   42.155      112
   42.170      111
   42.185      103
   42.200      119
   42.215      111
   42.230      113
   42.245      111
   42.260      118
   42.275      120
   42.290      105
   42.305      102
   42.320      102
   42.335      114
   42.350      101
   42.365      100
   42.380      109
   42.395      111
   42.410      120
   42.425      137
   42.440      131
   42.455      134
   42.470      136
   42.485      129
   42.500      116
   42.515      116
   42.530      134
   42.545      109
   42.560      111
   42.575      121
   42.590      129
   42.605      141
   42.620      115
   42.635      121
   42.650       93
   42.665      100
   42.680      110
   42.695      112
   42.710      115
   42.725      101
   42.740      106
   42.755       94
   42.770       92
   42.785      104
   42.800      100
   42.815       95
   42.830       97
   42.845      112
   42.860      114
   42.875      107
   42.890      111
   42.905      101
   42.920      118
   42.935      101
   42.950      110
   42.965      101
   42.980      112
   42.995      120
   43.010       91
   43.025       94
   43.040       94
   43.055      108
   43.070      102
   43.085       97
   43.100      130
   43.115       88
   43.130      144
   43.145      112
   43.160      114
   43.175       92
   43.190      111
   43.205      115
   43.220      115
   43.235      102
   43.250      105
   43.265      107
   43.280      114
   43.295      119
   43.310      117
   43.325      113
   43.340       98
   43.355      115
   43.370      126
   43.385      110
   43.400      113
   43.415      107
   43.430      100
   43.445      113
   43.460       98
   43.475      107
   43.490      107
   43.505      103
   43.520       99
   43.535      123
   43.550      114
   43.565      110
   43.580      114
   43.595      119
   43.610      113
   43.625      123
   43.640       98
   43.655      114
   43.670      126
   43.685      114
   43.700      115
   43.715      115
   43.730      127
   43.745      104
   43.760       99
   43.775       92
   43.790       94
   43.805      110
   43.820      102
   43.835       97
   43.850      103
   43.865      100
   43.880       93
   43.895       99
   43.910      102
   43.925      105
   43.940      108
   43.955      109
   43.970      110
   43.985      106
