    2.000     1671
    2.015     1792
    2.030     1749
    2.045     1776
    2.060     1750
    2.075     1734
    2.090     1634
    2.105     1671
    2.120     1649
    2.135     1630
    2.150     1688
    2.165     1670
    2.180     1554
    2.195     1624
    2.210     1594
    2.225     1661
    2.240     1599
    2.255     1645
    2.270     1549
    2.285     1504
    2.300     1551
    2.315     1589
    2.330     1654
    2.345     1617
    2.360     1574
    2.375     1567
    2.390     1556
    2.405     1542
    2.420     1566
    2.435     1578
    2.450     1545
    2.465     1502
    2.480     1470
    2.495     1484
    2.510     1548
    2.525     1457
    2.540     1458
    2.555     1496
    2.570     1499
    2.585     1521
    2.600     1491
    2.615     1527
    2.630     1443
    2.645     1494
    2.660     1503
    2.675     1512
    2.690     1490
    2.705     1501
    2.720     1507
    2.735     1461
    2.750     1449
    2.765     1456
    2.780     1533
    2.795     1497
    2.810     1520
    2.825     1477
    2.840     1449
    2.855     1464
    2.870     1512
    2.885     1576
    2.900     1494
    2.915     1413
    2.930     1381
    2.945     1413
    2.960     1439
    2.975     1416
    2.990     1337
    3.005     1405
    3.020     1446
    3.035     1432
    3.050     1492
    3.065     1389
    3.080     1439
    3.095     1351
    3.110     1463
    3.125     1458
    3.140     1407
    3.155     1442
    3.170     1370
    3.185     1427
    3.200     1416
    3.215     1430
    3.230     1519
    3.245     1408
    3.260     1426
    3.275     1414
    3.290     1404
    3.305     1380
    3.320     1364
    3.335     1342
    3.350     1371
    3.365     1367
    3.380     1344
    3.395     1322
    3.410     1325
    3.425     1330
    3.440     1376
    3.455     1342
    3.470     1347
    3.485     1369
    3.500     1470
    3.515     1382
    3.530     1346
    3.545     1341
    3.560     1345
    3.575     1293
    3.590     1258
    3.605     1284
    3.620     1269
    3.635     1442
    3.650     1371
    3.665     1463
    3.680     1383
    3.695     1306
    3.710     1331
    3.725     1432
    3.740     1414
    3.755     1352
    3.770     1290
    3.785     1378
    3.800     1360
    3.815     1305
    3.830     1333
    3.845     1390
    3.860     1380
    3.875     1440
    3.890     1383
    3.905     1401
    3.920     1384
    3.935     1311
    3.950     1316
    3.965     1297
    3.980     1382
    3.995     1400
    4.010     1417
    4.025     1357
    4.040     1380
    4.055     1291
    4.070     1356
    4.085     1399
    4.100     1369
    4.115     1367
    4.130     1353
    4.145     1338
    4.160     1333
    4.175     1396
    4.190     1344
    4.205     1365
    4.220     1374
    4.235     1344
    4.250     1359
    4.265     1332
    4.280     1331
    4.295     1352
    4.310     1314
    4.325     1328
    4.340     1353
    4.355     1317
    4.370     1353
    4.385     1397
    4.400     1344
    4.415     1385
    4.430     1399
    4.445     1345
    4.460     1349
    4.475     1396
    4.490     1376
    4.505     1352
    4.520     1332
    4.535     1319
    4.550     1350
    4.565     1401
    4.580     1327
    4.595     1322
    4.610     1388
    4.625     1392
    4.640     1337
    4.655     1386
    4.670     1380
    4.685     1339
    4.700     1352
    4.715     1438
    4.730     1440
    4.745     1388
    4.760     1398
    4.775     1431
    4.790     1378
    4.805     1351
    4.820     1341
    4.835     1356
    4.850     1329
    4.865     1400
    4.880     1397
    4.895     1377
    4.910     1386
    4.925     1390
    4.940     1419
    4.955     1408
    4.970     1448
    4.985     1376
    5.000     1338
    5.015     1378
    5.030     1317
    5.045     1354
    5.060     1424
    5.075     1380
    5.090     1334
    5.105     1343
    5.120     1335
    5.135     1346
    5.150     1374
    5.165     1337
    5.180     1280
    5.195     1408
    5.210     1437
    5.225     1371
    5.240     1319
    5.255     1337
    5.270     1313
    5.285     1409
    5.300     1354
    5.315     1280
    5.330     1312
    5.345     1367
    5.360     1359
    5.375     1335
    5.390     1342
    5.405     1372
    5.420     1379
    5.435     1290
    5.450     1366
    5.465     1276
    5.480     1289
    5.495     1307
    5.510     1279
    5.525     1349
    5.540     1338
    5.555     1342
    5.570     1288
    5.585     1330
    5.600     1292
    5.615     1248
    5.630     1319
    5.645     1288
    5.660     1363
    5.675     1370
    5.690     1362
    5.705     1385
    5.720     1389
    5.735     1339
    5.750     1358
    5.765     1317
    5.780     1344
    5.795     1369
    5.810     1310
    5.825     1370
    5.840     1317
    5.855     1351
    5.870     1375
    5.885     1315
    5.900     1321
    5.915     1314
    5.930     1360
    5.945     1353
    5.960     1323
    5.975     1373
    5.990     1354
    6.005     1361
    6.020     1368
    6.035     1348
    6.050     1325
    6.065     1330
    6.080     1344
    6.095     1351
    6.110     1345
    6.125     1279
    6.140     1240
    6.155     1341
    6.170     1389
    6.185     1428
    6.200     1413
    6.215     1375
    6.230     1316
    6.245     1315
    6.260     1327
    6.275     1334
    6.290     1351
    6.305     1305
    6.320     1389
    6.335     1386
    6.350     1313
    6.365     1361
    6.380     1435
    6.395     1377
    6.410     1395
    6.425     1370
    6.440     1337
    6.455     1317
    6.470     1388
    6.485     1374
    6.500     1320
    6.515     1354
    6.530     1312
    6.545     1323
    6.560     1420
    6.575     1381
    6.590     1373
    6.605     1378
    6.620     1352
    6.635     1313
    6.650     1270
    6.665     1304
    6.680     1281
    6.695     1299
    6.710     1295
    6.725     1332
    6.740     1382
    6.755     1379
    6.770     1385
    6.785     1418
    6.800     1432
    6.815     1341
    6.830     1311
    6.845     1350
    6.860     1351
    6.875     1341
    6.890     1272
    6.905     1312
    6.920     1318
    6.935     1325
    6.950     1235
    6.965     1389
    6.980     1276
    6.995     1296
    7.010     1301
    7.025     1400
    7.040     1372
    7.055     1370
    7.070     1337
    7.085     1305
    7.100     1338
    7.115     1361
    7.130     1362
    7.145     1329
    7.160     1304
    7.175     1341
    7.190     1330
    7.205     1400
    7.220     1343
    7.235     1417
    7.250     1324
    7.265     1378
    7.280     1384
    7.295     1411
    7.310     1342
    7.325     1294
    7.340     1333
    7.355     1354
    7.370     1413
    7.385     1387
    7.400     1458
    7.415     1378
    7.430     1350
    7.445     1407
    7.460     1336
    7.475     1404
    7.490     1445
    7.505     1509
    7.520     1357
    7.535     1457
    7.550     1488
    7.565     1381
    7.580     1433
    7.595     1431
    7.610     1477
    7.625     1450
    7.640     1340
    7.655     1348
    7.670     1400
    7.685     1295
    7.700     1331
    7.715     1351
    7.730     1383
    7.745     1439
    7.760     1425
    7.775     1330
    7.790     1352
    7.805     1425
    7.820     1455
    7.835     1462
    7.850     1372
    7.865     1433
    7.880     1447
    7.895     1489
    7.910     1533
    7.925     1543
    7.940     1505
    7.955     1505
    7.970     1529
    7.985     1427
    8.000     1391
    8.015     1425
    8.030     1343
    8.045     1330
    8.060     1426
    8.075     1424
    8.090     1329
    8.105     1398
    8.120     1337
    8.135     1342
    8.150     1396
    8.165     1368
    8.180     1303
    8.195     1357
    8.210     1381
    8.225     1449
    8.240     1393
    8.255     1415
    8.270     1369
    8.285     1395
    8.300     1438
    8.315     1354
    8.330     1424
    8.345     1442
    8.360     1416
    8.375     1479
    8.390     1446
    8.405     1458
    8.420     1451
    8.435     1430
    8.450     1429
    8.465     1389
    8.480     1391
    8.495     1351
    8.510     1406
    8.525     1464
    8.540     1522
    8.555     1512
    8.570     1561
    8.585     1566
    8.600     1491
    8.615     1586
    8.630     1561
    8.645     1603
    8.660     1564
    8.675     1586
    8.690     1641
    8.705     1732
    8.720     1787
    8.735     1770
    8.750     1791
    8.765     1817
    8.780     1912
    8.795     1978
    8.810     2061
    8.825     2146
    8.840     2171
    8.855     2338
    8.870     2449
    8.885     2574
    8.900     2589
    8.915     2736
    8.930     2853
    8.945     3058
    8.960     3229
    8.975     3250
    8.990     3388
    9.005     3514
    9.020     3828
    9.035     4123
    9.050     4314
    9.065     4703
    9.080     4779
    9.095     4736
    9.110     5050
    9.125     5250
    9.140     5192
    9.155     5695
    9.170     6001
    9.185     6471
    9.200     7151
    9.215     7637
    9.230     8259
    9.245     9490
    9.260    11300
    9.275    11163
    9.290    11398
    9.305    10676
    9.320     8993
    9.335     7254
    9.350     5562
    9.365     4071
    9.380     3298
    9.395     2739
    9.410     2595
    9.425     2623
    9.440     2734
    9.455     2747
    9.470     2822
    9.485     3218
    9.500     3571
    9.515     4065
    9.530     4036
    9.545     4137
    9.560     3882
    9.575     3419
    9.590     2939
    9.605     2567
    9.620     2238
    9.635     2130
    9.650     1903
    9.665     2000
    9.680     1889
    9.695     1744
    9.710     1780
    9.725     1850
    9.740     1797
    9.755     1746
    9.770     1703
    9.785     1731
    9.800     1690
    9.815     1644
    9.830     1564
    9.845     1586
    9.860     1567
    9.875     1562
    9.890     1518
    9.905     1486
    9.920     1567
    9.935     1551
    9.950     1474
    9.965     1489
    9.980     1486
    9.995     1477
   10.010     1570
   10.025     1541
   10.040     1565
   10.055     1478
   10.070     1510
   10.085     1523
   10.100     1547
   10.115     1471
   10.130     1457
   10.145     1487
   10.160     1542
   10.175     1575
   10.190     1494
   10.205     1519
   10.220     1466
   10.235     1496
   10.250     1511
   10.265     1504
   10.280     1535
   10.295     1463
   10.310     1460
   10.325     1515
   10.340     1543
   10.355     1589
   10.370     1570
   10.385     1530
   10.400     1572
   10.415     1599
   10.430     1623
   10.445     1584
   10.460     1587
   10.475     1668
   10.490     1665
   10.505     1642
   10.520     1668
   10.535     1624
   10.550     1637
   10.565     1717
   10.580     1696
   10.595     1696
   10.610     1788
   10.625     1802
   10.640     1756
   10.655     1775
   10.670     1741
   10.685     1753
   10.700     1732
   10.715     1783
   10.730     1753
   10.745     1726
   10.760     1680
   10.775     1630
   10.790     1626
   10.805     1629
   10.820     1499
   10.835     1560
   10.850     1559
   10.865     1544
   10.880     1499
   10.895     1516
   10.910     1584
   10.925     1581
   10.940     1542
   10.955     1443
   10.970     1531
   10.985     1523
   11.000     1465
   11.015     1481
   11.030     1431
   11.045     1470
   11.060     1466
   11.075     1502
   11.090     1478
   11.105     1424
   11.120     1389
   11.135     1487
   11.150     1457
   11.165     1452
   11.180     1435
   11.195     1466
   11.210     1455
   11.225     1412
   11.240     1461
   11.255     1412
   11.270     1432
   11.285     1448
   11.300     1379
   11.315     1398
   11.330     1479
   11.345     1450
   11.360     1483
   11.375     1348
   11.390     1425
   11.405     1471
   11.420     1415
   11.435     1395
   11.450     1456
   11.465     1360
   11.480     1348
   11.495     1331
   11.510     1347
   11.525     1391
   11.540     1396
   11.555     1406
   11.570     1389
   11.585     1340
   11.600     1351
   11.615     1387
   11.630     1306
   11.645     1297
   11.660     1445
   11.675     1385
   11.690     1351
   11.705     1315
   11.720     1370
   11.735     1422
   11.750     1418
   11.765     1399
   11.780     1384
   11.795     1391
   11.810     1352
   11.825     1425
   11.840     1332
   11.855     1409
   11.870     1486
   11.885     1397
   11.900     1313
   11.915     1273
   11.930     1316
   11.945     1422
   11.960     1330
   11.975     1389
   11.990     1377
   12.005     1399
   12.020     1437
   12.035     1406
   12.050     1442
   12.065     1419
   12.080     1454
   12.095     1470
   12.110     1393
   12.125     1386
   12.140     1409
   12.155     1456
   12.170     1550
   12.185     1598
   12.200     1571
   12.215     1583
   12.230     1582
   12.245     1612
   12.260     1650
   12.275     1694
   12.290     1769
   12.305     1867
   12.320     1915
   12.335     1972
   12.350     2076
   12.365     2163
   12.380     2337
   12.395     2504
   12.410     2735
   12.425     3000
   12.440     3259
   12.455     3491
   12.470     3540
   12.485     3248
   12.500     2915
   12.515     2571
   12.530     2100
   12.545     1824
   12.560     1648
   12.575     1560
   12.590     1530
   12.605     1484
   12.620     1434
   12.635     1418
   12.650     1407
   12.665     1380
   12.680     1313
   12.695     1388
   12.710     1418
   12.725     1381
   12.740     1429
   12.755     1442
   12.770     1455
   12.785     1423
   12.800     1429
   12.815     1425
   12.830     1389
   12.845     1369
   12.860     1371
   12.875     1377
   12.890     1335
   12.905     1390
   12.920     1382
   12.935     1326
   12.950     1323
   12.965     1438
   12.980     1318
   12.995     1387
   13.010     1398
   13.025     1388
   13.040     1395
   13.055     1411
   13.070     1407
   13.085     1397
   13.100     1440
   13.115     1401
   13.130     1424
   13.145     1347
   13.160     1354
   13.175     1405
   13.190     1393
   13.205     1381
   13.220     1373
   13.235     1426
   13.250     1359
   13.265     1374
   13.280     1388
   13.295     1485
   13.310     1357
   13.325     1395
   13.340     1355
   13.355     1333
   13.370     1346
   13.385     1396
   13.400     1398
   13.415     1412
   13.430     1341
   13.445     1348
   13.460     1283
   13.475     1405
   13.490     1460
   13.505     1523
   13.520     1390
   13.535     1461
   13.550     1424
   13.565     1332
   13.580     1455
   13.595     1392
   13.610     1465
   13.625     1466
   13.640     1403
   13.655     1433
   13.670     1440
   13.685     1462
   13.700     1489
   13.715     1475
   13.730     1507
   13.745     1527
   13.760     1631
   13.775     1628
   13.790     1618
   13.805     1740
   13.820     1714
   13.835     1827
   13.850     1867
   13.865     1749
   13.880     1745
   13.895     1672
   13.910     1611
   13.925     1566
   13.940     1476
   13.955     1436
   13.970     1419
   13.985     1365
   14.000     1326
   14.015     1369
   14.030     1441
   14.045     1366
   14.060     1393
   14.075     1435
   14.090     1346
   14.105     1376
   14.120     1341
   14.135     1398
   14.150     1364
   14.165     1328
   14.180     1326
   14.195     1351
   14.210     1317
   14.225     1414
   14.240     1399
   14.255     1427
   14.270     1294
   14.285     1289
   14.300     1401
   14.315     1335
   14.330     1387
   14.345     1440
   14.360     1432
   14.375     1462
   14.390     1338
   14.405     1305
   14.420     1394
   14.435     1454
   14.450     1389
   14.465     1364
   14.480     1361
   14.495     1326
   14.510     1389
   14.525     1399
   14.540     1377
   14.555     1419
   14.570     1410
   14.585     1398
   14.600     1397
   14.615     1414
   14.630     1356
   14.645     1375
   14.660     1371
   14.675     1433
   14.690     1419
   14.705     1409
   14.720     1405
   14.735     1383
   14.750     1388
   14.765     1354
   14.780     1465
   14.795     1431
   14.810     1493
   14.825     1438
   14.840     1400
   14.855     1433
   14.870     1453
   14.885     1478
   14.900     1451
   14.915     1428
   14.930     1342
   14.945     1368
   14.960     1444
   14.975     1429
   14.990     1405
   15.005     1500
   15.020     1451
   15.035     1450
   15.050     1483
   15.065     1426
   15.080     1396
   15.095     1302
   15.110     1433
   15.125     1433
   15.140     1432
   15.155     1425
   15.170     1468
   15.185     1459
   15.200     1475
   15.215     1465
   15.230     1475
   15.245     1444
   15.260     1458
   15.275     1491
   15.290     1476
   15.305     1405
   15.320     1475
   15.335     1398
   15.350     1399
   15.365     1368
   15.380     1492
   15.395     1398
   15.410     1343
   15.425     1379
   15.440     1436
   15.455     1406
   15.470     1430
   15.485     1406
   15.500     1504
   15.515     1399
   15.530     1385
   15.545     1423
   15.560     1397
   15.575     1407
   15.590     1394
   15.605     1443
   15.620     1369
   15.635     1534
   15.650     1464
   15.665     1516
   15.680     1459
   15.695     1433
   15.710     1461
   15.725     1577
   15.740     1582
   15.755     1569
   15.770     1489
   15.785     1618
   15.800     1584
   15.815     1558
   15.830     1520
   15.845     1665
   15.860     1580
   15.875     1671
   15.890     1633
   15.905     1644
   15.920     1726
   15.935     1909
   15.950     1903
   15.965     1890
   15.980     1965
   15.995     2025
   16.010     2167
   16.025     2165
   16.040     2288
   16.055     2135
   16.070     2117
   16.085     1956
   16.100     1872
   16.115     1767
   16.130     1646
   16.145     1619
   16.160     1592
   16.175     1611
   16.190     1458
   16.205     1525
   16.220     1517
   16.235     1526
   16.250     1563
   16.265     1586
   16.280     1650
   16.295     1622
   16.310     1609
   16.325     1661
   16.340     1773
   16.355     1836
   16.370     1890
   16.385     1993
   16.400     2009
   16.415     2233
   16.430     2485
   16.445     2754
   16.460     2900
   16.475     3005
   16.490     2881
   16.505     2790
   16.520     2551
   16.535     2218
   16.550     2053
   16.565     1947
   16.580     1798
   16.595     1705
   16.610     1684
   16.625     1683
   16.640     1671
   16.655     1691
   16.670     1651
   16.685     1730
   16.700     1686
   16.715     1700
   16.730     1798
   16.745     1750
   16.760     1737
   16.775     1751
   16.790     1812
   16.805     1855
   16.820     1883
   16.835     1985
   16.850     1944
   16.865     2047
   16.880     2118
   16.895     2107
   16.910     2116
   16.925     1929
   16.940     1880
   16.955     1782
   16.970     1781
   16.985     1625
   17.000     1559
   17.015     1560
   17.030     1563
   17.045     1521
   17.060     1534
   17.075     1593
   17.090     1496
   17.105     1467
   17.120     1460
   17.135     1494
   17.150     1549
   17.165     1520
   17.180     1484
   17.195     1527
   17.210     1552
   17.225     1495
   17.240     1530
   17.255     1441
   17.270     1528
   17.285     1559
   17.300     1515
   17.315     1493
   17.330     1427
   17.345     1544
   17.360     1480
   17.375     1462
   17.390     1586
   17.405     1519
   17.420     1498
   17.435     1424
   17.450     1529
   17.465     1446
   17.480     1475
   17.495     1560
   17.510     1511
   17.525     1492
   17.540     1520
   17.555     1517
   17.570     1478
   17.585     1449
   17.600     1458
   17.615     1437
   17.630     1491
   17.645     1490
   17.660     1532
   17.675     1535
   17.690     1458
   17.705     1549
   17.720     1582
   17.735     1559
   17.750     1519
   17.765     1528
   17.780     1490
   17.795     1575
   17.810     1549
   17.825     1580
   17.840     1522
   17.855     1567
   17.870     1585
   17.885     1504
   17.900     1592
   17.915     1523
   17.930     1487
   17.945     1605
   17.960     1553
   17.975     1610
   17.990     1633
   18.005     1595
   18.020     1666
   18.035     1666
   18.050     1594
   18.065     1676
   18.080     1679
   18.095     1702
   18.110     1609
   18.125     1681
   18.140     1660
   18.155     1660
   18.170     1707
   18.185     1716
   18.200     1747
   18.215     1702
   18.230     1673
   18.245     1706
   18.260     1665
   18.275     1670
   18.290     1732
   18.305     1756
   18.320     1728
   18.335     1727
   18.350     1678
   18.365     1757
   18.380     1826
   18.395     1832
   18.410     1858
   18.425     1850
   18.440     1841
   18.455     1844
   18.470     1953
   18.485     1929
   18.500     2001
   18.515     2069
   18.530     2076
   18.545     2186
   18.560     2365
   18.575     2535
   18.590     2713
   18.605     3031
   18.620     3373
   18.635     3633
   18.650     4073
   18.665     4693
   18.680     5090
   18.695     5440
   18.710     5701
   18.725     5849
   18.740     5710
   18.755     5100
   18.770     4575
   18.785     3719
   18.800     3200
   18.815     2414
   18.830     2178
   18.845     1984
   18.860     1790
   18.875     1713
   18.890     1772
   18.905     1641
   18.920     1713
   18.935     1638
   18.950     1618
   18.965     1638
   18.980     1678
   18.995     1669
   19.010     1655
   19.025     1691
   19.040     1714
   19.055     1748
   19.070     1741
   19.085     1678
   19.100     1762
   19.115     1811
   19.130     1856
   19.145     1892
   19.160     1972
   19.175     2231
   19.190     2393
   19.205     2523
   19.220     2560
   19.235     2652
   19.250     2544
   19.265     2521
   19.280     2324
   19.295     2064
   19.310     1860
   19.325     1749
   19.340     1642
   19.355     1593
   19.370     1741
   19.385     1668
   19.400     1667
   19.415     1602
   19.430     1588
   19.445     1542
   19.460     1578
   19.475     1628
   19.490     1639
   19.505     1736
   19.520     1594
   19.535     1697
   19.550     1683
   19.565     1553
   19.580     1653
   19.595     1645
   19.610     1714
   19.625     1659
   19.640     1629
   19.655     1586
   19.670     1616
   19.685     1627
   19.700     1612
   19.715     1636
   19.730     1641
   19.745     1626
   19.760     1760
   19.775     1621
   19.790     1545
   19.805     1678
   19.820     1616
   19.835     1592
   19.850     1580
   19.865     1593
   19.880     1620
   19.895     1613
   19.910     1595
   19.925     1547
   19.940     1621
   19.955     1622
   19.970     1626
   19.985     1613
   20.000     1555
   20.015     1687
   20.030     1670
   20.045     1686
   20.060     1688
   20.075     1681
   20.090     1592
   20.105     1655
   20.120     1631
   20.135     1621
   20.150     1612
   20.165     1631
   20.180     1583
   20.195     1563
   20.210     1566
   20.225     1616
   20.240     1622
   20.255     1716
   20.270     1611
   20.285     1541
   20.300     1630
   20.315     1578
   20.330     1577
   20.345     1659
   20.360     1712
   20.375     1727
   20.390     1647
   20.405     1655
   20.420     1698
   20.435     1686
   20.450     1622
   20.465     1629
   20.480     1694
   20.495     1568
   20.510     1600
   20.525     1624
   20.540     1611
   20.555     1727
   20.570     1813
   20.585     1741
   20.600     1648
   20.615     1729
   20.630     1682
   20.645     1679
   20.660     1660
   20.675     1741
   20.690     1729
   20.705     1775
   20.720     1749
   20.735     1678
   20.750     1774
   20.765     1758
   20.780     1803
   20.795     1794
   20.810     1833
   20.825     1858
   20.840     1859
   20.855     1982
   20.870     2068
   20.885     2039
   20.900     1966
   20.915     1941
   20.930     1908
   20.945     1828
   20.960     1818
   20.975     1714
   20.990     1684
   21.005     1759
   21.020     1727
   21.035     1739
   21.050     1736
   21.065     1722
   21.080     1737
   21.095     1676
   21.110     1788
   21.125     1776
   21.140     1770
   21.155     1865
   21.170     1841
   21.185     1924
   21.200     1945
   21.215     1932
   21.230     2049
   21.245     2076
   21.260     2069
   21.275     2065
   21.290     2151
   21.305     2119
   21.320     2059
   21.335     2024
   21.350     2025
   21.365     1935
   21.380     1886
   21.395     1760
   21.410     1762
   21.425     1774
   21.440     1746
   21.455     1770
   21.470     1794
   21.485     1752
   21.500     1777
   21.515     1779
   21.530     1677
   21.545     1738
   21.560     1746
   21.575     1827
   21.590     1759
   21.605     1810
   21.620     1892
   21.635     1969
   21.650     1877
   21.665     2042
   21.680     2152
   21.695     2117
   21.710     2230
   21.725     2410
   21.740     2611
   21.755     2768
   21.770     2859
   21.785     3039
   21.800     3226
   21.815     3452
   21.830     3515
   21.845     3541
   21.860     3419
   21.875     3468
   21.890     3193
   21.905     2771
   21.920     2524
   21.935     2245
   21.950     1961
   21.965     1811
   21.980     1843
   21.995     1719
   22.010     1816
   22.025     1683
   22.040     1674
   22.055     1637
   22.070     1625
   22.085     1700
   22.100     1708
   22.115     1644
   22.130     1632
   22.145     1714
   22.160     1704
   22.175     1731
   22.190     1630
   22.205     1662
   22.220     1644
   22.235     1630
   22.250     1617
   22.265     1639
   22.280     1715
   22.295     1661
   22.310     1595
   22.325     1625
   22.340     1632
   22.355     1624
   22.370     1711
   22.385     1724
   22.400     1714
   22.415     1694
   22.430     1733
   22.445     1698
   22.460     1711
   22.475     1801
   22.490     1695
   22.505     1651
   22.520     1710
   22.535     1639
   22.550     1645
   22.565     1719
   22.580     1657
   22.595     1614
   22.610     1689
   22.625     1628
   22.640     1590
   22.655     1697
   22.670     1708
   22.685     1694
   22.700     1684
   22.715     1724
   22.730     1724
   22.745     1712
   22.760     1661
   22.775     1657
   22.790     1605
   22.805     1645
   22.820     1639
   22.835     1680
   22.850     1676
   22.865     1701
   22.880     1669
   22.895     1668
   22.910     1757
   22.925     1703
   22.940     1785
   22.955     1792
   22.970     1770
   22.985     1680
   23.000     1714
   23.015     1704
   23.030     1599
   23.045     1644
   23.060     1701
   23.075     1716
   23.090     1680
   23.105     1594
   23.120     1592
   23.135     1652
   23.150     1664
   23.165     1600
   23.180     1652
   23.195     1704
   23.210     1629
   23.225     1653
   23.240     1640
   23.255     1566
   23.270     1636
   23.285     1702
   23.300     1742
   23.315     1831
   23.330     1735
   23.345     1760
   23.360     1743
   23.375     1704
   23.390     1863
   23.405     1903
   23.420     1829
   23.435     1795
   23.450     1817
   23.465     1767
   23.480     1647
   23.495     1601
   23.510     1632
   23.525     1627
   23.540     1632
   23.555     1679
   23.570     1570
   23.585     1536
   23.600     1608
   23.615     1507
   23.630     1556
   23.645     1591
   23.660     1624
   23.675     1579
   23.690     1563
   23.705     1644
   23.720     1626
   23.735     1654
   23.750     1779
   23.765     1777
   23.780     1697
   23.795     1832
   23.810     1802
   23.825     1865
   23.840     1826
   23.855     1818
   23.870     1785
   23.885     1652
   23.900     1563
   23.915     1608
   23.930     1653
   23.945     1626
   23.960     1482
   23.975     1512
   23.990     1538
   24.005     1517
   24.020     1575
   24.035     1567
   24.050     1567
   24.065     1558
   24.080     1586
   24.095     1566
   24.110     1504
   24.125     1530
   24.140     1550
   24.155     1644
   24.170     1618
   24.185     1550
   24.200     1633
   24.215     1599
   24.230     1569
   24.245     1488
   24.260     1502
   24.275     1540
   24.290     1560
   24.305     1539
   24.320     1559
   24.335     1511
   24.350     1505
   24.365     1506
   24.380     1585
   24.395     1587
   24.410     1557
   24.425     1566
   24.440     1557
   24.455     1558
   24.470     1596
   24.485     1557
   24.500     1605
   24.515     1524
   24.530     1454
   24.545     1512
   24.560     1546
   24.575     1610
   24.590     1618
   24.605     1601
   24.620     1657
   24.635     1646
   24.650     1609
   24.665     1591
   24.680     1585
   24.695     1572
   24.710     1580
   24.725     1658
   24.740     1685
   24.755     1545
   24.770     1651
   24.785     1606
   24.800     1631
   24.815     1573
   24.830     1588
   24.845     1605
   24.860     1515
   24.875     1568
   24.890     1568
   24.905     1552
   24.920     1558
   24.935     1545
   24.950     1506
   24.965     1584
   24.980     1577
   24.995     1628
   25.010     1628
   25.025     1651
   25.040     1648
   25.055     1624
   25.070     1649
   25.085     1541
   25.100     1649
   25.115     1690
   25.130     1767
   25.145     1712
   25.160     1703
   25.175     1852
   25.190     1739
   25.205     1697
   25.220     1675
   25.235     1647
   25.250     1488
   25.265     1612
   25.280     1580
   25.295     1522
   25.310     1487
   25.325     1498
   25.340     1447
   25.355     1530
   25.370     1614
   25.385     1552
   25.400     1585
   25.415     1614
   25.430     1663
   25.445     1588
   25.460     1636
   25.475     1648
   25.490     1679
   25.505     1749
   25.520     1596
   25.535     1631
   25.550     1596
   25.565     1507
   25.580     1523
   25.595     1492
   25.610     1530
   25.625     1576
   25.640     1536
   25.655     1563
   25.670     1597
   25.685     1587
   25.700     1594
   25.715     1701
   25.730     1695
   25.745     1809
   25.760     2041
   25.775     2058
   25.790     1961
   25.805     2161
   25.820     2199
   25.835     2178
   25.850     2101
   25.865     1949
   25.880     1807
   25.895     1751
   25.910     1756
   25.925     1660
   25.940     1628
   25.955     1679
   25.970     1779
   25.985     1750
   26.000     1738
   26.015     1865
   26.030     1955
   26.045     1944
   26.060     1952
   26.075     2058
   26.090     2015
   26.105     2097
   26.120     2047
   26.135     1922
   26.150     1894
   26.165     1780
   26.180     1594
   26.195     1552
   26.210     1485
   26.225     1524
   26.240     1489
   26.255     1507
   26.270     1419
   26.285     1379
   26.300     1454
   26.315     1430
   26.330     1446
   26.345     1438
   26.360     1437
   26.375     1467
   26.390     1421
   26.405     1445
   26.420     1521
   26.435     1508
   26.450     1445
   26.465     1428
   26.480     1434
   26.495     1389
   26.510     1427
   26.525     1452
   26.540     1441
   26.555     1444
   26.570     1506
   26.585     1473
   26.600     1386
   26.615     1439
   26.630     1441
   26.645     1434
   26.660     1403
   26.675     1441
   26.690     1458
   26.705     1449
   26.720     1473
   26.735     1488
   26.750     1514
   26.765     1470
   26.780     1470
   26.795     1477
   26.810     1519
   26.825     1466
   26.840     1434
   26.855     1487
   26.870     1523
   26.885     1506
   26.900     1456
   26.915     1463
   26.930     1456
   26.945     1408
   26.960     1479
   26.975     1451
   26.990     1436
   27.005     1476
   27.020     1425
   27.035     1443
   27.050     1493
   27.065     1458
   27.080     1478
   27.095     1373
   27.110     1457
   27.125     1372
   27.140     1431
   27.155     1518
   27.170     1467
   27.185     1518
   27.200     1467
   27.215     1454
   27.230     1451
   27.245     1463
   27.260     1512
   27.275     1474
   27.290     1510
   27.305     1446
   27.320     1443
   27.335     1489
   27.350     1435
   27.365     1398
   27.380     1434
   27.395     1412
   27.410     1315
   27.425     1465
   27.440     1462
   27.455     1425
   27.470     1382
   27.485     1415
   27.500     1479
   27.515     1362
   27.530     1376
   27.545     1481
   27.560     1463
   27.575     1404
   27.590     1355
   27.605     1390
   27.620     1373
   27.635     1390
   27.650     1376
   27.665     1442
   27.680     1410
   27.695     1401
   27.710     1406
   27.725     1480
   27.740     1471
   27.755     1427
   27.770     1367
   27.785     1454
   27.800     1512
   27.815     1355
   27.830     1475
   27.845     1484
   27.860     1511
   27.875     1583
   27.890     1526
   27.905     1504
   27.920     1559
   27.935     1578
   27.950     1610
   27.965     1531
   27.980     1613
   27.995     1594
   28.010     1674
   28.025     1680
   28.040     1718
   28.055     1659
   28.070     1595
   28.085     1680
   28.100     1750
   28.115     1662
   28.130     1625
   28.145     1655
   28.160     1684
   28.175     1692
   28.190     1594
   28.205     1816
   28.220     1859
   28.235     1927
   28.250     1958
   28.265     2025
   28.280     2167
   28.295     2182
   28.310     2051
   28.325     1948
   28.340     1988
   28.355     1852
   28.370     1742
   28.385     1684
   28.400     1553
   28.415     1545
   28.430     1510
   28.445     1450
   28.460     1447
   28.475     1489
   28.490     1470
   28.505     1462
   28.520     1430
   28.535     1346
   28.550     1381
   28.565     1418
   28.580     1360
   28.595     1376
   28.610     1457
   28.625     1406
   28.640     1327
   28.655     1395
   28.670     1380
   28.685     1358
   28.700     1333
   28.715     1355
   28.730     1444
   28.745     1481
   28.760     1480
   28.775     1455
   28.790     1462
   28.805     1408
   28.820     1370
   28.835     1420
   28.850     1478
   28.865     1534
   28.880     1501
   28.895     1499
   28.910     1518
   28.925     1561
   28.940     1566
   28.955     1473
   28.970     1456
   28.985     1415
   29.000     1397
   29.015     1397
   29.030     1382
   29.045     1364
   29.060     1352
   29.075     1416
   29.090     1413
   29.105     1445
   29.120     1417
   29.135     1396
   29.150     1381
   29.165     1352
   29.180     1424
   29.195     1481
   29.210     1458
   29.225     1372
   29.240     1404
   29.255     1412
   29.270     1455
   29.285     1417
   29.300     1395
   29.315     1349
   29.330     1329
   29.345     1427
   29.360     1420
   29.375     1330
   29.390     1385
   29.405     1425
   29.420     1383
   29.435     1376
   29.450     1407
   29.465     1321
   29.480     1376
   29.495     1364
   29.510     1406
   29.525     1446
   29.540     1512
   29.555     1480
   29.570     1492
   29.585     1493
   29.600     1538
   29.615     1482
   29.630     1575
   29.645     1567
   29.660     1591
   29.675     1591
   29.690     1518
   29.705     1531
   29.720     1497
   29.735     1510
   29.750     1480
   29.765     1438
   29.780     1444
   29.795     1458
   29.810     1333
   29.825     1388
   29.840     1330
   29.855     1352
   29.870     1424
   29.885     1366
   29.900     1353
   29.915     1300
   29.930     1349
   29.945     1375
   29.960     1310
   29.975     1361
   29.990     1314
   30.005     1369
   30.020     1377
   30.035     1345
   30.050     1362
   30.065     1342
   30.080     1384
   30.095     1363
   30.110     1318
   30.125     1300
   30.140     1331
   30.155     1415
   30.170     1404
   30.185     1424
   30.200     1395
   30.215     1416
   30.230     1344
   30.245     1336
   30.260     1389
   30.275     1352
   30.290     1407
   30.305     1379
   30.320     1362
   30.335     1373
   30.350     1341
   30.365     1299
   30.380     1369
   30.395     1353
   30.410     1356
   30.425     1343
   30.440     1356
   30.455     1366
   30.470     1359
   30.485     1361
   30.500     1347
   30.515     1347
   30.530     1324
   30.545     1359
   30.560     1350
   30.575     1328
   30.590     1334
   30.605     1408
   30.620     1396
   30.635     1350
   30.650     1333
   30.665     1438
   30.680     1382
   30.695     1389
   30.710     1386
   30.725     1456
   30.740     1493
   30.755     1508
   30.770     1522
   30.785     1601
   30.800     1545
   30.815     1532
   30.830     1554
   30.845     1496
   30.860     1507
   30.875     1490
   30.890     1454
   30.905     1396
   30.920     1397
   30.935     1340
   30.950     1273
   30.965     1336
   30.980     1303
   30.995     1374
   31.010     1367
   31.025     1389
   31.040     1382
   31.055     1349
   31.070     1336
   31.085     1323
   31.100     1394
   31.115     1384
   31.130     1403
   31.145     1345
   31.160     1329
   31.175     1365
   31.190     1317
   31.205     1302
   31.220     1365
   31.235     1364
   31.250     1206
   31.265     1312
   31.280     1323
   31.295     1398
   31.310     1308
   31.325     1208
   31.340     1289
   31.355     1329
   31.370     1344
   31.385     1297
   31.400     1352
   31.415     1303
   31.430     1250
   31.445     1217
   31.460     1240
   31.475     1302
   31.490     1326
   31.505     1354
   31.520     1238
   31.535     1383
   31.550     1328
   31.565     1274
   31.580     1333
   31.595     1244
   31.610     1316
   31.625     1286
   31.640     1263
   31.655     1206
   31.670     1301
   31.685     1259
   31.700     1268
   31.715     1301
   31.730     1267
   31.745     1244
   31.760     1329
   31.775     1299
   31.790     1203
   31.805     1331
   31.820     1265
   31.835     1243
   31.850     1239
   31.865     1265
   31.880     1253
   31.895     1293
   31.910     1253
   31.925     1288
   31.940     1297
   31.955     1285
   31.970     1362
   31.985     1286
   32.000     1290
   32.015     1322
   32.030     1372
   32.045     1338
   32.060     1362
   32.075     1288
   32.090     1225
   32.105     1348
   32.120     1279
   32.135     1328
   32.150     1362
   32.165     1362
   32.180     1241
   32.195     1323
   32.210     1339
   32.225     1385
   32.240     1344
   32.255     1392
   32.270     1309
   32.285     1357
   32.300     1465
   32.315     1391
   32.330     1436
   32.345     1505
   32.360     1630
   32.375     1735
   32.390     1660
   32.405     1695
   32.420     1798
   32.435     1782
   32.450     1722
   32.465     1688
   32.480     1675
   32.495     1581
   32.510     1567
   32.525     1546
   32.540     1475
   32.555     1442
   32.570     1501
   32.585     1511
   32.600     1430
   32.615     1491
   32.630     1444
   32.645     1496
   32.660     1459
   32.675     1516
   32.690     1560
   32.705     1597
   32.720     1642
   32.735     1598
   32.750     1614
   32.765     1591
   32.780     1569
   32.795     1521
   32.810     1492
   32.825     1485
   32.840     1380
   32.855     1411
   32.870     1411
   32.885     1412
   32.900     1404
   32.915     1372
   32.930     1330
   32.945     1294
   32.960     1346
   32.975     1327
   32.990     1290
   33.005     1332
   33.020     1339
   33.035     1378
   33.050     1411
   33.065     1342
   33.080     1352
   33.095     1246
   33.110     1345
   33.125     1276
   33.140     1286
   33.155     1285
   33.170     1364
   33.185     1345
   33.200     1299
   33.215     1299
   33.230     1369
   33.245     1373
   33.260     1385
   33.275     1397
   33.290     1397
   33.305     1333
   33.320     1413
   33.335     1449
   33.350     1493
   33.365     1584
   33.380     1640
   33.395     1674
   33.410     1574
   33.425     1593
   33.440     1580
   33.455     1548
   33.470     1467
   33.485     1451
   33.500     1457
   33.515     1314
   33.530     1239
   33.545     1329
   33.560     1322
   33.575     1344
   33.590     1327
   33.605     1304
   33.620     1280
   33.635     1351
   33.650     1233
   33.665     1354
   33.680     1268
   33.695     1284
   33.710     1294
   33.725     1329
   33.740     1346
   33.755     1272
   33.770     1221
   33.785     1321
   33.800     1295
   33.815     1236
   33.830     1226
   33.845     1265
   33.860     1372
   33.875     1381
   33.890     1434
   33.905     1373
   33.920     1378
   33.935     1457
   33.950     1415
   33.965     1421
   33.980     1426
   33.995     1399
   34.010     1454
   34.025     1393
   34.040     1379
   34.055     1382
   34.070     1355
   34.085     1406
   34.100     1440
   34.115     1407
   34.130     1342
   34.145     1413
   34.160     1468
   34.175     1569
   34.190     1504
   34.205     1516
   34.220     1512
   34.235     1542
   34.250     1539
   34.265     1599
   34.280     1660
   34.295     1586
   34.310     1502
   34.325     1445
   34.340     1458
   34.355     1475
   34.370     1500
   34.385     1473
   34.400     1476
   34.415     1514
   34.430     1508
   34.445     1515
   34.460     1562
   34.475     1643
   34.490     1544
   34.505     1492
   34.520     1479
   34.535     1423
   34.550     1397
   34.565     1413
   34.580     1365
   34.595     1338
   34.610     1349
   34.625     1301
   34.640     1262
   34.655     1305
   34.670     1362
   34.685     1393
   34.700     1366
   34.715     1379
   34.730     1354
   34.745     1341
   34.760     1304
   34.775     1288
   34.790     1323
   34.805     1383
   34.820     1297
   34.835     1294
   34.850     1283
   34.865     1318
   34.880     1286
   34.895     1239
   34.910     1291
   34.925     1361
   34.940     1444
   34.955     1361
   34.970     1365
   34.985     1341
   35.000     1317
   35.015     1334
   35.030     1319
   35.045     1373
   35.060     1328
   35.075     1412
   35.090     1366
   35.105     1372
   35.120     1345
   35.135     1255
   35.150     1295
   35.165     1286
   35.180     1344
   35.195     1389
   35.210     1404
   35.225     1424
   35.240     1425
   35.255     1417
   35.270     1441
   35.285     1359
   35.300     1353
   35.315     1381
   35.330     1333
   35.345     1310
   35.360     1369
   35.375     1279
   35.390     1324
   35.405     1323
   35.420     1238
   35.435     1347
   35.450     1331
   35.465     1264
   35.480     1240
   35.495     1292
   35.510     1292
   35.525     1329
   35.540     1333
   35.555     1352
   35.570     1311
   35.585     1276
   35.600     1284
   35.615     1179
   35.630     1287
   35.645     1327
   35.660     1353
   35.675     1325
   35.690     1264
   35.705     1257
   35.720     1335
   35.735     1312
   35.750     1270
   35.765     1379
   35.780     1360
   35.795     1373
   35.810     1305
   35.825     1358
   35.840     1291
   35.855     1369
   35.870     1405
   35.885     1367
   35.900     1291
   35.915     1276
   35.930     1334
   35.945     1296
   35.960     1250
   35.975     1247
   35.990     1247
   36.005     1208
   36.020     1291
   36.035     1270
   36.050     1264
   36.065     1256
   36.080     1208
   36.095     1196
   36.110     1170
   36.125     1210
   36.140     1233
   36.155     1242
   36.170     1220
   36.185     1296
   36.200     1322
   36.215     1304
   36.230     1272
   36.245     1211
   36.260     1255
   36.275     1260
   36.290     1285
   36.305     1244
   36.320     1267
   36.335     1293
   36.350     1319
   36.365     1300
   36.380     1267
   36.395     1237
   36.410     1272
   36.425     1275
   36.440     1297
   36.455     1243
   36.470     1299
   36.485     1305
   36.500     1239
   36.515     1256
   36.530     1183
   36.545     1260
   36.560     1314
   36.575     1328
   36.590     1341
   36.605     1362
   36.620     1303
   36.635     1276
   36.650     1201
   36.665     1209
   36.680     1235
   36.695     1293
   36.710     1256
   36.725     1349
   36.740     1328
   36.755     1306
   36.770     1318
   36.785     1377
   36.800     1391
   36.815     1359
   36.830     1388
   36.845     1362
   36.860     1378
   36.875     1418
   36.890     1432
   36.905     1407
   36.920     1379
   36.935     1328
   36.950     1291
   36.965     1365
   36.980     1305
   36.995     1302
   37.010     1268
   37.025     1211
   37.040     1278
   37.055     1235
   37.070     1243
   37.085     1176
   37.100     1230
   37.115     1238
   37.130     1207
   37.145     1192
   37.160     1259
   37.175     1267
   37.190     1245
   37.205     1216
   37.220     1277
   37.235     1235
   37.250     1142
   37.265     1221
   37.280     1311
   37.295     1293
   37.310     1242
   37.325     1238
   37.340     1249
   37.355     1277
   37.370     1365
   37.385     1254
   37.400     1298
   37.415     1217
   37.430     1282
   37.445     1223
   37.460     1227
   37.475     1234
   37.490     1290
   37.505     1386
   37.520     1200
   37.535     1304
   37.550     1295
   37.565     1265
   37.580     1316
   37.595     1264
   37.610     1324
   37.625     1308
   37.640     1252
   37.655     1361
   37.670     1361
   37.685     1318
   37.700     1359
   37.715     1404
   37.730     1428
   37.745     1425
   37.760     1434
   37.775     1412
   37.790     1341
   37.805     1372
   37.820     1318
   37.835     1309
   37.850     1285
   37.865     1243
   37.880     1214
   37.895     1284
   37.910     1287
   37.925     1296
   37.940     1331
   37.955     1359
   37.970     1427
   37.985     1318
   38.000     1373
   38.015     1466
   38.030     1476
   38.045     1509
   38.060     1550
   38.075     1534
   38.090     1500
   38.105     1516
   38.120     1437
   38.135     1438
   38.150     1438
   38.165     1401
   38.180     1270
   38.195     1270
   38.210     1267
   38.225     1314
   38.240     1278
   38.255     1324
   38.270     1262
   38.285     1246
   38.300     1282
   38.315     1241
   38.330     1294
   38.345     1295
   38.360     1264
   38.375     1277
   38.390     1250
   38.405     1259
   38.420     1324
   38.435     1329
   38.450     1273
   38.465     1211
   38.480     1202
   38.495     1186
   38.510     1241
   38.525     1234
   38.540     1219
   38.555     1256
   38.570     1303
   38.585     1322
   38.600     1243
   38.615     1296
   38.630     1274
   38.645     1276
   38.660     1248
   38.675     1252
   38.690     1298
   38.705     1314
   38.720     1312
   38.735     1262
   38.750     1245
   38.765     1226
   38.780     1289
   38.795     1315
   38.810     1324
   38.825     1288
   38.840     1246
   38.855     1304
   38.870     1338
   38.885     1296
   38.900     1280
   38.915     1287
   38.930     1219
   38.945     1191
   38.960     1267
   38.975     1209
   38.990     1188
   39.005     1293
   39.020     1293
   39.035     1284
   39.050     1332
   39.065     1241
   39.080     1281
   39.095     1243
   39.110     1321
   39.125     1201
   39.140     1261
   39.155     1344
   39.170     1296
   39.185     1246
   39.200     1225
   39.215     1228
   39.230     1284
   39.245     1292
   39.260     1244
   39.275     1269
   39.290     1271
   39.305     1257
   39.320     1248
   39.335     1169
   39.350     1211
   39.365     1210
   39.380     1257
   39.395     1300
   39.410     1147
   39.425     1159
   39.440     1210
   39.455     1235
   39.470     1207
   39.485     1201
   39.500     1301
   39.515     1217
   39.530     1141
   39.545     1266
   39.560     1244
   39.575     1239
   39.590     1171
   39.605     1178
   39.620     1157
   39.635     1227
   39.650     1139
   39.665     1249
   39.680     1221
   39.695     1195
   39.710     1213
   39.725     1273
   39.740     1271
   39.755     1257
   39.770     1259
   39.785     1275
   39.800     1179
   39.815     1198
   39.830     1242
   39.845     1231
   39.860     1227
   39.875     1285
   39.890     1215
   39.905     1245
   39.920     1263
   39.935     1253
   39.950     1186
   39.965     1164
   39.980     1254
   39.995     1263
   40.010     1327
   40.025     1296
   40.040     1275
   40.055     1246
   40.070     1219
   40.085     1302
   40.100     1334
   40.115     1280
   40.130     1238
   40.145     1236
   40.160     1259
   40.175     1271
   40.190     1227
   40.205     1239
   40.220     1216
   40.235     1298
   40.250     1320
   40.265     1306
   40.280     1279
   40.295     1283
   40.310     1248
   40.325     1231
   40.340     1240
   40.355     1265
   40.370     1285
   40.385     1227
   40.400     1244
   40.415     1326
   40.430     1336
   40.445     1287
   40.460     1362
   40.475     1462
   40.490     1431
   40.505     1467
   40.520     1582
   40.535     1527
   40.550     1562
   40.565     1643
   40.580     1619
   40.595     1568
   40.610     1575
   40.625     1563
   40.640     1471
   40.655     1506
   40.670     1460
   40.685     1436
   40.700     1384
   40.715     1441
   40.730     1429
   40.745     1440
   40.760     1429
   40.775     1416
   40.790     1395
   40.805     1368
   40.820     1330
   40.835     1369
   40.850     1325
   40.865     1364
   40.880     1349
   40.895     1282
   40.910     1313
   40.925     1385
   40.940     1369
   40.955     1310
   40.970     1301
   40.985     1274
   41.000     1289
   41.015     1243
   41.030     1197
   41.045     1256
   41.060     1300
   41.075     1352
   41.090     1312
   41.105     1269
   41.120     1241
   41.135     1268
   41.150     1243
   41.165     1180
   41.180     1246
   41.195     1316
   41.210     1293
   41.225     1241
   41.240     1282
   41.255     1249
   41.270     1300
   41.285     1312
   41.300     1292
   41.315     1246
   41.330     1218
   41.345     1258
   41.360     1285
   41.375     1208
   41.390     1249
   41.405     1288
   41.420     1327
   41.435     1271
   41.450     1332
   41.465     1284
   41.480     1203
   41.495     1284
   41.510     1236
   41.525     1317
   41.540     1340
   41.555     1288
   41.570     1277
   41.585     1327
   41.600     1413
   41.615     1390
   41.630     1418
   41.645     1511
   41.660     1616
   41.675     1688
   41.690     1694
   41.705     1681
   41.720     1770
   41.735     1808
   41.750     1790
   41.765     1770
   41.780     1597
   41.795     1592
   41.810     1456
   41.825     1406
   41.840     1347
   41.855     1348
   41.870     1371
   41.885     1316
   41.900     1279
   41.915     1229
   41.930     1321
   41.945     1319
   41.960     1229
   41.975     1312
   41.990     1295
   42.005     1308
   42.020     1330
   42.035     1408
   42.050     1393
   42.065     1378
   42.080     1353
   42.095     1367
   42.110     1330
   42.125     1360
   42.140     1384
   42.155     1417
   42.170     1525
   42.185     1529
   42.200     1570
   42.215     1545
   42.230     1571
   42.245     1638
   42.260     1614
   42.275     1552
   42.290     1548
   42.305     1498
   42.320     1474
   42.335     1431
   42.350     1412
   42.365     1333
   42.380     1363
   42.395     1367
   42.410     1305
   42.425     1314
   42.440     1347
   42.455     1301
   42.470     1377
   42.485     1401
   42.500     1373
   42.515     1323
   42.530     1331
   42.545     1427
   42.560     1464
   42.575     1468
   42.590     1416
   42.605     1400
   42.620     1420
   42.635     1385
   42.650     1360
   42.665     1344
   42.680     1313
   42.695     1331
   42.710     1285
   42.725     1311
   42.740     1313
   42.755     1284
   42.770     1249
   42.785     1293
   42.800     1289
   42.815     1194
   42.830     1216
   42.845     1208
   42.860     1233
   42.875     1229
   42.890     1305
   42.905     1216
   42.920     1231
   42.935     1183
   42.950     1155
   42.965     1233
   42.980     1186
   42.995     1215
   43.010     1231
   43.025     1253
   43.040     1251
   43.055     1227
   43.070     1230
   43.085     1205
   43.100     1273
   43.115     1261
   43.130     1243
   43.145     1242
   43.160     1265
   43.175     1255
   43.190     1243
   43.205     1247
   43.220     1249
   43.235     1283
   43.250     1171
   43.265     1286
   43.280     1328
   43.295     1284
   43.310     1292
   43.325     1292
   43.340     1337
   43.355     1307
   43.370     1390
   43.385     1322
   43.400     1376
   43.415     1340
   43.430     1359
   43.445     1276
   43.460     1294
   43.475     1355
   43.490     1346
   43.505     1378
   43.520     1286
   43.535     1293
   43.550     1299
   43.565     1198
   43.580     1337
   43.595     1249
   43.610     1286
   43.625     1255
   43.640     1190
   43.655     1201
   43.670     1237
   43.685     1262
   43.700     1274
   43.715     1271
   43.730     1222
   43.745     1221
   43.760     1291
   43.775     1272
   43.790     1212
   43.805     1288
   43.820     1300
   43.835     1284
   43.850     1271
   43.865     1191
   43.880     1218
   43.895     1288
   43.910     1279
   43.925     1241
   43.940     1200
   43.955     1232
   43.970     1270
   43.985     1213
