    2.000     1201
    2.015     1208
    2.030     1237
    2.045     1248
    2.060     1241
    2.075     1252
    2.090     1157
    2.105     1228
    2.120     1128
    2.135     1102
    2.150     1181
    2.165     1196
    2.180     1106
    2.195     1087
    2.210     1155
    2.225     1204
    2.240     1122
    2.255     1118
    2.270     1119
    2.285     1059
    2.300     1101
    2.315     1059
    2.330     1110
    2.345     1140
    2.360     1128
    2.375     1088
    2.390     1041
    2.405     1074
    2.420     1170
    2.435     1166
    2.450     1087
    2.465     1064
    2.480     1049
    2.495     1022
    2.510     1065
    2.525     1115
    2.540     1089
    2.555     1111
    2.570     1096
    2.585     1040
    2.600     1029
    2.615     1095
    2.630     1077
    2.645     1113
    2.660     1109
    2.675     1103
    2.690     1094
    2.705     1055
    2.720     1082
    2.735     1088
    2.750     1032
    2.765     1034
    2.780     1081
    2.795     1106
    2.810     1093
    2.825     1127
    2.840     1106
    2.855     1158
    2.870     1157
    2.885     1187
    2.900     1120
    2.915     1177
    2.930     1137
    2.945     1150
    2.960     1197
    2.975     1192
    2.990     1217
    3.005     1223
    3.020     1283
    3.035     1298
    3.050     1315
    3.065     1338
    3.080     1402
    3.095     1375
    3.110     1508
    3.125     1566
    3.140     1619
    3.155     1792
    3.170     1936
    3.185     1995
    3.200     1906
    3.215     1599
    3.230     1507
    3.245     1344
    3.260     1277
    3.275     1231
    3.290     1238
    3.305     1353
    3.320     1346
    3.335     1332
    3.350     1303
    3.365     1114
    3.380     1012
    3.395      951
    3.410      879
    3.425      962
    3.440      971
    3.455      914
    3.470      884
    3.485      932
    3.500      949
    3.515      914
    3.530      913
    3.545      934
    3.560      967
    3.575      917
    3.590      915
    3.605      898
    3.620      962
    3.635      914
    3.650      927
    3.665      999
    3.680     1003
    3.695      971
    3.710      983
    3.725     1055
    3.740     1080
    3.755     1008
    3.770      942
    3.785     1021
    3.800     1068
    3.815     1144
    3.830     1212
    3.845     1160
    3.860     1147
    3.875     1195
    3.890     1131
    3.905     1006
    3.920      924
    3.935      893
    3.950      864
    3.965      888
    3.980      909
    3.995      895
    4.010      948
    4.025      927
    4.040      976
    4.055      972
    4.070      990
    4.085      989
    4.100      976
    4.115     1045
    4.130     1004
    4.145     1048
    4.160     1122
    4.175     1174
    4.190     1162
    4.205     1246
    4.220     1201
    4.235     1128
    4.250     1014
    4.265      919
    4.280      876
    4.295      885
    4.310      819
    4.325      795
    4.340      799
    4.355      816
    4.370      841
    4.385      884
    4.400      824
    4.415      850
    4.430      871
    4.445      830
    4.460      838
    4.475      843
    4.490      838
    4.505      847
    4.520      839
    4.535      875
    4.550      897
    4.565      958
    4.580      906
    4.595      939
    4.610      928
    4.625      942
    4.640      921
    4.655      987
    4.670     1047
    4.685     1024
    4.700     1062
    4.715     1170
    4.730     1191
    4.745     1168
    4.760     1101
    4.775     1045
    4.790     1019
    4.805      998
    4.820      961
    4.835      943
    4.850      922
    4.865      928
    4.880      964
    4.895      974
    4.910      990
    4.925     1013
    4.940     1073
    4.955     1120
    4.970     1184
    4.985     1224
    5.000     1353
    5.015     1479
    5.030     1510
    5.045     1467
    5.060     1416
    5.075     1247
    5.090     1105
    5.105      922
    5.120      864
    5.135      851
    5.150      846
    5.165      863
    5.180      830
    5.195      887
    5.210      853
    5.225      826
    5.240      868
    5.255      863
    5.270      844
    5.285      871
    5.300      920
    5.315      900
    5.330      950
    5.345      892
    5.360      899
    5.375      896
    5.390      954
    5.405     1018
    5.420     1041
    5.435     1035
    5.450     1111
    5.465     1188
    5.480     1197
    5.495     1257
    5.510     1218
    5.525     1160
    5.540     1097
    5.555     1053
    5.570      934
    5.585      950
    5.600      989
    5.615      938
    5.630     1035
    5.645     1035
    5.660     1093
    5.675     1194
    5.690     1183
    5.705     1373
    5.720     1494
    5.735     1589
    5.750     1673
    5.765     1597
    5.780     1343
    5.795     1234
    5.810     1051
    5.825      963
    5.840      892
    5.855      880
    5.870      850
    5.885      816
    5.900      810
    5.915      799
    5.930      869
    5.945      828
    5.960      827
    5.975      902
    5.990      857
    6.005      818
    6.020      885
    6.035      889
    6.050      891
    6.065      924
    6.080      909
    6.095      873
    6.110      920
    6.125      955
    6.140      976
    6.155      921
    6.170      938
    6.185      936
    6.200      913
    6.215      881
    6.230      861
    6.245      799
    6.260      815
    6.275      847
    6.290      897
    6.305      869
    6.320      873
    6.335      890
    6.350      906
    6.365      925
    6.380      932
    6.395      902
    6.410      907
    6.425      891
    6.440      891
    6.455      882
    6.470      850
    6.485      847
    6.500      849
    6.515      854
    6.530      832
    6.545      854
    6.560      858
    6.575      873
    6.590      896
    6.605      852
    6.620      878
    6.635      820
    6.650      852
    6.665      863
    6.680      891
    6.695      862
    6.710      845
    6.725      879
    6.740      915
    6.755      854
    6.770      850
    6.785      888
    6.800      876
    6.815      828
    6.830      832
    6.845      834
    6.860      865
    6.875      922
    6.890      893
    6.905      944
    6.920      862
    6.935      830
    6.950      895
    6.965      880
    6.980      897
    6.995      891
    7.010      866
    7.025      928
    7.040      908
    7.055      919
    7.070      962
    7.085      871
    7.100     1036
    7.115      899
    7.130      963
    7.145      930
    7.160      845
    7.175      950
    7.190      907
    7.205      866
    7.220      894
    7.235      872
    7.250      878
    7.265      957
    7.280      933
    7.295      963
    7.310      889
    7.325      915
    7.340      908
    7.355      889
    7.370      918
    7.385      893
    7.400      928
    7.415      930
    7.430      846
    7.445      897
    7.460      923
    7.475      924
    7.490      967
    7.505     1006
    7.520      866
    7.535      894
    7.550      904
    7.565      900
    7.580      918
    7.595      887
    7.610      847
    7.625      876
    7.640      855
    7.655      868
    7.670      843
    7.685      846
    7.700      900
    7.715      924
    7.730      889
    7.745      853
    7.760      968
    7.775      977
    7.790      914
    7.805      959
    7.820      961
    7.835      946
    7.850      937
    7.865      890
    7.880      862
    7.895      912
    7.910      952
    7.925      953
    7.940      979
    7.955     1009
    7.970      957
    7.985      964
    8.000     1049
    8.015      980
    8.030      999
    8.045      972
    8.060      958
    8.075      987
    8.090      981
    8.105     1048
    8.120     1026
    8.135     1040
    8.150     1155
    8.165     1106
    8.180     1058
    8.195     1093
    8.210     1215
    8.225     1369
    8.240     1465
    8.255     1621
    8.270     1785
    8.285     1898
    8.300     1922
    8.315     1721
    8.330     1584
    8.345     1488
    8.360     1301
    8.375     1267
    8.390     1296
    8.405     1392
    8.420     1582
    8.435     1770
    8.450     1868
    8.465     1868
    8.480     1756
    8.495     1586
    8.510     1430
    8.525     1300
    8.540     1216
    8.555     1197
    8.570     1233
    8.585     1187
    8.600     1196
    8.615     1282
    8.630     1332
    8.645     1528
    8.660     1683
    8.675     1913
    8.690     2182
    8.705     2629
    8.720     2904
    8.735     3048
    8.750     3010
    8.765     2736
    8.780     2497
    8.795     2327
    8.810     2172
    8.825     2270
    8.840     2446
    8.855     2988
    8.870     3491
    8.885     4299
    8.900     4703
    8.915     4777
    8.930     4513
    8.945     4198
    8.960     3525
    8.975     2723
    8.990     2031
    9.005     1646
    9.020     1387
    9.035     1186
    9.050     1064
    9.065     1025
    9.080     1055
    9.095      980
    9.110      983
    9.125     1031
    9.140     1025
    9.155     1103
    9.170     1132
    9.185     1113
    9.200     1265
    9.215     1324
    9.230     1469
    9.245     1618
    9.260     1781
    9.275     1692
    9.290     1538
    9.305     1456
    9.320     1284
    9.335     1201
    9.350     1187
    9.365      981
    9.380      942
    9.395      918
    9.410      907
    9.425     1015
    9.440      995
    9.455      974
    9.470      983
    9.485      967
    9.500     1074
    9.515     1132
    9.530     1155
    9.545     1230
    9.560     1165
    9.575     1265
    9.590     1310
    9.605     1274
    9.620     1141
    9.635     1115
    9.650     1074
    9.665     1066
    9.680     1083
    9.695     1129
    9.710     1219
    9.725     1406
    9.740     1389
    9.755     1278
    9.770     1169
    9.785     1055
    9.800      936
    9.815      945
    9.830      913
    9.845      943
    9.860      929
    9.875      988
    9.890      949
    9.905      951
    9.920      990
    9.935     1072
    9.950     1114
    9.965     1164
    9.980     1200
    9.995     1180
   10.010     1229
   10.025     1111
   10.040     1150
   10.055     1067
   10.070     1088
   10.085     1151
   10.100     1218
   10.115     1328
   10.130     1427
   10.145     1565
   10.160     1715
   10.175     1801
   10.190     1583
   10.205     1478
   10.220     1284
   10.235     1104
   10.250      961
   10.265      896
   10.280      847
   10.295      874
   10.310      829
   10.325      798
   10.340      861
   10.355      878
   10.370      835
   10.385      855
   10.400      838
   10.415      859
   10.430      877
   10.445      858
   10.460      851
   10.475      889
   10.490      915
   10.505      863
   10.520      873
   10.535      891
   10.550      905
   10.565      902
   10.580      843
   10.595      822
   10.610      847
   10.625      854
   10.640      856
   10.655      921
   10.670      900
   10.685      898
   10.700      937
   10.715      987
   10.730      968
   10.745      976
   10.760      933
   10.775      890
   10.790      869
   10.805      837
   10.820      828
   10.835      798
   10.850      807
   10.865      844
   10.880      845
   10.895      822
   10.910      849
   10.925      834
   10.940      831
   10.955      827
   10.970      882
   10.985      869
   11.000      886
   11.015      897
   11.030      942
   11.045      941
   11.060      973
   11.075     1006
   11.090     1088
   11.105     1015
   11.120      969
   11.135      892
   11.150      885
   11.165      821
   11.180      810
   11.195      928
   11.210      973
   11.225      976
   11.240      932
   11.255      944
   11.270      938
   11.285      893
   11.300      873
   11.315      818
   11.330      776
   11.345      804
   11.360      810
   11.375      708
   11.390      837
   11.405      824
   11.420      823
   11.435      744
   11.450      819
   11.465      800
   11.480      784
   11.495      832
   11.510      820
   11.525      812
   11.540      858
   11.555      871
   11.570      842
   11.585      852
   11.600      841
   11.615      824
   11.630      812
   11.645      738
   11.660      786
   11.675      757
   11.690      771
   11.705      769
   11.720      751
   11.735      764
   11.750      735
   11.765      849
   11.780      770
   11.795      766
   11.810      745
   11.825      787
   11.840      785
   11.855      792
   11.870      766
   11.885      727
   11.900      726
   11.915      726
   11.930      787
   11.945      726
   11.960      721
   11.975      763
   11.990      795
   12.005      752
   12.020      796
   12.035      799
   12.050      770
   12.065      731
   12.080      746
   12.095      763
   12.110      754
   12.125      770
   12.140      768
   12.155      774
   12.170      764
   12.185      743
   12.200      774
   12.215      745
   12.230      751
   12.245      726
   12.260      721
   12.275      734
   12.290      776
   12.305      767
   12.320      792
   12.335      799
   12.350      838
   12.365      795
   12.380      817
   12.395      830
   12.410      907
   12.425      943
   12.440      947
   12.455      976
   12.470      915
   12.485      858
   12.500      828
   12.515      789
   12.530      725
   12.545      755
   12.560      783
   12.575      784
   12.590      775
   12.605      749
   12.620      760
   12.635      742
   12.650      714
   12.665      762
   12.680      783
   12.695      701
   12.710      719
   12.725      781
   12.740      778
   12.755      735
   12.770      748
   12.785      732
   12.800      799
   12.815      752
   12.830      713
   12.845      755
   12.860      761
   12.875      732
   12.890      775
   12.905      763
   12.920      728
   12.935      742
   12.950      777
   12.965      767
   12.980      808
   12.995      801
   13.010      806
   13.025      872
   13.040      830
   13.055      799
   13.070      768
   13.085      716
   13.100      833
   13.115      803
   13.130      778
   13.145      759
   13.160      719
   13.175      787
   13.190      799
   13.205      780
   13.220      748
   13.235      707
   13.250      759
   13.265      725
   13.280      773
   13.295      801
   13.310      695
   13.325      691
   13.340      729
   13.355      736
   13.370      814
   13.385      759
   13.400      778
   13.415      746
   13.430      758
   13.445      689
   13.460      717
   13.475      709
   13.490      758
   13.505      769
   13.520      745
   13.535      739
   13.550      744
   13.565      703
   13.580      745
   13.595      710
   13.610      799
   13.625      839
   13.640      731
   13.655      726
   13.670      733
   13.685      717
   13.700      733
   13.715      762
   13.730      741
   13.745      790
   13.760      759
   13.775      756
   13.790      757
   13.805      826
   13.820      853
   13.835      821
   13.850      823
   13.865      814
   13.880      787
   13.895      819
   13.910      782
   13.925      790
   13.940      754
   13.955      758
   13.970      756
   13.985      760
   14.000      803
   14.015      756
   14.030      787
   14.045      791
   14.060      794
   14.075      764
   14.090      699
   14.105      733
   14.120      714
   14.135      715
   14.150      772
   14.165      752
   14.180      724
   14.195      661
   14.210      716
   14.225      765
   14.240      770
   14.255      775
   14.270      755
   14.285      764
   14.300      761
   14.315      735
   14.330      793
   14.345      779
   14.360      760
   14.375      774
   14.390      761
   14.405      754
   14.420      769
   14.435      756
   14.450      755
   14.465      757
   14.480      736
   14.495      714
   14.510      750
   14.525      770
   14.540      745
   14.555      759
   14.570      769
   14.585      754
   14.600      735
   14.615      785
   14.630      775
   14.645      769
   14.660      778
   14.675      764
   14.690      772
   14.705      746
   14.720      728
   14.735      722
   14.750      770
   14.765      764
   14.780      792
   14.795      816
   14.810      770
   14.825      778
   14.840      754
   14.855      775
   14.870      781
   14.885      776
   14.900      814
   14.915      836
   14.930      776
   14.945      783
   14.960      758
   14.975      774
   14.990      737
   15.005      786
   15.020      804
   15.035      861
   15.050      832
   15.065      755
   15.080      796
   15.095      755
   15.110      770
   15.125      767
   15.140      782
   15.155      759
   15.170      761
   15.185      772
   15.200      781
   15.215      778
   15.230      807
   15.245      771
   15.260      788
   15.275      834
   15.290      783
   15.305      796
   15.320      854
   15.335      805
   15.350      859
   15.365      849
   15.380      766
   15.395      776
   15.410      756
   15.425      793
   15.440      812
   15.455      810
   15.470      809
   15.485      794
   15.500      853
   15.515      821
   15.530      797
   15.545      824
   15.560      847
   15.575      860
   15.590      823
   15.605      839
   15.620      808
   15.635      809
   15.650      802
   15.665      832
   15.680      862
   15.695      799
   15.710      835
   15.725      837
   15.740      833
   15.755      801
   15.770      817
   15.785      860
   15.800      847
   15.815      840
   15.830      882
   15.845      869
   15.860      856
   15.875      840
   15.890      799
   15.905      841
   15.920      904
   15.935      962
   15.950      908
   15.965      984
   15.980     1036
   15.995     1032
   16.010     1095
   16.025     1033
   16.040     1014
   16.055      983
   16.070      965
   16.085      923
   16.100      969
   16.115      946
   16.130      917
   16.145      886
   16.160      866
   16.175      873
   16.190      907
   16.205     1009
   16.220      977
   16.235     1078
   16.250     1158
   16.265     1168
   16.280     1297
   16.295     1416
   16.310     1489
   16.325     1505
   16.340     1560
   16.355     1449
   16.370     1331
   16.385     1229
   16.400     1034
   16.415      971
   16.430      931
   16.445      965
   16.460      958
   16.475      997
   16.490      994
   16.505      974
   16.520      974
   16.535      948
   16.550      927
   16.565      931
   16.580      876
   16.595      879
   16.610      877
   16.625      879
   16.640      891
   16.655      956
   16.670      967
   16.685     1006
   16.700     1014
   16.715     1067
   16.730     1024
   16.745     1008
   16.760      931
   16.775      896
   16.790      961
   16.805      935
   16.820      882
   16.835      872
   16.850      912
   16.865      900
   16.880      891
   16.895      895
   16.910      928
   16.925      897
   16.940      956
   16.955      945
   16.970      920
   16.985      975
   17.000      990
   17.015     1000
   17.030      949
   17.045      977
   17.060     1007
   17.075      960
   17.090      931
   17.105      859
   17.120      856
   17.135      854
   17.150      885
   17.165      879
   17.180      913
   17.195      962
   17.210      955
   17.225      956
   17.240      925
   17.255      958
   17.270     1030
   17.285     1013
   17.300      952
   17.315      902
   17.330      899
   17.345      835
   17.360      839
   17.375      795
   17.390      823
   17.405      871
   17.420      914
   17.435      940
   17.450     1017
   17.465     1008
   17.480     1021
   17.495     1052
   17.510     1071
   17.525     1006
   17.540      967
   17.555     1000
   17.570      972
   17.585      966
   17.600      995
   17.615      977
   17.630      963
   17.645     1030
   17.660     1008
   17.675     1070
   17.690     1067
   17.705     1162
   17.720     1287
   17.735     1185
   17.750     1213
   17.765     1178
   17.780     1057
   17.795     1073
   17.810      954
   17.825     1026
   17.840      929
   17.855      996
   17.870      961
   17.885      915
   17.900      936
   17.915      956
   17.930      995
   17.945      999
   17.960      965
   17.975      969
   17.990      914
   18.005      890
   18.020      890
   18.035      868
   18.050      795
   18.065      847
   18.080      882
   18.095      866
   18.110      832
   18.125      872
   18.140      898
   18.155      895
   18.170      859
   18.185      843
   18.200      907
   18.215      893
   18.230      881
   18.245      883
   18.260      888
   18.275      889
   18.290      874
   18.305      938
   18.320      998
   18.335      999
   18.350      942
   18.365      954
   18.380      949
   18.395      909
   18.410      932
   18.425      910
   18.440      895
   18.455      922
   18.470      976
   18.485     1006
   18.500      957
   18.515     1023
   18.530     1040
   18.545     1078
   18.560     1155
   18.575     1272
   18.590     1324
   18.605     1238
   18.620     1312
   18.635     1312
   18.650     1311
   18.665     1357
   18.680     1381
   18.695     1348
   18.710     1283
   18.725     1295
   18.740     1214
   18.755     1254
   18.770     1159
   18.785     1159
   18.800     1178
   18.815     1091
   18.830     1049
   18.845     1008
   18.860      963
   18.875      916
   18.890      914
   18.905      874
   18.920      878
   18.935      821
   18.950      926
   18.965      851
   18.980      919
   18.995      909
   19.010      950
   19.025      937
   19.040      885
   19.055      881
   19.070      930
   19.085      781
   19.100      899
   19.115      867
   19.130      903
   19.145      830
   19.160      841
   19.175      933
   19.190      969
   19.205      933
   19.220      958
   19.235      943
   19.250     1006
   19.265      975
   19.280      943
   19.295      911
   19.310      883
   19.325      825
   19.340      931
   19.355      870
   19.370      980
   19.385      952
   19.400      951
   19.415      915
   19.430      908
   19.445      886
   19.460      903
   19.475      888
   19.490      868
   19.505      891
   19.520      877
   19.535      880
   19.550      868
   19.565      900
   19.580      902
   19.595      898
   19.610      966
   19.625      961
   19.640      907
   19.655      907
   19.670      873
   19.685      839
   19.700      873
   19.715      877
   19.730      838
   19.745      880
   19.760      932
   19.775      929
   19.790      865
   19.805      941
   19.820      966
   19.835      931
   19.850      891
   19.865      934
   19.880      859
   19.895      862
   19.910      825
   19.925      847
   19.940      914
   19.955      855
   19.970      889
   19.985      871
   20.000      925
   20.015      879
   20.030      884
   20.045      919
   20.060      956
   20.075      892
   20.090      817
   20.105      892
   20.120      792
   20.135      840
   20.150      901
   20.165      876
   20.180      847
   20.195      776
   20.210      809
   20.225      865
   20.240      870
   20.255      895
   20.270      894
   20.285      840
   20.300      844
   20.315      858
   20.330      877
   20.345      894
   20.360      877
   20.375      880
   20.390      847
   20.405      849
   20.420      883
   20.435      921
   20.450      884
   20.465      857
   20.480      875
   20.495      846
   20.510      880
   20.525      909
   20.540      875
   20.555      915
   20.570      891
   20.585      864
   20.600      819
   20.615      846
   20.630      873
   20.645      892
   20.660      843
   20.675      866
   20.690      905
   20.705      869
   20.720      838
   20.735      862
   20.750      877
   20.765      846
   20.780      864
   20.795      842
   20.810      863
   20.825      912
   20.840      879
   20.855      884
   20.870      904
   20.885      886
   20.900      909
   20.915      948
   20.930      881
   20.945      950
   20.960      995
   20.975      967
   20.990      889
   21.005      936
   21.020      955
   21.035      953
   21.050      944
   21.065      923
   21.080      924
   21.095      859
   21.110      866
   21.125      820
   21.140      856
   21.155      942
   21.170      928
   21.185      933
   21.200      974
   21.215      894
   21.230      944
   21.245      951
   21.260     1026
   21.275      955
   21.290      931
   21.305      935
   21.320      930
   21.335      949
   21.350      908
   21.365      897
   21.380      888
   21.395      883
   21.410      880
   21.425      927
   21.440      895
   21.455      934
   21.470      859
   21.485      922
   21.500     1033
   21.515     1024
   21.530      989
   21.545      982
   21.560      919
   21.575      968
   21.590      900
   21.605      969
   21.620      914
   21.635      915
   21.650      884
   21.665      909
   21.680      936
   21.695      930
   21.710      933
   21.725     1020
   21.740     1033
   21.755     1065
   21.770     1013
   21.785     1057
   21.800     1058
   21.815     1054
   21.830     1003
   21.845      941
   21.860      867
   21.875      928
   21.890      926
   21.905      886
   21.920      884
   21.935      904
   21.950      864
   21.965      889
   21.980      896
   21.995      876
   22.010      891
   22.025      885
   22.040      877
   22.055      858
   22.070      920
   22.085      907
   22.100      885
   22.115      959
   22.130      862
   22.145      862
   22.160      910
   22.175      921
   22.190      863
   22.205      908
   22.220      893
   22.235      951
   22.250      885
   22.265      878
   22.280      901
   22.295      892
   22.310      871
   22.325      861
   22.340      896
   22.355      883
   22.370      880
   22.385      944
   22.400      911
   22.415      950
   22.430      944
   22.445      918
   22.460      944
   22.475     1001
   22.490      973
   22.505      924
   22.520      908
   22.535      897
   22.550      946
   22.565      945
   22.580      908
   22.595      944
   22.610     1002
   22.625      983
   22.640      942
   22.655      934
   22.670      930
   22.685      897
   22.700      904
   22.715      908
   22.730      901
   22.745      941
   22.760      895
   22.775      831
   22.790      883
   22.805      895
   22.820      865
   22.835      875
   22.850      872
   22.865      873
   22.880      870
   22.895      864
   22.910      890
   22.925      856
   22.940      920
   22.955      916
   22.970      936
   22.985      927
   23.000      906
   23.015      909
   23.030      854
   23.045      856
   23.060      890
   23.075      873
   23.090      854
   23.105      870
   23.120      849
   23.135      846
   23.150      869
   23.165      862
   23.180      829
   23.195      900
   23.210      885
   23.225      834
   23.240      848
   23.255      890
   23.270      890
   23.285      930
   23.300      933
   23.315      924
   23.330      907
   23.345      933
   23.360      888
   23.375      869
   23.390      953
   23.405      989
   23.420      997
   23.435     1041
   23.450     1063
   23.465     1083
   23.480     1110
   23.495     1103
   23.510     1111
   23.525      957
   23.540      989
   23.555     1034
   23.570      912
   23.585      866
   23.600      903
   23.615      877
   23.630      904
   23.645      967
   23.660      947
   23.675      974
   23.690      862
   23.705      885
   23.720      911
   23.735      863
   23.750      929
   23.765      925
   23.780      960
   23.795      970
   23.810      909
   23.825     1000
   23.840      963
   23.855      938
   23.870      944
   23.885      907
   23.900      981
   23.915      932
   23.930     1030
   23.945     1067
   23.960     1008
   23.975     1026
   23.990     1038
   24.005      977
   24.020      951
   24.035      904
   24.050      876
   24.065      886
   24.080      899
   24.095      901
   24.110      896
   24.125      957
   24.140      974
   24.155     1013
   24.170      997
   24.185      971
   24.200      966
   24.215      999
   24.230      989
   24.245      976
   24.260      983
   24.275      964
   24.290      943
   24.305      927
   24.320      871
   24.335      888
   24.350      868
   24.365      845
   24.380      926
   24.395      953
   24.410      945
   24.425      953
   24.440     1008
   24.455     1073
   24.470     1116
   24.485     1092
   24.500     1062
   24.515     1068
   24.530      969
   24.545      974
   24.560      981
   24.575     1021
   24.590     1041
   24.605     1033
   24.620     1053
   24.635      965
   24.650      943
   24.665      989
   24.680      945
   24.695      856
   24.710      884
   24.725      893
   24.740      910
   24.755      896
   24.770      905
   24.785      929
   24.800      950
   24.815      878
   24.830      881
   24.845      910
   24.860      905
   24.875      898
   24.890      909
   24.905      857
   24.920      885
   24.935      846
   24.950      841
   24.965      887
   24.980      915
   24.995      878
   25.010      847
   25.025      884
   25.040      883
   25.055      871
   25.070      926
   25.085      865
   25.100     1027
   25.115      978
   25.130      963
   25.145      962
   25.160      966
   25.175     1019
   25.190      993
   25.205      946
   25.220      916
   25.235      976
   25.250      977
   25.265      915
   25.280      934
   25.295      967
   25.310      867
   25.325      911
   25.340      885
   25.355      847
   25.370      926
   25.385      924
   25.400      978
   25.415      968
   25.430      958
   25.445      934
   25.460     1001
   25.475      955
   25.490      930
   25.505      935
   25.520      819
   25.535      854
   25.550      801
   25.565      773
   25.580      827
   25.595      843
   25.610      884
   25.625      862
   25.640      797
   25.655      827
   25.670      868
   25.685      818
   25.700      843
   25.715      856
   25.730      827
   25.745      882
   25.760      932
   25.775      927
   25.790      848
   25.805      888
   25.820      883
   25.835      789
   25.850      837
   25.865      884
   25.880      835
   25.895      825
   25.910      841
   25.925      853
   25.940      866
   25.955      829
   25.970      838
   25.985      838
   26.000      841
   26.015      917
   26.030      907
   26.045      939
   26.060      959
   26.075      968
   26.090      917
   26.105      925
   26.120      862
   26.135      822
   26.150      888
   26.165      874
   26.180      781
   26.195      755
   26.210      817
   26.225      886
   26.240      877
   26.255      841
   26.270      830
   26.285      835
   26.300      857
   26.315      790
   26.330      859
   26.345      916
   26.360      897
   26.375      886
   26.390      846
   26.405      785
   26.420      865
   26.435      933
   26.450      888
   26.465      870
   26.480      862
   26.495      849
   26.510      887
   26.525      879
   26.540      849
   26.555      874
   26.570      863
   26.585      840
   26.600      826
   26.615      848
   26.630      857
   26.645      888
   26.660      894
   26.675      908
   26.690      948
   26.705      953
   26.720      901
   26.735      899
   26.750      868
   26.765      825
   26.780      864
   26.795      872
   26.810      888
   26.825      896
   26.840      894
   26.855      923
   26.870      880
   26.885      826
   26.900      821
   26.915      816
   26.930      778
   26.945      778
   26.960      882
   26.975      843
   26.990      804
   27.005      827
   27.020      868
   27.035      882
   27.050      835
   27.065      881
   27.080      882
   27.095      825
   27.110      851
   27.125      873
   27.140      829
   27.155      860
   27.170      863
   27.185      895
   27.200      865
   27.215      823
   27.230      850
   27.245      860
   27.260      922
   27.275      876
   27.290      862
   27.305      867
   27.320      835
   27.335      854
   27.350      837
   27.365      843
   27.380      818
   27.395      824
   27.410      725
   27.425      836
   27.440      818
   27.455      862
   27.470      815
   27.485      850
   27.500      849
   27.515      791
   27.530      834
   27.545      841
   27.560      836
   27.575      805
   27.590      808
   27.605      831
   27.620      901
   27.635      866
   27.650      815
   27.665      933
   27.680      903
   27.695      898
   27.710      860
   27.725      897
   27.740      924
   27.755      894
   27.770      852
   27.785      873
   27.800      932
   27.815      977
   27.830      984
   27.845      927
   27.860      850
   27.875      964
   27.890      946
   27.905      865
   27.920      867
   27.935      871
   27.950      818
   27.965      834
   27.980      825
   27.995      844
   28.010      868
   28.025      823
   28.040      837
   28.055      809
   28.070      871
   28.085      805
   28.100      785
   28.115      896
   28.130      864
   28.145      869
   28.160      885
   28.175      914
   28.190      839
   28.205      908
   28.220      927
   28.235      926
   28.250      910
   28.265      848
   28.280      887
   28.295      860
   28.310      836
   28.325      782
   28.340      843
   28.355      834
   28.370      800
   28.385      859
   28.400      854
   28.415      852
   28.430      884
   28.445      892
   28.460      889
   28.475      911
   28.490      913
   28.505      871
   28.520      843
   28.535      873
   28.550      872
   28.565      830
   28.580      805
   28.595      829
   28.610      843
   28.625      812
   28.640      797
   28.655      803
   28.670      809
   28.685      797
   28.700      800
   28.715      849
   28.730      870
   28.745      871
   28.760      844
   28.775      816
   28.790      859
   28.805      874
   28.820      815
   28.835      799
   28.850      885
   28.865      832
   28.880      859
   28.895      841
   28.910      843
   28.925      781
   28.940      807
   28.955      826
   28.970      850
   28.985      849
   29.000      806
   29.015      801
   29.030      774
   29.045      808
   29.060      827
   29.075      832
   29.090      828
   29.105      799
   29.120      815
   29.135      773
   29.150      811
   29.165      819
   29.180      782
   29.195      795
   29.210      781
   29.225      809
   29.240      795
   29.255      830
   29.270      832
   29.285      759
   29.300      846
   29.315      783
   29.330      801
   29.345      822
   29.360      825
   29.375      803
   29.390      779
   29.405      836
   29.420      823
   29.435      765
   29.450      811
   29.465      818
   29.480      836
   29.495      775
   29.510      795
   29.525      766
   29.540      775
   29.555      816
   29.570      798
   29.585      780
   29.600      760
   29.615      720
   29.630      745
   29.645      781
   29.660      816
   29.675      797
   29.690      731
   29.705      766
   29.720      813
   29.735      750
   29.750      793
   29.765      817
   29.780      761
   29.795      785
   29.810      827
   29.825      813
   29.840      823
   29.855      855
   29.870      828
   29.885      758
   29.900      782
   29.915      763
   29.930      748
   29.945      791
   29.960      759
   29.975      774
   29.990      815
   30.005      804
   30.020      814
   30.035      783
   30.050      787
   30.065      781
   30.080      759
   30.095      765
   30.110      761
   30.125      765
   30.140      738
   30.155      748
   30.170      809
   30.185      870
   30.200      892
   30.215      852
   30.230      856
   30.245      820
   30.260      804
   30.275      831
   30.290      794
   30.305      797
   30.320      793
   30.335      816
   30.350      785
   30.365      767
   30.380      768
   30.395      758
   30.410      776
   30.425      771
   30.440      787
   30.455      799
   30.470      821
   30.485      792
   30.500      721
   30.515      719
   30.530      724
   30.545      751
   30.560      743
   30.575      765
   30.590      731
   30.605      759
   30.620      755
   30.635      751
   30.650      786
   30.665      815
   30.680      781
   30.695      772
   30.710      740
   30.725      778
   30.740      770
   30.755      787
   30.770      764
   30.785      740
   30.800      743
   30.815      708
   30.830      711
   30.845      738
   30.860      782
   30.875      690
   30.890      772
   30.905      830
   30.920      699
   30.935      762
   30.950      740
   30.965      771
   30.980      784
   30.995      836
   31.010      764
   31.025      809
   31.040      825
   31.055      784
   31.070      812
   31.085      738
   31.100      883
   31.115      769
   31.130      804
   31.145      751
   31.160      757
   31.175      799
   31.190      780
   31.205      720
   31.220      781
   31.235      768
   31.250      790
   31.265      747
   31.280      763
   31.295      728
   31.310      742
   31.325      755
   31.340      783
   31.355      784
   31.370      816
   31.385      703
   31.400      765
   31.415      749
   31.430      762
   31.445      758
   31.460      774
   31.475      782
   31.490      786
   31.505      802
   31.520      765
   31.535      775
   31.550      752
   31.565      755
   31.580      768
   31.595      745
   31.610      785
   31.625      802
   31.640      747
   31.655      750
   31.670      769
   31.685      779
   31.700      760
   31.715      742
   31.730      714
   31.745      716
   31.760      747
   31.775      791
   31.790      722
   31.805      742
   31.820      753
   31.835      743
   31.850      725
   31.865      723
   31.880      703
   31.895      710
   31.910      742
   31.925      705
   31.940      745
   31.955      754
   31.970      749
   31.985      727
   32.000      744
   32.015      771
   32.030      755
   32.045      756
   32.060      766
   32.075      760
   32.090      706
   32.105      749
   32.120      722
   32.135      701
   32.150      792
   32.165      771
   32.180      723
   32.195      701
   32.210      729
   32.225      760
   32.240      738
   32.255      784
   32.270      724
   32.285      725
   32.300      770
   32.315      744
   32.330      798
   32.345      774
   32.360      765
   32.375      780
   32.390      764
   32.405      768
   32.420      781
   32.435      774
   32.450      795
   32.465      793
   32.480      757
   32.495      741
   32.510      780
   32.525      800
   32.540      853
   32.555      913
   32.570      853
   32.585      831
   32.600      827
   32.615      837
   32.630      837
   32.645      833
   32.660      816
   32.675      850
   32.690      853
   32.705      857
   32.720      830
   32.735      817
   32.750      828
   32.765      746
   32.780      742
   32.795      764
   32.810      781
   32.825      776
   32.840      751
   32.855      769
   32.870      771
   32.885      797
   32.900      808
   32.915      825
   32.930      796
   32.945      773
   32.960      802
   32.975      754
   32.990      753
   33.005      810
   33.020      791
   33.035      812
   33.050      795
   33.065      772
   33.080      749
   33.095      748
   33.110      769
   33.125      774
   33.140      746
   33.155      781
   33.170      795
   33.185      758
   33.200      799
   33.215      762
   33.230      727
   33.245      760
   33.260      783
   33.275      748
   33.290      756
   33.305      728
   33.320      714
   33.335      680
   33.350      737
   33.365      729
   33.380      748
   33.395      712
   33.410      746
   33.425      787
   33.440      787
   33.455      761
   33.470      754
   33.485      759
   33.500      799
   33.515      763
   33.530      745
   33.545      773
   33.560      722
   33.575      737
   33.590      718
   33.605      735
   33.620      772
   33.635      765
   33.650      728
   33.665      825
   33.680      839
   33.695      768
   33.710      797
   33.725      829
   33.740      814
   33.755      823
   33.770      766
   33.785      789
   33.800      772
   33.815      768
   33.830      782
   33.845      785
   33.860      726
   33.875      765
   33.890      794
   33.905      757
   33.920      734
   33.935      769
   33.950      742
   33.965      750
   33.980      820
   33.995      762
   34.010      789
   34.025      760
   34.040      722
   34.055      789
   34.070      767
   34.085      744
   34.100      715
   34.115      739
   34.130      742
   34.145      740
   34.160      720
   34.175      748
   34.190      701
   34.205      700
   34.220      724
   34.235      739
   34.250      723
   34.265      714
   34.280      686
   34.295      706
   34.310      718
   34.325      701
   34.340      716
   34.355      714
   34.370      763
   34.385      810
   34.400      764
   34.415      777
   34.430      786
   34.445      774
   34.460      787
   34.475      762
   34.490      753
   34.505      778
   34.520      748
   34.535      755
   34.550      770
   34.565      726
   34.580      716
   34.595      706
   34.610      714
   34.625      715
   34.640      694
   34.655      668
   34.670      700
   34.685      688
   34.700      708
   34.715      747
   34.730      733
   34.745      742
   34.760      713
   34.775      660
   34.790      707
   34.805      683
   34.820      683
   34.835      684
   34.850      699
   34.865      680
   34.880      704
   34.895      700
   34.910      728
   34.925      730
   34.940      731
   34.955      745
   34.970      739
   34.985      694
   35.000      728
   35.015      755
   35.030      712
   35.045      732
   35.060      709
   35.075      702
   35.090      695
   35.105      656
   35.120      676
   35.135      700
   35.150      730
   35.165      723
   35.180      673
   35.195      708
   35.210      687
   35.225      722
   35.240      668
   35.255      680
   35.270      711
   35.285      698
   35.300      703
   35.315      681
   35.330      664
   35.345      706
   35.360      698
   35.375      668
   35.390      734
   35.405      740
   35.420      690
   35.435      643
   35.450      735
   35.465      672
   35.480      680
   35.495      700
   35.510      664
   35.525      675
   35.540      664
   35.555      673
   35.570      658
   35.585      656
   35.600      681
   35.615      615
   35.630      690
   35.645      684
   35.660      736
   35.675      719
   35.690      690
   35.705      669
   35.720      701
   35.735      695
   35.750      709
   35.765      708
   35.780      693
   35.795      713
   35.810      693
   35.825      714
   35.840      671
   35.855      654
   35.870      685
   35.885      656
   35.900      650
   35.915      650
   35.930      702
   35.945      692
   35.960      665
   35.975      665
   35.990      687
   36.005      698
   36.020      710
   36.035      718
   36.050      661
   36.065      694
   36.080      636
   36.095      645
   36.110      637
   36.125      637
   36.140      619
   36.155      680
   36.170      704
   36.185      676
   36.200      662
   36.215      661
   36.230      645
   36.245      676
   36.260      677
   36.275      654
   36.290      682
   36.305      689
   36.320      668
   36.335      662
   36.350      676
   36.365      638
   36.380      664
   36.395      680
   36.410      695
   36.425      685
   36.440      679
   36.455      660
   36.470      672
   36.485      686
   36.500      679
   36.515      696
   36.530      656
   36.545      663
   36.560      682
   36.575      710
   36.590      684
   36.605      642
   36.620      646
   36.635      642
   36.650      604
   36.665      640
   36.680      625
   36.695      634
   36.710      668
   36.725      665
   36.740      692
   36.755      658
   36.770      675
   36.785      672
   36.800      711
   36.815      653
   36.830      657
   36.845      666
   36.860      647
   36.875      658
   36.890      655
   36.905      670
   36.920      587
   36.935      655
   36.950      660
   36.965      689
   36.980      663
   36.995      633
   37.010      594
   37.025      692
   37.040      624
   37.055      674
   37.070      657
   37.085      606
   37.100      666
   37.115      655
   37.130      679
   37.145      606
   37.160      615
   37.175      652
   37.190      655
   37.205      643
   37.220      624
   37.235      650
   37.250      671
   37.265      646
   37.280      647
   37.295      709
   37.310      651
   37.325      669
   37.340      634
   37.355      610
   37.370      685
   37.385      674
   37.400      651
   37.415      627
   37.430      650
   37.445      667
   37.460      664
   37.475      662
   37.490      675
   37.505      667
   37.520      635
   37.535      635
   37.550      642
   37.565      659
   37.580      641
   37.595      631
   37.610      639
   37.625      651
   37.640      622
   37.655      600
   37.670      650
   37.685      655
   37.700      671
   37.715      670
   37.730      624
   37.745      596
   37.760      638
   37.775      683
   37.790      644
   37.805      669
   37.820      689
   37.835      644
   37.850      645
   37.865      643
   37.880      634
   37.895      657
   37.910      655
   37.925      650
   37.940      681
   37.955      660
   37.970      648
   37.985      674
   38.000      669
   38.015      620
   38.030      644
   38.045      674
   38.060      678
   38.075      663
   38.090      625
   38.105      688
   38.120      611
   38.135      630
   38.150      654
   38.165      657
   38.180      615
   38.195      599
   38.210      638
   38.225      722
   38.240      675
   38.255      632
   38.270      580
   38.285      613
   38.300      648
   38.315      633
   38.330      710
   38.345      718
   38.360      675
   38.375      668
   38.390      614
   38.405      646
   38.420      667
   38.435      680
   38.450      640
   38.465      624
   38.480      650
   38.495      618
   38.510      611
   38.525      643
   38.540      640
   38.555      656
   38.570      642
   38.585      638
   38.600      631
   38.615      628
   38.630      635
   38.645      612
   38.660      599
   38.675      632
   38.690      644
   38.705      637
   38.720      623
   38.735      644
   38.750      663
   38.765      647
   38.780      656
   38.795      683
   38.810      677
   38.825      659
   38.840      664
   38.855      677
   38.870      651
   38.885      631
   38.900      635
   38.915      626
   38.930      651
   38.945      639
   38.960      649
   38.975      635
   38.990      588
   39.005      659
   39.020      654
   39.035      640
   39.050      666
   39.065      604
   39.080      636
   39.095      617
   39.110      668
   39.125      640
   39.140      635
   39.155      619
   39.170      652
   39.185      639
   39.200      645
   39.215      653
   39.230      680
   39.245      650
   39.260      636
   39.275      647
   39.290      651
   39.305      642
   39.320      652
   39.335      642
   39.350      672
   39.365      646
   39.380      615
   39.395      618
   39.410      608
   39.425      607
   39.440      669
   39.455      668
   39.470      634
   39.485      680
   39.500      704
   39.515      626
   39.530      631
   39.545      641
   39.560      658
   39.575      648
   39.590      637
   39.605      624
   39.620      666
   39.635      621
   39.650      641
   39.665      658
   39.680      659
   39.695      659
   39.710      627
   39.725      682
   39.740      671
   39.755      617
   39.770      587
   39.785      615
   39.800      686
   39.815      630
   39.830      672
   39.845      724
   39.860      691
   39.875      694
   39.890      695
   39.905      656
   39.920      672
   39.935      720
   39.950      660
   39.965      667
   39.980      700
   39.995      655
   40.010      686
   40.025      645
   40.040      640
   40.055      673
   40.070      675
   40.085      657
   40.100      630
   40.115      687
   40.130      679
   40.145      702
   40.160      675
   40.175      685
   40.190      662
   40.205      710
   40.220      683
   40.235      703
   40.250      690
   40.265      703
   40.280      654
   40.295      643
   40.310      687
   40.325      696
   40.340      705
   40.355      713
   40.370      673
   40.385      697
   40.400      686
   40.415      710
   40.430      661
   40.445      597
   40.460      653
   40.475      716
   40.490      681
   40.505      660
   40.520      679
   40.535      713
   40.550      696
   40.565      703
   40.580      667
   40.595      654
   40.610      713
   40.625      731
   40.640      724
   40.655      762
   40.670      735
   40.685      702
   40.700      718
   40.715      748
   40.730      762
   40.745      745
   40.760      713
   40.775      698
   40.790      711
   40.805      711
   40.820      656
   40.835      629
   40.850      638
   40.865      667
   40.880      687
   40.895      674
   40.910      667
   40.925      663
   40.940      641
   40.955      656
   40.970      682
   40.985      677
   41.000      685
   41.015      680
   41.030      650
   41.045      690
   41.060      693
   41.075      677
   41.090      726
   41.105      665
   41.120      660
   41.135      674
   41.150      709
   41.165      731
   41.180      709
   41.195      722
   41.210      702
   41.225      743
   41.240      713
   41.255      691
   41.270      739
   41.285      698
   41.300      668
   41.315      652
   41.330      661
   41.345      713
   41.360      626
   41.375      672
   41.390      725
   41.405      716
   41.420      706
   41.435      619
   41.450      743
   41.465      703
   41.480      721
   41.495      700
   41.510      714
   41.525      678
   41.540      717
   41.555      681
   41.570      681
   41.585      670
   41.600      725
   41.615      648
   41.630      708
   41.645      721
   41.660      749
   41.675      702
   41.690      663
   41.705      689
   41.720      713
   41.735      709
   41.750      654
   41.765      639
   41.780      625
   41.795      677
   41.810      613
   41.825      681
   41.840      636
   41.855      631
   41.870      678
   41.885      670
   41.900      623
   41.915      634
   41.930      708
   41.945      716
   41.960      655
   41.975      702
   41.990      690
   42.005      707
   42.020      692
   42.035      676
   42.050      623
   42.065      700
   42.080      683
   42.095      641
   42.110      596
   42.125      632
   42.140      685
   42.155      716
   42.170      715
   42.185      695
   42.200      737
   42.215      701
   42.230      663
   42.245      668
   42.260      696
   42.275      693
   42.290      688
   42.305      686
   42.320      676
   42.335      685
   42.350      688
   42.365      681
   42.380      690
   42.395      674
   42.410      676
   42.425      671
   42.440      658
   42.455      657
   42.470      686
   42.485      698
   42.500      690
   42.515      679
   42.530      655
   42.545      659
   42.560      697
   42.575      705
   42.590      723
   42.605      711
   42.620      656
   42.635      644
   42.650      634
   42.665      632
   42.680      621
   42.695      673
   42.710      661
   42.725      658
   42.740      632
   42.755      687
   42.770      688
   42.785      680
   42.800      683
   42.815      649
   42.830      631
   42.845      646
   42.860      637
   42.875      655
   42.890      674
   42.905      688
   42.920      614
   42.935      585
   42.950      662
   42.965      616
   42.980      707
   42.995      670
   43.010      633
   43.025      656
   43.040      585
   43.055      686
   43.070      681
   43.085      644
   43.100      760
   43.115      677
   43.130      718
   43.145      679
   43.160      699
   43.175      711
   43.190      715
   43.205      627
   43.220      700
   43.235      729
   43.250      690
   43.265      689
   43.280      657
   43.295      689
   43.310      648
   43.325      644
   43.340      659
   43.355      692
   43.370      697
   43.385      690
   43.400      656
   43.415      608
   43.430      643
   43.445      611
   43.460      663
   43.475      671
   43.490      647
   43.505      673
   43.520      671
   43.535      659
   43.550      671
   43.565      670
   43.580      682
   43.595      652
   43.610      687
   43.625      716
   43.640      659
   43.655      635
   43.670      665
   43.685      671
   43.700      639
   43.715      682
   43.730      656
   43.745      711
   43.760      668
   43.775      651
   43.790      608
   43.805      623
   43.820      676
   43.835      664
   43.850      698
   43.865      673
   43.880      654
   43.895      639
   43.910      624
   43.925      658
   43.940      664
   43.955      651
   43.970      632
   43.985      615
