    2.000     1479
    2.015     1520
    2.030     1510
    2.045     1535
    2.060     1528
    2.075     1531
    2.090     1496
    2.105     1615
    2.120     1529
    2.135     1521
    2.150     1565
    2.165     1593
    2.180     1552
    2.195     1559
    2.210     1538
    2.225     1558
    2.240     1539
    2.255     1554
    2.270     1523
    2.285     1572
    2.300     1519
    2.315     1521
    2.330     1579
    2.345     1677
    2.360     1637
    2.375     1688
    2.390     1658
    2.405     1640
    2.420     1690
    2.435     1744
    2.450     1691
    2.465     1723
    2.480     1741
    2.495     1710
    2.510     1697
    2.525     1717
    2.540     1749
    2.555     1904
    2.570     1951
    2.585     1833
    2.600     1808
    2.615     1994
    2.630     2006
    2.645     2030
    2.660     2123
    2.675     2269
    2.690     2387
    2.705     2507
    2.720     2309
    2.735     1993
    2.750     1816
    2.765     1680
    2.780     1630
    2.795     1694
    2.810     1778
    2.825     1733
    2.840     1714
    2.855     1802
    2.870     1772
    2.885     1824
    2.900     1775
    2.915     1863
    2.930     1817
    2.945     1877
    2.960     1931
    2.975     1945
    2.990     1943
    3.005     1963
    3.020     2085
    3.035     2123
    3.050     2197
    3.065     2359
    3.080     2350
    3.095     2349
    3.110     2543
    3.125     2811
    3.140     2891
    3.155     3277
    3.170     3391
    3.185     3340
    3.200     3126
    3.215     2737
    3.230     2265
    3.245     1977
    3.260     2050
    3.275     1900
    3.290     2068
    3.305     2177
    3.320     2168
    3.335     2105
    3.350     1923
    3.365     1828
    3.380     1580
    3.395     1384
    3.410     1302
    3.425     1355
    3.440     1408
    3.455     1363
    3.470     1409
    3.485     1351
    3.500     1442
    3.515     1324
    3.530     1385
    3.545     1326
    3.560     1410
    3.575     1348
    3.590     1321
    3.605     1325
    3.620     1426
    3.635     1424
    3.650     1410
    3.665     1474
    3.680     1461
    3.695     1441
    3.710     1361
    3.725     1518
    3.740     1454
    3.755     1490
    3.770     1430
    3.785     1508
    3.800     1514
    3.815     1617
    3.830     1675
    3.845     1695
    3.860     1620
    3.875     1628
    3.890     1563
    3.905     1460
    3.920     1417
    3.935     1435
    3.950     1403
    3.965     1326
    3.980     1350
    3.995     1307
    4.010     1394
    4.025     1390
    4.040     1444
    4.055     1402
    4.070     1449
    4.085     1405
    4.100     1436
    4.115     1463
    4.130     1453
    4.145     1446
    4.160     1496
    4.175     1484
    4.190     1457
    4.205     1566
    4.220     1516
    4.235     1475
    4.250     1416
    4.265     1369
    4.280     1418
    4.295     1354
    4.310     1305
    4.325     1384
    4.340     1447
    4.355     1401
    4.370     1430
    4.385     1414
    4.400     1383
    4.415     1443
    4.430     1486
    4.445     1451
    4.460     1444
    4.475     1493
    4.490     1498
    4.505     1441
    4.520     1417
    4.535     1400
    4.550     1397
    4.565     1450
    4.580     1495
    4.595     1464
    4.610     1409
    4.625     1444
    4.640     1503
    4.655     1550
    4.670     1531
    4.685     1593
    4.700     1613
    4.715     1716
    4.730     1733
    4.745     1731
    4.760     1694
    4.775     1622
    4.790     1575
    4.805     1491
    4.820     1456
    4.835     1480
    4.850     1458
    4.865     1512
    4.880     1553
    4.895     1614
    4.910     1681
    4.925     1661
    4.940     1721
    4.955     1783
    4.970     1827
    4.985     1935
    5.000     1998
    5.015     2088
    5.030     2033
    5.045     1916
    5.060     1851
    5.075     1702
    5.090     1464
    5.105     1383
    5.120     1388
    5.135     1339
    5.150     1319
    5.165     1354
    5.180     1370
    5.195     1414
    5.210     1419
    5.225     1383
    5.240     1392
    5.255     1355
    5.270     1466
    5.285     1430
    5.300     1424
    5.315     1381
    5.330     1399
    5.345     1408
    5.360     1489
    5.375     1441
    5.390     1487
    5.405     1587
    5.420     1557
    5.435     1564
    5.450     1556
    5.465     1605
    5.480     1606
    5.495     1569
    5.510     1555
    5.525     1514
    5.540     1558
    5.555     1546
    5.570     1430
    5.585     1387
    5.600     1407
    5.615     1423
    5.630     1438
    5.645     1498
    5.660     1544
    5.675     1624
    5.690     1577
    5.705     1748
    5.720     1936
    5.735     1831
    5.750     1898
    5.765     1783
    5.780     1565
    5.795     1572
    5.810     1457
    5.825     1434
    5.840     1328
    5.855     1418
    5.870     1402
    5.885     1249
    5.900     1253
    5.915     1280
    5.930     1321
    5.945     1356
    5.960     1260
    5.975     1344
    5.990     1353
    6.005     1344
    6.020     1392
    6.035     1355
    6.050     1338
    6.065     1338
    6.080     1326
    6.095     1345
    6.110     1305
    6.125     1299
    6.140     1254
    6.155     1288
    6.170     1331
    6.185     1283
    6.200     1311
    6.215     1310
    6.230     1286
    6.245     1304
    6.260     1316
    6.275     1286
    6.290     1347
    6.305     1347
    6.320     1282
    6.335     1288
    6.350     1301
    6.365     1357
    6.380     1377
    6.395     1405
    6.410     1455
    6.425     1347
    6.440     1265
    6.455     1362
    6.470     1319
    6.485     1318
    6.500     1337
    6.515     1349
    6.530     1322
    6.545     1334
    6.560     1398
    6.575     1421
    6.590     1380
    6.605     1379
    6.620     1389
    6.635     1347
    6.650     1361
    6.665     1381
    6.680     1333
    6.695     1350
    6.710     1233
    6.725     1329
    6.740     1377
    6.755     1334
    6.770     1376
    6.785     1345
    6.800     1474
    6.815     1319
    6.830     1371
    6.845     1354
    6.860     1323
    6.875     1313
    6.890     1358
    6.905     1421
    6.920     1406
    6.935     1295
    6.950     1327
    6.965     1482
    6.980     1394
    6.995     1310
    7.010     1292
    7.025     1332
    7.040     1360
    7.055     1442
    7.070     1495
    7.085     1232
    7.100     1443
    7.115     1358
    7.130     1424
    7.145     1458
    7.160     1357
    7.175     1401
    7.190     1411
    7.205     1338
    7.220     1383
    7.235     1377
    7.250     1370
    7.265     1337
    7.280     1413
    7.295     1429
    7.310     1357
    7.325     1294
    7.340     1322
    7.355     1398
    7.370     1376
    7.385     1288
    7.400     1377
    7.415     1360
    7.430     1409
    7.445     1317
    7.460     1333
    7.475     1381
    7.490     1402
    7.505     1439
    7.520     1364
    7.535     1399
    7.550     1378
    7.565     1377
    7.580     1370
    7.595     1370
    7.610     1350
    7.625     1483
    7.640     1401
    7.655     1403
    7.670     1370
    7.685     1412
    7.700     1404
    7.715     1426
    7.730     1362
    7.745     1401
    7.760     1484
    7.775     1396
    7.790     1424
    7.805     1549
    7.820     1511
    7.835     1492
    7.850     1543
    7.865     1512
    7.880     1529
    7.895     1581
    7.910     1550
    7.925     1585
    7.940     1686
    7.955     1598
    7.970     1613
    7.985     1583
    8.000     1565
    8.015     1588
    8.030     1640
    8.045     1625
    8.060     1603
    8.075     1674
    8.090     1563
    8.105     1646
    8.120     1575
    8.135     1639
    8.150     1674
    8.165     1716
    8.180     1717
    8.195     1736
    8.210     1819
    8.225     1959
    8.240     2125
    8.255     2288
    8.270     2199
    8.285     2192
    8.300     2078
    8.315     1895
    8.330     1842
    8.345     1816
    8.360     1770
    8.375     1728
    8.390     1793
    8.405     1912
    8.420     1957
    8.435     1994
    8.450     1969
    8.465     1911
    8.480     1882
    8.495     1789
    8.510     1718
    8.525     1670
    8.540     1697
    8.555     1811
    8.570     1861
    8.585     1840
    8.600     1894
    8.615     2059
    8.630     2082
    8.645     2126
    8.660     2172
    8.675     2340
    8.690     2495
    8.705     2722
    8.720     2745
    8.735     2658
    8.750     2578
    8.765     2464
    8.780     2438
    8.795     2410
    8.810     2565
    8.825     2623
    8.840     2939
    8.855     3458
    8.870     3691
    8.885     3889
    8.900     3821
    8.915     3724
    8.930     3218
    8.945     3024
    8.960     2714
    8.975     2387
    8.990     2212
    9.005     2180
    9.020     2201
    9.035     2241
    9.050     2279
    9.065     2476
    9.080     2552
    9.095     2555
    9.110     2777
    9.125     3038
    9.140     3032
    9.155     3446
    9.170     3724
    9.185     4205
    9.200     4589
    9.215     5190
    9.230     5947
    9.245     6601
    9.260     7329
    9.275     6414
    9.290     5582
    9.305     4218
    9.320     3084
    9.335     2286
    9.350     1839
    9.365     1710
    9.380     1785
    9.395     1761
    9.410     1707
    9.425     1887
    9.440     1920
    9.455     1937
    9.470     2035
    9.485     2192
    9.500     2318
    9.515     2515
    9.530     2618
    9.545     2694
    9.560     2657
    9.575     2613
    9.590     2307
    9.605     2082
    9.620     1807
    9.635     1776
    9.650     1592
    9.665     1686
    9.680     1697
    9.695     1678
    9.710     1616
    9.725     1785
    9.740     1739
    9.755     1734
    9.770     1567
    9.785     1567
    9.800     1613
    9.815     1619
    9.830     1675
    9.845     1627
    9.860     1592
    9.875     1742
    9.890     1758
    9.905     1600
    9.920     1710
    9.935     1807
    9.950     1892
    9.965     1774
    9.980     1818
    9.995     1774
   10.010     1791
   10.025     1701
   10.040     1761
   10.055     1712
   10.070     1782
   10.085     1881
   10.100     1979
   10.115     1942
   10.130     1973
   10.145     2040
   10.160     2061
   10.175     2079
   10.190     1855
   10.205     1773
   10.220     1644
   10.235     1586
   10.250     1553
   10.265     1537
   10.280     1616
   10.295     1542
   10.310     1491
   10.325     1480
   10.340     1574
   10.355     1615
   10.370     1675
   10.385     1676
   10.400     1527
   10.415     1615
   10.430     1638
   10.445     1646
   10.460     1571
   10.475     1652
   10.490     1599
   10.505     1615
   10.520     1612
   10.535     1571
   10.550     1559
   10.565     1581
   10.580     1550
   10.595     1576
   10.610     1655
   10.625     1592
   10.640     1534
   10.655     1584
   10.670     1612
   10.685     1591
   10.700     1624
   10.715     1720
   10.730     1775
   10.745     1673
   10.760     1605
   10.775     1593
   10.790     1633
   10.805     1638
   10.820     1624
   10.835     1601
   10.850     1645
   10.865     1648
   10.880     1639
   10.895     1659
   10.910     1622
   10.925     1654
   10.940     1722
   10.955     1638
   10.970     1622
   10.985     1648
   11.000     1691
   11.015     1721
   11.030     1721
   11.045     1710
   11.060     1804
   11.075     1775
   11.090     1794
   11.105     1690
   11.120     1627
   11.135     1626
   11.150     1671
   11.165     1699
   11.180     1681
   11.195     1766
   11.210     1822
   11.225     1760
   11.240     1703
   11.255     1644
   11.270     1645
   11.285     1761
   11.300     1610
   11.315     1585
   11.330     1605
   11.345     1652
   11.360     1756
   11.375     1631
   11.390     1637
   11.405     1586
   11.420     1692
   11.435     1684
   11.450     1644
   11.465     1631
   11.480     1628
   11.495     1682
   11.510     1734
   11.525     1756
   11.540     1787
   11.555     1804
   11.570     1735
   11.585     1684
   11.600     1698
   11.615     1622
   11.630     1650
   11.645     1627
   11.660     1648
   11.675     1654
   11.690     1643
   11.705     1712
   11.720     1739
   11.735     1660
   11.750     1669
   11.765     1706
   11.780     1629
   11.795     1757
   11.810     1698
   11.825     1731
   11.840     1659
   11.855     1642
   11.870     1641
   11.885     1632
   11.900     1618
   11.915     1583
   11.930     1630
   11.945     1709
   11.960     1640
   11.975     1580
   11.990     1668
   12.005     1673
   12.020     1775
   12.035     1748
   12.050     1670
   12.065     1674
   12.080     1643
   12.095     1643
   12.110     1670
   12.125     1717
   12.140     1678
   12.155     1698
   12.170     1685
   12.185     1697
   12.200     1745
   12.215     1792
   12.230     1783
   12.245     1755
   12.260     1748
   12.275     1819
   12.290     1949
   12.305     1912
   12.320     1887
   12.335     1987
   12.350     2094
   12.365     2188
   12.380     2385
   12.395     2539
   12.410     2664
   12.425     2767
   12.440     2837
   12.455     2926
   12.470     2892
   12.485     2621
   12.500     2321
   12.515     2196
   12.530     1919
   12.545     1791
   12.560     1713
   12.575     1719
   12.590     1766
   12.605     1723
   12.620     1797
   12.635     1707
   12.650     1764
   12.665     1778
   12.680     1701
   12.695     1744
   12.710     1763
   12.725     1774
   12.740     1752
   12.755     1790
   12.770     1763
   12.785     1724
   12.800     1823
   12.815     1800
   12.830     1826
   12.845     1812
   12.860     1775
   12.875     1788
   12.890     1924
   12.905     1855
   12.920     1856
   12.935     1785
   12.950     1766
   12.965     1981
   12.980     1929
   12.995     1930
   13.010     1843
   13.025     1812
   13.040     1912
   13.055     1915
   13.070     1895
   13.085     1788
   13.100     1909
   13.115     1920
   13.130     1890
   13.145     1868
   13.160     1767
   13.175     1864
   13.190     1922
   13.205     1777
   13.220     1821
   13.235     1893
   13.250     1894
   13.265     1818
   13.280     1885
   13.295     1914
   13.310     1798
   13.325     1802
   13.340     1854
   13.355     1874
   13.370     1931
   13.385     1909
   13.400     1864
   13.415     1855
   13.430     1873
   13.445     1836
   13.460     1908
   13.475     1845
   13.490     1880
   13.505     1941
   13.520     1903
   13.535     1922
   13.550     1959
   13.565     1859
   13.580     1993
   13.595     2002
   13.610     2026
   13.625     2109
   13.640     1996
   13.655     2062
   13.670     2040
   13.685     2030
   13.700     2140
   13.715     2247
   13.730     2207
   13.745     2287
   13.760     2531
   13.775     2431
   13.790     2424
   13.805     2561
   13.820     2525
   13.835     2349
   13.850     2259
   13.865     2229
   13.880     2042
   13.895     1993
   13.910     2015
   13.925     2018
   13.940     2005
   13.955     1958
   13.970     2024
   13.985     1948
   14.000     1940
   14.015     2015
   14.030     2058
   14.045     2105
   14.060     1974
   14.075     2119
   14.090     1994
   14.105     1984
   14.120     1999
   14.135     1919
   14.150     2069
   14.165     2024
   14.180     1965
   14.195     2021
   14.210     2055
   14.225     2121
   14.240     2089
   14.255     2159
   14.270     2066
   14.285     2087
   14.300     2086
   14.315     2022
   14.330     2075
   14.345     2145
   14.360     2058
   14.375     2052
   14.390     2128
   14.405     2113
   14.420     2152
   14.435     2198
   14.450     2109
   14.465     2112
   14.480     2092
   14.495     2064
   14.510     2094
   14.525     2141
   14.540     2098
   14.555     2177
   14.570     2247
   14.585     2123
   14.600     2076
   14.615     2172
   14.630     2168
   14.645     2262
   14.660     2167
   14.675     2218
   14.690     2263
   14.705     2286
   14.720     2252
   14.735     2158
   14.750     2147
   14.765     2053
   14.780     2091
   14.795     2213
   14.810     2289
   14.825     2260
   14.840     2243
   14.855     2297
   14.870     2312
   14.885     2340
   14.900     2266
   14.915     2355
   14.930     2187
   14.945     2204
   14.960     2270
   14.975     2276
   14.990     2214
   15.005     2136
   15.020     2362
   15.035     2317
   15.050     2294
   15.065     2419
   15.080     2374
   15.095     2245
   15.110     2302
   15.125     2387
   15.140     2258
   15.155     2370
   15.170     2357
   15.185     2349
   15.200     2324
   15.215     2313
   15.230     2395
   15.245     2380
   15.260     2534
   15.275     2291
   15.290     2351
   15.305     2477
   15.320     2434
   15.335     2357
   15.350     2392
   15.365     2339
   15.380     2330
   15.395     2387
   15.410     2333
   15.425     2484
   15.440     2408
   15.455     2433
   15.470     2394
   15.485     2550
   15.500     2556
   15.515     2513
   15.530     2421
   15.545     2381
   15.560     2308
   15.575     2509
   15.590     2381
   15.605     2443
   15.620     2469
   15.635     2510
   15.650     2441
   15.665     2621
   15.680     2597
   15.695     2520
   15.710     2469
   15.725     2751
   15.740     2663
   15.755     2637
   15.770     2569
   15.785     2490
   15.800     2633
   15.815     2736
   15.830     2860
   15.845     2729
   15.860     2647
   15.875     2814
   15.890     3020
   15.905     3006
   15.920     3116
   15.935     3208
   15.950     3162
   15.965     3051
   15.980     3047
   15.995     3012
   16.010     3099
   16.025     2926
   16.040     2991
   16.055     2811
   16.070     2840
   16.085     2871
   16.100     2991
   16.115     2884
   16.130     2769
   16.145     2754
   16.160     2865
   16.175     2962
   16.190     2860
   16.205     3045
   16.220     3121
   16.235     3147
   16.250     3046
   16.265     3020
   16.280     3337
   16.295     3291
   16.310     3134
   16.325     3148
   16.340     3183
   16.355     3146
   16.370     3148
   16.385     3246
   16.400     3156
   16.415     3324
   16.430     3531
   16.445     3703
   16.460     3683
   16.475     3834
   16.490     3758
   16.505     3631
   16.520     3496
   16.535     3286
   16.550     3147
   16.565     3146
   16.580     3056
   16.595     3044
   16.610     2984
   16.625     3095
   16.640     3181
   16.655     3099
   16.670     3099
   16.685     3096
   16.700     3060
   16.715     3271
   16.730     3262
   16.745     3185
   16.760     3277
   16.775     3268
   16.790     3221
   16.805     3276
   16.820     3313
   16.835     3343
   16.850     3337
   16.865     3358
   16.880     3405
   16.895     3309
   16.910     3317
   16.925     3209
   16.940     3285
   16.955     3163
   16.970     3188
   16.985     3252
   17.000     3192
   17.015     3309
   17.030     3185
   17.045     3181
   17.060     3261
   17.075     3255
   17.090     3235
   17.105     3149
   17.120     3196
   17.135     3259
   17.150     3370
   17.165     3331
   17.180     3223
   17.195     3335
   17.210     3455
   17.225     3451
   17.240     3221
   17.255     3187
   17.270     3383
   17.285     3341
   17.300     3330
   17.315     3296
   17.330     3220
   17.345     3238
   17.360     3390
   17.375     3230
   17.390     3445
   17.405     3519
   17.420     3465
   17.435     3629
   17.450     3522
   17.465     3487
   17.480     3368
   17.495     3351
   17.510     3417
   17.525     3443
   17.540     3559
   17.555     3629
   17.570     3500
   17.585     3322
   17.600     3625
   17.615     3466
   17.630     3547
   17.645     3755
   17.660     3655
   17.675     3872
   17.690     3716
   17.705     3925
   17.720     4076
   17.735     3730
   17.750     3855
   17.765     3786
   17.780     3401
   17.795     3740
   17.810     3614
   17.825     3714
   17.840     3772
   17.855     3782
   17.870     3738
   17.885     3652
   17.900     3582
   17.915     3457
   17.930     3668
   17.945     3616
   17.960     3493
   17.975     3587
   17.990     3669
   18.005     3589
   18.020     3746
   18.035     3589
   18.050     3451
   18.065     3588
   18.080     3507
   18.095     3562
   18.110     3683
   18.125     3643
   18.140     3563
   18.155     3575
   18.170     3612
   18.185     3539
   18.200     3653
   18.215     3736
   18.230     3732
   18.245     3701
   18.260     3625
   18.275     3612
   18.290     3806
   18.305     3787
   18.320     3663
   18.335     3813
   18.350     3768
   18.365     3872
   18.380     3999
   18.395     3899
   18.410     3945
   18.425     3839
   18.440     3880
   18.455     4067
   18.470     4099
   18.485     4177
   18.500     4365
   18.515     4565
   18.530     4505
   18.545     4507
   18.560     4710
   18.575     5078
   18.590     5363
   18.605     5727
   18.620     6211
   18.635     6382
   18.650     6542
   18.665     6930
   18.680     6459
   18.695     6167
   18.710     5699
   18.725     5361
   18.740     4896
   18.755     4558
   18.770     4272
   18.785     4023
   18.800     4082
   18.815     3887
   18.830     4023
   18.845     4010
   18.860     3901
   18.875     3828
   18.890     4024
   18.905     3964
   18.920     4018
   18.935     3818
   18.950     4051
   18.965     4250
   18.980     4122
   18.995     4100
   19.010     4030
   19.025     3945
   19.040     4037
   19.055     3911
   19.070     4151
   19.085     3806
   19.100     4161
   19.115     4131
   19.130     4259
   19.145     4061
   19.160     3857
   19.175     4165
   19.190     4350
   19.205     4356
   19.220     4307
   19.235     4471
   19.250     4521
   19.265     4395
   19.280     4527
   19.295     4563
   19.310     4050
   19.325     4096
   19.340     4173
   19.355     4064
   19.370     4144
   19.385     3929
   19.400     3908
   19.415     3920
   19.430     3970
   19.445     3862
   19.460     4132
   19.475     3906
   19.490     3866
   19.505     4026
   19.520     3915
   19.535     4122
   19.550     4175
   19.565     3846
   19.580     3930
   19.595     3940
   19.610     3987
   19.625     4122
   19.640     3827
   19.655     3958
   19.670     4055
   19.685     3958
   19.700     3963
   19.715     4066
   19.730     3834
   19.745     3894
   19.760     4124
   19.775     3944
   19.790     3824
   19.805     4082
   19.820     3972
   19.835     4083
   19.850     3943
   19.865     3990
   19.880     3856
   19.895     3765
   19.910     3858
   19.925     3865
   19.940     3925
   19.955     3912
   19.970     3901
   19.985     3752
   20.000     3876
   20.015     3981
   20.030     4057
   20.045     4129
   20.060     3919
   20.075     4103
   20.090     3958
   20.105     3847
   20.120     3730
   20.135     3806
   20.150     3965
   20.165     4010
   20.180     3820
   20.195     3837
   20.210     3871
   20.225     3908
   20.240     3908
   20.255     4003
   20.270     3792
   20.285     3855
   20.300     3783
   20.315     3637
   20.330     3824
   20.345     4037
   20.360     3967
   20.375     3839
   20.390     3859
   20.405     3926
   20.420     4028
   20.435     3974
   20.450     3837
   20.465     3937
   20.480     3854
   20.495     3682
   20.510     3713
   20.525     3854
   20.540     3872
   20.555     3926
   20.570     3907
   20.585     3732
   20.600     3597
   20.615     3820
   20.630     3740
   20.645     3695
   20.660     3675
   20.675     3789
   20.690     3836
   20.705     3929
   20.720     3805
   20.735     3623
   20.750     3623
   20.765     3613
   20.780     3740
   20.795     3817
   20.810     3857
   20.825     3845
   20.840     3823
   20.855     4035
   20.870     3923
   20.885     3972
   20.900     3895
   20.915     4041
   20.930     3835
   20.945     3768
   20.960     3868
   20.975     3719
   20.990     3591
   21.005     3574
   21.020     3798
   21.035     3770
   21.050     3768
   21.065     3958
   21.080     3942
   21.095     3750
   21.110     3903
   21.125     4025
   21.140     3747
   21.155     4027
   21.170     3938
   21.185     4032
   21.200     4070
   21.215     3892
   21.230     3800
   21.245     3799
   21.260     4067
   21.275     3697
   21.290     3888
   21.305     3714
   21.320     3792
   21.335     3730
   21.350     3739
   21.365     3520
   21.380     3526
   21.395     3617
   21.410     3528
   21.425     3700
   21.440     3751
   21.455     3545
   21.470     3572
   21.485     3738
   21.500     3785
   21.515     3758
   21.530     3598
   21.545     3694
   21.560     3569
   21.575     3625
   21.590     3669
   21.605     3913
   21.620     3964
   21.635     3978
   21.650     4071
   21.665     4275
   21.680     4519
   21.695     4514
   21.710     4618
   21.725     5046
   21.740     4872
   21.755     4779
   21.770     4494
   21.785     4362
   21.800     4374
   21.815     4311
   21.830     4068
   21.845     3703
   21.860     3483
   21.875     3623
   21.890     3562
   21.905     3440
   21.920     3447
   21.935     3460
   21.950     3414
   21.965     3356
   21.980     3284
   21.995     3341
   22.010     3465
   22.025     3346
   22.040     3454
   22.055     3338
   22.070     3420
   22.085     3464
   22.100     3566
   22.115     3320
   22.130     3324
   22.145     3421
   22.160     3330
   22.175     3467
   22.190     3243
   22.205     3382
   22.220     3423
   22.235     3458
   22.250     3312
   22.265     3253
   22.280     3471
   22.295     3400
   22.310     3165
   22.325     3128
   22.340     3278
   22.355     3370
   22.370     3488
   22.385     3469
   22.400     3295
   22.415     3325
   22.430     3402
   22.445     3420
   22.460     3357
   22.475     3479
   22.490     3446
   22.505     3382
   22.520     3368
   22.535     3243
   22.550     3365
   22.565     3296
   22.580     3302
   22.595     3297
   22.610     3241
   22.625     3287
   22.640     3288
   22.655     3167
   22.670     3105
   22.685     3139
   22.700     3162
   22.715     3344
   22.730     3256
   22.745     3205
   22.760     3216
   22.775     3176
   22.790     3164
   22.805     3209
   22.820     3188
   22.835     3128
   22.850     3041
   22.865     3090
   22.880     3153
   22.895     3257
   22.910     3324
   22.925     3232
   22.940     3261
   22.955     3171
   22.970     3158
   22.985     3137
   23.000     3068
   23.015     3170
   23.030     3151
   23.045     2966
   23.060     3106
   23.075     3096
   23.090     3057
   23.105     2943
   23.120     2922
   23.135     3076
   23.150     3114
   23.165     3260
   23.180     3067
   23.195     3227
   23.210     3180
   23.225     3244
   23.240     3068
   23.255     3050
   23.270     3291
   23.285     3255
   23.300     3217
   23.315     3142
   23.330     3217
   23.345     3250
   23.360     3300
   23.375     3180
   23.390     3300
   23.405     3340
   23.420     3234
   23.435     3249
   23.450     3126
   23.465     3039
   23.480     3009
   23.495     3010
   23.510     3105
   23.525     3047
   23.540     3136
   23.555     3187
   23.570     3090
   23.585     2882
   23.600     2942
   23.615     2973
   23.630     3032
   23.645     3037
   23.660     2935
   23.675     3194
   23.690     3091
   23.705     3036
   23.720     3214
   23.735     3106
   23.750     3177
   23.765     3305
   23.780     3044
   23.795     3301
   23.810     3096
   23.825     3300
   23.840     3214
   23.855     3266
   23.870     3191
   23.885     2987
   23.900     2928
   23.915     2902
   23.930     3053
   23.945     2960
   23.960     2892
   23.975     3012
   23.990     2996
   24.005     2943
   24.020     3068
   24.035     2953
   24.050     2888
   24.065     2978
   24.080     2888
   24.095     2854
   24.110     2960
   24.125     2959
   24.140     2902
   24.155     2857
   24.170     2994
   24.185     2878
   24.200     2939
   24.215     2969
   24.230     2946
   24.245     2867
   24.260     2798
   24.275     2731
   24.290     2866
   24.305     2920
   24.320     2799
   24.335     2793
   24.350     2825
   24.365     2918
   24.380     2958
   24.395     3046
   24.410     3067
   24.425     3003
   24.440     2963
   24.455     3010
   24.470     2980
   24.485     2931
   24.500     2924
   24.515     3022
   24.530     2951
   24.545     2935
   24.560     2953
   24.575     3008
   24.590     2942
   24.605     2914
   24.620     2956
   24.635     2955
   24.650     2881
   24.665     2913
   24.680     2800
   24.695     2860
   24.710     2847
   24.725     2922
   24.740     2919
   24.755     2880
   24.770     2858
   24.785     2744
   24.800     2919
   24.815     2749
   24.830     2855
   24.845     2844
   24.860     2661
   24.875     2749
   24.890     2883
   24.905     2907
   24.920     2777
   24.935     2659
   24.950     2859
   24.965     2989
   24.980     2841
   24.995     2677
   25.010     2817
   25.025     2865
   25.040     2888
   25.055     2827
   25.070     2873
   25.085     2719
   25.100     3051
   25.115     2937
   25.130     2968
   25.145     2991
   25.160     2828
   25.175     2868
   25.190     2839
   25.205     2762
   25.220     2811
   25.235     2843
   25.250     2705
   25.265     2644
   25.280     2809
   25.295     2847
   25.310     2575
   25.325     2657
   25.340     2744
   25.355     2779
   25.370     2803
   25.385     2704
   25.400     2678
   25.415     2731
   25.430     2765
   25.445     2628
   25.460     2836
   25.475     2712
   25.490     2675
   25.505     2772
   25.520     2718
   25.535     2686
   25.550     2818
   25.565     2609
   25.580     2717
   25.595     2669
   25.610     2670
   25.625     2846
   25.640     2714
   25.655     2846
   25.670     2944
   25.685     2926
   25.700     2957
   25.715     3076
   25.730     2889
   25.745     2960
   25.760     3254
   25.775     2993
   25.790     2841
   25.805     2964
   25.820     2851
   25.835     2954
   25.850     2834
   25.865     2805
   25.880     2686
   25.895     2741
   25.910     2912
   25.925     2913
   25.940     2923
   25.955     2930
   25.970     2994
   25.985     2963
   26.000     3048
   26.015     3045
   26.030     3091
   26.045     2945
   26.060     2899
   26.075     2879
   26.090     2677
   26.105     2709
   26.120     2609
   26.135     2620
   26.150     2658
   26.165     2622
   26.180     2546
   26.195     2572
   26.210     2573
   26.225     2638
   26.240     2591
   26.255     2612
   26.270     2570
   26.285     2634
   26.300     2600
   26.315     2509
   26.330     2577
   26.345     2710
   26.360     2625
   26.375     2573
   26.390     2614
   26.405     2574
   26.420     2577
   26.435     2708
   26.450     2627
   26.465     2574
   26.480     2526
   26.495     2491
   26.510     2494
   26.525     2566
   26.540     2557
   26.555     2632
   26.570     2703
   26.585     2589
   26.600     2444
   26.615     2640
   26.630     2576
   26.645     2549
   26.660     2512
   26.675     2546
   26.690     2532
   26.705     2653
   26.720     2643
   26.735     2460
   26.750     2467
   26.765     2393
   26.780     2396
   26.795     2466
   26.810     2546
   26.825     2578
   26.840     2546
   26.855     2535
   26.870     2516
   26.885     2560
   26.900     2497
   26.915     2613
   26.930     2468
   26.945     2442
   26.960     2522
   26.975     2531
   26.990     2409
   27.005     2369
   27.020     2451
   27.035     2445
   27.050     2503
   27.065     2618
   27.080     2553
   27.095     2383
   27.110     2520
   27.125     2599
   27.140     2422
   27.155     2587
   27.170     2552
   27.185     2475
   27.200     2494
   27.215     2414
   27.230     2488
   27.245     2486
   27.260     2575
   27.275     2460
   27.290     2476
   27.305     2556
   27.320     2444
   27.335     2475
   27.350     2438
   27.365     2390
   27.380     2444
   27.395     2460
   27.410     2318
   27.425     2503
   27.440     2611
   27.455     2354
   27.470     2415
   27.485     2511
   27.500     2527
   27.515     2435
   27.530     2407
   27.545     2379
   27.560     2408
   27.575     2459
   27.590     2354
   27.605     2372
   27.620     2410
   27.635     2502
   27.650     2436
   27.665     2455
   27.680     2494
   27.695     2463
   27.710     2371
   27.725     2614
   27.740     2528
   27.755     2446
   27.770     2412
   27.785     2490
   27.800     2570
   27.815     2674
   27.830     2646
   27.845     2573
   27.860     2583
   27.875     2659
   27.890     2673
   27.905     2598
   27.920     2551
   27.935     2558
   27.950     2535
   27.965     2381
   27.980     2430
   27.995     2442
   28.010     2574
   28.025     2382
   28.040     2380
   28.055     2324
   28.070     2509
   28.085     2604
   28.100     2713
   28.115     2748
   28.130     2668
   28.145     2684
   28.160     2759
   28.175     2830
   28.190     2752
   28.205     2838
   28.220     2818
   28.235     2793
   28.250     2658
   28.265     2589
   28.280     2664
   28.295     2564
   28.310     2372
   28.325     2341
   28.340     2412
   28.355     2463
   28.370     2438
   28.385     2432
   28.400     2356
   28.415     2471
   28.430     2496
   28.445     2452
   28.460     2383
   28.475     2430
   28.490     2420
   28.505     2394
   28.520     2339
   28.535     2294
   28.550     2265
   28.565     2339
   28.580     2316
   28.595     2336
   28.610     2273
   28.625     2319
   28.640     2324
   28.655     2282
   28.670     2254
   28.685     2306
   28.700     2332
   28.715     2426
   28.730     2343
   28.745     2289
   28.760     2379
   28.775     2363
   28.790     2381
   28.805     2427
   28.820     2469
   28.835     2369
   28.850     2282
   28.865     2400
   28.880     2365
   28.895     2316
   28.910     2321
   28.925     2360
   28.940     2403
   28.955     2299
   28.970     2273
   28.985     2241
   29.000     2259
   29.015     2312
   29.030     2272
   29.045     2249
   29.060     2360
   29.075     2321
   29.090     2311
   29.105     2261
   29.120     2228
   29.135     2236
   29.150     2231
   29.165     2261
   29.180     2181
   29.195     2309
   29.210     2277
   29.225     2252
   29.240     2248
   29.255     2147
   29.270     2304
   29.285     2313
   29.300     2266
   29.315     2209
   29.330     2195
   29.345     2204
   29.360     2264
   29.375     2234
   29.390     2398
   29.405     2352
   29.420     2263
   29.435     2297
   29.450     2302
   29.465     2322
   29.480     2232
   29.495     2216
   29.510     2394
   29.525     2342
   29.540     2446
   29.555     2454
   29.570     2377
   29.585     2211
   29.600     2326
   29.615     2274
   29.630     2206
   29.645     2235
   29.660     2184
   29.675     2438
   29.690     2254
   29.705     2186
   29.720     2361
   29.735     2286
   29.750     2340
   29.765     2285
   29.780     2137
   29.795     2242
   29.810     2199
   29.825     2187
   29.840     2167
   29.855     2203
   29.870     2237
   29.885     2061
   29.900     2057
   29.915     2033
   29.930     2233
   29.945     2185
   29.960     2049
   29.975     2107
   29.990     2136
   30.005     2143
   30.020     2239
   30.035     2017
   30.050     2040
   30.065     2133
   30.080     2044
   30.095     2067
   30.110     2132
   30.125     2063
   30.140     2038
   30.155     2050
   30.170     2082
   30.185     2142
   30.200     2161
   30.215     2132
   30.230     2085
   30.245     2076
   30.260     2046
   30.275     2044
   30.290     2110
   30.305     2101
   30.320     2066
   30.335     2035
   30.350     2007
   30.365     2109
   30.380     2070
   30.395     2122
   30.410     2085
   30.425     2045
   30.440     2017
   30.455     2013
   30.470     2026
   30.485     2067
   30.500     2108
   30.515     2195
   30.530     2115
   30.545     2091
   30.560     2126
   30.575     2160
   30.590     2157
   30.605     2179
   30.620     2285
   30.635     2248
   30.650     2223
   30.665     2216
   30.680     2184
   30.695     2190
   30.710     2218
   30.725     2263
   30.740     2237
   30.755     2193
   30.770     2169
   30.785     2141
   30.800     2232
   30.815     2045
   30.830     2121
   30.845     2112
   30.860     1977
   30.875     2023
   30.890     2104
   30.905     2127
   30.920     2023
   30.935     2018
   30.950     2076
   30.965     2221
   30.980     2115
   30.995     2148
   31.010     2068
   31.025     2045
   31.040     2091
   31.055     2084
   31.070     2199
   31.085     1932
   31.100     2150
   31.115     2047
   31.130     2107
   31.145     2034
   31.160     1898
   31.175     1994
   31.190     2029
   31.205     1939
   31.220     1948
   31.235     1952
   31.250     2023
   31.265     1924
   31.280     1965
   31.295     1998
   31.310     2015
   31.325     1933
   31.340     1917
   31.355     1999
   31.370     2081
   31.385     1934
   31.400     2027
   31.415     1972
   31.430     1929
   31.445     1895
   31.460     2005
   31.475     1969
   31.490     1926
   31.505     1953
   31.520     1888
   31.535     1959
   31.550     2071
   31.565     1961
   31.580     2051
   31.595     1892
   31.610     1964
   31.625     2001
   31.640     1887
   31.655     1846
   31.670     1885
   31.685     1853
   31.700     1911
   31.715     1915
   31.730     1855
   31.745     1832
   31.760     2015
   31.775     1862
   31.790     1834
   31.805     1918
   31.820     1959
   31.835     1960
   31.850     1915
   31.865     1933
   31.880     1827
   31.895     1836
   31.910     1868
   31.925     1831
   31.940     1864
   31.955     1857
   31.970     1927
   31.985     1845
   32.000     1878
   32.015     1864
   32.030     1927
   32.045     1925
   32.060     1896
   32.075     1865
   32.090     1848
   32.105     1929
   32.120     1834
   32.135     1864
   32.150     1909
   32.165     1911
   32.180     1824
   32.195     1870
   32.210     1940
   32.225     1944
   32.240     1924
   32.255     2037
   32.270     1960
   32.285     1982
   32.300     2071
   32.315     2009
   32.330     2123
   32.345     2247
   32.360     2201
   32.375     2205
   32.390     2166
   32.405     2131
   32.420     2172
   32.435     2149
   32.450     2090
   32.465     1999
   32.480     1980
   32.495     1910
   32.510     1938
   32.525     1916
   32.540     1984
   32.555     2063
   32.570     2118
   32.585     2060
   32.600     2003
   32.615     2051
   32.630     2016
   32.645     2057
   32.660     2009
   32.675     2005
   32.690     1959
   32.705     1954
   32.720     1923
   32.735     1849
   32.750     1761
   32.765     1754
   32.780     1821
   32.795     1825
   32.810     1883
   32.825     1837
   32.840     1813
   32.855     1864
   32.870     1853
   32.885     1961
   32.900     1933
   32.915     1868
   32.930     1840
   32.945     1861
   32.960     1857
   32.975     1799
   32.990     1751
   33.005     1785
   33.020     1822
   33.035     1832
   33.050     1805
   33.065     1876
   33.080     1864
   33.095     1713
   33.110     1766
   33.125     1842
   33.140     1782
   33.155     1877
   33.170     1842
   33.185     1924
   33.200     1859
   33.215     1782
   33.230     1780
   33.245     1774
   33.260     1875
   33.275     1788
   33.290     1845
   33.305     1844
   33.320     1925
   33.335     1911
   33.350     1879
   33.365     1871
   33.380     1914
   33.395     1892
   33.410     1865
   33.425     1894
   33.440     1975
   33.455     1919
   33.470     1842
   33.485     1861
   33.500     1912
   33.515     1785
   33.530     1711
   33.545     1773
   33.560     1713
   33.575     1752
   33.590     1717
   33.605     1819
   33.620     1753
   33.635     1725
   33.650     1686
   33.665     1804
   33.680     1821
   33.695     1721
   33.710     1710
   33.725     1861
   33.740     1754
   33.755     1765
   33.770     1732
   33.785     1772
   33.800     1844
   33.815     1842
   33.830     1860
   33.845     1811
   33.860     1786
   33.875     1818
   33.890     1814
   33.905     1731
   33.920     1780
   33.935     1779
   33.950     1781
   33.965     1693
   33.980     1688
   33.995     1764
   34.010     1841
   34.025     1761
   34.040     1777
   34.055     1706
   34.070     1747
   34.085     1802
   34.100     1967
   34.115     1888
   34.130     1821
   34.145     1846
   34.160     1846
   34.175     1896
   34.190     1797
   34.205     1876
   34.220     1788
   34.235     1798
   34.250     1758
   34.265     1728
   34.280     1811
   34.295     1737
   34.310     1677
   34.325     1706
   34.340     1784
   34.355     1852
   34.370     1871
   34.385     1865
   34.400     1801
   34.415     1864
   34.430     1909
   34.445     1859
   34.460     1789
   34.475     1794
   34.490     1772
   34.505     1713
   34.520     1688
   34.535     1699
   34.550     1659
   34.565     1699
   34.580     1665
   34.595     1669
   34.610     1653
   34.625     1626
   34.640     1569
   34.655     1595
   34.670     1587
   34.685     1634
   34.700     1629
   34.715     1713
   34.730     1641
   34.745     1589
   34.760     1650
   34.775     1642
   34.790     1634
   34.805     1612
   34.820     1586
   34.835     1596
   34.850     1569
   34.865     1593
   34.880     1623
   34.895     1625
   34.910     1626
   34.925     1649
   34.940     1687
   34.955     1626
   34.970     1673
   34.985     1682
   35.000     1676
   35.015     1681
   35.030     1572
   35.045     1614
   35.060     1663
   35.075     1594
   35.090     1614
   35.105     1651
   35.120     1623
   35.135     1667
   35.150     1630
   35.165     1675
   35.180     1578
   35.195     1633
   35.210     1676
   35.225     1671
   35.240     1564
   35.255     1530
   35.270     1669
   35.285     1644
   35.300     1659
   35.315     1601
   35.330     1593
   35.345     1614
   35.360     1661
   35.375     1603
   35.390     1663
   35.405     1639
   35.420     1605
   35.435     1645
   35.450     1601
   35.465     1551
   35.480     1534
   35.495     1513
   35.510     1545
   35.525     1554
   35.540     1579
   35.555     1613
   35.570     1617
   35.585     1541
   35.600     1585
   35.615     1556
   35.630     1549
   35.645     1627
   35.660     1633
   35.675     1700
   35.690     1584
   35.705     1616
   35.720     1705
   35.735     1613
   35.750     1622
   35.765     1694
   35.780     1551
   35.795     1617
   35.810     1599
   35.825     1627
   35.840     1594
   35.855     1555
   35.870     1642
   35.885     1566
   35.900     1482
   35.915     1449
   35.930     1519
   35.945     1559
   35.960     1475
   35.975     1520
   35.990     1533
   36.005     1513
   36.020     1563
   36.035     1536
   36.050     1486
   36.065     1518
   36.080     1480
   36.095     1466
   36.110     1496
   36.125     1501
   36.140     1459
   36.155     1471
   36.170     1519
   36.185     1487
   36.200     1554
   36.215     1535
   36.230     1532
   36.245     1493
   36.260     1456
   36.275     1476
   36.290     1515
   36.305     1504
   36.320     1460
   36.335     1521
   36.350     1479
   36.365     1512
   36.380     1547
   36.395     1600
   36.410     1566
   36.425     1504
   36.440     1476
   36.455     1524
   36.470     1474
   36.485     1469
   36.500     1493
   36.515     1531
   36.530     1466
   36.545     1498
   36.560     1546
   36.575     1582
   36.590     1545
   36.605     1516
   36.620     1550
   36.635     1548
   36.650     1505
   36.665     1572
   36.680     1532
   36.695     1637
   36.710     1534
   36.725     1597
   36.740     1581
   36.755     1641
   36.770     1577
   36.785     1556
   36.800     1656
   36.815     1586
   36.830     1518
   36.845     1511
   36.860     1479
   36.875     1557
   36.890     1462
   36.905     1485
   36.920     1497
   36.935     1431
   36.950     1510
   36.965     1568
   36.980     1554
   36.995     1384
   37.010     1518
   37.025     1543
   37.040     1542
   37.055     1512
   37.070     1513
   37.085     1366
   37.100     1547
   37.115     1531
   37.130     1553
   37.145     1510
   37.160     1463
   37.175     1486
   37.190     1437
   37.205     1522
   37.220     1492
   37.235     1498
   37.250     1473
   37.265     1410
   37.280     1574
   37.295     1514
   37.310     1500
   37.325     1424
   37.340     1481
   37.355     1509
   37.370     1523
   37.385     1473
   37.400     1559
   37.415     1495
   37.430     1567
   37.445     1464
   37.460     1555
   37.475     1552
   37.490     1498
   37.505     1552
   37.520     1507
   37.535     1620
   37.550     1600
   37.565     1578
   37.580     1660
   37.595     1562
   37.610     1548
   37.625     1626
   37.640     1540
   37.655     1452
   37.670     1483
   37.685     1445
   37.700     1521
   37.715     1482
   37.730     1400
   37.745     1410
   37.760     1555
   37.775     1499
   37.790     1427
   37.805     1564
   37.820     1571
   37.835     1605
   37.850     1584
   37.865     1594
   37.880     1536
   37.895     1547
   37.910     1541
   37.925     1497
   37.940     1531
   37.955     1603
   37.970     1596
   37.985     1503
   38.000     1529
   38.015     1536
   38.030     1589
   38.045     1582
   38.060     1485
   38.075     1523
   38.090     1399
   38.105     1522
   38.120     1470
   38.135     1461
   38.150     1502
   38.165     1494
   38.180     1452
   38.195     1491
   38.210     1523
   38.225     1521
   38.240     1493
   38.255     1477
   38.270     1446
   38.285     1429
   38.300     1469
   38.315     1442
   38.330     1523
   38.345     1568
   38.360     1499
   38.375     1493
   38.390     1487
   38.405     1501
   38.420     1534
   38.435     1553
   38.450     1473
   38.465     1461
   38.480     1426
   38.495     1355
   38.510     1401
   38.525     1410
   38.540     1431
   38.555     1448
   38.570     1485
   38.585     1474
   38.600     1416
   38.615     1471
   38.630     1449
   38.645     1482
   38.660     1450
   38.675     1417
   38.690     1430
   38.705     1442
   38.720     1396
   38.735     1394
   38.750     1416
   38.765     1419
   38.780     1415
   38.795     1461
   38.810     1509
   38.825     1427
   38.840     1394
   38.855     1471
   38.870     1443
   38.885     1521
   38.900     1486
   38.915     1467
   38.930     1393
   38.945     1382
   38.960     1420
   38.975     1403
   38.990     1396
   39.005     1441
   39.020     1395
   39.035     1431
   39.050     1411
   39.065     1526
   39.080     1486
   39.095     1393
   39.110     1364
   39.125     1420
   39.140     1429
   39.155     1480
   39.170     1445
   39.185     1484
   39.200     1448
   39.215     1417
   39.230     1429
   39.245     1423
   39.260     1546
   39.275     1426
   39.290     1440
   39.305     1414
   39.320     1419
   39.335     1405
   39.350     1438
   39.365     1421
   39.380     1454
   39.395     1411
   39.410     1290
   39.425     1384
   39.440     1437
   39.455     1382
   39.470     1389
   39.485     1522
   39.500     1507
   39.515     1440
   39.530     1326
   39.545     1350
   39.560     1346
   39.575     1354
   39.590     1413
   39.605     1466
   39.620     1411
   39.635     1403
   39.650     1421
   39.665     1452
   39.680     1424
   39.695     1381
   39.710     1350
   39.725     1433
   39.740     1469
   39.755     1451
   39.770     1338
   39.785     1365
   39.800     1456
   39.815     1501
   39.830     1477
   39.845     1423
   39.860     1396
   39.875     1494
   39.890     1488
   39.905     1354
   39.920     1366
   39.935     1446
   39.950     1394
   39.965     1409
   39.980     1476
   39.995     1449
   40.010     1519
   40.025     1426
   40.040     1443
   40.055     1460
   40.070     1458
   40.085     1557
   40.100     1549
   40.115     1474
   40.130     1414
   40.145     1430
   40.160     1412
   40.175     1436
   40.190     1379
   40.205     1426
   40.220     1436
   40.235     1462
   40.250     1411
   40.265     1369
   40.280     1443
   40.295     1402
   40.310     1399
   40.325     1404
   40.340     1383
   40.355     1454
   40.370     1458
   40.385     1436
   40.400     1369
   40.415     1464
   40.430     1485
   40.445     1480
   40.460     1500
   40.475     1552
   40.490     1527
   40.505     1570
   40.520     1589
   40.535     1600
   40.550     1601
   40.565     1656
   40.580     1617
   40.595     1555
   40.610     1578
   40.625     1593
   40.640     1560
   40.655     1509
   40.670     1500
   40.685     1513
   40.700     1485
   40.715     1514
   40.730     1487
   40.745     1445
   40.760     1520
   40.775     1519
   40.790     1459
   40.805     1499
   40.820     1449
   40.835     1407
   40.850     1396
   40.865     1420
   40.880     1458
   40.895     1460
   40.910     1500
   40.925     1484
   40.940     1454
   40.955     1378
   40.970     1415
   40.985     1387
   41.000     1450
   41.015     1446
   41.030     1423
   41.045     1409
   41.060     1435
   41.075     1441
   41.090     1438
   41.105     1422
   41.120     1438
   41.135     1400
   41.150     1371
   41.165     1459
   41.180     1459
   41.195     1517
   41.210     1481
   41.225     1404
   41.240     1393
   41.255     1385
   41.270     1522
   41.285     1464
   41.300     1426
   41.315     1357
   41.330     1414
   41.345     1431
   41.360     1482
   41.375     1360
   41.390     1408
   41.405     1436
   41.420     1456
   41.435     1455
   41.450     1487
   41.465     1495
   41.480     1382
   41.495     1368
   41.510     1476
   41.525     1488
   41.540     1552
   41.555     1583
   41.570     1528
   41.585     1399
   41.600     1564
   41.615     1533
   41.630     1548
   41.645     1567
   41.660     1568
   41.675     1664
   41.690     1584
   41.705     1561
   41.720     1637
   41.735     1583
   41.750     1588
   41.765     1558
   41.780     1465
   41.795     1597
   41.810     1458
   41.825     1413
   41.840     1488
   41.855     1560
   41.870     1515
   41.885     1478
   41.900     1470
   41.915     1436
   41.930     1508
   41.945     1482
   41.960     1477
   41.975     1484
   41.990     1494
   42.005     1501
   42.020     1544
   42.035     1548
   42.050     1447
   42.065     1490
   42.080     1403
   42.095     1426
   42.110     1434
   42.125     1429
   42.140     1415
   42.155     1422
   42.170     1466
   42.185     1411
   42.200     1457
   42.215     1512
   42.230     1485
   42.245     1464
   42.260     1390
   42.275     1428
   42.290     1468
   42.305     1456
   42.320     1504
   42.335     1470
   42.350     1382
   42.365     1408
   42.380     1488
   42.395     1454
   42.410     1436
   42.425     1455
   42.440     1453
   42.455     1432
   42.470     1471
   42.485     1484
   42.500     1468
   42.515     1510
   42.530     1442
   42.545     1469
   42.560     1428
   42.575     1410
   42.590     1448
   42.605     1459
   42.620     1523
   42.635     1466
   42.650     1385
   42.665     1399
   42.680     1372
   42.695     1387
   42.710     1449
   42.725     1481
   42.740     1430
   42.755     1418
   42.770     1404
   42.785     1328
   42.800     1405
   42.815     1379
   42.830     1388
   42.845     1391
   42.860     1339
   42.875     1417
   42.890     1393
   42.905     1380
   42.920     1306
   42.935     1374
   42.950     1365
   42.965     1437
   42.980     1396
   42.995     1390
   43.010     1370
   43.025     1456
   43.040     1468
   43.055     1392
   43.070     1412
   43.085     1321
   43.100     1413
   43.115     1453
   43.130     1478
   43.145     1431
   43.160     1370
   43.175     1390
   43.190     1428
   43.205     1394
   43.220     1427
   43.235     1390
   43.250     1411
   43.265     1449
   43.280     1393
   43.295     1450
   43.310     1384
   43.325     1359
   43.340     1351
   43.355     1383
   43.370     1426
   43.385     1444
   43.400     1359
   43.415     1373
   43.430     1397
   43.445     1331
   43.460     1397
   43.475     1387
   43.490     1403
   43.505     1407
   43.520     1405
   43.535     1440
   43.550     1476
   43.565     1426
   43.580     1446
   43.595     1409
   43.610     1447
   43.625     1468
   43.640     1344
   43.655     1325
   43.670     1335
   43.685     1403
   43.700     1420
   43.715     1377
   43.730     1301
   43.745     1325
   43.760     1422
   43.775     1301
   43.790     1271
   43.805     1349
   43.820     1415
   43.835     1367
   43.850     1352
   43.865     1338
   43.880     1331
   43.895     1327
   43.910     1379
   43.925     1315
   43.940     1333
   43.955     1348
   43.970     1373
   43.985     1327
