    2.000      631
    2.015      642
    2.030      626
    2.045      626
    2.060      614
    2.075      624
    2.090      637
    2.105      644
    2.120      643
    2.135      651
    2.150      641
    2.165      621
    2.180      607
    2.195      585
    2.210      613
    2.225      656
    2.240      650
    2.255      660
    2.270      616
    2.285      612
    2.300      617
    2.315      587
    2.330      587
    2.345      624
    2.360      627
    2.375      630
    2.390      606
    2.405      622
    2.420      647
    2.435      666
    2.450      652
    2.465      606
    2.480      617
    2.495      619
    2.510      600
    2.525      612
    2.540      617
    2.555      608
    2.570      609
    2.585      594
    2.600      596
    2.615      634
    2.630      637
    2.645      618
    2.660      613
    2.675      615
    2.690      626
    2.705      642
    2.720      644
    2.735      653
    2.750      639
    2.765      607
    2.780      592
    2.795      601
    2.810      605
    2.825      607
    2.840      650
    2.855      667
    2.870      624
    2.885      631
    2.900      648
    2.915      647
    2.930      599
    2.945      636
    2.960      665
    2.975      596
    2.990      605
    3.005      650
    3.020      655
    3.035      659
    3.050      640
    3.065      654
    3.080      615
    3.095      577
    3.110      609
    3.125      656
    3.140      578
    3.155      666
    3.170      640
    3.185      636
    3.200      640
    3.215      643
    3.230      638
    3.245      632
    3.260      648
    3.275      649
    3.290      657
    3.305      665
    3.320      633
    3.335      615
    3.350      636
    3.365      620
    3.380      630
    3.395      586
    3.410      607
    3.425      633
    3.440      644
    3.455      649
    3.470      612
    3.485      617
    3.500      618
    3.515      602
    3.530      609
    3.545      666
    3.560      661
    3.575      610
    3.590      609
    3.605      596
    3.620      621
    3.635      640
    3.650      621
    3.665      648
    3.680      649
    3.695      632
    3.710      622
    3.725      650
    3.740      652
    3.755      643
    3.770      627
    3.785      625
    3.800      631
    3.815      651
    3.830      674
    3.845      621
    3.860      640
    3.875      683
    3.890      664
    3.905      619
    3.920      609
    3.935      620
    3.950      596
    3.965      630
    3.980      617
    3.995      621
    4.010      651
    4.025      653
    4.040      684
    4.055      659
    4.070      643
    4.085      641
    4.100      618
    4.115      607
    4.130      609
    4.145      645
    4.160      634
    4.175      657
    4.190      600
    4.205      622
    4.220      603
    4.235      644
    4.250      628
    4.265      585
    4.280      615
    4.295      636
    4.310      596
    4.325      620
    4.340      648
    4.355      626
    4.370      647
    4.385      663
    4.400      612
    4.415      599
    4.430      643
    4.445      625
    4.460      626
    4.475      640
    4.490      641
    4.505      621
    4.520      593
    4.535      606
    4.550      615
    4.565      649
    4.580      630
    4.595      634
    4.610      630
    4.625      611
    4.640      657
    4.655      644
    4.670      635
    4.685      573
    4.700      603
    4.715      642
    4.730      626
    4.745      582
    4.760      628
    4.775      652
    4.790      643
    4.805      645
    4.820      601
    4.835      594
    4.850      598
    4.865      614
    4.880      660
    4.895      645
    4.910      671
    4.925      635
    4.940      660
    4.955      663
    4.970      637
    4.985      612
    5.000      655
    5.015      679
    5.030      616
    5.045      600
    5.060      623
    5.075      635
    5.090      628
    5.105      596
    5.120      615
    5.135      616
    5.150      615
    5.165      632
    5.180      622
    5.195      651
    5.210      642
    5.225      646
    5.240      596
    5.255      606
    5.270      646
    5.285      640
    5.300      644
    5.315      616
    5.330      623
    5.345      626
    5.360      676
    5.375      598
    5.390      625
    5.405      680
    5.420      634
    5.435      626
    5.450      615
    5.465      624
    5.480      631
    5.495      623
    5.510      637
    5.525      603
    5.540      624
    5.555      640
    5.570      617
    5.585      610
    5.600      591
    5.615      592
    5.630      597
    5.645      641
    5.660      646
    5.675      672
    5.690      595
    5.705      613
    5.720      613
    5.735      637
    5.750      651
    5.765      673
    5.780      637
    5.795      640
    5.810      608
    5.825      631
    5.840      624
    5.855      624
    5.870      616
    5.885      604
    5.900      600
    5.915      568
    5.930      627
    5.945      627
    5.960      580
    5.975      570
    5.990      583
    6.005      618
    6.020      606
    6.035      613
    6.050      590
    6.065      622
    6.080      591
    6.095      610
    6.110      610
    6.125      579
    6.140      596
    6.155      610
    6.170      573
    6.185      579
    6.200      637
    6.215      632
    6.230      640
    6.245      608
    6.260      629
    6.275      621
    6.290      634
    6.305      634
    6.320      622
    6.335      633
    6.350      624
    6.365      620
    6.380      625
    6.395      626
    6.410      619
    6.425      637
    6.440      608
    6.455      586
    6.470      624
    6.485      640
    6.500      632
    6.515      624
    6.530      601
    6.545      614
    6.560      619
    6.575      646
    6.590      647
    6.605      628
    6.620      658
    6.635      621
    6.650      604
    6.665      608
    6.680      630
    6.695      652
    6.710      643
    6.725      634
    6.740      640
    6.755      630
    6.770      620
    6.785      592
    6.800      652
    6.815      607
    6.830      626
    6.845      638
    6.860      579
    6.875      625
    6.890      640
    6.905      656
    6.920      637
    6.935      638
    6.950      629
    6.965      666
    6.980      669
    6.995      616
    7.010      617
    7.025      660
    7.040      626
    7.055      623
    7.070      628
    7.085      567
    7.100      666
    7.115      655
    7.130      636
    7.145      661
    7.160      611
    7.175      660
    7.190      664
    7.205      587
    7.220      647
    7.235      611
    7.250      596
    7.265      616
    7.280      649
    7.295      703
    7.310      636
    7.325      621
    7.340      631
    7.355      602
    7.370      664
    7.385      623
    7.400      643
    7.415      559
    7.430      610
    7.445      631
    7.460      627
    7.475      605
    7.490      619
    7.505      668
    7.520      630
    7.535      584
    7.550      657
    7.565      628
    7.580      646
    7.595      625
    7.610      615
    7.625      653
    7.640      639
    7.655      689
    7.670      614
    7.685      625
    7.700      638
    7.715      655
    7.730      624
    7.745      635
    7.760      672
    7.775      631
    7.790      616
    7.805      656
    7.820      697
    7.835      687
    7.850      695
    7.865      702
    7.880      661
    7.895      661
    7.910      675
    7.925      679
    7.940      654
    7.955      659
    7.970      650
    7.985      636
    8.000      592
    8.015      604
    8.030      678
    8.045      707
    8.060      666
    8.075      639
    8.090      649
    8.105      648
    8.120      623
    8.135      622
    8.150      659
    8.165      678
    8.180      612
    8.195      622
    8.210      629
    8.225      669
    8.240      635
    8.255      686
    8.270      636
    8.285      665
    8.300      665
    8.315      684
    8.330      683
    8.345      682
    8.360      640
    8.375      624
    8.390      631
    8.405      623
    8.420      659
    8.435      677
    8.450      654
    8.465      636
    8.480      624
    8.495      612
    8.510      631
    8.525      643
    8.540      653
    8.555      665
    8.570      652
    8.585      649
    8.600      634
    8.615      636
    8.630      625
    8.645      636
    8.660      643
    8.675      633
    8.690      649
    8.705      638
    8.720      660
    8.735      662
    8.750      649
    8.765      647
    8.780      646
    8.795      648
    8.810      671
    8.825      671
    8.840      687
    8.855      709
    8.870      712
    8.885      739
    8.900      681
    8.915      694
    8.930      684
    8.945      722
    8.960      708
    8.975      708
    8.990      730
    9.005      773
    9.020      836
    9.035      893
    9.050      920
    9.065     1004
    9.080     1085
    9.095     1129
    9.110     1248
    9.125     1483
    9.140     1590
    9.155     1950
    9.170     2176
    9.185     2580
    9.200     3078
    9.215     3715
    9.230     4577
    9.245     5736
    9.260     6353
    9.275     5225
    9.290     4215
    9.305     3081
    9.320     1931
    9.335     1135
    9.350      843
    9.365      775
    9.380      787
    9.395      820
    9.410      826
    9.425      874
    9.440      915
    9.455      937
    9.470     1000
    9.485     1167
    9.500     1288
    9.515     1425
    9.530     1590
    9.545     1709
    9.560     1662
    9.575     1438
    9.590     1203
    9.605      983
    9.620      801
    9.635      748
    9.650      660
    9.665      681
    9.680      708
    9.695      678
    9.710      684
    9.725      743
    9.740      695
    9.755      683
    9.770      643
    9.785      657
    9.800      662
    9.815      672
    9.830      655
    9.845      660
    9.860      620
    9.875      653
    9.890      657
    9.905      688
    9.920      676
    9.935      665
    9.950      637
    9.965      616
    9.980      635
    9.995      676
   10.010      704
   10.025      656
   10.040      663
   10.055      661
   10.070      670
   10.085      642
   10.100      637
   10.115      666
   10.130      636
   10.145      652
   10.160      644
   10.175      692
   10.190      638
   10.205      669
   10.220      685
   10.235      707
   10.250      663
   10.265      662
   10.280      693
   10.295      646
   10.310      655
   10.325      688
   10.340      710
   10.355      701
   10.370      669
   10.385      648
   10.400      646
   10.415      666
   10.430      664
   10.445      686
   10.460      691
   10.475      691
   10.490      664
   10.505      668
   10.520      671
   10.535      681
   10.550      664
   10.565      692
   10.580      692
   10.595      627
   10.610      630
   10.625      648
   10.640      664
   10.655      678
   10.670      653
   10.685      675
   10.700      667
   10.715      699
   10.730      677
   10.745      676
   10.760      678
   10.775      648
   10.790      700
   10.805      712
   10.820      667
   10.835      644
   10.850      672
   10.865      680
   10.880      703
   10.895      700
   10.910      698
   10.925      691
   10.940      698
   10.955      701
   10.970      677
   10.985      679
   11.000      717
   11.015      700
   11.030      644
   11.045      658
   11.060      684
   11.075      679
   11.090      701
   11.105      659
   11.120      627
   11.135      660
   11.150      657
   11.165      667
   11.180      651
   11.195      695
   11.210      695
   11.225      699
   11.240      697
   11.255      661
   11.270      738
   11.285      700
   11.300      686
   11.315      676
   11.330      654
   11.345      690
   11.360      679
   11.375      664
   11.390      650
   11.405      741
   11.420      692
   11.435      663
   11.450      689
   11.465      674
   11.480      667
   11.495      660
   11.510      723
   11.525      629
   11.540      721
   11.555      733
   11.570      683
   11.585      653
   11.600      669
   11.615      685
   11.630      666
   11.645      662
   11.660      636
   11.675      721
   11.690      707
   11.705      673
   11.720      688
   11.735      705
   11.750      722
   11.765      717
   11.780      691
   11.795      749
   11.810      668
   11.825      699
   11.840      706
   11.855      730
   11.870      721
   11.885      686
   11.900      705
   11.915      659
   11.930      674
   11.945      684
   11.960      657
   11.975      708
   11.990      744
   12.005      685
   12.020      714
   12.035      707
   12.050      666
   12.065      703
   12.080      654
   12.095      651
   12.110      682
   12.125      672
   12.140      686
   12.155      695
   12.170      703
   12.185      709
   12.200      720
   12.215      699
   12.230      703
   12.245      714
   12.260      695
   12.275      744
   12.290      813
   12.305      803
   12.320      811
   12.335      896
   12.350      976
   12.365     1075
   12.380     1207
   12.395     1319
   12.410     1578
   12.425     1856
   12.440     2087
   12.455     2103
   12.470     1870
   12.485     1571
   12.500     1247
   12.515     1011
   12.530      762
   12.545      706
   12.560      748
   12.575      738
   12.590      692
   12.605      739
   12.620      721
   12.635      688
   12.650      699
   12.665      741
   12.680      701
   12.695      721
   12.710      727
   12.725      740
   12.740      721
   12.755      766
   12.770      714
   12.785      737
   12.800      761
   12.815      730
   12.830      773
   12.845      759
   12.860      762
   12.875      700
   12.890      768
   12.905      763
   12.920      742
   12.935      754
   12.950      737
   12.965      758
   12.980      708
   12.995      745
   13.010      776
   13.025      785
   13.040      717
   13.055      723
   13.070      793
   13.085      707
   13.100      771
   13.115      698
   13.130      795
   13.145      720
   13.160      710
   13.175      761
   13.190      784
   13.205      751
   13.220      737
   13.235      723
   13.250      731
   13.265      730
   13.280      765
   13.295      761
   13.310      758
   13.325      744
   13.340      726
   13.355      718
   13.370      763
   13.385      761
   13.400      736
   13.415      686
   13.430      729
   13.445      754
   13.460      782
   13.475      725
   13.490      740
   13.505      753
   13.520      797
   13.535      745
   13.550      754
   13.565      763
   13.580      770
   13.595      749
   13.610      798
   13.625      830
   13.640      754
   13.655      853
   13.670      837
   13.685      852
   13.700      881
   13.715      978
   13.730      939
   13.745     1041
   13.760     1257
   13.775     1298
   13.790     1250
   13.805     1395
   13.820     1267
   13.835     1213
   13.850     1066
   13.865      900
   13.880      783
   13.895      751
   13.910      777
   13.925      757
   13.940      810
   13.955      782
   13.970      761
   13.985      781
   14.000      768
   14.015      807
   14.030      836
   14.045      839
   14.060      747
   14.075      808
   14.090      749
   14.105      780
   14.120      782
   14.135      842
   14.150      847
   14.165      759
   14.180      761
   14.195      795
   14.210      839
   14.225      825
   14.240      810
   14.255      826
   14.270      804
   14.285      803
   14.300      785
   14.315      771
   14.330      831
   14.345      853
   14.360      817
   14.375      812
   14.390      808
   14.405      809
   14.420      863
   14.435      900
   14.450      840
   14.465      831
   14.480      813
   14.495      759
   14.510      784
   14.525      811
   14.540      796
   14.555      867
   14.570      901
   14.585      847
   14.600      830
   14.615      893
   14.630      867
   14.645      854
   14.660      808
   14.675      849
   14.690      791
   14.705      835
   14.720      872
   14.735      834
   14.750      826
   14.765      825
   14.780      809
   14.795      831
   14.810      857
   14.825      862
   14.840      853
   14.855      895
   14.870      855
   14.885      886
   14.900      862
   14.915      844
   14.930      865
   14.945      877
   14.960      896
   14.975      863
   14.990      806
   15.005      838
   15.020      868
   15.035      872
   15.050      898
   15.065      905
   15.080      895
   15.095      860
   15.110      870
   15.125      891
   15.140      851
   15.155      882
   15.170      891
   15.185      858
   15.200      899
   15.215      919
   15.230      872
   15.245      884
   15.260      952
   15.275      916
   15.290      892
   15.305      875
   15.320      938
   15.335      909
   15.350      902
   15.365      871
   15.380      894
   15.395      882
   15.410      878
   15.425      915
   15.440      944
   15.455      879
   15.470      939
   15.485      941
   15.500      916
   15.515      890
   15.530      927
   15.545      905
   15.560      927
   15.575      938
   15.590      938
   15.605      950
   15.620      925
   15.635      930
   15.650      836
   15.665      978
   15.680      981
   15.695      909
   15.710      873
   15.725      962
   15.740      980
   15.755      970
   15.770      914
   15.785      936
   15.800      957
   15.815      991
   15.830      999
   15.845      998
   15.860      996
   15.875     1108
   15.890     1153
   15.905     1146
   15.920     1294
   15.935     1381
   15.950     1482
   15.965     1420
   15.980     1367
   15.995     1252
   16.010     1250
   16.025     1127
   16.040     1046
   16.055     1010
   16.070     1022
   16.085     1011
   16.100     1020
   16.115     1003
   16.130      972
   16.145      990
   16.160      976
   16.175      937
   16.190      901
   16.205     1009
   16.220     1017
   16.235     1007
   16.250      980
   16.265     1034
   16.280     1071
   16.295     1062
   16.310      989
   16.325      985
   16.340     1067
   16.355     1119
   16.370     1142
   16.385     1201
   16.400     1217
   16.415     1344
   16.430     1545
   16.445     1814
   16.460     1902
   16.475     1963
   16.490     1859
   16.505     1700
   16.520     1466
   16.535     1264
   16.550     1123
   16.565     1100
   16.580     1106
   16.595     1056
   16.610     1045
   16.625     1068
   16.640     1047
   16.655     1043
   16.670     1064
   16.685     1057
   16.700     1066
   16.715     1092
   16.730     1122
   16.745     1101
   16.760     1174
   16.775     1196
   16.790     1248
   16.805     1297
   16.820     1305
   16.835     1378
   16.850     1393
   16.865     1375
   16.880     1278
   16.895     1186
   16.910     1130
   16.925     1104
   16.940     1130
   16.955     1107
   16.970     1113
   16.985     1104
   17.000     1109
   17.015     1122
   17.030     1102
   17.045     1059
   17.060     1141
   17.075     1089
   17.090     1048
   17.105     1084
   17.120     1074
   17.135     1133
   17.150     1130
   17.165     1128
   17.180     1019
   17.195     1066
   17.210     1142
   17.225     1167
   17.240     1163
   17.255     1084
   17.270     1119
   17.285     1130
   17.300     1146
   17.315     1095
   17.330     1113
   17.345     1120
   17.360     1163
   17.375     1157
   17.390     1191
   17.405     1181
   17.420     1165
   17.435     1212
   17.450     1156
   17.465     1128
   17.480     1139
   17.495     1107
   17.510     1105
   17.525     1171
   17.540     1241
   17.555     1187
   17.570     1174
   17.585     1130
   17.600     1193
   17.615     1127
   17.630     1166
   17.645     1234
   17.660     1220
   17.675     1242
   17.690     1165
   17.705     1184
   17.720     1232
   17.735     1188
   17.750     1190
   17.765     1290
   17.780     1192
   17.795     1267
   17.810     1218
   17.825     1179
   17.840     1215
   17.855     1248
   17.870     1180
   17.885     1138
   17.900     1184
   17.915     1117
   17.930     1258
   17.945     1248
   17.960     1227
   17.975     1208
   17.990     1253
   18.005     1213
   18.020     1268
   18.035     1228
   18.050     1214
   18.065     1230
   18.080     1208
   18.095     1192
   18.110     1227
   18.125     1203
   18.140     1159
   18.155     1217
   18.170     1215
   18.185     1223
   18.200     1239
   18.215     1242
   18.230     1244
   18.245     1254
   18.260     1224
   18.275     1227
   18.290     1280
   18.305     1276
   18.320     1233
   18.335     1240
   18.350     1237
   18.365     1273
   18.380     1351
   18.395     1350
   18.410     1322
   18.425     1305
   18.440     1309
   18.455     1329
   18.470     1336
   18.485     1321
   18.500     1260
   18.515     1346
   18.530     1423
   18.545     1486
   18.560     1625
   18.575     1821
   18.590     2047
   18.605     2432
   18.620     3037
   18.635     3557
   18.650     3862
   18.665     4069
   18.680     3768
   18.695     3345
   18.710     2829
   18.725     2331
   18.740     1796
   18.755     1515
   18.770     1370
   18.785     1332
   18.800     1415
   18.815     1313
   18.830     1346
   18.845     1396
   18.860     1358
   18.875     1334
   18.890     1343
   18.905     1346
   18.920     1322
   18.935     1289
   18.950     1321
   18.965     1483
   18.980     1386
   18.995     1377
   19.010     1293
   19.025     1308
   19.040     1387
   19.055     1361
   19.070     1327
   19.085     1248
   19.100     1388
   19.115     1358
   19.130     1483
   19.145     1395
   19.160     1344
   19.175     1491
   19.190     1637
   19.205     1697
   19.220     1767
   19.235     1885
   19.250     2042
   19.265     1940
   19.280     1810
   19.295     1701
   19.310     1503
   19.325     1436
   19.340     1390
   19.355     1387
   19.370     1328
   19.385     1337
   19.400     1312
   19.415     1268
   19.430     1328
   19.445     1257
   19.460     1341
   19.475     1322
   19.490     1306
   19.505     1295
   19.520     1339
   19.535     1332
   19.550     1349
   19.565     1272
   19.580     1351
   19.595     1308
   19.610     1362
   19.625     1339
   19.640     1237
   19.655     1300
   19.670     1315
   19.685     1344
   19.700     1301
   19.715     1347
   19.730     1259
   19.745     1310
   19.760     1455
   19.775     1282
   19.790     1280
   19.805     1416
   19.820     1382
   19.835     1431
   19.850     1316
   19.865     1302
   19.880     1297
   19.895     1304
   19.910     1341
   19.925     1269
   19.940     1283
   19.955     1272
   19.970     1285
   19.985     1256
   20.000     1329
   20.015     1341
   20.030     1365
   20.045     1430
   20.060     1324
   20.075     1329
   20.090     1306
   20.105     1338
   20.120     1287
   20.135     1291
   20.150     1305
   20.165     1338
   20.180     1254
   20.195     1315
   20.210     1279
   20.225     1295
   20.240     1317
   20.255     1319
   20.270     1309
   20.285     1311
   20.300     1292
   20.315     1233
   20.330     1320
   20.345     1383
   20.360     1336
   20.375     1269
   20.390     1305
   20.405     1344
   20.420     1346
   20.435     1355
   20.450     1350
   20.465     1296
   20.480     1261
   20.495     1280
   20.510     1285
   20.525     1263
   20.540     1250
   20.555     1298
   20.570     1323
   20.585     1313
   20.600     1231
   20.615     1263
   20.630     1249
   20.645     1282
   20.660     1236
   20.675     1276
   20.690     1269
   20.705     1303
   20.720     1279
   20.735     1191
   20.750     1191
   20.765     1202
   20.780     1244
   20.795     1286
   20.810     1333
   20.825     1431
   20.840     1432
   20.855     1512
   20.870     1573
   20.885     1577
   20.900     1524
   20.915     1506
   20.930     1318
   20.945     1299
   20.960     1289
   20.975     1282
   20.990     1220
   21.005     1227
   21.020     1282
   21.035     1265
   21.050     1268
   21.065     1301
   21.080     1246
   21.095     1292
   21.110     1317
   21.125     1391
   21.140     1410
   21.155     1517
   21.170     1558
   21.185     1555
   21.200     1570
   21.215     1510
   21.230     1446
   21.245     1396
   21.260     1417
   21.275     1340
   21.290     1289
   21.305     1323
   21.320     1264
   21.335     1277
   21.350     1275
   21.365     1205
   21.380     1209
   21.395     1215
   21.410     1219
   21.425     1243
   21.440     1278
   21.455     1208
   21.470     1252
   21.485     1311
   21.500     1308
   21.515     1303
   21.530     1259
   21.545     1275
   21.560     1307
   21.575     1292
   21.590     1321
   21.605     1295
   21.620     1419
   21.635     1406
   21.650     1381
   21.665     1679
   21.680     1837
   21.695     2007
   21.710     2203
   21.725     2660
   21.740     2673
   21.755     2668
   21.770     2356
   21.785     2111
   21.800     1910
   21.815     1694
   21.830     1415
   21.845     1316
   21.860     1244
   21.875     1242
   21.890     1236
   21.905     1215
   21.920     1205
   21.935     1202
   21.950     1168
   21.965     1132
   21.980     1172
   21.995     1206
   22.010     1231
   22.025     1129
   22.040     1193
   22.055     1153
   22.070     1245
   22.085     1180
   22.100     1163
   22.115     1150
   22.130     1149
   22.145     1158
   22.160     1152
   22.175     1188
   22.190     1142
   22.205     1169
   22.220     1152
   22.235     1183
   22.250     1151
   22.265     1127
   22.280     1187
   22.295     1141
   22.310     1114
   22.325     1121
   22.340     1128
   22.355     1179
   22.370     1210
   22.385     1217
   22.400     1123
   22.415     1189
   22.430     1175
   22.445     1188
   22.460     1147
   22.475     1168
   22.490     1153
   22.505     1127
   22.520     1157
   22.535     1205
   22.550     1171
   22.565     1153
   22.580     1132
   22.595     1089
   22.610     1104
   22.625     1166
   22.640     1153
   22.655     1150
   22.670     1115
   22.685     1094
   22.700     1134
   22.715     1109
   22.730     1087
   22.745     1100
   22.760     1140
   22.775     1136
   22.790     1144
   22.805     1122
   22.820     1079
   22.835     1042
   22.850     1048
   22.865     1100
   22.880     1097
   22.895     1126
   22.910     1122
   22.925     1074
   22.940     1120
   22.955     1142
   22.970     1173
   22.985     1157
   23.000     1126
   23.015     1144
   23.030     1084
   23.045     1064
   23.060     1073
   23.075     1107
   23.090     1114
   23.105     1043
   23.120     1066
   23.135     1068
   23.150     1132
   23.165     1140
   23.180     1070
   23.195     1116
   23.210     1130
   23.225     1107
   23.240     1108
   23.255     1101
   23.270     1186
   23.285     1209
   23.300     1195
   23.315     1209
   23.330     1226
   23.345     1205
   23.360     1167
   23.375     1142
   23.390     1164
   23.405     1152
   23.420     1136
   23.435     1043
   23.450     1131
   23.465     1095
   23.480     1027
   23.495     1079
   23.510     1070
   23.525     1037
   23.540     1146
   23.555     1130
   23.570     1038
   23.585     1027
   23.600     1039
   23.615     1040
   23.630     1001
   23.645     1053
   23.660     1040
   23.675     1136
   23.690     1070
   23.705     1072
   23.720     1155
   23.735     1044
   23.750     1144
   23.765     1212
   23.780     1173
   23.795     1250
   23.810     1189
   23.825     1195
   23.840     1095
   23.855     1105
   23.870     1044
   23.885     1003
   23.900      995
   23.915      984
   23.930     1022
   23.945     1079
   23.960     1021
   23.975     1064
   23.990     1060
   24.005     1081
   24.020     1088
   24.035     1015
   24.050     1055
   24.065     1074
   24.080     1041
   24.095      990
   24.110     1039
   24.125     1010
   24.140      982
   24.155      978
   24.170      987
   24.185     1010
   24.200     1001
   24.215     1007
   24.230     1004
   24.245     1012
   24.260      985
   24.275      947
   24.290     1031
   24.305     1032
   24.320      974
   24.335     1014
   24.350     1011
   24.365      966
   24.380     1005
   24.395      993
   24.410     1012
   24.425     1035
   24.440      996
   24.455     1010
   24.470     1050
   24.485     1046
   24.500     1065
   24.515     1130
   24.530     1078
   24.545     1049
   24.560     1110
   24.575     1163
   24.590     1156
   24.605     1114
   24.620     1080
   24.635     1038
   24.650     1014
   24.665     1049
   24.680     1029
   24.695      995
   24.710     1000
   24.725     1049
   24.740     1001
   24.755      976
   24.770      998
   24.785      974
   24.800      999
   24.815      997
   24.830     1045
   24.845     1012
   24.860     1003
   24.875      993
   24.890     1005
   24.905      998
   24.920     1044
   24.935      975
   24.950      968
   24.965      995
   24.980      948
   24.995     1007
   25.010      979
   25.025     1003
   25.040      993
   25.055      997
   25.070     1038
   25.085      992
   25.100     1085
   25.115     1044
   25.130     1166
   25.145     1091
   25.160     1039
   25.175     1069
   25.190     1084
   25.205     1048
   25.220      929
   25.235      991
   25.250      952
   25.265      952
   25.280      972
   25.295     1007
   25.310      873
   25.325      976
   25.340     1002
   25.355      958
   25.370     1015
   25.385      986
   25.400      948
   25.415      942
   25.430      986
   25.445      982
   25.460     1063
   25.475     1051
   25.490      990
   25.505     1014
   25.520     1035
   25.535      968
   25.550      991
   25.565      911
   25.580      988
   25.595      963
   25.610      969
   25.625      992
   25.640      960
   25.655     1033
   25.670     1054
   25.685     1145
   25.700     1265
   25.715     1355
   25.730     1347
   25.745     1368
   25.760     1425
   25.775     1271
   25.790     1182
   25.805     1191
   25.820     1104
   25.835     1070
   25.850      988
   25.865      955
   25.880      983
   25.895      982
   25.910     1085
   25.925     1146
   25.940     1225
   25.955     1322
   25.970     1373
   25.985     1369
   26.000     1347
   26.015     1366
   26.030     1293
   26.045     1193
   26.060     1137
   26.075     1087
   26.090      993
   26.105     1002
   26.120      931
   26.135      930
   26.150      951
   26.165      942
   26.180      929
   26.195      933
   26.210      929
   26.225      945
   26.240      957
   26.255      925
   26.270      906
   26.285      924
   26.300      934
   26.315      888
   26.330      887
   26.345      960
   26.360      983
   26.375      966
   26.390      922
   26.405      941
   26.420      989
   26.435      983
   26.450      941
   26.465      943
   26.480      904
   26.495      886
   26.510      923
   26.525      922
   26.540      924
   26.555      938
   26.570      903
   26.585      903
   26.600      876
   26.615      910
   26.630      894
   26.645      919
   26.660      919
   26.675      910
   26.690      924
   26.705      951
   26.720      930
   26.735      891
   26.750      862
   26.765      862
   26.780      873
   26.795      893
   26.810      926
   26.825      929
   26.840      914
   26.855      944
   26.870      930
   26.885      979
   26.900      940
   26.915      944
   26.930      898
   26.945      924
   26.960      976
   26.975      944
   26.990      877
   27.005      846
   27.020      900
   27.035      904
   27.050      928
   27.065      952
   27.080      936
   27.095      879
   27.110      891
   27.125      954
   27.140      875
   27.155      917
   27.170      899
   27.185      933
   27.200      898
   27.215      904
   27.230      907
   27.245      902
   27.260      905
   27.275      887
   27.290      871
   27.305      948
   27.320      945
   27.335      915
   27.350      904
   27.365      835
   27.380      888
   27.395      887
   27.410      874
   27.425      896
   27.440      913
   27.455      875
   27.470      852
   27.485      915
   27.500      948
   27.515      901
   27.530      914
   27.545      858
   27.560      841
   27.575      838
   27.590      837
   27.605      848
   27.620      891
   27.635      945
   27.650      824
   27.665      891
   27.680      978
   27.695      920
   27.710      854
   27.725      959
   27.740      918
   27.755      875
   27.770      846
   27.785      901
   27.800      958
   27.815      959
   27.830     1003
   27.845     1032
   27.860     1052
   27.875     1044
   27.890     1118
   27.905     1049
   27.920     1025
   27.935     1055
   27.950     1012
   27.965      927
   27.980      873
   27.995      874
   28.010      918
   28.025      875
   28.040      853
   28.055      832
   28.070      901
   28.085      957
   28.100      990
   28.115      977
   28.130     1015
   28.145     1138
   28.160     1165
   28.175     1311
   28.190     1323
   28.205     1354
   28.220     1394
   28.235     1306
   28.250     1132
   28.265     1007
   28.280     1012
   28.295      948
   28.310      859
   28.325      864
   28.340      883
   28.355      875
   28.370      888
   28.385      905
   28.400      867
   28.415      887
   28.430      875
   28.445      866
   28.460      877
   28.475      875
   28.490      884
   28.505      880
   28.520      850
   28.535      856
   28.550      841
   28.565      905
   28.580      859
   28.595      893
   28.610      851
   28.625      857
   28.640      868
   28.655      871
   28.670      850
   28.685      850
   28.700      853
   28.715      873
   28.730      877
   28.745      868
   28.760      847
   28.775      868
   28.790      892
   28.805      931
   28.820      920
   28.835      915
   28.850      918
   28.865      951
   28.880      909
   28.895      896
   28.910      885
   28.925      869
   28.940      882
   28.955      865
   28.970      840
   28.985      854
   29.000      868
   29.015      913
   29.030      821
   29.045      852
   29.060      903
   29.075      877
   29.090      841
   29.105      845
   29.120      838
   29.135      849
   29.150      886
   29.165      858
   29.180      853
   29.195      841
   29.210      924
   29.225      878
   29.240      829
   29.255      802
   29.270      869
   29.285      865
   29.300      865
   29.315      801
   29.330      856
   29.345      844
   29.360      817
   29.375      855
   29.390      822
   29.405      867
   29.420      893
   29.435      875
   29.450      886
   29.465      923
   29.480      901
   29.495      913
   29.510      977
   29.525      957
   29.540      975
   29.555     1052
   29.570      916
   29.585      881
   29.600      947
   29.615      857
   29.630      860
   29.645      888
   29.660      912
   29.675      893
   29.690      820
   29.705      770
   29.720      830
   29.735      792
   29.750      857
   29.765      859
   29.780      817
   29.795      854
   29.810      825
   29.825      830
   29.840      827
   29.855      814
   29.870      814
   29.885      746
   29.900      767
   29.915      772
   29.930      832
   29.945      814
   29.960      752
   29.975      811
   29.990      822
   30.005      812
   30.020      823
   30.035      845
   30.050      777
   30.065      800
   30.080      806
   30.095      791
   30.110      785
   30.125      731
   30.140      751
   30.155      831
   30.170      852
   30.185      823
   30.200      817
   30.215      794
   30.230      798
   30.245      811
   30.260      794
   30.275      760
   30.290      773
   30.305      755
   30.320      790
   30.335      788
   30.350      802
   30.365      782
   30.380      817
   30.395      809
   30.410      789
   30.425      810
   30.440      780
   30.455      742
   30.470      754
   30.485      780
   30.500      775
   30.515      792
   30.530      778
   30.545      774
   30.560      787
   30.575      827
   30.590      820
   30.605      822
   30.620      852
   30.635      871
   30.650      881
   30.665      926
   30.680      947
   30.695      926
   30.710      928
   30.725      898
   30.740      876
   30.755      815
   30.770      815
   30.785      773
   30.800      800
   30.815      791
   30.830      799
   30.845      779
   30.860      741
   30.875      740
   30.890      775
   30.905      757
   30.920      762
   30.935      717
   30.950      801
   30.965      880
   30.980      850
   30.995      820
   31.010      758
   31.025      771
   31.040      859
   31.055      803
   31.070      822
   31.085      756
   31.100      896
   31.115      770
   31.130      760
   31.145      757
   31.160      759
   31.175      751
   31.190      779
   31.205      750
   31.220      737
   31.235      773
   31.250      779
   31.265      750
   31.280      732
   31.295      803
   31.310      736
   31.325      718
   31.340      752
   31.355      755
   31.370      808
   31.385      726
   31.400      795
   31.415      720
   31.430      763
   31.445      734
   31.460      788
   31.475      723
   31.490      726
   31.505      720
   31.520      742
   31.535      721
   31.550      735
   31.565      709
   31.580      718
   31.595      754
   31.610      749
   31.625      750
   31.640      681
   31.655      717
   31.670      756
   31.685      725
   31.700      723
   31.715      734
   31.730      729
   31.745      731
   31.760      742
   31.775      688
   31.790      699
   31.805      762
   31.820      739
   31.835      729
   31.850      755
   31.865      715
   31.880      705
   31.895      707
   31.910      714
   31.925      668
   31.940      707
   31.955      704
   31.970      731
   31.985      695
   32.000      709
   32.015      686
   32.030      700
   32.045      731
   32.060      748
   32.075      725
   32.090      733
   32.105      736
   32.120      696
   32.135      677
   32.150      728
   32.165      686
   32.180      666
   32.195      710
   32.210      735
   32.225      739
   32.240      703
   32.255      749
   32.270      761
   32.285      787
   32.300      829
   32.315      802
   32.330      889
   32.345      924
   32.360      939
   32.375      951
   32.390      957
   32.405      910
   32.420      904
   32.435      926
   32.450      852
   32.465      778
   32.480      735
   32.495      687
   32.510      705
   32.525      783
   32.540      784
   32.555      783
   32.570      853
   32.585      856
   32.600      847
   32.615      857
   32.630      821
   32.645      870
   32.660      840
   32.675      771
   32.690      725
   32.705      734
   32.720      748
   32.735      715
   32.750      670
   32.765      663
   32.780      676
   32.795      726
   32.810      741
   32.825      714
   32.840      679
   32.855      701
   32.870      715
   32.885      715
   32.900      668
   32.915      705
   32.930      689
   32.945      663
   32.960      694
   32.975      713
   32.990      684
   33.005      700
   33.020      663
   33.035      711
   33.050      703
   33.065      684
   33.080      707
   33.095      701
   33.110      672
   33.125      668
   33.140      682
   33.155      683
   33.170      662
   33.185      680
   33.200      722
   33.215      689
   33.230      631
   33.245      672
   33.260      749
   33.275      723
   33.290      703
   33.305      757
   33.320      744
   33.335      768
   33.350      835
   33.365      790
   33.380      878
   33.395      844
   33.410      826
   33.425      836
   33.440      798
   33.455      766
   33.470      728
   33.485      696
   33.500      716
   33.515      655
   33.530      661
   33.545      681
   33.560      670
   33.575      688
   33.590      684
   33.605      676
   33.620      650
   33.635      694
   33.650      646
   33.665      664
   33.680      708
   33.695      663
   33.710      636
   33.725      691
   33.740      718
   33.755      723
   33.770      690
   33.785      745
   33.800      714
   33.815      720
   33.830      687
   33.845      712
   33.860      709
   33.875      713
   33.890      718
   33.905      684
   33.920      652
   33.935      660
   33.950      622
   33.965      656
   33.980      657
   33.995      666
   34.010      688
   34.025      634
   34.040      652
   34.055      634
   34.070      688
   34.085      673
   34.100      759
   34.115      804
   34.130      767
   34.145      830
   34.160      838
   34.175      820
   34.190      753
   34.205      781
   34.220      716
   34.235      693
   34.250      678
   34.265      632
   34.280      639
   34.295      654
   34.310      651
   34.325      654
   34.340      695
   34.355      694
   34.370      741
   34.385      824
   34.400      793
   34.415      779
   34.430      802
   34.445      783
   34.460      738
   34.475      691
   34.490      669
   34.505      646
   34.520      642
   34.535      630
   34.550      644
   34.565      626
   34.580      615
   34.595      640
   34.610      653
   34.625      666
   34.640      646
   34.655      607
   34.670      604
   34.685      620
   34.700      619
   34.715      646
   34.730      638
   34.745      628
   34.760      603
   34.775      584
   34.790      591
   34.805      607
   34.820      621
   34.835      609
   34.850      621
   34.865      614
   34.880      637
   34.895      615
   34.910      636
   34.925      633
   34.940      649
   34.955      630
   34.970      622
   34.985      627
   35.000      636
   35.015      653
   35.030      607
   35.045      623
   35.060      637
   35.075      634
   35.090      637
   35.105      628
   35.120      630
   35.135      657
   35.150      619
   35.165      608
   35.180      613
   35.195      642
   35.210      634
   35.225      619
   35.240      556
   35.255      614
   35.270      664
   35.285      612
   35.300      650
   35.315      617
   35.330      609
   35.345      629
   35.360      617
   35.375      624
   35.390      681
   35.405      702
   35.420      632
   35.435      606
   35.450      660
   35.465      592
   35.480      578
   35.495      633
   35.510      590
   35.525      567
   35.540      626
   35.555      632
   35.570      585
   35.585      608
   35.600      629
   35.615      577
   35.630      598
   35.645      601
   35.660      638
   35.675      649
   35.690      628
   35.705      694
   35.720      705
   35.735      607
   35.750      632
   35.765      635
   35.780      614
   35.795      648
   35.810      588
   35.825      559
   35.840      595
   35.855      615
   35.870      612
   35.885      573
   35.900      573
   35.915      584
   35.930      599
   35.945      587
   35.960      577
   35.975      595
   35.990      599
   36.005      573
   36.020      597
   36.035      607
   36.050      578
   36.065      576
   36.080      568
   36.095      578
   36.110      595
   36.125      575
   36.140      567
   36.155      575
   36.170      562
   36.185      533
   36.200      596
   36.215      585
   36.230      603
   36.245      583
   36.260      550
   36.275      559
   36.290      587
   36.305      572
   36.320      603
   36.335      583
   36.350      537
   36.365      571
   36.380      621
   36.395      593
   36.410      578
   36.425      572
   36.440      572
   36.455      587
   36.470      585
   36.485      569
   36.500      564
   36.515      586
   36.530      559
   36.545      541
   36.560      549
   36.575      620
   36.590      612
   36.605      643
   36.620      654
   36.635      627
   36.650      618
   36.665      643
   36.680      665
   36.695      682
   36.710      659
   36.725      656
   36.740      677
   36.755      659
   36.770      644
   36.785      589
   36.800      556
   36.815      563
   36.830      592
   36.845      578
   36.860      630
   36.875      576
   36.890      635
   36.905      591
   36.920      582
   36.935      521
   36.950      590
   36.965      584
   36.980      557
   36.995      562
   37.010      527
   37.025      597
   37.040      558
   37.055      581
   37.070      595
   37.085      518
   37.100      575
   37.115      613
   37.130      620
   37.145      605
   37.160      582
   37.175      582
   37.190      637
   37.205      576
   37.220      577
   37.235      617
   37.250      606
   37.265      598
   37.280      611
   37.295      607
   37.310      558
   37.325      534
   37.340      544
   37.355      522
   37.370      614
   37.385      598
   37.400      590
   37.415      568
   37.430      565
   37.445      566
   37.460      569
   37.475      573
   37.490      617
   37.505      641
   37.520      641
   37.535      646
   37.550      653
   37.565      670
   37.580      661
   37.595      653
   37.610      633
   37.625      644
   37.640      553
   37.655      600
   37.670      604
   37.685      567
   37.700      579
   37.715      557
   37.730      530
   37.745      527
   37.760      551
   37.775      534
   37.790      526
   37.805      572
   37.820      589
   37.835      584
   37.850      611
   37.865      624
   37.880      604
   37.895      660
   37.910      660
   37.925      655
   37.940      708
   37.955      713
   37.970      700
   37.985      674
   38.000      638
   38.015      631
   38.030      640
   38.045      605
   38.060      541
   38.075      564
   38.090      534
   38.105      598
   38.120      575
   38.135      573
   38.150      601
   38.165      577
   38.180      559
   38.195      562
   38.210      573
   38.225      614
   38.240      583
   38.255      546
   38.270      524
   38.285      568
   38.300      587
   38.315      532
   38.330      555
   38.345      600
   38.360      575
   38.375      555
   38.390      577
   38.405      603
   38.420      587
   38.435      573
   38.450      568
   38.465      540
   38.480      555
   38.495      549
   38.510      558
   38.525      555
   38.540      538
   38.555      540
   38.570      549
   38.585      554
   38.600      549
   38.615      568
   38.630      528
   38.645      551
   38.660      569
   38.675      543
   38.690      529
   38.705      555
   38.720      547
   38.735      568
   38.750      561
   38.765      521
   38.780      536
   38.795      559
   38.810      546
   38.825      542
   38.840      545
   38.855      572
   38.870      571
   38.885      595
   38.900      570
   38.915      569
   38.930      546
   38.945      540
   38.960      542
   38.975      553
   38.990      532
   39.005      524
   39.020      576
   39.035      577
   39.050      553
   39.065      524
   39.080      539
   39.095      517
   39.110      556
   39.125      560
   39.140      514
   39.155      575
   39.170      586
   39.185      544
   39.200      539
   39.215      566
   39.230      587
   39.245      559
   39.260      547
   39.275      535
   39.290      531
   39.305      549
   39.320      538
   39.335      568
   39.350      594
   39.365      554
   39.380      511
   39.395      550
   39.410      548
   39.425      532
   39.440      566
   39.455      531
   39.470      522
   39.485      559
   39.500      556
   39.515      545
   39.530      529
   39.545      492
   39.560      539
   39.575      483
   39.590      498
   39.605      528
   39.620      521
   39.635      542
   39.650      516
   39.665      520
   39.680      509
   39.695      530
   39.710      546
   39.725      555
   39.740      547
   39.755      560
   39.770      524
   39.785      529
   39.800      564
   39.815      555
   39.830      557
   39.845      519
   39.860      531
   39.875      540
   39.890      539
   39.905      501
   39.920      521
   39.935      545
   39.950      510
   39.965      499
   39.980      527
   39.995      523
   40.010      530
   40.025      531
   40.040      516
   40.055      569
   40.070      549
   40.085      541
   40.100      566
   40.115      578
   40.130      554
   40.145      578
   40.160      555
   40.175      567
   40.190      515
   40.205      549
   40.220      522
   40.235      510
   40.250      503
   40.265      515
   40.280      548
   40.295      517
   40.310      502
   40.325      515
   40.340      545
   40.355      509
   40.370      511
   40.385      532
   40.400      531
   40.415      551
   40.430      526
   40.445      549
   40.460      593
   40.475      622
   40.490      638
   40.505      683
   40.520      708
   40.535      735
   40.550      748
   40.565      727
   40.580      661
   40.595      660
   40.610      663
   40.625      635
   40.640      582
   40.655      571
   40.670      554
   40.685      551
   40.700      557
   40.715      578
   40.730      576
   40.745      571
   40.760      556
   40.775      557
   40.790      524
   40.805      563
   40.820      552
   40.835      556
   40.850      552
   40.865      539
   40.880      528
   40.895      539
   40.910      551
   40.925      521
   40.940      517
   40.955      513
   40.970      540
   40.985      580
   41.000      563
   41.015      557
   41.030      546
   41.045      549
   41.060      545
   41.075      537
   41.090      531
   41.105      530
   41.120      521
   41.135      555
   41.150      541
   41.165      547
   41.180      518
   41.195      529
   41.210      517
   41.225      537
   41.240      540
   41.255      546
   41.270      505
   41.285      534
   41.300      522
   41.315      520
   41.330      514
   41.345      528
   41.360      535
   41.375      500
   41.390      496
   41.405      546
   41.420      544
   41.435      507
   41.450      540
   41.465      510
   41.480      505
   41.495      495
   41.510      501
   41.525      566
   41.540      560
   41.555      657
   41.570      654
   41.585      654
   41.600      668
   41.615      629
   41.630      719
   41.645      741
   41.660      754
   41.675      715
   41.690      703
   41.705      727
   41.720      685
   41.735      634
   41.750      610
   41.765      607
   41.780      592
   41.795      579
   41.810      590
   41.825      557
   41.840      578
   41.855      547
   41.870      587
   41.885      559
   41.900      578
   41.915      559
   41.930      604
   41.945      637
   41.960      672
   41.975      673
   41.990      664
   42.005      650
   42.020      640
   42.035      631
   42.050      564
   42.065      588
   42.080      568
   42.095      531
   42.110      561
   42.125      531
   42.140      513
   42.155      560
   42.170      551
   42.185      586
   42.200      586
   42.215      608
   42.230      603
   42.245      577
   42.260      574
   42.275      588
   42.290      564
   42.305      601
   42.320      583
   42.335      553
   42.350      565
   42.365      553
   42.380      617
   42.395      580
   42.410      547
   42.425      565
   42.440      558
   42.455      543
   42.470      559
   42.485      549
   42.500      552
   42.515      570
   42.530      547
   42.545      575
   42.560      568
   42.575      589
   42.590      608
   42.605      568
   42.620      544
   42.635      550
   42.650      511
   42.665      517
   42.680      535
   42.695      513
   42.710      507
   42.725      516
   42.740      532
   42.755      553
   42.770      530
   42.785      488
   42.800      506
   42.815      488
   42.830      514
   42.845      525
   42.860      525
   42.875      524
   42.890      504
   42.905      541
   42.920      502
   42.935      489
   42.950      498
   42.965      487
   42.980      514
   42.995      500
   43.010      508
   43.025      556
   43.040      521
   43.055      522
   43.070      501
   43.085      489
   43.100      542
   43.115      514
   43.130      581
   43.145      596
   43.160      528
   43.175      522
   43.190      580
   43.205      512
   43.220      532
   43.235      586
   43.250      535
   43.265      548
   43.280      569
   43.295      569
   43.310      505
   43.325      574
   43.340      548
   43.355      566
   43.370      608
   43.385      578
   43.400      558
   43.415      534
   43.430      475
   43.445      496
   43.460      545
   43.475      527
   43.490      556
   43.505      552
   43.520      526
   43.535      516
   43.550      543
   43.565      489
   43.580      535
   43.595      508
   43.610      554
   43.625      550
   43.640      534
   43.655      493
   43.670      529
   43.685      533
   43.700      494
   43.715      501
   43.730      495
   43.745      501
   43.760      520
   43.775      477
   43.790      488
   43.805      533
   43.820      523
   43.835      491
   43.850      528
   43.865      503
   43.880      508
   43.895      498
   43.910      516
   43.925      489
   43.940      493
   43.955      528
   43.970      507
   43.985      532
