    2.000      430
    2.015      459
    2.030      478
    2.045      458
    2.060      442
    2.075      447
    2.090      433
    2.105      484
    2.120      421
    2.135      463
    2.150      502
    2.165      470
    2.180      435
    2.195      421
    2.210      423
    2.225      451
    2.240      442
    2.255      430
    2.270      433
    2.285      432
    2.300      441
    2.315      418
    2.330      438
    2.345      455
    2.360      455
    2.375      446
    2.390      473
    2.405      475
    2.420      444
    2.435      443
    2.450      429
    2.465      427
    2.480      428
    2.495      426
    2.510      429
    2.525      438
    2.540      461
    2.555      454
    2.570      416
    2.585      415
    2.600      428
    2.615      468
    2.630      458
    2.645      442
    2.660      454
    2.675      458
    2.690      420
    2.705      411
    2.720      437
    2.735      456
    2.750      439
    2.765      443
    2.780      462
    2.795      480
    2.810      447
    2.825      452
    2.840      450
    2.855      455
    2.870      469
    2.885      464
    2.900      428
    2.915      429
    2.930      411
    2.945      459
    2.960      485
    2.975      469
    2.990      451
    3.005      448
    3.020      454
    3.035      441
    3.050      435
    3.065      444
    3.080      456
    3.095      429
    3.110      465
    3.125      457
    3.140      440
    3.155      452
    3.170      471
    3.185      421
    3.200      445
    3.215      462
    3.230      472
    3.245      437
    3.260      473
    3.275      457
    3.290      449
    3.305      474
    3.320      476
    3.335      483
    3.350      486
    3.365      426
    3.380      454
    3.395      493
    3.410      431
    3.425      449
    3.440      452
    3.455      488
    3.470      451
    3.485      481
    3.500      469
    3.515      443
    3.530      447
    3.545      457
    3.560      473
    3.575      454
    3.590      445
    3.605      445
    3.620      461
    3.635      472
    3.650      461
    3.665      473
    3.680      496
    3.695      440
    3.710      444
    3.725      466
    3.740      464
    3.755      454
    3.770      434
    3.785      440
    3.800      465
    3.815      467
    3.830      472
    3.845      506
    3.860      431
    3.875      447
    3.890      459
    3.905      475
    3.920      444
    3.935      439
    3.950      404
    3.965      420
    3.980      480
    3.995      444
    4.010      454
    4.025      473
    4.040      443
    4.055      444
    4.070      451
    4.085      485
    4.100      450
    4.115      469
    4.130      477
    4.145      453
    4.160      420
    4.175      447
    4.190      442
    4.205      486
    4.220      479
    4.235      476
    4.250      473
    4.265      501
    4.280      468
    4.295      451
    4.310      448
    4.325      459
    4.340      487
    4.355      463
    4.370      466
    4.385      438
    4.400      419
    4.415      447
    4.430      461
    4.445      459
    4.460      475
    4.475      489
    4.490      458
    4.505      476
    4.520      480
    4.535      466
    4.550      474
    4.565      457
    4.580      438
    4.595      431
    4.610      462
    4.625      466
    4.640      451
    4.655      442
    4.670      430
    4.685      450
    4.700      451
    4.715      456
    4.730      466
    4.745      462
    4.760      461
    4.775      449
    4.790      468
    4.805      465
    4.820      452
    4.835      451
    4.850      423
    4.865      432
    4.880      456
    4.895      466
    4.910      453
    4.925      456
    4.940      478
    4.955      474
    4.970      501
    4.985      475
    5.000      461
    5.015      463
    5.030      447
    5.045      455
    5.060      466
    5.075      435
    5.090      480
    5.105      471
    5.120      438
    5.135      435
    5.150      441
    5.165      448
    5.180      462
    5.195      465
    5.210      479
    5.225      461
    5.240      431
    5.255      459
    5.270      469
    5.285      465
    5.300      524
    5.315      451
    5.330      440
    5.345      444
    5.360      448
    5.375      467
    5.390      458
    5.405      481
    5.420      509
    5.435      412
    5.450      489
    5.465      449
    5.480      417
    5.495      436
    5.510      424
    5.525      433
    5.540      445
    5.555      459
    5.570      451
    5.585      444
    5.600      445
    5.615      413
    5.630      420
    5.645      452
    5.660      445
    5.675      450
    5.690      466
    5.705      469
    5.720      428
    5.735      450
    5.750      429
    5.765      460
    5.780      436
    5.795      484
    5.810      448
    5.825      468
    5.840      453
    5.855      455
    5.870      422
    5.885      441
    5.900      442
    5.915      424
    5.930      445
    5.945      463
    5.960      435
    5.975      458
    5.990      476
    6.005      461
    6.020      459
    6.035      435
    6.050      420
    6.065      467
    6.080      460
    6.095      474
    6.110      432
    6.125      417
    6.140      452
    6.155      444
    6.170      445
    6.185      442
    6.200      439
    6.215      444
    6.230      445
    6.245      463
    6.260      453
    6.275      463
    6.290      475
    6.305      458
    6.320      465
    6.335      471
    6.350      492
    6.365      431
    6.380      451
    6.395      470
    6.410      449
    6.425      455
    6.440      445
    6.455      455
    6.470      480
    6.485      461
    6.500      470
    6.515      478
    6.530      454
    6.545      450
    6.560      464
    6.575      471
    6.590      464
    6.605      478
    6.620      439
    6.635      387
    6.650      451
    6.665      460
    6.680      458
    6.695      473
    6.710      464
    6.725      469
    6.740      454
    6.755      450
    6.770      446
    6.785      450
    6.800      450
    6.815      415
    6.830      459
    6.845      448
    6.860      437
    6.875      438
    6.890      480
    6.905      467
    6.920      437
    6.935      441
    6.950      438
    6.965      480
    6.980      511
    6.995      436
    7.010      472
    7.025      452
    7.040      428
    7.055      458
    7.070      462
    7.085      421
    7.100      488
    7.115      437
    7.130      479
    7.145      486
    7.160      426
    7.175      491
    7.190      501
    7.205      483
    7.220      444
    7.235      483
    7.250      437
    7.265      488
    7.280      462
    7.295      493
    7.310      444
    7.325      428
    7.340      456
    7.355      477
    7.370      501
    7.385      455
    7.400      489
    7.415      462
    7.430      445
    7.445      452
    7.460      453
    7.475      464
    7.490      480
    7.505      498
    7.520      432
    7.535      486
    7.550      456
    7.565      479
    7.580      470
    7.595      463
    7.610      462
    7.625      449
    7.640      434
    7.655      440
    7.670      458
    7.685      467
    7.700      453
    7.715      444
    7.730      454
    7.745      467
    7.760      443
    7.775      450
    7.790      453
    7.805      487
    7.820      506
    7.835      486
    7.850      487
    7.865      496
    7.880      505
    7.895      490
    7.910      516
    7.925      508
    7.940      522
    7.955      484
    7.970      480
    7.985      450
    8.000      461
    8.015      486
    8.030      475
    8.045      462
    8.060      470
    8.075      454
    8.090      458
    8.105      472
    8.120      472
    8.135      465
    8.150      464
    8.165      444
    8.180      424
    8.195      420
    8.210      449
    8.225      472
    8.240      479
    8.255      468
    8.270      451
    8.285      464
    8.300      473
    8.315      418
    8.330      461
    8.345      507
    8.360      472
    8.375      452
    8.390      477
    8.405      464
    8.420      469
    8.435      503
    8.450      490
    8.465      462
    8.480      451
    8.495      437
    8.510      479
    8.525      502
    8.540      468
    8.555      472
    8.570      462
    8.585      445
    8.600      455
    8.615      461
    8.630      464
    8.645      449
    8.660      433
    8.675      457
    8.690      462
    8.705      449
    8.720      454
    8.735      449
    8.750      452
    8.765      489
    8.780      481
    8.795      480
    8.810      447
    8.825      461
    8.840      492
    8.855      485
    8.870      508
    8.885      490
    8.900      505
    8.915      476
    8.930      500
    8.945      534
    8.960      540
    8.975      551
    8.990      577
    9.005      636
    9.020      664
    9.035      695
    9.050      752
    9.065      833
    9.080      910
    9.095      965
    9.110     1133
    9.125     1303
    9.140     1415
    9.155     1716
    9.170     1983
    9.185     2427
    9.200     2961
    9.215     3704
    9.230     4662
    9.245     5721
    9.260     6289
    9.275     5169
    9.290     4413
    9.305     3337
    9.320     2018
    9.335     1012
    9.350      658
    9.365      634
    9.380      595
    9.395      658
    9.410      628
    9.425      642
    9.440      723
    9.455      787
    9.470      798
    9.485     1003
    9.500     1140
    9.515     1327
    9.530     1553
    9.545     1629
    9.560     1489
    9.575     1370
    9.590     1105
    9.605      885
    9.620      636
    9.635      565
    9.650      466
    9.665      500
    9.680      501
    9.695      457
    9.710      471
    9.725      516
    9.740      480
    9.755      504
    9.770      471
    9.785      496
    9.800      475
    9.815      480
    9.830      486
    9.845      500
    9.860      467
    9.875      523
    9.890      506
    9.905      454
    9.920      493
    9.935      448
    9.950      463
    9.965      446
    9.980      461
    9.995      450
   10.010      483
   10.025      490
   10.040      497
   10.055      467
   10.070      479
   10.085      459
   10.100      433
   10.115      476
   10.130      456
   10.145      455
   10.160      473
   10.175      483
   10.190      450
   10.205      493
   10.220      468
   10.235      452
   10.250      475
   10.265      481
   10.280      502
   10.295      487
   10.310      472
   10.325      457
   10.340      484
   10.355      506
   10.370      504
   10.385      498
   10.400      468
   10.415      451
   10.430      466
   10.445      456
   10.460      451
   10.475      477
   10.490      455
   10.505      451
   10.520      500
   10.535      494
   10.550      478
   10.565      462
   10.580      450
   10.595      448
   10.610      465
   10.625      450
   10.640      462
   10.655      491
   10.670      484
   10.685      460
   10.700      477
   10.715      510
   10.730      507
   10.745      495
   10.760      489
   10.775      482
   10.790      451
   10.805      487
   10.820      457
   10.835      451
   10.850      443
   10.865      486
   10.880      509
   10.895      477
   10.910      506
   10.925      482
   10.940      492
   10.955      461
   10.970      491
   10.985      485
   11.000      493
   11.015      463
   11.030      436
   11.045      451
   11.060      473
   11.075      504
   11.090      487
   11.105      471
   11.120      457
   11.135      466
   11.150      472
   11.165      476
   11.180      438
   11.195      471
   11.210      451
   11.225      440
   11.240      462
   11.255      483
   11.270      505
   11.285      492
   11.300      502
   11.315      450
   11.330      477
   11.345      497
   11.360      472
   11.375      448
   11.390      475
   11.405      493
   11.420      508
   11.435      475
   11.450      489
   11.465      449
   11.480      439
   11.495      478
   11.510      496
   11.525      467
   11.540      503
   11.555      461
   11.570      466
   11.585      445
   11.600      513
   11.615      443
   11.630      467
   11.645      503
   11.660      483
   11.675      497
   11.690      493
   11.705      474
   11.720      497
   11.735      459
   11.750      449
   11.765      459
   11.780      435
   11.795      466
   11.810      473
   11.825      471
   11.840      494
   11.855      502
   11.870      541
   11.885      485
   11.900      459
   11.915      452
   11.930      485
   11.945      498
   11.960      484
   11.975      474
   11.990      478
   12.005      458
   12.020      490
   12.035      482
   12.050      479
   12.065      494
   12.080      488
   12.095      441
   12.110      430
   12.125      482
   12.140      457
   12.155      473
   12.170      492
   12.185      506
   12.200      497
   12.215      490
   12.230      497
   12.245      471
   12.260      502
   12.275      505
   12.290      544
   12.305      591
   12.320      608
   12.335      673
   12.350      718
   12.365      845
   12.380      961
   12.395     1088
   12.410     1419
   12.425     1726
   12.440     1853
   12.455     1899
   12.470     1695
   12.485     1425
   12.500     1120
   12.515      838
   12.530      597
   12.545      541
   12.560      517
   12.575      495
   12.590      499
   12.605      503
   12.620      513
   12.635      477
   12.650      482
   12.665      498
   12.680      474
   12.695      483
   12.710      490
   12.725      510
   12.740      506
   12.755      500
   12.770      494
   12.785      480
   12.800      506
   12.815      491
   12.830      507
   12.845      495
   12.860      505
   12.875      478
   12.890      449
   12.905      492
   12.920      486
   12.935      482
   12.950      490
   12.965      519
   12.980      537
   12.995      483
   13.010      486
   13.025      505
   13.040      449
   13.055      498
   13.070      479
   13.085      434
   13.100      524
   13.115      493
   13.130      501
   13.145      461
   13.160      463
   13.175      523
   13.190      552
   13.205      507
   13.220      487
   13.235      532
   13.250      509
   13.265      495
   13.280      495
   13.295      481
   13.310      497
   13.325      472
   13.340      478
   13.355      485
   13.370      535
   13.385      499
   13.400      469
   13.415      484
   13.430      531
   13.445      498
   13.460      541
   13.475      481
   13.490      466
   13.505      509
   13.520      469
   13.535      512
   13.550      514
   13.565      519
   13.580      533
   13.595      486
   13.610      491
   13.625      525
   13.640      492
   13.655      519
   13.670      545
   13.685      518
   13.700      591
   13.715      622
   13.730      675
   13.745      745
   13.760      916
   13.775      984
   13.790     1027
   13.805     1155
   13.820     1016
   13.835      954
   13.850      836
   13.865      662
   13.880      544
   13.895      505
   13.910      485
   13.925      468
   13.940      487
   13.955      512
   13.970      504
   13.985      516
   14.000      510
   14.015      527
   14.030      528
   14.045      503
   14.060      532
   14.075      545
   14.090      486
   14.105      484
   14.120      491
   14.135      519
   14.150      544
   14.165      511
   14.180      472
   14.195      469
   14.210      501
   14.225      509
   14.240      507
   14.255      522
   14.270      497
   14.285      470
   14.300      537
   14.315      508
   14.330      513
   14.345      533
   14.360      526
   14.375      508
   14.390      516
   14.405      541
   14.420      562
   14.435      565
   14.450      543
   14.465      516
   14.480      510
   14.495      494
   14.510      513
   14.525      493
   14.540      507
   14.555      533
   14.570      502
   14.585      469
   14.600      479
   14.615      537
   14.630      546
   14.645      543
   14.660      523
   14.675      522
   14.690      527
   14.705      533
   14.720      547
   14.735      533
   14.750      535
   14.765      528
   14.780      559
   14.795      539
   14.810      532
   14.825      523
   14.840      533
   14.855      545
   14.870      535
   14.885      553
   14.900      560
   14.915      557
   14.930      528
   14.945      536
   14.960      564
   14.975      545
   14.990      529
   15.005      543
   15.020      563
   15.035      580
   15.050      554
   15.065      529
   15.080      557
   15.095      495
   15.110      541
   15.125      539
   15.140      547
   15.155      539
   15.170      519
   15.185      542
   15.200      533
   15.215      545
   15.230      549
   15.245      512
   15.260      584
   15.275      563
   15.290      531
   15.305      548
   15.320      546
   15.335      543
   15.350      554
   15.365      559
   15.380      555
   15.395      546
   15.410      541
   15.425      559
   15.440      527
   15.455      572
   15.470      529
   15.485      564
   15.500      567
   15.515      530
   15.530      540
   15.545      499
   15.560      521
   15.575      553
   15.590      573
   15.605      563
   15.620      561
   15.635      528
   15.650      540
   15.665      592
   15.680      536
   15.695      539
   15.710      531
   15.725      550
   15.740      621
   15.755      571
   15.770      595
   15.785      599
   15.800      607
   15.815      638
   15.830      623
   15.845      630
   15.860      628
   15.875      689
   15.890      726
   15.905      822
   15.920      895
   15.935      971
   15.950     1055
   15.965     1061
   15.980     1019
   15.995      908
   16.010      866
   16.025      727
   16.040      635
   16.055      594
   16.070      568
   16.085      557
   16.100      588
   16.115      647
   16.130      589
   16.145      539
   16.160      564
   16.175      610
   16.190      574
   16.205      577
   16.220      551
   16.235      562
   16.250      555
   16.265      598
   16.280      601
   16.295      554
   16.310      575
   16.325      629
   16.340      616
   16.355      625
   16.370      695
   16.385      780
   16.400      823
   16.415      934
   16.430     1116
   16.445     1334
   16.460     1457
   16.475     1531
   16.490     1469
   16.505     1271
   16.520     1061
   16.535      851
   16.550      735
   16.565      658
   16.580      580
   16.595      602
   16.610      612
   16.625      589
   16.640      602
   16.655      595
   16.670      569
   16.685      603
   16.700      622
   16.715      634
   16.730      614
   16.745      603
   16.760      680
   16.775      722
   16.790      800
   16.805      864
   16.820      903
   16.835      924
   16.850      905
   16.865      909
   16.880      906
   16.895      850
   16.910      704
   16.925      622
   16.940      620
   16.955      624
   16.970      646
   16.985      618
   17.000      613
   17.015      624
   17.030      599
   17.045      607
   17.060      623
   17.075      626
   17.090      613
   17.105      607
   17.120      597
   17.135      603
   17.150      612
   17.165      582
   17.180      615
   17.195      576
   17.210      613
   17.225      617
   17.240      583
   17.255      628
   17.270      637
   17.285      633
   17.300      661
   17.315      624
   17.330      618
   17.345      640
   17.360      629
   17.375      627
   17.390      631
   17.405      646
   17.420      627
   17.435      577
   17.450      627
   17.465      616
   17.480      613
   17.495      633
   17.510      657
   17.525      613
   17.540      679
   17.555      628
   17.570      636
   17.585      596
   17.600      680
   17.615      599
   17.630      609
   17.645      622
   17.660      628
   17.675      661
   17.690      607
   17.705      608
   17.720      693
   17.735      617
   17.750      634
   17.765      641
   17.780      636
   17.795      679
   17.810      653
   17.825      660
   17.840      619
   17.855      638
   17.870      600
   17.885      626
   17.900      628
   17.915      614
   17.930      627
   17.945      631
   17.960      635
   17.975      660
   17.990      681
   18.005      675
   18.020      675
   18.035      635
   18.050      593
   18.065      649
   18.080      652
   18.095      612
   18.110      655
   18.125      669
   18.140      635
   18.155      653
   18.170      657
   18.185      672
   18.200      701
   18.215      705
   18.230      667
   18.245      648
   18.260      649
   18.275      647
   18.290      640
   18.305      655
   18.320      683
   18.335      655
   18.350      691
   18.365      667
   18.380      640
   18.395      625
   18.410      642
   18.425      648
   18.440      650
   18.455      680
   18.470      713
   18.485      702
   18.500      692
   18.515      766
   18.530      773
   18.545      864
   18.560      974
   18.575     1191
   18.590     1428
   18.605     1759
   18.620     2387
   18.635     2932
   18.650     3429
   18.665     3737
   18.680     3501
   18.695     2970
   18.710     2384
   18.725     1840
   18.740     1186
   18.755      932
   18.770      763
   18.785      709
   18.800      749
   18.815      689
   18.830      713
   18.845      706
   18.860      687
   18.875      648
   18.890      717
   18.905      735
   18.920      719
   18.935      700
   18.950      715
   18.965      777
   18.980      736
   18.995      690
   19.010      644
   19.025      717
   19.040      699
   19.055      723
   19.070      672
   19.085      633
   19.100      761
   19.115      724
   19.130      765
   19.145      792
   19.160      756
   19.175      829
   19.190      912
   19.205     1024
   19.220     1169
   19.235     1297
   19.250     1322
   19.265     1293
   19.280     1199
   19.295     1158
   19.310      843
   19.325      800
   19.340      709
   19.355      682
   19.370      723
   19.385      713
   19.400      732
   19.415      677
   19.430      696
   19.445      630
   19.460      661
   19.475      688
   19.490      706
   19.505      717
   19.520      697
   19.535      697
   19.550      718
   19.565      665
   19.580      653
   19.595      684
   19.610      678
   19.625      714
   19.640      648
   19.655      708
   19.670      689
   19.685      652
   19.700      660
   19.715      690
   19.730      674
   19.745      670
   19.760      707
   19.775      663
   19.790      644
   19.805      671
   19.820      671
   19.835      686
   19.850      664
   19.865      675
   19.880      672
   19.895      650
   19.910      661
   19.925      671
   19.940      620
   19.955      619
   19.970      635
   19.985      681
   20.000      629
   20.015      692
   20.030      708
   20.045      731
   20.060      675
   20.075      655
   20.090      620
   20.105      657
   20.120      670
   20.135      625
   20.150      696
   20.165      691
   20.180      615
   20.195      672
   20.210      685
   20.225      699
   20.240      670
   20.255      679
   20.270      665
   20.285      679
   20.300      662
   20.315      632
   20.330      679
   20.345      689
   20.360      700
   20.375      708
   20.390      685
   20.405      677
   20.420      684
   20.435      713
   20.450      683
   20.465      649
   20.480      677
   20.495      674
   20.510      668
   20.525      687
   20.540      699
   20.555      690
   20.570      654
   20.585      690
   20.600      650
   20.615      665
   20.630      676
   20.645      715
   20.660      682
   20.675      670
   20.690      681
   20.705      686
   20.720      678
   20.735      647
   20.750      645
   20.765      651
   20.780      705
   20.795      749
   20.810      717
   20.825      813
   20.840      848
   20.855      880
   20.870      931
   20.885      981
   20.900      924
   20.915      842
   20.930      770
   20.945      712
   20.960      692
   20.975      659
   20.990      643
   21.005      663
   21.020      653
   21.035      682
   21.050      693
   21.065      645
   21.080      675
   21.095      670
   21.110      740
   21.125      773
   21.140      814
   21.155      883
   21.170      937
   21.185      978
   21.200     1025
   21.215      976
   21.230      939
   21.245      869
   21.260      823
   21.275      719
   21.290      689
   21.305      672
   21.320      682
   21.335      679
   21.350      671
   21.365      620
   21.380      648
   21.395      658
   21.410      664
   21.425      664
   21.440      668
   21.455      693
   21.470      643
   21.485      685
   21.500      734
   21.515      658
   21.530      693
   21.545      739
   21.560      736
   21.575      741
   21.590      789
   21.605      773
   21.620      791
   21.635      852
   21.650      872
   21.665      990
   21.680     1116
   21.695     1400
   21.710     1713
   21.725     2183
   21.740     2240
   21.755     2236
   21.770     2033
   21.785     1755
   21.800     1482
   21.815     1230
   21.830      878
   21.845      719
   21.860      639
   21.875      645
   21.890      647
   21.905      657
   21.920      676
   21.935      655
   21.950      656
   21.965      636
   21.980      628
   21.995      642
   22.010      633
   22.025      666
   22.040      642
   22.055      641
   22.070      697
   22.085      630
   22.100      654
   22.115      641
   22.130      590
   22.145      592
   22.160      639
   22.175      658
   22.190      624
   22.205      695
   22.220      637
   22.235      648
   22.250      617
   22.265      588
   22.280      616
   22.295      598
   22.310      602
   22.325      605
   22.340      611
   22.355      632
   22.370      606
   22.385      639
   22.400      638
   22.415      642
   22.430      635
   22.445      649
   22.460      658
   22.475      657
   22.490      607
   22.505      591
   22.520      614
   22.535      625
   22.550      642
   22.565      663
   22.580      630
   22.595      646
   22.610      618
   22.625      638
   22.640      643
   22.655      639
   22.670      610
   22.685      608
   22.700      576
   22.715      615
   22.730      613
   22.745      609
   22.760      607
   22.775      614
   22.790      615
   22.805      627
   22.820      617
   22.835      598
   22.850      605
   22.865      609
   22.880      629
   22.895      633
   22.910      635
   22.925      607
   22.940      656
   22.955      633
   22.970      630
   22.985      629
   23.000      586
   23.015      621
   23.030      599
   23.045      621
   23.060      624
   23.075      587
   23.090      585
   23.105      584
   23.120      596
   23.135      600
   23.150      610
   23.165      645
   23.180      607
   23.195      610
   23.210      620
   23.225      646
   23.240      602
   23.255      621
   23.270      676
   23.285      678
   23.300      734
   23.315      710
   23.330      764
   23.345      746
   23.360      688
   23.375      655
   23.390      677
   23.405      690
   23.420      610
   23.435      613
   23.450      622
   23.465      621
   23.480      631
   23.495      648
   23.510      562
   23.525      535
   23.540      612
   23.555      657
   23.570      594
   23.585      599
   23.600      581
   23.615      571
   23.630      561
   23.645      567
   23.660      625
   23.675      626
   23.690      598
   23.705      602
   23.720      667
   23.735      670
   23.750      673
   23.765      716
   23.780      728
   23.795      802
   23.810      754
   23.825      745
   23.840      718
   23.855      723
   23.870      645
   23.885      576
   23.900      594
   23.915      543
   23.930      606
   23.945      614
   23.960      607
   23.975      607
   23.990      589
   24.005      582
   24.020      608
   24.035      606
   24.050      577
   24.065      591
   24.080      612
   24.095      598
   24.110      622
   24.125      578
   24.140      590
   24.155      613
   24.170      593
   24.185      595
   24.200      569
   24.215      605
   24.230      617
   24.245      605
   24.260      580
   24.275      583
   24.290      575
   24.305      540
   24.320      543
   24.335      577
   24.350      609
   24.365      585
   24.380      601
   24.395      583
   24.410      588
   24.425      573
   24.440      579
   24.455      599
   24.470      603
   24.485      619
   24.500      606
   24.515      639
   24.530      639
   24.545      707
   24.560      698
   24.575      734
   24.590      744
   24.605      739
   24.620      707
   24.635      642
   24.650      571
   24.665      592
   24.680      597
   24.695      576
   24.710      584
   24.725      588
   24.740      596
   24.755      593
   24.770      577
   24.785      571
   24.800      558
   24.815      557
   24.830      571
   24.845      614
   24.860      596
   24.875      585
   24.890      608
   24.905      553
   24.920      560
   24.935      551
   24.950      593
   24.965      604
   24.980      565
   24.995      613
   25.010      572
   25.025      626
   25.040      567
   25.055      586
   25.070      631
   25.085      551
   25.100      670
   25.115      697
   25.130      649
   25.145      705
   25.160      638
   25.175      652
   25.190      635
   25.205      619
   25.220      600
   25.235      567
   25.250      578
   25.265      577
   25.280      630
   25.295      596
   25.310      605
   25.325      599
   25.340      528
   25.355      592
   25.370      613
   25.385      550
   25.400      564
   25.415      558
   25.430      611
   25.445      616
   25.460      608
   25.475      673
   25.490      687
   25.505      658
   25.520      619
   25.535      606
   25.550      603
   25.565      588
   25.580      562
   25.595      567
   25.610      627
   25.625      617
   25.640      586
   25.655      654
   25.670      678
   25.685      734
   25.700      806
   25.715      935
   25.730      981
   25.745      981
   25.760     1038
   25.775      991
   25.790      856
   25.805      833
   25.820      712
   25.835      678
   25.850      602
   25.865      599
   25.880      602
   25.895      620
   25.910      675
   25.925      714
   25.940      851
   25.955      929
   25.970     1025
   25.985     1027
   26.000     1064
   26.015     1057
   26.030     1026
   26.045      902
   26.060      738
   26.075      676
   26.090      560
   26.105      591
   26.120      600
   26.135      555
   26.150      570
   26.165      561
   26.180      556
   26.195      536
   26.210      542
   26.225      567
   26.240      571
   26.255      580
   26.270      524
   26.285      545
   26.300      565
   26.315      542
   26.330      598
   26.345      606
   26.360      592
   26.375      573
   26.390      532
   26.405      556
   26.420      608
   26.435      619
   26.450      591
   26.465      578
   26.480      585
   26.495      551
   26.510      556
   26.525      553
   26.540      560
   26.555      585
   26.570      592
   26.585      553
   26.600      570
   26.615      592
   26.630      562
   26.645      573
   26.660      560
   26.675      544
   26.690      560
   26.705      570
   26.720      569
   26.735      557
   26.750      565
   26.765      517
   26.780      552
   26.795      561
   26.810      553
   26.825      550
   26.840      513
   26.855      542
   26.870      544
   26.885      568
   26.900      607
   26.915      595
   26.930      536
   26.945      548
   26.960      538
   26.975      549
   26.990      545
   27.005      555
   27.020      575
   27.035      578
   27.050      583
   27.065      564
   27.080      574
   27.095      533
   27.110      542
   27.125      552
   27.140      554
   27.155      550
   27.170      562
   27.185      599
   27.200      549
   27.215      526
   27.230      556
   27.245      587
   27.260      595
   27.275      583
   27.290      543
   27.305      530
   27.320      558
   27.335      541
   27.350      638
   27.365      516
   27.380      527
   27.395      561
   27.410      547
   27.425      525
   27.440      562
   27.455      551
   27.470      544
   27.485      596
   27.500      581
   27.515      602
   27.530      584
   27.545      539
   27.560      571
   27.575      577
   27.590      533
   27.605      561
   27.620      590
   27.635      599
   27.650      505
   27.665      581
   27.680      534
   27.695      544
   27.710      557
   27.725      550
   27.740      561
   27.755      570
   27.770      534
   27.785      552
   27.800      569
   27.815      636
   27.830      626
   27.845      649
   27.860      655
   27.875      731
   27.890      743
   27.905      737
   27.920      748
   27.935      741
   27.950      664
   27.965      623
   27.980      627
   27.995      553
   28.010      561
   28.025      569
   28.040      582
   28.055      572
   28.070      577
   28.085      550
   28.100      588
   28.115      622
   28.130      686
   28.145      811
   28.160      895
   28.175     1007
   28.190     1027
   28.205     1130
   28.220     1128
   28.235      979
   28.250      858
   28.265      768
   28.280      740
   28.295      626
   28.310      541
   28.325      525
   28.340      562
   28.355      552
   28.370      576
   28.385      627
   28.400      539
   28.415      558
   28.430      600
   28.445      570
   28.460      566
   28.475      591
   28.490      566
   28.505      523
   28.520      535
   28.535      555
   28.550      570
   28.565      546
   28.580      530
   28.595      533
   28.610      542
   28.625      535
   28.640      553
   28.655      571
   28.670      536
   28.685      540
   28.700      560
   28.715      563
   28.730      562
   28.745      561
   28.760      588
   28.775      594
   28.790      606
   28.805      614
   28.820      633
   28.835      592
   28.850      576
   28.865      572
   28.880      606
   28.895      590
   28.910      553
   28.925      555
   28.940      578
   28.955      530
   28.970      570
   28.985      602
   29.000      591
   29.015      595
   29.030      545
   29.045      537
   29.060      609
   29.075      629
   29.090      585
   29.105      529
   29.120      522
   29.135      542
   29.150      552
   29.165      545
   29.180      526
   29.195      540
   29.210      537
   29.225      511
   29.240      553
   29.255      536
   29.270      570
   29.285      510
   29.300      559
   29.315      539
   29.330      510
   29.345      520
   29.360      537
   29.375      536
   29.390      520
   29.405      564
   29.420      599
   29.435      600
   29.450      640
   29.465      591
   29.480      612
   29.495      643
   29.510      639
   29.525      665
   29.540      702
   29.555      676
   29.570      704
   29.585      663
   29.600      680
   29.615      599
   29.630      591
   29.645      563
   29.660      546
   29.675      546
   29.690      541
   29.705      532
   29.720      535
   29.735      534
   29.750      522
   29.765      592
   29.780      536
   29.795      564
   29.810      519
   29.825      524
   29.840      534
   29.855      562
   29.870      527
   29.885      495
   29.900      503
   29.915      498
   29.930      514
   29.945      527
   29.960      487
   29.975      483
   29.990      522
   30.005      534
   30.020      510
   30.035      495
   30.050      506
   30.065      511
   30.080      515
   30.095      468
   30.110      502
   30.125      509
   30.140      512
   30.155      493
   30.170      511
   30.185      548
   30.200      537
   30.215      539
   30.230      535
   30.245      529
   30.260      537
   30.275      497
   30.290      516
   30.305      531
   30.320      529
   30.335      557
   30.350      542
   30.365      507
   30.380      508
   30.395      535
   30.410      551
   30.425      498
   30.440      521
   30.455      528
   30.470      542
   30.485      508
   30.500      498
   30.515      518
   30.530      513
   30.545      499
   30.560      508
   30.575      535
   30.590      536
   30.605      583
   30.620      579
   30.635      619
   30.650      673
   30.665      702
   30.680      700
   30.695      728
   30.710      682
   30.725      656
   30.740      635
   30.755      587
   30.770      527
   30.785      531
   30.800      497
   30.815      511
   30.830      517
   30.845      505
   30.860      495
   30.875      488
   30.890      510
   30.905      495
   30.920      516
   30.935      525
   30.950      584
   30.965      502
   30.980      571
   30.995      554
   31.010      533
   31.025      570
   31.040      537
   31.055      520
   31.070      530
   31.085      456
   31.100      555
   31.115      539
   31.130      531
   31.145      522
   31.160      489
   31.175      479
   31.190      525
   31.205      494
   31.220      480
   31.235      545
   31.250      519
   31.265      490
   31.280      490
   31.295      549
   31.310      510
   31.325      468
   31.340      466
   31.355      518
   31.370      548
   31.385      467
   31.400      467
   31.415      490
   31.430      480
   31.445      493
   31.460      499
   31.475      526
   31.490      515
   31.505      502
   31.520      517
   31.535      502
   31.550      498
   31.565      517
   31.580      499
   31.595      540
   31.610      513
   31.625      534
   31.640      485
   31.655      494
   31.670      478
   31.685      453
   31.700      446
   31.715      449
   31.730      486
   31.745      503
   31.760      507
   31.775      482
   31.790      489
   31.805      550
   31.820      527
   31.835      475
   31.850      507
   31.865      463
   31.880      483
   31.895      487
   31.910      474
   31.925      470
   31.940      501
   31.955      479
   31.970      483
   31.985      494
   32.000      490
   32.015      513
   32.030      484
   32.045      513
   32.060      488
   32.075      482
   32.090      488
   32.105      518
   32.120      494
   32.135      474
   32.150      526
   32.165      518
   32.180      462
   32.195      460
   32.210      474
   32.225      531
   32.240      534
   32.255      528
   32.270      513
   32.285      548
   32.300      602
   32.315      578
   32.330      685
   32.345      753
   32.360      748
   32.375      774
   32.390      771
   32.405      747
   32.420      752
   32.435      703
   32.450      625
   32.465      607
   32.480      540
   32.495      494
   32.510      516
   32.525      543
   32.540      561
   32.555      590
   32.570      613
   32.585      621
   32.600      643
   32.615      685
   32.630      636
   32.645      621
   32.660      606
   32.675      560
   32.690      562
   32.705      508
   32.720      495
   32.735      491
   32.750      502
   32.765      501
   32.780      505
   32.795      519
   32.810      504
   32.825      490
   32.840      488
   32.855      516
   32.870      522
   32.885      529
   32.900      521
   32.915      486
   32.930      475
   32.945      480
   32.960      464
   32.975      483
   32.990      471
   33.005      526
   33.020      486
   33.035      475
   33.050      488
   33.065      472
   33.080      483
   33.095      455
   33.110      481
   33.125      461
   33.140      487
   33.155      522
   33.170      469
   33.185      507
   33.200      481
   33.215      502
   33.230      489
   33.245      438
   33.260      479
   33.275      501
   33.290      471
   33.305      485
   33.320      499
   33.335      544
   33.350      623
   33.365      653
   33.380      638
   33.395      664
   33.410      696
   33.425      636
   33.440      617
   33.455      611
   33.470      537
   33.485      527
   33.500      463
   33.515      444
   33.530      455
   33.545      480
   33.560      482
   33.575      482
   33.590      473
   33.605      492
   33.620      466
   33.635      466
   33.650      492
   33.665      476
   33.680      481
   33.695      410
   33.710      426
   33.725      509
   33.740      489
   33.755      504
   33.770      499
   33.785      506
   33.800      539
   33.815      562
   33.830      574
   33.845      579
   33.860      515
   33.875      503
   33.890      506
   33.905      472
   33.920      465
   33.935      467
   33.950      462
   33.965      470
   33.980      458
   33.995      468
   34.010      476
   34.025      476
   34.040      474
   34.055      458
   34.070      481
   34.085      535
   34.100      561
   34.115      614
   34.130      626
   34.145      675
   34.160      672
   34.175      690
   34.190      590
   34.205      605
   34.220      610
   34.235      553
   34.250      514
   34.265      495
   34.280      487
   34.295      483
   34.310      451
   34.325      442
   34.340      504
   34.355      569
   34.370      600
   34.385      594
   34.400      586
   34.415      618
   34.430      634
   34.445      592
   34.460      581
   34.475      593
   34.490      544
   34.505      518
   34.520      497
   34.535      489
   34.550      475
   34.565      482
   34.580      465
   34.595      464
   34.610      492
   34.625      493
   34.640      460
   34.655      461
   34.670      440
   34.685      435
   34.700      442
   34.715      428
   34.730      457
   34.745      489
   34.760      479
   34.775      499
   34.790      469
   34.805      472
   34.820      453
   34.835      436
   34.850      457
   34.865      474
   34.880      477
   34.895      468
   34.910      450
   34.925      456
   34.940      459
   34.955      461
   34.970      481
   34.985      465
   35.000      480
   35.015      461
   35.030      424
   35.045      446
   35.060      518
   35.075      526
   35.090      535
   35.105      507
   35.120      497
   35.135      481
   35.150      507
   35.165      535
   35.180      483
   35.195      500
   35.210      493
   35.225      485
   35.240      484
   35.255      459
   35.270      451
   35.285      441
   35.300      532
   35.315      460
   35.330      481
   35.345      534
   35.360      517
   35.375      500
   35.390      489
   35.405      498
   35.420      493
   35.435      436
   35.450      457
   35.465      417
   35.480      431
   35.495      440
   35.510      476
   35.525      431
   35.540      473
   35.555      428
   35.570      429
   35.585      443
   35.600      474
   35.615      466
   35.630      460
   35.645      504
   35.660      492
   35.675      530
   35.690      488
   35.705      470
   35.720      525
   35.735      523
   35.750      502
   35.765      437
   35.780      452
   35.795      456
   35.810      437
   35.825      435
   35.840      425
   35.855      445
   35.870      462
   35.885      432
   35.900      415
   35.915      408
   35.930      452
   35.945      443
   35.960      420
   35.975      446
   35.990      442
   36.005      430
   36.020      444
   36.035      441
   36.050      422
   36.065      436
   36.080      473
   36.095      452
   36.110      416
   36.125      428
   36.140      416
   36.155      433
   36.170      448
   36.185      431
   36.200      470
   36.215      439
   36.230      449
   36.245      451
   36.260      431
   36.275      456
   36.290      447
   36.305      452
   36.320      450
   36.335      452
   36.350      439
   36.365      405
   36.380      444
   36.395      457
   36.410      465
   36.425      453
   36.440      449
   36.455      446
   36.470      451
   36.485      447
   36.500      413
   36.515      442
   36.530      433
   36.545      432
   36.560      451
   36.575      450
   36.590      454
   36.605      450
   36.620      458
   36.635      495
   36.650      486
   36.665      547
   36.680      550
   36.695      537
   36.710      606
   36.725      615
   36.740      576
   36.755      538
   36.770      551
   36.785      484
   36.800      489
   36.815      404
   36.830      423
   36.845      428
   36.860      438
   36.875      432
   36.890      415
   36.905      447
   36.920      437
   36.935      408
   36.950      432
   36.965      442
   36.980      439
   36.995      433
   37.010      404
   37.025      426
   37.040      405
   37.055      418
   37.070      438
   37.085      408
   37.100      454
   37.115      421
   37.130      493
   37.145      476
   37.160      443
   37.175      491
   37.190      495
   37.205      426
   37.220      485
   37.235      454
   37.250      458
   37.265      452
   37.280      462
   37.295      485
   37.310      430
   37.325      445
   37.340      418
   37.355      421
   37.370      444
   37.385      420
   37.400      433
   37.415      467
   37.430      431
   37.445      443
   37.460      459
   37.475      472
   37.490      492
   37.505      568
   37.520      526
   37.535      610
   37.550      581
   37.565      563
   37.580      552
   37.595      543
   37.610      516
   37.625      500
   37.640      467
   37.655      421
   37.670      407
   37.685      386
   37.700      388
   37.715      423
   37.730      435
   37.745      428
   37.760      434
   37.775      430
   37.790      415
   37.805      429
   37.820      443
   37.835      468
   37.850      510
   37.865      496
   37.880      527
   37.895      539
   37.910      575
   37.925      601
   37.940      657
   37.955      660
   37.970      641
   37.985      610
   38.000      546
   38.015      535
   38.030      478
   38.045      471
   38.060      441
   38.075      418
   38.090      425
   38.105      427
   38.120      446
   38.135      418
   38.150      471
   38.165      452
   38.180      419
   38.195      421
   38.210      459
   38.225      488
   38.240      467
   38.255      458
   38.270      421
   38.285      419
   38.300      451
   38.315      435
   38.330      470
   38.345      487
   38.360      454
   38.375      467
   38.390      428
   38.405      434
   38.420      477
   38.435      478
   38.450      467
   38.465      447
   38.480      443
   38.495      433
   38.510      441
   38.525      459
   38.540      454
   38.555      439
   38.570      452
   38.585      416
   38.600      419
   38.615      449
   38.630      436
   38.645      448
   38.660      421
   38.675      437
   38.690      466
   38.705      443
   38.720      443
   38.735      436
   38.750      410
   38.765      432
   38.780      417
   38.795      397
   38.810      426
   38.825      442
   38.840      460
   38.855      444
   38.870      448
   38.885      451
   38.900      450
   38.915      443
   38.930      407
   38.945      400
   38.960      422
   38.975      457
   38.990      416
   39.005      433
   39.020      441
   39.035      448
   39.050      472
   39.065      445
   39.080      405
   39.095      434
   39.110      457
   39.125      408
   39.140      419
   39.155      477
   39.170      442
   39.185      473
   39.200      458
   39.215      453
   39.230      446
   39.245      449
   39.260      436
   39.275      421
   39.290      432
   39.305      452
   39.320      439
   39.335      434
   39.350      456
   39.365      426
   39.380      404
   39.395      411
   39.410      418
   39.425      405
   39.440      399
   39.455      419
   39.470      393
   39.485      453
   39.500      436
   39.515      450
   39.530      415
   39.545      446
   39.560      433
   39.575      456
   39.590      425
   39.605      404
   39.620      445
   39.635      494
   39.650      437
   39.665      460
   39.680      457
   39.695      411
   39.710      445
   39.725      434
   39.740      434
   39.755      429
   39.770      377
   39.785      409
   39.800      414
   39.815      393
   39.830      447
   39.845      450
   39.860      431
   39.875      449
   39.890      430
   39.905      440
   39.920      419
   39.935      454
   39.950      436
   39.965      440
   39.980      416
   39.995      401
   40.010      468
   40.025      468
   40.040      479
   40.055      457
   40.070      400
   40.085      411
   40.100      434
   40.115      448
   40.130      451
   40.145      450
   40.160      464
   40.175      430
   40.190      415
   40.205      462
   40.220      451
   40.235      425
   40.250      392
   40.265      396
   40.280      426
   40.295      439
   40.310      439
   40.325      402
   40.340      441
   40.355      448
   40.370      432
   40.385      428
   40.400      432
   40.415      438
   40.430      445
   40.445      456
   40.460      501
   40.475      494
   40.490      540
   40.505      555
   40.520      571
   40.535      585
   40.550      633
   40.565      642
   40.580      607
   40.595      566
   40.610      580
   40.625      583
   40.640      519
   40.655      474
   40.670      452
   40.685      472
   40.700      441
   40.715      475
   40.730      485
   40.745      463
   40.760      447
   40.775      465
   40.790      468
   40.805      483
   40.820      465
   40.835      447
   40.850      448
   40.865      427
   40.880      404
   40.895      405
   40.910      430
   40.925      437
   40.940      453
   40.955      440
   40.970      457
   40.985      465
   41.000      441
   41.015      454
   41.030      427
   41.045      415
   41.060      433
   41.075      419
   41.090      440
   41.105      419
   41.120      425
   41.135      409
   41.150      402
   41.165      399
   41.180      400
   41.195      445
   41.210      418
   41.225      432
   41.240      412
   41.255      420
   41.270      432
   41.285      422
   41.300      446
   41.315      436
   41.330      422
   41.345      427
   41.360      458
   41.375      416
   41.390      389
   41.405      405
   41.420      405
   41.435      388
   41.450      445
   41.465      410
   41.480      382
   41.495      436
   41.510      440
   41.525      419
   41.540      460
   41.555      445
   41.570      485
   41.585      525
   41.600      625
   41.615      543
   41.630      608
   41.645      680
   41.660      677
   41.675      686
   41.690      606
   41.705      598
   41.720      593
   41.735      539
   41.750      559
   41.765      528
   41.780      474
   41.795      520
   41.810      477
   41.825      469
   41.840      463
   41.855      472
   41.870      412
   41.885      440
   41.900      460
   41.915      460
   41.930      523
   41.945      581
   41.960      571
   41.975      578
   41.990      577
   42.005      573
   42.020      580
   42.035      548
   42.050      499
   42.065      525
   42.080      500
   42.095      434
   42.110      409
   42.125      436
   42.140      430
   42.155      451
   42.170      465
   42.185      471
   42.200      512
   42.215      502
   42.230      551
   42.245      541
   42.260      508
   42.275      474
   42.290      464
   42.305      446
   42.320      446
   42.335      449
   42.350      455
   42.365      430
   42.380      454
   42.395      476
   42.410      480
   42.425      514
   42.440      505
   42.455      484
   42.470      524
   42.485      503
   42.500      506
   42.515      498
   42.530      469
   42.545      463
   42.560      490
   42.575      481
   42.590      487
   42.605      503
   42.620      466
   42.635      456
   42.650      440
   42.665      431
   42.680      424
   42.695      425
   42.710      440
   42.725      425
   42.740      410
   42.755      395
   42.770      432
   42.785      418
   42.800      432
   42.815      419
   42.830      432
   42.845      426
   42.860      417
   42.875      431
   42.890      463
   42.905      430
   42.920      418
   42.935      400
   42.950      412
   42.965      414
   42.980      427
   42.995      444
   43.010      399
   43.025      455
   43.040      453
   43.055      399
   43.070      417
   43.085      392
   43.100      459
   43.115      385
   43.130      418
   43.145      457
   43.160      406
   43.175      437
   43.190      447
   43.205      417
   43.220      458
   43.235      493
   43.250      450
   43.265      542
   43.280      519
   43.295      530
   43.310      481
   43.325      499
   43.340      446
   43.355      480
   43.370      518
   43.385      468
   43.400      460
   43.415      425
   43.430      419
   43.445      426
   43.460      402
   43.475      449
   43.490      436
   43.505      465
   43.520      446
   43.535      457
   43.550      463
   43.565      462
   43.580      458
   43.595      454
   43.610      449
   43.625      457
   43.640      413
   43.655      436
   43.670      387
   43.685      379
   43.700      388
   43.715      444
   43.730      412
   43.745      408
   43.760      405
   43.775      381
   43.790      402
   43.805      438
   43.820      411
   43.835      415
   43.850      428
   43.865      416
   43.880      416
   43.895      427
   43.910      424
   43.925      393
   43.940      415
   43.955      420
   43.970      445
   43.985      446
