    1.500   43.1280
    1.515   43.2017
    1.530   43.0437
    1.545   43.0964
    1.560   42.3486
    1.575   41.6324
    1.590   42.4223
    1.605   40.5266
    1.620   40.2949
    1.635   39.9579
    1.650   39.5261
    1.665   38.8731
    1.680   38.5571
    1.695   37.1985
    1.710   37.2407
    1.725   37.3038
    1.740   37.0932
    1.755   37.1037
    1.770   36.1137
    1.785   36.4297
    1.800   36.3244
    1.815   35.7662
    1.830   34.5866
    1.845   34.5866
    1.860   34.0074
    1.875   34.3655
    1.890   33.2175
    1.905   33.5650
    1.920   33.1332
    1.935   31.5219
    1.950   32.0695
    1.965   32.9963
    1.980   32.6382
    1.995   30.8478
    2.010   30.9637
    2.025   30.6898
    2.040   30.6582
    2.055   30.5951
    2.070   30.5635
    2.085   29.6367
    2.100   30.2159
    2.115   29.4260
    2.130   29.8473
    2.145   28.7836
    2.160   28.7309
    2.175   29.3944
    2.190   28.7204
    2.205   28.2464
    2.220   28.1727
    2.235   28.6993
    2.250   28.2886
    2.265   27.8568
    2.280   27.0985
    2.295   27.9200
    2.310   28.0463
    2.325   27.3407
    2.340   26.9616
    2.355   28.1938
    2.370   27.1933
    2.385   26.1822
    2.400   27.4987
    2.415   27.1722
    2.430   27.1406
    2.445   26.3823
    2.460   25.3186
    2.475   25.7820
    2.490   26.4876
    2.505   26.8773
    2.520   25.7715
    2.535   26.3402
    2.550   25.8136
    2.565   26.4455
    2.580   25.4660
    2.595   26.2243
    2.610   26.3086
    2.625   26.1611
    2.640   26.5508
    2.655   26.5719
    2.670   27.0248
    2.685   26.6772
    2.700   27.7093
    2.715   27.0985
    2.730   26.9721
    2.745   27.7093
    2.760   27.6672
    2.775   26.9510
    2.790   26.7615
    2.805   26.8878
    2.820   27.5513
    2.835   27.4882
    2.850   27.7093
    2.865   27.9410
    2.880   28.3728
    2.895   29.0995
    2.910   29.3734
    2.925   28.2780
    2.940   28.8678
    2.955   29.1733
    2.970   30.0053
    2.985   30.0685
    3.000   30.3739
    3.015   30.4055
    3.030   30.8162
    3.045   31.0795
    3.060   31.4692
    3.075   31.7325
    3.090   32.5961
    3.105   33.5861
    3.120   32.7014
    3.135   33.5229
    3.150   34.7025
    3.165   36.2928
    3.180   37.2933
    3.195   36.2296
    3.210   37.6303
    3.225   39.6525
    3.240   39.3786
    3.255   40.0527
    3.270   41.2428
    3.285   43.0753
    3.300   43.2649
    3.315   44.7815
    3.330   44.7815
    3.345   45.3713
    3.360   47.1933
    3.375   49.5313
    3.390   51.1638
    3.405   52.3117
    3.420   53.6914
    3.435   55.6503
    3.450   57.0721
    3.465   57.9042
    3.480   58.3465
    3.495   60.1369
    3.510   61.8957
    3.525   64.1496
    3.540   64.3497
    3.555   67.0353
    3.570   69.4576
    3.585   73.1438
    3.600   75.2396
    3.615   76.3455
    3.630   80.7372
    3.645   84.7393
    3.660   88.7099
    3.675   92.6066
    3.690   97.4197
    3.705  103.3386
    3.720  110.1633
    3.735  116.5034
    3.750  123.4545
    3.765  132.8383
    3.780  143.6335
    3.795  154.8078
    3.810  171.8273
    3.825  197.8094
    3.840  223.8547
    3.855  252.6488
    3.870  270.4371
    3.885  267.7409
    3.900  242.3276
    3.915  195.5345
    3.930  129.6893
    3.945   72.9437
    3.960   42.4013
    3.975   31.0795
    3.990   25.4239
    4.005   23.2543
    4.020   21.3270
    4.035   19.4207
    4.050   18.3360
    4.065   17.9674
    4.080   17.1037
    4.095   16.2612
    4.110   16.1769
    4.125   16.1769
    4.140   15.7662
    4.155   15.1659
    4.170   14.6288
    4.185   15.3555
    4.200   14.0284
    4.215   13.7967
    4.230   13.5861
    4.245   13.7441
    4.260   13.5229
    4.275   13.3544
    4.290   12.7646
    4.305   13.0384
    4.320   13.0384
    4.335   12.5118
    4.350   12.9753
    4.365   12.7225
    4.380   12.1432
    4.395   12.2170
    4.410   12.6172
    4.425   12.8173
    4.440   12.2801
    4.455   12.1011
    4.470   12.1748
    4.485   12.3433
    4.500   12.5118
    4.515   12.2064
    4.530   12.2801
    4.545   11.9431
    4.560   12.0800
    4.575   12.4487
    4.590   12.0906
    4.605   12.5118
    4.620   12.7014
    4.635   12.3644
    4.650   12.4381
    4.665   12.0695
    4.680   12.5856
    4.695   12.4065
    4.710   12.8489
    4.725   12.7751
    4.740   13.3755
    4.755   12.8489
    4.770   12.9858
    4.785   13.0911
    4.800   13.0384
    4.815   13.1332
    4.830   13.0806
    4.845   13.0068
    4.860   12.9858
    4.875   12.9647
    4.890   13.2070
    4.905   13.8915
    4.920   14.1127
    4.935   13.8915
    4.950   14.2707
    4.965   14.7657
    4.980   14.8815
    4.995   14.7551
    5.010   15.0290
    5.025   15.6082
    5.040   15.8189
    5.055   16.3876
    5.070   15.8610
    5.085   16.5561
    5.100   17.4513
    5.115   17.5250
    5.130   17.6619
    5.145   17.8726
    5.160   18.6414
    5.175   19.2101
    5.190   19.2733
    5.205   20.1369
    5.220   21.8220
    5.235   22.6540
    5.250   22.5908
    5.265   23.4229
    5.280   24.8552
    5.295   25.3186
    5.310   26.5929
    5.325   28.1938
    5.340   28.8678
    5.355   29.9947
    5.370   32.1011
    5.385   34.8921
    5.400   37.1248
    5.415   39.9368
    5.430   43.9705
    5.445   49.8473
    5.460   56.4613
    5.475   64.6130
    5.490   68.0779
    5.505   67.5408
    5.520   64.1496
    5.535   52.3749
    5.550   38.6940
    5.565   25.0132
    5.580   17.1669
    5.595   14.1548
    5.610   12.7751
    5.625   11.8378
    5.640   10.9426
    5.655   10.9637
    5.670   10.6266
    5.685   11.2796
    5.700   11.0163
    5.715   10.1948
    5.730   10.2686
    5.745   10.4265
    5.760    9.9105
    5.775    9.9421
    5.790   10.3107
    5.805   10.4160
    5.820    9.7314
    5.835    9.8052
    5.850   10.0053
    5.865    9.8684
    5.880    9.9737
    5.895    9.7525
    5.910    9.9421
    5.925    9.8052
    5.940    9.9526
    5.955    9.5945
    5.970    9.4576
    5.985   10.1001
    6.000    9.9842
    6.015    9.8578
    6.030    9.6472
    6.045    9.7314
    6.060    9.6998
    6.075   10.0790
    6.090    9.8999
    6.105   10.2686
    6.120   10.1422
    6.135   10.2054
    6.150    9.8789
    6.165    9.3944
    6.180    9.9526
    6.195    9.4787
    6.210   10.1843
    6.225   10.3423
    6.240   10.1948
    6.255   10.2580
    6.270   10.3633
    6.285   10.0685
    6.300   10.2370
    6.315   10.5529
    6.330    9.9421
    6.345   10.5424
    6.360   10.4792
    6.375   10.1738
    6.390   10.3528
    6.405   10.9005
    6.420   11.0374
    6.435   11.5534
    6.450   11.8483
    6.465   11.3849
    6.480   11.5113
    6.495   11.3639
    6.510   11.6693
    6.525   11.9326
    6.540   11.9958
    6.555   12.0695
    6.570   12.1116
    6.585   13.1227
    6.600   13.2701
    6.615   13.1754
    6.630   14.4181
    6.645   14.7657
    6.660   15.2080
    6.675   16.5140
    6.690   17.7146
    6.705   18.8942
    6.720   19.8526
    6.735   21.3586
    6.750   22.1169
    6.765   20.6846
    6.780   18.3254
    6.795   15.7662
    6.810   13.7967
    6.825   10.9953
    6.840   10.6793
    6.855   10.6793
    6.870   10.5951
    6.885    9.8473
    6.900   10.1843
    6.915    9.9210
    6.930    9.4365
    6.945    9.5419
    6.960    9.4787
    6.975    9.6682
    6.990    9.7946
    7.005    9.8789
    7.020    9.4892
    7.035    9.6998
    7.050    9.5524
    7.065    9.6367
    7.080    9.0574
    7.095    9.4892
    7.110    9.7314
    7.125    9.6051
    7.140    9.3628
    7.155    9.2680
    7.170    9.6893
    7.185    9.5629
    7.200    9.7420
    7.215    9.4892
    7.230    9.4365
    7.245    9.5103
    7.260    9.2996
    7.275    9.3628
    7.290    9.6261
    7.305    9.7209
    7.320   10.1211
    7.335    9.9421
    7.350   10.0895
    7.365   10.3318
    7.380    9.7209
    7.395   10.2054
    7.410   10.3739
    7.425   10.1948
    7.440   10.5740
    7.455   10.6056
    7.470   10.4265
    7.485   10.8689
    7.500   10.8268
    7.515   10.8478
    7.530   11.4797
    7.545   11.1322
    7.560   11.6061
    7.575   12.2380
    7.590   12.2591
    7.605   12.6804
    7.620   13.1332
    7.635   14.0600
    7.650   13.7335
    7.665   14.0600
    7.680   14.5972
    7.695   15.7135
    7.710   16.5456
    7.725   17.5040
    7.740   19.4102
    7.755   20.8110
    7.770   22.8541
    7.785   23.6651
    7.800   23.8968
    7.815   22.7909
    7.830   20.1685
    7.845   17.6409
    7.860   14.0390
    7.875   11.6904
    7.890   11.1532
    7.905    9.7525
    7.920    9.8684
    7.935    9.8789
    7.950    9.9105
    7.965    9.6051
    7.980    9.3207
    7.995    9.4576
    8.010    9.7630
    8.025    9.4260
    8.040    8.9415
    8.055    9.5208
    8.070    8.9942
    8.085    9.1417
    8.100    9.1838
    8.115    9.4892
    8.130    9.8894
    8.145    9.1732
    8.160    9.0047
    8.175    9.4155
    8.190    9.2575
    8.205    9.4365
    8.220    9.1732
    8.235    9.2364
    8.250    9.3839
    8.265    9.0469
    8.280    9.7420
    8.295    9.3312
    8.310    9.2891
    8.325    9.0785
    8.340    8.9731
    8.355    9.4892
    8.370    9.4155
    8.385    9.3734
    8.400    9.1627
    8.415    8.9731
    8.430    9.7525
    8.445    9.6261
    8.460    9.6156
    8.475    9.4260
    8.490    9.4260
    8.505    9.7314
    8.520    9.7946
    8.535    9.6367
    8.550    9.6893
    8.565    9.6367
    8.580    9.5103
    8.595   10.1316
    8.610    9.8684
    8.625    9.9421
    8.640    9.6682
    8.655   10.3002
    8.670   10.2264
    8.685   10.9215
    8.700   10.9531
    8.715   11.3007
    8.730   10.6793
    8.745   10.9110
    8.760   10.5424
    8.775    9.8262
    8.790    9.8578
    8.805    9.3734
    8.820    9.2680
    8.835    9.3944
    8.850    9.2575
    8.865    9.6156
    8.880    9.0995
    8.895    9.4365
    8.910    9.2154
    8.925    9.5945
    8.940    9.4787
    8.955    9.4681
    8.970    9.0679
    8.985    9.3207
    9.000    9.5629
    9.015    9.6788
    9.030    9.7104
    9.045    9.3628
    9.060    9.4681
    9.075    9.9421
    9.090   10.0579
    9.105    9.4681
    9.120    9.5629
    9.135    9.8473
    9.150   10.3002
    9.165   10.5108
    9.180   10.0158
    9.195   10.7530
    9.210   10.7004
    9.225   10.7636
    9.240   10.9215
    9.255   11.4060
    9.270   11.5113
    9.285   11.4903
    9.300   11.8378
    9.315   12.2486
    9.330   12.7120
    9.345   12.9963
    9.360   13.9758
    9.375   14.4602
    9.390   15.2607
    9.405   15.8294
    9.420   17.1564
    9.435   17.9042
    9.450   19.0311
    9.465   20.9479
    9.480   22.4750
    9.495   23.6230
    9.510   27.2143
    9.525   30.0895
    9.540   32.1748
    9.555   34.3339
    9.570   33.7125
    9.585   31.9221
    9.600   27.4355
    9.615   22.4118
    9.630   16.6403
    9.645   13.4176
    9.660   10.9531
    9.675   10.4581
    9.690   10.0053
    9.705    9.8789
    9.720   10.1422
    9.735    9.9737
    9.750    9.3207
    9.765    9.4050
    9.780    9.3523
    9.795    9.1943
    9.810    9.0363
    9.825    9.1838
    9.840    9.4050
    9.855    9.3628
    9.870    9.9526
    9.885    9.6051
    9.900    9.4892
    9.915    9.4365
    9.930    9.8894
    9.945    8.9837
    9.960    9.4365
    9.975    9.6577
    9.990    9.5208
   10.005    9.5945
   10.020    9.6788
   10.035    9.8789
   10.050    9.9421
   10.065    9.7420
   10.080    9.9947
   10.095   10.2580
   10.110   10.5845
   10.125   10.6793
   10.140   10.9426
   10.155   10.8057
   10.170   10.6688
   10.185   11.2270
   10.200   11.8799
   10.215   12.0379
   10.230   11.6588
   10.245   13.2175
   10.260   13.6072
   10.275   14.7973
   10.290   15.9136
   10.305   17.2828
   10.320   16.7035
   10.335   17.2828
   10.350   16.4613
   10.365   15.4608
   10.380   14.4181
   10.395   12.1854
   10.410   10.9531
   10.425   10.4265
   10.440    9.4576
   10.455    9.3734
   10.470    9.3734
   10.485    9.4155
   10.500    9.0153
   10.515    8.9837
   10.530    9.1522
   10.545    9.5629
   10.560    9.6156
   10.575    9.1522
   10.590    9.1311
   10.605    9.5103
   10.620    9.3312
   10.635    9.3418
   10.650    8.7098
   10.665    9.1206
   10.680    8.7941
   10.695    9.2891
   10.710    9.3734
   10.725    8.9205
   10.740    9.5103
   10.755    8.9521
   10.770    9.8368
   10.785    9.4471
   10.800    9.2786
   10.815    9.9947
   10.830   10.2370
   10.845    9.9315
   10.860   10.0685
   10.875   10.3002
   10.890   10.6161
   10.905   11.2375
   10.920   11.5956
   10.935   11.6377
   10.950   11.9115
   10.965   12.6488
   10.980   13.8283
   10.995   14.6393
   11.010   15.9979
   11.025   16.8615
   11.040   17.0300
   11.055   17.1248
   11.070   16.7246
   11.085   15.5345
   11.100   13.8389
   11.115   12.4171
   11.130   10.7004
   11.145    9.9315
   11.160    9.5419
   11.175    9.4576
   11.190    9.2891
   11.205    8.8152
   11.220    9.0995
   11.235    8.7941
   11.250    8.8257
   11.265    9.0469
   11.280    9.1206
   11.295    9.4997
   11.310    9.2364
   11.325    8.9415
   11.340    9.1417
   11.355    9.0890
   11.370    9.1838
   11.385    9.2364
   11.400    9.1417
   11.415    9.1417
   11.430    9.3734
   11.445    9.5840
   11.460    9.1101
   11.475    9.5629
   11.490   10.5108
   11.505    9.6682
   11.520    9.9526
   11.535   10.2159
   11.550   10.5003
   11.565   10.8057
   11.580   10.8794
   11.595   11.5008
   11.610   12.1643
   11.625   12.1011
   11.640   13.2385
   11.655   14.5234
   11.670   15.4292
   11.685   16.2823
   11.700   17.5040
   11.715   18.0832
   11.730   18.2938
   11.745   18.2728
   11.760   16.1769
   11.775   13.8389
   11.790   11.8483
   11.805   10.9321
   11.820    9.9421
   11.835    9.6682
   11.850    9.8157
   11.865    8.6572
   11.880    8.7520
   11.895    8.8889
   11.910    8.3623
   11.925    8.3834
   11.940    8.3728
   11.955    8.2675
   11.970    8.5308
   11.985    8.3939
   12.000    8.9521
   12.015    8.4781
   12.030    8.5519
   12.045    8.6467
   12.060    8.3202
   12.075    8.4044
   12.090    8.3623
   12.105    8.7204
   12.120    8.4992
   12.135    8.6572
   12.150    8.5729
   12.165    8.5940
   12.180    8.5940
   12.195    8.8573
   12.210    8.5940
   12.225    8.6888
   12.240    8.8362
   12.255    8.9100
   12.270    9.2048
   12.285    9.2470
   12.300    9.6788
   12.315    9.1101
   12.330    9.0785
   12.345    9.7630
   12.360    9.8789
   12.375   10.1211
   12.390    9.6788
   12.405    9.6156
   12.420    8.8468
   12.435    9.1206
   12.450    9.1206
   12.465    8.6572
   12.480    8.4360
   12.495    8.2570
   12.510    8.2254
   12.525    8.5308
   12.540    8.2254
   12.555    8.2359
   12.570    8.5624
   12.585    8.4255
   12.600    8.3202
   12.615    8.4255
   12.630    8.5835
   12.645    8.7204
   12.660    8.5203
   12.675    8.8573
   12.690    8.8889
   12.705    8.8573
   12.720    8.7204
   12.735    8.7836
   12.750    8.3834
   12.765    9.1206
   12.780    9.1311
   12.795    9.2470
   12.810    9.6051
   12.825    9.7420
   12.840    9.4365
   12.855    9.7314
   12.870   10.4265
   12.885   10.9426
   12.900   11.7852
   12.915   12.6277
   12.930   13.1227
   12.945   13.6177
   12.960   14.0495
   12.975   14.3023
   12.990   13.6914
   13.005   13.0806
   13.020   11.5429
   13.035   10.3318
   13.050    9.6788
   13.065    9.0153
   13.080    9.0679
   13.095    9.1838
   13.110    8.2464
   13.125    8.2149
   13.140    8.1306
   13.155    8.5097
   13.170    8.1306
   13.185    8.4887
   13.200    8.1833
   13.215    7.8357
   13.230    8.0569
   13.245    8.5413
   13.260    8.3623
   13.275    8.6783
   13.290    8.8889
   13.305    8.6572
   13.320    8.4360
   13.335    8.2464
   13.350    8.2570
   13.365    8.5413
   13.380    8.7204
   13.395    8.7520
   13.410    8.5519
   13.425    8.4781
   13.440    8.9205
   13.455    9.0469
   13.470    9.5208
   13.485    9.4576
   13.500   10.2791
   13.515   10.8268
   13.530   10.9637
   13.545   10.9847
   13.560   11.1006
   13.575   10.5845
   13.590    9.9210
   13.605   10.2686
   13.620    9.4471
   13.635    8.8362
   13.650    8.7204
   13.665    8.5308
   13.680    8.2149
   13.695    8.3096
   13.710    8.5624
   13.725    8.3096
   13.740    7.7936
   13.755    8.0358
   13.770    8.5203
   13.785    8.1306
   13.800    7.8989
   13.815    7.9937
   13.830    8.1095
   13.845    8.4992
   13.860    8.8257
   13.875    8.6256
   13.890    8.6256
   13.905    8.6572
   13.920    8.7941
   13.935    9.3734
   13.950    9.2891
   13.965    8.9100
   13.980    9.3207
   13.995    9.3523
   14.010    9.8473
   14.025   10.3107
   14.040   11.3639
   14.055   11.7009
   14.070   12.7751
   14.085   12.7436
   14.100   13.7019
   14.115   13.8283
   14.130   13.0806
   14.145   12.2380
   14.160   10.8899
   14.175   10.1316
   14.190    9.5735
   14.205    8.8152
   14.220    8.5203
   14.235    8.1727
   14.250    8.0990
   14.265    8.2149
   14.280    7.9200
   14.295    8.2043
   14.310    7.8252
   14.325    7.9410
   14.340    8.3623
   14.355    7.7725
   14.370    8.1411
   14.385    8.1517
   14.400    7.8568
   14.415    8.0463
   14.430    8.3412
   14.445    7.9937
   14.460    7.9410
   14.475    7.5408
   14.490    7.6461
   14.505    8.1306
   14.520    8.0990
   14.535    8.2254
   14.550    7.9937
   14.565    7.9410
   14.580    8.2780
   14.595    8.0569
   14.610    7.8041
   14.625    8.0885
   14.640    7.8778
   14.655    8.1622
   14.670    7.6145
   14.685    7.4144
   14.700    7.8462
   14.715    7.4882
   14.730    7.7936
   14.745    8.2780
   14.760    8.2359
   14.775    7.9516
   14.790    8.0147
   14.805    7.9937
   14.820    8.1201
   14.835    8.1833
   14.850    8.4676
   14.865    8.4044
   14.880    8.0042
   14.895    7.8989
   14.910    8.1201
   14.925    8.3307
   14.940    8.2359
   14.955    7.7620
   14.970    7.8989
   14.985    8.4360
   15.000    8.3623
   15.015    8.1938
   15.030    8.7414
   15.045    8.7204
   15.060    8.6783
   15.075    8.6151
   15.090    8.6677
   15.105    8.9205
   15.120    8.9205
   15.135    8.9310
   15.150    9.6893
   15.165    9.9842
   15.180    9.3418
   15.195    9.6577
   15.210    9.3628
   15.225    8.7520
   15.240    8.9626
   15.255    8.4676
   15.270    7.9516
   15.285    7.8462
   15.300    7.9726
   15.315    8.1306
   15.330    8.1411
   15.345    8.0674
   15.360    8.1306
   15.375    8.3623
   15.390    7.9516
   15.405    7.8673
   15.420    7.9516
   15.435    8.3412
   15.450    7.8462
   15.465    7.2880
   15.480    8.0569
   15.495    7.8778
   15.510    8.1411
   15.525    7.7725
   15.540    8.1517
   15.555    7.9831
   15.570    8.1517
   15.585    7.3407
   15.600    7.3934
   15.615    8.0779
   15.630    8.1095
   15.645    8.3412
   15.660    7.7936
   15.675    7.6672
   15.690    7.7830
   15.705    7.8568
   15.720    7.7409
   15.735    7.8568
   15.750    8.0674
   15.765    8.4360
   15.780    7.9621
   15.795    7.9094
   15.810    8.0253
   15.825    7.8357
   15.840    7.8778
   15.855    8.2886
   15.870    8.4044
   15.885    8.4676
   15.900    8.3307
   15.915    7.8146
   15.930    7.7514
   15.945    7.6672
   15.960    7.6145
   15.975    7.8146
   15.990    8.0463
   16.005    8.3202
   16.020    8.3939
   16.035    8.7309
   16.050    8.4571
   16.065    8.4781
   16.080    8.8152
   16.095    9.1206
   16.110    8.8046
   16.125    8.8784
   16.140    9.2575
   16.155    9.7841
   16.170    9.8894
   16.185    9.5524
   16.200    9.3734
   16.215    8.7414
   16.230    8.4571
   16.245    8.3518
   16.260    8.0042
   16.275    8.0253
   16.290    8.1727
   16.305    8.1306
   16.320    7.9094
   16.335    8.2043
   16.350    8.2886
   16.365    8.0463
   16.380    8.0779
   16.395    8.7625
   16.410    8.2991
   16.425    8.2886
   16.440    8.1938
   16.455    7.9410
   16.470    8.0358
   16.485    8.7204
   16.500    8.1833
   16.515    8.8362
   16.530    8.7098
   16.545    9.4892
   16.560    9.5208
   16.575    8.9415
   16.590    9.5419
   16.605    9.6682
   16.620    9.9842
   16.635    9.9947
   16.650    9.4681
   16.665    9.2154
   16.680    9.6261
   16.695    8.6677
   16.710    8.5203
   16.725    8.6256
   16.740    8.2780
   16.755    8.0042
   16.770    8.4255
   16.785    8.2149
   16.800    8.4150
   16.815    8.3623
   16.830    8.3728
   16.845    8.0674
   16.860    8.8678
   16.875    8.5835
   16.890    8.8678
   16.905    8.6467
   16.920    8.8468
   16.935    8.6572
   16.950    9.0047
   16.965    9.4681
   16.980    9.8578
   16.995   10.4055
   17.010   10.5740
   17.025   10.7214
   17.040   11.4587
   17.055   11.5429
   17.070   11.9431
   17.085   12.8067
   17.100   12.5329
   17.115   11.7009
   17.130   11.6377
   17.145   10.6372
   17.160    9.5945
   17.175    9.4576
   17.190    9.0469
   17.205    8.6888
   17.220    8.7625
   17.235    8.4781
   17.250    8.5308
   17.265    8.3939
   17.280    7.9831
   17.295    8.0990
   17.310    8.3307
   17.325    8.1622
   17.340    8.1938
   17.355    7.9410
   17.370    8.2570
   17.385    8.3518
   17.400    8.2886
   17.415    8.1938
   17.430    8.2043
   17.445    8.4571
   17.460    8.3939
   17.475    8.4781
   17.490    8.8784
   17.505    8.9731
   17.520    9.1943
   17.535    9.2996
   17.550    8.6151
   17.565    8.8152
   17.580    8.1938
   17.595    8.2043
   17.610    8.3939
   17.625    8.6045
   17.640    8.3412
   17.655    8.4992
   17.670    8.0674
   17.685    8.1306
   17.700    8.1411
   17.715    8.5308
   17.730    8.4466
   17.745    8.1833
   17.760    8.5308
   17.775    8.0253
   17.790    8.1201
   17.805    8.3307
   17.820    8.2886
   17.835    7.6883
   17.850    8.0990
   17.865    8.1727
   17.880    8.1411
   17.895    8.9837
   17.910    8.7836
   17.925    9.1522
   17.940    9.0785
   17.955    9.1522
   17.970    8.8573
   17.985    9.1627
   18.000    8.6993
   18.015    8.9205
   18.030    8.2570
   18.045    8.4150
   18.060    8.2359
   18.075    8.2149
   18.090    8.0042
   18.105    8.3096
   18.120    7.8041
   18.135    8.2991
   18.150    8.3939
   18.165    7.9831
   18.180    7.5935
   18.195    8.3939
   18.210    8.2254
   18.225    8.2254
   18.240    8.2359
   18.255    8.0253
   18.270    8.4044
   18.285    8.5203
   18.300    8.7520
   18.315    8.3202
   18.330    8.4781
   18.345    8.6361
   18.360    8.9837
   18.375    9.3628
   18.390    8.8257
   18.405    9.5103
   18.420    9.4892
   18.435    8.5308
   18.450    8.6783
   18.465    8.7941
   18.480    8.3307
   18.495    8.5308
   18.510    8.6572
   18.525    8.0358
   18.540    7.8146
   18.555    7.6145
   18.570    8.5413
   18.585    8.3623
   18.600    8.0253
   18.615    8.1411
   18.630    8.6572
   18.645    8.5624
   18.660    8.4360
   18.675    8.4255
   18.690    8.2043
   18.705    8.3202
   18.720    8.4676
   18.735    8.0990
   18.750    8.2886
   18.765    8.0147
   18.780    8.8257
   18.795    8.7836
   18.810    8.9521
   18.825    8.8257
   18.840    8.7625
   18.855    8.6993
   18.870    8.5940
   18.885    8.0674
   18.900    8.4781
   18.915    8.1938
   18.930    7.8884
   18.945    7.9305
   18.960    8.1833
   18.975    8.4466
   18.990    7.9621
   19.005    7.8884
   19.020    8.0990
   19.035    7.8252
   19.050    8.6045
   19.065    8.5519
   19.080    7.8989
   19.095    7.7409
   19.110    8.2780
   19.125    8.3096
   19.140    8.1201
   19.155    8.1306
   19.170    8.1727
   19.185    8.3307
   19.200    8.3728
   19.215    8.6783
   19.230    8.7941
   19.245    8.4466
   19.260    8.1938
   19.275    7.9516
   19.290    7.8568
   19.305    7.9516
   19.320    8.1622
   19.335    8.0779
   19.350    8.1727
   19.365    7.8568
   19.380    8.4255
   19.395    8.0569
   19.410    8.0990
   19.425    8.7309
   19.440    8.1727
   19.455    8.0885
   19.470    8.3518
   19.485    8.4255
   19.500    8.2886
   19.515    8.4255
   19.530    9.3102
   19.545    8.9310
   19.560    9.5735
   19.575    9.1627
   19.590    9.3312
   19.605    9.4787
   19.620   10.1001
   19.635    9.5313
   19.650    9.6472
   19.665    9.5945
   19.680    9.7946
   19.695    9.4365
   19.710    8.9521
   19.725    8.2149
   19.740    8.1833
   19.755    8.3518
   19.770    8.0674
   19.785    8.0674
   19.800    8.2570
   19.815    7.8252
   19.830    8.3623
   19.845    8.2570
   19.860    8.0147
   19.875    8.3518
   19.890    8.5835
   19.905    8.0885
   19.920    8.0042
   19.935    8.1411
   19.950    8.0990
   19.965    8.3623
   19.980    8.4676
   19.995    8.7941
   20.010    7.9937
   20.025    8.1306
   20.040    8.5729
   20.055    8.5729
   20.070    8.2886
   20.085    8.3728
   20.100    7.8884
   20.115    8.2991
   20.130    8.1095
   20.145    8.2780
   20.160    8.5835
   20.175    8.5624
   20.190    8.6993
   20.205    8.6783
   20.220    8.6151
   20.235    8.4571
   20.250    8.9837
   20.265    8.9310
   20.280    8.7836
   20.295    9.6261
   20.310    9.3628
   20.325    9.7209
   20.340   10.3528
   20.355   10.9110
   20.370   11.2480
   20.385   11.2480
   20.400   11.4376
   20.415   11.2375
   20.430   11.1532
   20.445   11.2059
   20.460   10.7214
   20.475   10.0263
   20.490    9.3102
   20.505    9.2680
   20.520    8.8889
   20.535    8.7836
   20.550    8.5729
   20.565    8.6467
   20.580    8.4360
   20.595    8.6361
   20.610    8.3096
   20.625    8.4676
   20.640    8.1622
   20.655    8.1833
   20.670    8.1938
   20.685    8.7204
   20.700    8.3412
   20.715    8.1411
   20.730    8.1306
   20.745    7.9305
   20.760    8.2886
   20.775    8.6677
   20.790    8.2675
   20.805    8.3096
   20.820    8.2886
   20.835    8.3096
   20.850    8.3307
   20.865    8.7204
   20.880    8.3202
   20.895    8.5624
   20.910    8.4255
   20.925    8.1727
   20.940    8.2780
   20.955    7.9200
   20.970    7.9516
   20.985    8.0674
   21.000    8.1411
   21.015    8.2359
   21.030    8.2780
   21.045    8.2886
   21.060    8.1833
   21.075    8.4676
   21.090    8.1727
   21.105    8.4781
   21.120    7.9831
   21.135    8.4571
   21.150    8.7204
   21.165    8.3939
   21.180    8.3728
   21.195    8.1622
   21.210    8.4887
   21.225    8.1201
   21.240    8.5308
   21.255    8.6361
   21.270    8.3834
   21.285    8.2464
   21.300    8.3202
   21.315    8.2359
   21.330    8.1517
   21.345    8.2359
   21.360    7.9937
   21.375    8.4044
   21.390    8.1938
   21.405    8.5835
   21.420    8.3518
   21.435    8.3202
   21.450    8.3623
   21.465    8.1306
   21.480    8.2991
   21.495    8.2886
   21.510    8.0674
   21.525    7.8568
   21.540    8.3096
   21.555    8.3939
   21.570    8.1201
   21.585    7.9516
   21.600    8.3412
   21.615    8.9100
   21.630    8.4360
   21.645    8.3307
   21.660    8.2886
   21.675    8.5729
   21.690    8.5835
   21.705    8.3202
   21.720    8.6361
   21.735    8.1938
   21.750    8.4150
   21.765    8.8678
   21.780    8.8362
   21.795    9.1101
   21.810    9.1732
   21.825    9.3839
   21.840    9.4892
   21.855    9.5419
   21.870    9.3734
   21.885    9.9842
   21.900   10.0158
   21.915    9.9631
   21.930    9.8894
   21.945    9.2154
   21.960    9.1101
   21.975    8.7309
   21.990    8.1938
   22.005    8.7204
   22.020    8.1622
   22.035    8.4887
   22.050    8.6256
   22.065    8.6361
   22.080    8.3096
   22.095    8.0674
   22.110    9.1943
   22.125    8.4676
   22.140    8.7309
   22.155    8.8678
   22.170    8.9100
   22.185    9.1311
   22.200    8.8784
   22.215    9.0469
   22.230    9.1101
   22.245    9.1206
   22.260    9.1627
   22.275    9.4576
   22.290    9.2996
   22.305    8.6888
   22.320    8.2254
   22.335    8.7836
   22.350    8.6677
   22.365    8.6467
   22.380    8.6256
   22.395    8.5729
   22.410    9.1311
   22.425    9.0047
   22.440    9.3207
   22.455    9.3628
   22.470    9.5313
   22.485    9.8789
   22.500   10.1211
   22.515   10.8583
   22.530   10.6372
   22.545   11.0269
   22.560   11.3007
   22.575   12.1222
   22.590   12.3328
   22.605   12.3223
   22.620   11.7852
   22.635   11.4271
   22.650   11.1111
   22.665   11.0690
   22.680   10.4265
   22.695    9.8368
   22.710    9.5840
   22.725    9.5945
   22.740    9.4576
   22.755    9.3628
   22.770    9.5629
   22.785    9.1522
   22.800    9.1838
   22.815    9.2891
   22.830    9.9526
   22.845    9.8368
   22.860   10.6793
   22.875   11.1322
   22.890   11.2375
   22.905   12.0379
   22.920   12.2591
   22.935   12.4276
   22.950   12.2801
   22.965   11.8273
   22.980   11.8799
   22.995   11.0690
   23.010   10.7320
   23.025   10.4265
   23.040   10.0158
   23.055    9.0890
   23.070    8.8257
   23.085    9.1311
   23.100    8.9521
   23.115    8.8362
   23.130    8.7730
   23.145    8.7098
   23.160    8.8889
   23.175    8.9626
   23.190    9.1311
   23.205    9.1101
   23.220    9.2786
   23.235    9.6998
   23.250    9.6472
   23.265    9.2786
   23.280    9.5103
   23.295    9.2154
   23.310    8.8362
   23.325    9.0574
   23.340    9.5103
   23.355    9.3418
   23.370    9.4787
   23.385    8.6677
   23.400    8.5835
   23.415    8.6993
   23.430    8.5835
   23.445    8.2675
   23.460    8.1306
   23.475    8.4992
   23.490    8.8257
   23.505    8.7836
   23.520    8.9837
   23.535    9.1101
   23.550    8.6467
   23.565    8.5203
   23.580    8.4992
   23.595    8.6677
   23.610    8.6677
   23.625    8.3623
   23.640    9.0995
   23.655    9.0363
   23.670    8.6993
   23.685    8.5835
   23.700    8.6361
   23.715    8.0569
   23.730    8.8362
   23.745    8.4992
   23.760    8.5097
   23.775    8.9310
   23.790    8.8468
   23.805    8.6256
   23.820    8.8994
   23.835    8.8889
   23.850    8.6151
   23.865    9.2786
   23.880    9.1101
   23.895    9.2996
   23.910    9.1522
   23.925    9.0469
   23.940    9.0469
   23.955    9.2259
   23.970    8.9731
   23.985    9.1732
   24.000    8.9310
   24.015    9.2680
   24.030    8.8889
   24.045    8.4360
   24.060    8.8678
   24.075    8.6572
   24.090    8.4150
   24.105    8.3096
   24.120    7.9305
   24.135    8.1727
   24.150    8.2991
   24.165    8.3518
   24.180    8.3834
   24.195    8.3834
   24.210    7.8673
   24.225    8.0358
   24.240    8.5203
   24.255    8.2570
   24.270    8.5308
   24.285    8.4150
   24.300    8.7730
   24.315    8.8573
   24.330    8.1938
   24.345    8.2149
   24.360    8.2149
   24.375    8.0569
   24.390    8.0674
   24.405    7.6040
   24.420    7.7620
   24.435    7.9831
   24.450    8.2780
   24.465    8.0885
   24.480    8.2570
   24.495    8.4887
   24.510    8.4255
   24.525    8.5519
   24.540    8.8889
   24.555    8.9626
   24.570    8.8257
   24.585    8.5729
   24.600    8.7625
   24.615    8.6361
   24.630    8.5097
   24.645    8.1622
   24.660    8.1938
   24.675    7.8041
   24.690    8.0569
   24.705    8.2149
   24.720    7.9726
   24.735    8.0358
   24.750    8.2886
   24.765    8.2464
   24.780    8.2254
   24.795    8.2570
   24.810    7.9094
   24.825    8.2780
   24.840    8.2886
   24.855    8.1938
   24.870    8.1095
   24.885    8.5413
   24.900    8.2991
   24.915    8.6256
   24.930    8.1938
   24.945    8.3939
   24.960    8.5519
   24.975    8.3728
   24.990    8.3939
   25.005    8.3518
   25.020    7.9937
   25.035    7.9937
   25.050    8.7730
   25.065    8.6572
   25.080    7.9305
   25.095    7.9937
   25.110    7.7620
   25.125    8.0885
   25.140    8.3939
   25.155    8.5940
   25.170    8.0990
   25.185    8.2886
   25.200    8.6256
   25.215    9.2154
   25.230    8.7309
   25.245    8.5308
   25.260    8.2780
   25.275    8.5413
   25.290    8.2464
   25.305    8.4676
   25.320    8.3202
   25.335    7.8462
   25.350    7.8462
   25.365    8.5203
   25.380    8.1517
   25.395    8.3307
   25.410    8.5308
   25.425    8.5519
   25.440    8.5519
   25.455    8.4150
   25.470    8.8784
   25.485    8.7204
   25.500    8.8468
   25.515    9.0890
   25.530    8.8152
   25.545    8.9310
   25.560    8.7730
   25.575    8.5097
   25.590    8.8468
   25.605    8.6256
   25.620    8.2675
   25.635    8.3412
   25.650    8.4571
   25.665    8.3939
   25.680    8.2886
   25.695    8.7414
   25.710    8.8678
   25.725    9.3839
   25.740    9.5419
   25.755    9.5208
   25.770    9.3102
   25.785    9.6261
   25.800    9.4787
   25.815   10.1948
   25.830   10.5003
   25.845   10.7214
   25.860   10.8478
   25.875   10.6477
   25.890   10.4371
   25.905    9.9105
   25.920    9.4365
   25.935    9.7420
   25.950    9.5945
   25.965    8.8784
   25.980    8.8573
   25.995    8.4887
   26.010    8.2675
   26.025    8.2043
   26.040    8.3623
   26.055    7.8357
   26.070    8.1411
   26.085    8.4255
   26.100    8.0885
   26.115    8.3096
   26.130    8.3412
   26.145    8.2991
   26.160    7.9621
   26.175    8.2149
   26.190    8.5729
   26.205    8.1727
   26.220    8.6151
   26.235    8.4781
   26.250    8.1095
   26.265    8.3202
   26.280    7.8989
   26.295    8.2780
   26.310    7.9200
   26.325    8.4255
   26.340    8.3939
   26.355    8.5519
   26.370    8.4781
   26.385    8.5097
   26.400    8.6361
   26.415    8.6361
   26.430    8.9942
   26.445    9.1417
   26.460    8.7836
   26.475    9.1943
   26.490    8.3518
   26.505    8.3202
   26.520    8.5624
   26.535    8.7309
   26.550    8.2886
   26.565    8.0885
   26.580    8.2675
   26.595    8.3834
   26.610    8.1201
   26.625    8.3623
   26.640    8.1306
   26.655    8.3307
   26.670    8.1517
   26.685    7.6145
   26.700    7.5619
   26.715    7.6145
   26.730    8.1833
   26.745    7.7936
   26.760    8.2464
   26.775    8.0358
   26.790    7.8252
   26.805    7.3512
   26.820    8.3834
   26.835    8.1727
   26.850    7.6040
   26.865    7.5197
   26.880    7.9937
   26.895    8.0779
   26.910    8.1517
   26.925    8.1411
   26.940    8.8152
   26.955    8.6572
   26.970    8.3939
   26.985    8.8678
   27.000    8.7941
   27.015    8.6151
   27.030    9.1627
   27.045    9.1838
   27.060    9.6577
   27.075    8.8994
   27.090    9.2154
   27.105    9.0785
   27.120    8.4044
   27.135    8.6467
   27.150    8.5940
   27.165    8.0885
   27.180    8.1306
   27.195    8.2043
   27.210    8.2675
   27.225    7.8252
   27.240    7.8568
   27.255    7.7936
   27.270    7.9094
   27.285    7.4776
   27.300    7.6251
   27.315    7.8778
   27.330    7.6145
   27.345    7.7725
   27.360    8.1411
   27.375    7.9726
   27.390    8.1306
   27.405    7.8884
   27.420    7.5619
   27.435    7.4144
   27.450    8.1622
   27.465    7.9726
   27.480    8.0779
   27.495    8.4992
   27.510    8.0463
   27.525    7.7725
   27.540    7.9305
   27.555    8.4571
   27.570    8.0253
   27.585    8.1095
   27.600    8.4676
   27.615    8.0463
   27.630    8.2991
   27.645    9.0469
   27.660    8.4676
   27.675    8.2886
   27.690    8.2464
   27.705    8.1622
   27.720    8.2780
   27.735    8.0779
   27.750    7.5619
   27.765    7.8146
   27.780    7.7409
   27.795    7.8041
   27.810    8.5203
   27.825    7.9200
   27.840    8.1411
   27.855    7.7725
   27.870    8.0990
   27.885    8.3939
   27.900    8.0253
   27.915    8.3202
   27.930    8.1201
   27.945    8.2570
   27.960    7.8568
   27.975    8.1306
   27.990    8.2464
   28.005    7.8252
   28.020    7.8673
   28.035    7.9410
   28.050    8.1622
   28.065    8.0042
   28.080    7.9621
   28.095    8.1411
   28.110    8.1727
   28.125    8.3834
   28.140    8.4571
   28.155    9.0047
   28.170    8.8362
   28.185    8.6993
   28.200    8.2464
   28.215    8.8994
   28.230    9.1101
   28.245    8.8573
   28.260    8.8362
   28.275    8.7204
   28.290    8.5729
   28.305    8.9731
   28.320    8.5940
   28.335    7.8252
   28.350    7.7620
   28.365    8.3412
   28.380    8.2254
   28.395    7.9094
   28.410    8.1727
   28.425    8.2991
   28.440    8.4255
   28.455    8.3307
   28.470    8.4360
   28.485    8.5413
   28.500    8.3412
   28.515    8.5729
   28.530    8.3834
   28.545    8.3834
   28.560    8.2359
   28.575    8.2991
   28.590    8.0358
   28.605    8.0674
   28.620    8.0990
   28.635    7.8357
   28.650    7.9410
   28.665    7.9410
   28.680    8.0253
   28.695    7.8041
   28.710    8.0990
   28.725    7.6883
   28.740    7.4355
   28.755    7.3407
   28.770    7.5197
   28.785    8.3623
   28.800    8.3307
   28.815    7.8568
   28.830    7.7409
   28.845    8.2043
   28.860    8.1095
   28.875    8.1622
   28.890    8.0147
   28.905    7.9305
   28.920    7.6777
   28.935    7.5092
   28.950    7.8462
   28.965    7.6251
   28.980    7.5513
   28.995    7.7830
   29.010    7.5935
   29.025    7.3302
   29.040    7.6988
   29.055    7.7409
   29.070    7.4250
   29.085    7.8673
   29.100    7.6356
   29.115    7.7830
   29.130    7.5513
   29.145    7.8462
   29.160    7.6356
   29.175    7.6777
   29.190    7.8146
   29.205    7.9305
   29.220    8.1833
   29.235    7.9621
   29.250    7.9937
   29.265    8.1306
   29.280    8.1411
   29.295    8.9415
   29.310    8.2359
   29.325    8.1201
   29.340    8.1517
   29.355    8.4044
   29.370    8.4781
   29.385    8.4887
   29.400    7.9726
   29.415    8.1938
   29.430    7.8884
   29.445    7.9305
   29.460    7.3512
   29.475    7.5935
   29.490    7.8146
   29.505    8.4044
   29.520    8.0147
   29.535    7.6988
   29.550    7.7304
   29.565    7.5408
   29.580    7.2459
   29.595    7.6040
   29.610    7.7620
   29.625    7.6883
   29.640    7.5935
   29.655    7.4250
   29.670    6.9932
   29.685    7.4460
   29.700    7.5513
   29.715    7.5619
   29.730    7.8041
   29.745    7.7936
   29.760    7.7093
   29.775    7.8041
   29.790    7.8252
   29.805    7.7620
   29.820    7.8673
   29.835    7.1722
   29.850    7.7830
   29.865    7.9516
   29.880    7.9726
   29.895    7.5513
   29.910    7.4460
   29.925    7.6672
   29.940    7.8041
   29.955    7.7725
   29.970    7.6040
   29.985    7.2670
   30.000    7.5935
   30.015    7.4671
   30.030    7.8673
   30.045    7.4671
   30.060    7.6988
   30.075    7.7304
   30.090    7.7304
   30.105    8.1201
   30.120    7.6040
   30.135    7.7199
   30.150    7.4671
   30.165    7.7830
   30.180    7.7725
   30.195    7.8462
   30.210    7.3091
   30.225    7.3302
   30.240    7.5513
   30.255    7.5619
   30.270    7.8673
   30.285    7.3618
   30.300    7.2459
   30.315    7.8146
   30.330    7.6777
   30.345    7.6883
   30.360    7.7199
   30.375    7.3196
   30.390    7.2986
   30.405    7.5829
   30.420    6.9089
   30.435    7.3934
   30.450    7.4460
   30.465    7.1406
   30.480    7.6040
   30.495    7.7093
   30.510    7.9200
   30.525    7.2880
   30.540    7.5092
   30.555    7.5408
   30.570    7.6672
   30.585    7.3934
   30.600    7.8041
   30.615    7.6777
   30.630    7.7936
   30.645    7.6461
   30.660    7.6145
   30.675    7.7830
   30.690    7.4987
   30.705    7.5408
   30.720    7.9937
   30.735    7.6672
   30.750    7.9410
   30.765    7.8041
   30.780    7.4250
   30.795    7.5197
   30.810    7.3302
   30.825    7.4776
   30.840    7.4355
   30.855    7.6251
   30.870    7.7093
   30.885    7.5724
   30.900    7.2986
   30.915    7.2143
   30.930    7.5619
   30.945    7.5724
   30.960    7.4882
   30.975    7.1933
   30.990    7.5935
   31.005    7.4671
   31.020    6.9194
   31.035    7.2775
   31.050    7.1933
   31.065    6.9721
   31.080    6.9826
   31.095    7.1722
   31.110    7.4144
   31.125    7.3723
   31.140    7.2459
   31.155    7.3091
   31.170    7.5092
   31.185    6.9721
   31.200    7.0248
   31.215    7.3407
   31.230    6.9300
   31.245    7.1617
   31.260    7.4355
   31.275    7.3407
   31.290    7.3302
   31.305    7.1511
   31.320    7.2670
   31.335    7.3723
   31.350    7.6251
   31.365    7.8041
   31.380    7.7936
   31.395    7.5303
   31.410    7.9831
   31.425    8.0779
   31.440    7.8462
   31.455    7.4250
   31.470    7.4566
   31.485    7.2986
   31.500    7.0879
   31.515    7.3618
   31.530    7.9200
   31.545    7.5829
   31.560    7.4566
   31.575    7.2775
   31.590    7.8357
   31.605    7.6883
   31.620    7.0879
   31.635    7.0458
   31.650    7.5197
   31.665    7.6567
   31.680    7.6988
   31.695    7.5303
   31.710    7.6777
   31.725    7.8146
   31.740    7.8989
   31.755    8.1201
   31.770    7.9200
   31.785    8.4781
   31.800    8.3834
   31.815    8.4044
   31.830    8.7098
   31.845    8.3518
   31.860    8.1095
   31.875    8.0463
   31.890    7.7093
   31.905    7.6251
   31.920    7.4566
   31.935    7.4250
   31.950    7.7514
   31.965    7.7514
   31.980    7.5303
   31.995    7.8778
   32.010    7.7830
   32.025    7.4460
   32.040    7.5724
   32.055    7.2354
   32.070    7.6251
   32.085    7.1406
   32.100    7.2565
   32.115    7.4355
   32.130    7.2670
   32.145    7.1090
   32.160    7.2565
   32.175    7.3828
   32.190    7.5829
   32.205    7.4460
   32.220    7.6672
   32.235    7.5303
   32.250    7.2038
   32.265    7.2565
   32.280    7.4566
   32.295    7.4566
   32.310    6.8457
   32.325    6.8457
   32.340    6.9510
   32.355    7.5513
   32.370    7.6883
   32.385    7.3934
   32.400    7.2038
   32.415    7.2038
   32.430    7.3618
   32.445    6.9300
   32.460    7.0458
   32.475    7.2670
   32.490    7.1301
   32.505    7.0563
   32.520    7.2354
   32.535    7.1933
   32.550    7.1827
   32.565    7.0037
   32.580    7.1933
   32.595    7.0669
   32.610    6.9194
   32.625    6.9194
   32.640    7.3723
   32.655    7.4882
   32.670    7.1827
   32.685    6.8562
   32.700    6.8457
   32.715    6.7930
   32.730    6.6140
   32.745    6.8984
   32.760    7.1933
   32.775    7.2565
   32.790    7.4987
   32.805    7.4776
   32.820    7.2038
   32.835    7.2775
   32.850    7.6883
   32.865    7.6040
   32.880    7.7514
   32.895    7.4355
   32.910    7.2038
   32.925    7.4039
   32.940    7.4039
   32.955    7.3407
   32.970    7.4039
   32.985    7.2775
   33.000    7.1933
   33.015    7.2038
   33.030    7.5513
   33.045    7.7514
   33.060    7.5724
   33.075    6.9089
   33.090    7.0879
   33.105    7.2670
   33.120    6.9300
   33.135    7.2565
   33.150    7.2354
   33.165    7.1511
   33.180    6.8246
   33.195    6.8668
   33.210    6.9721
   33.225    6.9616
   33.240    6.5929
   33.255    7.0248
   33.270    7.0985
   33.285    7.0458
   33.300    7.3091
   33.315    7.3723
   33.330    7.0248
   33.345    6.7404
   33.360    6.7720
   33.375    6.9616
   33.390    7.4671
   33.405    6.9721
   33.420    6.8141
   33.435    6.8773
   33.450    7.0774
   33.465    6.7193
   33.480    6.9616
   33.495    6.6456
   33.510    7.0774
   33.525    7.0774
   33.540    7.2459
   33.555    7.3302
   33.570    7.1617
   33.585    6.7615
   33.600    7.1827
   33.615    7.3302
   33.630    7.2880
   33.645    6.7825
   33.660    7.0037
   33.675    7.4987
   33.690    7.2354
   33.705    7.4882
   33.720    6.8036
   33.735    7.1722
   33.750    7.0037
   33.765    7.3723
   33.780    7.1827
   33.795    7.0774
   33.810    7.5619
   33.825    7.3828
   33.840    7.5513
   33.855    7.7830
   33.870    7.5197
   33.885    7.6883
   33.900    8.0990
   33.915    7.7830
   33.930    7.8989
   33.945    7.5197
   33.960    7.8252
   33.975    7.7093
   33.990    7.5724
   34.005    7.6145
   34.020    7.6672
   34.035    7.1827
   34.050    7.1406
   34.065    7.1722
   34.080    7.3512
   34.095    7.4144
   34.110    7.2986
   34.125    7.2775
   34.140    6.6877
   34.155    6.8352
   34.170    7.2038
   34.185    7.7093
   34.200    7.2249
   34.215    6.9616
   34.230    7.0037
   34.245    6.8141
   34.260    7.0248
   34.275    7.1933
   34.290    7.0037
   34.305    7.0458
   34.320    7.2249
   34.335    6.6772
   34.350    7.0353
   34.365    7.2986
   34.380    7.6988
   34.395    7.3934
   34.410    7.1722
   34.425    7.0142
   34.440    6.7615
   34.455    7.1722
   34.470    7.0458
   34.485    7.2670
   34.500    7.1617
   34.515    7.0037
   34.530    6.7615
   34.545    6.7930
   34.560    7.1195
   34.575    7.2670
   34.590    6.8457
   34.605    7.0879
   34.620    6.7930
   34.635    6.9300
   34.650    6.9300
   34.665    7.0774
   34.680    7.0774
   34.695    6.8562
   34.710    7.2249
   34.725    6.8984
   34.740    7.1195
   34.755    7.1301
   34.770    7.0985
   34.785    7.0563
   34.800    7.2354
   34.815    7.0879
   34.830    6.8457
   34.845    6.9616
   34.860    6.9616
   34.875    7.1301
   34.890    6.8141
   34.905    6.9089
   34.920    7.0248
   34.935    7.1195
   34.950    6.8562
   34.965    7.2775
   34.980    7.2565
   34.995    6.8141
   35.010    7.0985
   35.025    7.3828
   35.040    7.0669
   35.055    6.8352
   35.070    7.1406
   35.085    7.2880
   35.100    6.8773
   35.115    6.6983
   35.130    6.9194
   35.145    6.8141
   35.160    6.6877
   35.175    6.6877
   35.190    7.1301
   35.205    7.2459
   35.220    7.1406
   35.235    7.1406
   35.250    7.0142
   35.265    6.7509
   35.280    6.9826
   35.295    7.0985
   35.310    6.8773
   35.325    6.6035
   35.340    6.8036
   35.355    6.7720
   35.370    7.0248
   35.385    6.8878
   35.400    6.8984
   35.415    6.6561
   35.430    6.6140
   35.445    6.8036
   35.460    6.8457
   35.475    6.9510
   35.490    6.4139
   35.505    6.7509
   35.520    6.7299
   35.535    6.7088
   35.550    6.7404
   35.565    6.7825
   35.580    6.7509
   35.595    6.5298
   35.610    6.7615
   35.625    7.1722
   35.640    6.6245
   35.655    6.7193
   35.670    6.8562
   35.685    6.9089
   35.700    6.7615
   35.715    6.9089
   35.730    7.1406
   35.745    7.4250
   35.760    7.6145
   35.775    7.4882
   35.790    6.8562
   35.805    6.6456
   35.820    6.7193
   35.835    7.0879
   35.850    6.9721
   35.865    7.2880
   35.880    7.1617
   35.895    6.6351
   35.910    6.7615
   35.925    7.0985
   35.940    7.0563
   35.955    6.8773
   35.970    6.8984
   35.985    7.3512
   36.000    7.0563
   36.015    7.0248
   36.030    6.9721
   36.045    6.7720
   36.060    6.7088
   36.075    6.6035
   36.090    6.5508
   36.105    6.7720
   36.120    6.7193
   36.135    6.6877
   36.150    7.0353
   36.165    6.6140
   36.180    6.5087
   36.195    6.9826
   36.210    6.8141
   36.225    6.6140
   36.240    7.0774
   36.255    7.5303
   36.270    7.0248
   36.285    6.7720
   36.300    6.8141
   36.315    7.2986
   36.330    7.0774
   36.345    6.9194
   36.360    6.9721
   36.375    6.8352
   36.390    6.7193
   36.405    6.6983
   36.420    6.9616
   36.435    6.6877
   36.450    7.0248
   36.465    6.7720
   36.480    6.4876
   36.495    6.6983
   36.510    6.8246
   36.525    6.6140
   36.540    6.8878
   36.555    6.9089
   36.570    6.8036
   36.585    6.8246
   36.600    6.8352
   36.615    6.9405
   36.630    6.7720
   36.645    7.0353
   36.660    7.0458
   36.675    6.7930
   36.690    7.1090
   36.705    6.9616
   36.720    6.9826
   36.735    6.9194
   36.750    6.9721
   36.765    7.2880
   36.780    7.0774
   36.795    6.8878
   36.810    7.2143
   36.825    6.7720
   36.840    6.6877
   36.855    6.4139
   36.870    6.5613
   36.885    7.2986
   36.900    7.1090
   36.915    6.4982
   36.930    6.2033
   36.945    7.0458
   36.960    7.1617
   36.975    7.2354
   36.990    6.9510
   37.005    7.1090
   37.020    6.6772
   37.035    7.1090
   37.050    7.3723
   37.065    6.6561
   37.080    6.8352
   37.095    7.1195
   37.110    7.6672
   37.125    7.2670
   37.140    7.1301
   37.155    7.1301
   37.170    7.2459
   37.185    7.2565
   37.200    7.4250
   37.215    7.2038
   37.230    6.9405
   37.245    6.5403
   37.260    6.6140
   37.275    6.9194
   37.290    6.6667
   37.305    6.9721
   37.320    6.9826
   37.335    6.5403
   37.350    6.4350
   37.365    6.4350
   37.380    6.8984
   37.395    7.2565
   37.410    6.9300
   37.425    6.6983
   37.440    6.8668
   37.455    6.7615
   37.470    6.3507
   37.485    6.8668
   37.500    6.7509
   37.515    6.9194
   37.530    7.0037
   37.545    6.5719
   37.560    7.1511
   37.575    6.8457
   37.590    7.0353
   37.605    6.8141
   37.620    6.5613
   37.635    6.4982
   37.650    6.6561
   37.665    6.4982
   37.680    6.9194
   37.695    6.6772
   37.710    6.9089
   37.725    6.7404
   37.740    7.0458
   37.755    6.3718
   37.770    6.2559
   37.785    6.6667
   37.800    6.4876
   37.815    6.8878
   37.830    6.7509
   37.845    7.3302
   37.860    7.2038
   37.875    6.9300
   37.890    6.7720
   37.905    6.6351
   37.920    7.0353
   37.935    6.8141
   37.950    6.7404
   37.965    6.6561
   37.980    6.6667
   37.995    6.2981
   38.010    6.2349
   38.025    6.7825
   38.040    6.8984
   38.055    6.7193
   38.070    6.7509
   38.085    6.8141
   38.100    7.0774
   38.115    6.7825
   38.130    7.0669
   38.145    7.0142
   38.160    7.1722
   38.175    6.7088
   38.190    6.7299
   38.205    6.9721
   38.220    6.8668
   38.235    6.6561
   38.250    6.8562
   38.265    6.5403
   38.280    6.4244
   38.295    6.8352
   38.310    6.4666
   38.325    6.5403
   38.340    6.5508
   38.355    6.8141
   38.370    6.9616
   38.385    6.7299
   38.400    6.4771
   38.415    6.4350
   38.430    6.4139
   38.445    6.5192
   38.460    7.0669
   38.475    6.6035
   38.490    6.6245
   38.505    6.9194
   38.520    6.4350
   38.535    6.6035
   38.550    6.7088
   38.565    6.7509
   38.580    6.7825
   38.595    6.5298
   38.610    6.4982
   38.625    6.5298
   38.640    6.8773
   38.655    6.5298
   38.670    6.5508
   38.685    6.8036
   38.700    6.4666
   38.715    6.2875
   38.730    7.0353
   38.745    6.6245
   38.760    6.6035
   38.775    6.4139
   38.790    6.5192
   38.805    6.5824
   38.820    6.6561
   38.835    6.4560
   38.850    6.5298
   38.865    6.4560
   38.880    6.8562
   38.895    6.8457
   38.910    6.6456
   38.925    6.8141
   38.940    6.2875
   38.955    6.3928
   38.970    6.6140
   38.985    6.3296
   39.000    6.3823
   39.015    6.9616
   39.030    6.9721
   39.045    6.7193
   39.060    6.8036
   39.075    6.4139
   39.090    6.5298
   39.105    6.7930
   39.120    6.4876
   39.135    6.7615
   39.150    6.8141
   39.165    6.6456
   39.180    6.4455
   39.195    6.8246
   39.210    7.2880
   39.225    6.8562
   39.240    7.0774
   39.255    6.6667
   39.270    6.7299
   39.285    6.9405
   39.300    6.7720
   39.315    6.6140
   39.330    6.6351
   39.345    6.7720
   39.360    6.6667
   39.375    6.8457
   39.390    7.1722
   39.405    6.7088
   39.420    6.8036
   39.435    6.8352
   39.450    6.5403
   39.465    6.7088
   39.480    6.6561
   39.495    6.6561
   39.510    6.4982
   39.525    6.5613
   39.540    6.4560
   39.555    6.4244
   39.570    6.1085
   39.585    6.2138
   39.600    6.9089
   39.615    6.2981
   39.630    6.2454
   39.645    6.6877
   39.660    6.6772
   39.675    6.3086
   39.690    6.7509
   39.705    6.6245
   39.720    6.6772
   39.735    6.8246
   39.750    6.8984
   39.765    6.6877
   39.780    6.7404
   39.795    6.7299
   39.810    6.8036
   39.825    7.0248
   39.840    6.9510
   39.855    6.6140
   39.870    6.6772
   39.885    6.6035
   39.900    6.6351
   39.915    6.7720
   39.930    6.6035
   39.945    6.7404
   39.960    6.8246
   39.975    6.6667
   39.990    6.8246
